	301_At_T1_sh_ND_01.c3d	301_At_T1_sh_ND_01.c3d	301_At_T1_sh_ND_01.c3d	301_At_T1_sh_ND_01.c3d	301_At_T1_sh_ND_01.c3d	301_At_T1_sh_ND_01.c3d	301_At_T1_sh_ND_01.c3d	301_At_T1_sh_ND_01.c3d	301_At_T1_sh_ND_02.c3d	301_At_T1_sh_ND_02.c3d	301_At_T1_sh_ND_02.c3d	301_At_T1_sh_ND_02.c3d	301_At_T1_sh_ND_02.c3d	301_At_T1_sh_ND_02.c3d	301_At_T1_sh_ND_02.c3d	301_At_T1_sh_ND_02.c3d	301_At_T1_sh_ND_03.c3d	301_At_T1_sh_ND_03.c3d	301_At_T1_sh_ND_03.c3d	301_At_T1_sh_ND_03.c3d	301_At_T1_sh_ND_03.c3d	301_At_T1_sh_ND_03.c3d	301_At_T1_sh_ND_03.c3d	301_At_T1_sh_ND_03.c3d	301_At_T1_sh_ND_04.c3d	301_At_T1_sh_ND_04.c3d	301_At_T1_sh_ND_04.c3d	301_At_T1_sh_ND_04.c3d	301_At_T1_sh_ND_04.c3d	301_At_T1_sh_ND_04.c3d	301_At_T1_sh_ND_04.c3d	301_At_T1_sh_ND_04.c3d	301_At_T1_sh_ND_05.c3d	301_At_T1_sh_ND_05.c3d	301_At_T1_sh_ND_05.c3d	301_At_T1_sh_ND_05.c3d	301_At_T1_sh_ND_05.c3d	301_At_T1_sh_ND_05.c3d	301_At_T1_sh_ND_05.c3d	301_At_T1_sh_ND_05.c3d	301_At_T1_sh_ND_06.c3d	301_At_T1_sh_ND_06.c3d	301_At_T1_sh_ND_06.c3d	301_At_T1_sh_ND_06.c3d	301_At_T1_sh_ND_06.c3d	301_At_T1_sh_ND_06.c3d	301_At_T1_sh_ND_06.c3d	301_At_T1_sh_ND_06.c3d	301_At_T1_sh_ND_07.c3d	301_At_T1_sh_ND_07.c3d	301_At_T1_sh_ND_07.c3d	301_At_T1_sh_ND_07.c3d	301_At_T1_sh_ND_07.c3d	301_At_T1_sh_ND_07.c3d	301_At_T1_sh_ND_07.c3d	301_At_T1_sh_ND_07.c3d	301_At_T1_sh_ND_08.c3d	301_At_T1_sh_ND_08.c3d	301_At_T1_sh_ND_08.c3d	301_At_T1_sh_ND_08.c3d	301_At_T1_sh_ND_08.c3d	301_At_T1_sh_ND_08.c3d	301_At_T1_sh_ND_08.c3d	301_At_T1_sh_ND_08.c3d	301_At_T1_sh_ND_09.c3d	301_At_T1_sh_ND_09.c3d	301_At_T1_sh_ND_09.c3d	301_At_T1_sh_ND_09.c3d	301_At_T1_sh_ND_09.c3d	301_At_T1_sh_ND_09.c3d	301_At_T1_sh_ND_09.c3d	301_At_T1_sh_ND_09.c3d	301_At_T1_sh_ND_10.c3d	301_At_T1_sh_ND_10.c3d	301_At_T1_sh_ND_10.c3d	301_At_T1_sh_ND_10.c3d	301_At_T1_sh_ND_10.c3d	301_At_T1_sh_ND_10.c3d	301_At_T1_sh_ND_10.c3d	301_At_T1_sh_ND_10.c3d
	Biceps femoris_lat	Semitendinosus_lat	Vastus lateralis_lat	Vastus medialis_lat	Biceps femoris_med	Semitendinosus_med	Vastus lateralis_med	Vastus medialis_med	Biceps femoris_lat	Semitendinosus_lat	Vastus lateralis_lat	Vastus medialis_lat	Biceps femoris_med	Semitendinosus_med	Vastus lateralis_med	Vastus medialis_med	Biceps femoris_lat	Semitendinosus_lat	Vastus lateralis_lat	Vastus medialis_lat	Biceps femoris_med	Semitendinosus_med	Vastus lateralis_med	Vastus medialis_med	Biceps femoris_lat	Semitendinosus_lat	Vastus lateralis_lat	Vastus medialis_lat	Biceps femoris_med	Semitendinosus_med	Vastus lateralis_med	Vastus medialis_med	Biceps femoris_lat	Semitendinosus_lat	Vastus lateralis_lat	Vastus medialis_lat	Biceps femoris_med	Semitendinosus_med	Vastus lateralis_med	Vastus medialis_med	Biceps femoris_lat	Semitendinosus_lat	Vastus lateralis_lat	Vastus medialis_lat	Biceps femoris_med	Semitendinosus_med	Vastus lateralis_med	Vastus medialis_med	Biceps femoris_lat	Semitendinosus_lat	Vastus lateralis_lat	Vastus medialis_lat	Biceps femoris_med	Semitendinosus_med	Vastus lateralis_med	Vastus medialis_med	Biceps femoris_lat	Semitendinosus_lat	Vastus lateralis_lat	Vastus medialis_lat	Biceps femoris_med	Semitendinosus_med	Vastus lateralis_med	Vastus medialis_med	Biceps femoris_lat	Semitendinosus_lat	Vastus lateralis_lat	Vastus medialis_lat	Biceps femoris_med	Semitendinosus_med	Vastus lateralis_med	Vastus medialis_med	Biceps femoris_lat	Semitendinosus_lat	Vastus lateralis_lat	Vastus medialis_lat	Biceps femoris_med	Semitendinosus_med	Vastus lateralis_med	Vastus medialis_med
	P2D	P2D	P2D	P2D	P2D	P2D	P2D	P2D	P2D	P2D	P2D	P2D	P2D	P2D	P2D	P2D	P2D	P2D	P2D	P2D	P2D	P2D	P2D	P2D	P2D	P2D	P2D	P2D	P2D	P2D	P2D	P2D	P2D	P2D	P2D	P2D	P2D	P2D	P2D	P2D	P2D	P2D	P2D	P2D	P2D	P2D	P2D	P2D	P2D	P2D	P2D	P2D	P2D	P2D	P2D	P2D	P2D	P2D	P2D	P2D	P2D	P2D	P2D	P2D	P2D	P2D	P2D	P2D	P2D	P2D	P2D	P2D	P2D	P2D	P2D	P2D	P2D	P2D	P2D	P2D
	EMG_lat	EMG_lat	EMG_lat	EMG_lat	EMG_med	EMG_med	EMG_med	EMG_med	EMG_lat	EMG_lat	EMG_lat	EMG_lat	EMG_med	EMG_med	EMG_med	EMG_med	EMG_lat	EMG_lat	EMG_lat	EMG_lat	EMG_med	EMG_med	EMG_med	EMG_med	EMG_lat	EMG_lat	EMG_lat	EMG_lat	EMG_med	EMG_med	EMG_med	EMG_med	EMG_lat	EMG_lat	EMG_lat	EMG_lat	EMG_med	EMG_med	EMG_med	EMG_med	EMG_lat	EMG_lat	EMG_lat	EMG_lat	EMG_med	EMG_med	EMG_med	EMG_med	EMG_lat	EMG_lat	EMG_lat	EMG_lat	EMG_med	EMG_med	EMG_med	EMG_med	EMG_lat	EMG_lat	EMG_lat	EMG_lat	EMG_med	EMG_med	EMG_med	EMG_med	EMG_lat	EMG_lat	EMG_lat	EMG_lat	EMG_med	EMG_med	EMG_med	EMG_med	EMG_lat	EMG_lat	EMG_lat	EMG_lat	EMG_med	EMG_med	EMG_med	EMG_med
ITEM	Y	Y	Y	Y	Y	Y	Y	Y	Y	Y	Y	Y	Y	Y	Y	Y	Y	Y	Y	Y	Y	Y	Y	Y	Y	Y	Y	Y	Y	Y	Y	Y	Y	Y	Y	Y	Y	Y	Y	Y	Y	Y	Y	Y	Y	Y	Y	Y	Y	Y	Y	Y	Y	Y	Y	Y	Y	Y	Y	Y	Y	Y	Y	Y	Y	Y	Y	Y	Y	Y	Y	Y	Y	Y	Y	Y	Y	Y	Y	Y
1	0.360831	0.399499	0.125943	0.211433	0.449078	0.197983	0.231090	0.288423	0.275435	0.386096	0.217224	0.085960	0.177453	0.526466	0.301851	0.341758	0.098817	0.183303	0.358236	0.450162	0.152229	0.094003	0.228789	0.178556	0.351230	0.532997	0.375535	0.261960	0.094939	0.154427	0.140290	0.108556	0.475156	0.712021	0.248718	0.222921	0.069872	0.279111	0.245131	0.441367	0.140574	0.161532	0.256509	0.256606	0.082823	0.170517	0.110953	0.153698	0.190335	0.656995	0.386160	0.492892	0.070085	0.151850	0.172785	0.196647	0.051525	0.166671	0.291288	0.252575	0.030535	0.103170	0.143836	0.209207	0.060182	0.295276	0.167368	0.316145	0.035737	0.178105	0.145046	0.145682	0.168944	0.284985	0.353171	0.301847	0.102899	0.227683	0.261518	0.231558
2	0.352511	0.381266	0.113684	0.207953	0.442638	0.153110	0.221911	0.263963	0.268216	0.338307	0.228099	0.114613	0.160786	0.558375	0.304226	0.340418	0.111486	0.225502	0.367534	0.450090	0.152729	0.094296	0.266721	0.186999	0.283844	0.517661	0.375425	0.265920	0.089372	0.158644	0.143847	0.103418	0.451343	0.720264	0.250040	0.217831	0.087755	0.301413	0.278444	0.474025	0.141599	0.142999	0.255883	0.266798	0.069788	0.155194	0.086344	0.154310	0.180852	0.644384	0.398471	0.513801	0.058969	0.157938	0.152692	0.229591	0.050241	0.168751	0.284109	0.272023	0.037002	0.136909	0.180448	0.214514	0.060378	0.288506	0.223849	0.325879	0.038343	0.179655	0.243518	0.146664	0.164885	0.290190	0.328091	0.304898	0.100569	0.208955	0.274730	0.228645
3	0.350698	0.380729	0.149393	0.198497	0.404886	0.134963	0.244206	0.255850	0.240264	0.341390	0.278520	0.146479	0.153847	0.560843	0.294450	0.327959	0.116132	0.234382	0.383697	0.478193	0.145407	0.092032	0.270909	0.242480	0.277009	0.479480	0.349369	0.268869	0.083638	0.159262	0.135220	0.102043	0.450266	0.701337	0.280987	0.211480	0.092790	0.301967	0.293714	0.485225	0.136770	0.154539	0.242263	0.283979	0.060048	0.130724	0.084691	0.153853	0.161849	0.682084	0.396510	0.524680	0.055253	0.162539	0.163110	0.254546	0.050219	0.168777	0.272819	0.270561	0.044977	0.169590	0.195813	0.179175	0.063582	0.287611	0.259924	0.372764	0.048669	0.184048	0.301028	0.150506	0.160725	0.304775	0.315350	0.305734	0.096128	0.178861	0.273414	0.222326
4	0.329398	0.376010	0.188033	0.196608	0.394808	0.122386	0.225104	0.249919	0.222160	0.343155	0.331938	0.150256	0.152773	0.519920	0.320742	0.338242	0.115872	0.227979	0.381036	0.507887	0.088538	0.087982	0.291630	0.244558	0.259611	0.369966	0.337167	0.239368	0.081095	0.139216	0.166146	0.109575	0.457544	0.646174	0.322562	0.208936	0.092419	0.205706	0.303260	0.484762	0.133846	0.154719	0.235421	0.287111	0.059108	0.121748	0.076042	0.147770	0.147504	0.697915	0.381746	0.523558	0.056734	0.157189	0.188327	0.271315	0.048306	0.171387	0.272673	0.257282	0.045718	0.175073	0.221771	0.146555	0.156242	0.292630	0.283047	0.379315	0.051761	0.179105	0.311359	0.143084	0.154986	0.305417	0.317412	0.296936	0.095548	0.168351	0.296139	0.222569
5	0.179631	0.375104	0.196461	0.196298	0.389106	0.122673	0.212798	0.239891	0.196917	0.347161	0.335272	0.151947	0.168409	0.550702	0.327614	0.345134	0.114208	0.228802	0.355952	0.478355	0.066581	0.085819	0.295395	0.243619	0.205510	0.330675	0.402603	0.226831	0.081714	0.137417	0.188132	0.129721	0.436643	0.595085	0.353002	0.209444	0.090341	0.177535	0.301932	0.483987	0.135026	0.143089	0.234943	0.280632	0.059515	0.120611	0.115208	0.157176	0.146695	0.701553	0.388984	0.480906	0.059966	0.161920	0.207105	0.287398	0.050308	0.177588	0.278013	0.240471	0.044412	0.197092	0.265681	0.169127	0.230067	0.295678	0.286672	0.382518	0.052088	0.172256	0.314329	0.135432	0.145263	0.295644	0.301826	0.284382	0.097836	0.168229	0.301891	0.225373
6	0.133023	0.374379	0.200852	0.184327	0.358606	0.186574	0.214370	0.233876	0.119974	0.344680	0.337937	0.165529	0.152553	0.589119	0.352270	0.324489	0.115312	0.234445	0.355893	0.458998	0.069475	0.067357	0.284364	0.254528	0.149563	0.327181	0.453348	0.268486	0.091795	0.202386	0.201169	0.167102	0.362191	0.553695	0.393157	0.262502	0.086799	0.176805	0.300126	0.497588	0.137251	0.142056	0.236155	0.271961	0.057497	0.097619	0.183937	0.198231	0.142449	0.697227	0.392477	0.460122	0.062236	0.197379	0.406922	0.305863	0.053025	0.173521	0.286768	0.240413	0.050449	0.199435	0.452266	0.242823	0.262251	0.228918	0.323946	0.384133	0.067066	0.168957	0.313955	0.139005	0.127890	0.274961	0.293911	0.269931	0.088357	0.132591	0.327328	0.236829
7	0.127535	0.356389	0.199588	0.152413	0.291152	0.213380	0.218264	0.229686	0.103733	0.372730	0.363533	0.190356	0.137503	0.551336	0.361961	0.494779	0.118193	0.236083	0.377053	0.488048	0.059598	0.067838	0.289966	0.257080	0.100047	0.288725	0.448241	0.307874	0.099834	0.285300	0.362918	0.190341	0.267825	0.565672	0.400963	0.376245	0.090588	0.181585	0.292761	0.479362	0.136997	0.142717	0.233392	0.284524	0.059389	0.076226	0.243722	0.215661	0.165209	0.714890	0.358240	0.460983	0.062246	0.227952	0.523421	0.323314	0.063342	0.170762	0.282296	0.251315	0.058005	0.220375	0.506544	0.250948	0.274168	0.175127	0.348883	0.394601	0.098981	0.169041	0.358937	0.165807	0.104912	0.244388	0.296042	0.257940	0.078995	0.116392	0.326996	0.255396
8	0.115704	0.320362	0.198441	0.144847	0.210977	0.234129	0.268647	0.269946	0.112492	0.484433	0.400043	0.213156	0.136169	0.542930	0.351736	0.565300	0.118507	0.237466	0.381668	0.499040	0.054739	0.118939	0.331988	0.258892	0.083379	0.224809	0.447774	0.300939	0.085322	0.302026	0.469306	0.200663	0.294528	0.597208	0.400492	0.419972	0.094852	0.187790	0.296210	0.483757	0.133857	0.133631	0.232625	0.280873	0.061653	0.072926	0.259261	0.213174	0.197252	0.799011	0.314602	0.426882	0.064652	0.240665	0.546354	0.320680	0.069119	0.151006	0.270452	0.260277	0.057604	0.227280	0.552390	0.280804	0.316824	0.198632	0.353998	0.391066	0.140662	0.147592	0.421636	0.209495	0.081120	0.206204	0.296702	0.261351	0.077311	0.127065	0.347688	0.274015
9	0.107494	0.284385	0.195711	0.215627	0.180443	0.246972	0.270454	0.293283	0.115013	0.545941	0.419130	0.219691	0.149676	0.527433	0.349888	0.555546	0.119965	0.241939	0.351261	0.471157	0.070643	0.176537	0.345965	0.291807	0.082254	0.175310	0.463848	0.285349	0.081869	0.300669	0.503557	0.224806	0.324211	0.596446	0.402992	0.425383	0.097422	0.193427	0.322556	0.494117	0.124782	0.123839	0.251057	0.279739	0.061672	0.073939	0.259775	0.212632	0.208971	0.844295	0.301494	0.364348	0.065069	0.236920	0.666570	0.324415	0.068470	0.135790	0.256226	0.271957	0.060295	0.234619	0.738892	0.345180	0.422163	0.231085	0.349638	0.366541	0.169687	0.147743	0.436556	0.234836	0.061043	0.168429	0.300381	0.262533	0.071159	0.127271	0.345492	0.274689
10	0.094806	0.223805	0.194521	0.265183	0.157864	0.254632	0.284347	0.283401	0.108810	0.541769	0.421276	0.220269	0.160277	0.482872	0.407095	0.583864	0.109223	0.237278	0.333283	0.450209	0.075216	0.189299	0.359159	0.301590	0.081511	0.162198	0.502101	0.285496	0.081941	0.299824	0.623380	0.290212	0.325159	0.573614	0.411132	0.424974	0.100858	0.198702	0.324417	0.476055	0.108200	0.119108	0.239576	0.299322	0.065195	0.077416	0.276121	0.206686	0.206765	0.837349	0.296424	0.379738	0.057471	0.242568	0.791134	0.355485	0.065971	0.126285	0.266829	0.281531	0.058482	0.240418	0.862483	0.402381	0.462556	0.235763	0.345305	0.355497	0.171670	0.145690	0.430477	0.227216	0.058226	0.165171	0.279385	0.235102	0.071261	0.129022	0.332144	0.274861
11	0.071440	0.152210	0.195876	0.265206	0.122874	0.283904	0.282654	0.282865	0.103726	0.519892	0.409287	0.219582	0.159985	0.501857	0.452822	0.649679	0.079954	0.202239	0.336225	0.474779	0.078042	0.194279	0.540742	0.382518	0.080818	0.172396	0.558289	0.298775	0.088051	0.302747	0.662334	0.301768	0.323752	0.537861	0.416949	0.425827	0.101263	0.200380	0.307832	0.454121	0.097174	0.121885	0.233821	0.307566	0.065739	0.078364	0.367874	0.209721	0.201002	0.784466	0.293266	0.514511	0.081622	0.262397	0.856149	0.401859	0.068860	0.143908	0.264103	0.288665	0.058736	0.231963	0.884586	0.420477	0.467278	0.216809	0.347943	0.362920	0.202772	0.138035	0.432161	0.229058	0.063166	0.153519	0.233476	0.176619	0.066554	0.139047	0.323686	0.269828
12	0.050584	0.136615	0.203684	0.267773	0.129735	0.291869	0.302759	0.290136	0.104000	0.505089	0.401114	0.220382	0.178326	0.500704	0.428856	0.673858	0.062896	0.159653	0.337152	0.534895	0.079585	0.199148	0.614846	0.432468	0.080887	0.166105	0.580969	0.333707	0.090542	0.307312	0.671236	0.303465	0.319116	0.488589	0.455267	0.450465	0.093620	0.172544	0.275676	0.437898	0.067402	0.114585	0.289734	0.306479	0.064942	0.079725	0.437325	0.237032	0.196721	0.755179	0.264541	0.547450	0.082816	0.291478	0.866697	0.418753	0.070124	0.144392	0.206758	0.285692	0.067595	0.229481	0.882013	0.414340	0.469042	0.213989	0.323343	0.362185	0.242304	0.135584	0.434507	0.235159	0.077686	0.141095	0.166687	0.153942	0.060883	0.152173	0.314150	0.228108
13	0.048183	0.133193	0.208313	0.305937	0.174728	0.315116	0.306793	0.321302	0.104995	0.509350	0.403880	0.221082	0.189964	0.469652	0.424902	0.666967	0.060857	0.145589	0.333204	0.549959	0.079841	0.207897	0.616426	0.424610	0.083011	0.160023	0.571707	0.371634	0.090000	0.307693	0.667249	0.290988	0.307768	0.398628	0.496186	0.490727	0.074743	0.117106	0.241130	0.417466	0.057795	0.111676	0.306981	0.330797	0.054977	0.061963	0.488676	0.284174	0.198105	0.774828	0.228622	0.538401	0.086406	0.291928	0.865364	0.404017	0.070289	0.147644	0.192690	0.245011	0.076697	0.240887	0.875420	0.414164	0.469920	0.213636	0.307633	0.322493	0.271515	0.142599	0.400868	0.234122	0.085904	0.125995	0.180266	0.143032	0.060813	0.151044	0.306718	0.193760
14	0.048179	0.125274	0.231022	0.336517	0.191971	0.290784	0.363149	0.341495	0.100354	0.516768	0.403212	0.216188	0.167989	0.303327	0.416291	0.662813	0.061056	0.144702	0.324095	0.535293	0.094955	0.208456	0.606783	0.423459	0.095883	0.165873	0.563211	0.391024	0.070316	0.250502	0.663380	0.268836	0.292669	0.359915	0.512076	0.524330	0.069822	0.104537	0.262121	0.412827	0.059853	0.094090	0.314532	0.380610	0.053906	0.057779	0.508341	0.312018	0.229458	0.756989	0.206815	0.571862	0.087318	0.289273	0.860780	0.389678	0.075222	0.167002	0.212333	0.234035	0.076612	0.220561	0.868386	0.417435	0.460352	0.238880	0.289793	0.312447	0.275948	0.136797	0.340534	0.228728	0.080713	0.078061	0.187395	0.144631	0.061103	0.151367	0.297614	0.193223
15	0.061557	0.141568	0.218104	0.343354	0.192919	0.258183	0.397825	0.351710	0.099053	0.540703	0.382400	0.221396	0.157591	0.265323	0.404407	0.636008	0.059979	0.139028	0.295525	0.527829	0.097429	0.209678	0.605020	0.416248	0.106057	0.166463	0.582557	0.391334	0.070109	0.167378	0.588687	0.246261	0.278030	0.345892	0.501118	0.540318	0.070485	0.105889	0.275812	0.416405	0.058930	0.126623	0.318201	0.416736	0.051313	0.060851	0.510460	0.326858	0.256206	0.737534	0.203246	0.634136	0.085924	0.288449	0.861161	0.376298	0.077757	0.172697	0.213697	0.292385	0.074903	0.218523	0.819654	0.393160	0.434122	0.330895	0.283451	0.334178	0.275597	0.131938	0.334302	0.221960	0.095636	0.053798	0.178737	0.141408	0.089170	0.177320	0.277066	0.190268
16	0.083677	0.156838	0.218643	0.349399	0.207758	0.264268	0.374842	0.339827	0.100192	0.559576	0.362111	0.231035	0.158038	0.246028	0.425478	0.480350	0.057440	0.125553	0.270620	0.500505	0.097730	0.209987	0.602675	0.412361	0.105700	0.176448	0.615221	0.396092	0.083807	0.226769	0.515538	0.250768	0.263185	0.345564	0.474358	0.542632	0.067453	0.104725	0.285330	0.406367	0.048538	0.139705	0.332411	0.420198	0.050990	0.061311	0.514287	0.329352	0.256281	0.734185	0.198115	0.684660	0.083002	0.266339	0.821466	0.369292	0.078991	0.170702	0.209671	0.338246	0.068293	0.200838	0.787396	0.448350	0.417378	0.474681	0.260498	0.340102	0.275358	0.125889	0.329438	0.224618	0.110593	0.070430	0.191236	0.182575	0.134488	0.277788	0.267737	0.177246
17	0.094736	0.160078	0.217519	0.356317	0.215308	0.234261	0.338755	0.276230	0.101168	0.564943	0.373439	0.239859	0.156122	0.245660	0.410857	0.437088	0.052185	0.117810	0.237965	0.477646	0.108637	0.213872	0.589077	0.400388	0.163723	0.184510	0.594015	0.440888	0.084755	0.265608	0.484811	0.245424	0.246445	0.346772	0.456137	0.539815	0.063996	0.103921	0.329401	0.363111	0.044942	0.143978	0.335339	0.417126	0.050828	0.062573	0.510117	0.320500	0.257199	0.754241	0.171405	0.710567	0.083150	0.234218	0.725635	0.376078	0.079305	0.164869	0.202008	0.353726	0.067917	0.187435	0.775283	0.481721	0.409896	0.560380	0.211835	0.343697	0.273189	0.119872	0.333913	0.234106	0.110675	0.100894	0.207364	0.225031	0.164051	0.316880	0.254492	0.153930
18	0.101291	0.162201	0.212752	0.356369	0.239985	0.232786	0.345709	0.282034	0.101911	0.568934	0.378420	0.233057	0.139381	0.252381	0.407426	0.415999	0.055506	0.119200	0.206105	0.483470	0.189067	0.303893	0.573522	0.379371	0.247851	0.198835	0.552305	0.453776	0.082666	0.265348	0.333932	0.166923	0.234707	0.336444	0.420594	0.523827	0.055689	0.093594	0.351084	0.309170	0.045607	0.145846	0.332074	0.417408	0.052669	0.062359	0.489470	0.297579	0.258824	0.779137	0.166531	0.713640	0.080656	0.230085	0.719518	0.394120	0.082693	0.172653	0.180096	0.352025	0.067360	0.171809	0.629582	0.445722	0.400165	0.560323	0.267580	0.395378	0.264771	0.120876	0.305470	0.225718	0.112131	0.127306	0.213420	0.229079	0.168393	0.320833	0.254771	0.129863
19	0.110956	0.155747	0.222024	0.355736	0.235086	0.198717	0.454544	0.316579	0.101937	0.537989	0.351424	0.214163	0.125662	0.247873	0.413430	0.323732	0.057894	0.113992	0.199353	0.496877	0.267749	0.405256	0.573541	0.366348	0.271237	0.239668	0.551904	0.428128	0.075394	0.262415	0.253454	0.142689	0.234205	0.283190	0.399550	0.462663	0.049623	0.081809	0.332568	0.257502	0.046409	0.142851	0.316486	0.430912	0.048704	0.058151	0.464628	0.287266	0.247650	0.743667	0.167233	0.712273	0.079876	0.233299	0.633276	0.382737	0.085084	0.200439	0.191892	0.342298	0.067457	0.153869	0.402293	0.418615	0.275204	0.544729	0.297341	0.424068	0.246696	0.122652	0.210184	0.189719	0.113371	0.143423	0.216840	0.216996	0.174204	0.339421	0.194357	0.125431
20	0.114336	0.149888	0.237816	0.335543	0.231062	0.203283	0.478927	0.316226	0.094562	0.441369	0.317266	0.191063	0.125650	0.176372	0.433496	0.263730	0.063638	0.120167	0.188108	0.476095	0.319761	0.426579	0.546520	0.344205	0.277659	0.278680	0.545972	0.414820	0.070380	0.265867	0.224732	0.133989	0.198913	0.189613	0.405094	0.395999	0.039808	0.066114	0.312832	0.247276	0.044604	0.135184	0.299460	0.407862	0.045455	0.057657	0.460920	0.285907	0.241683	0.687318	0.155087	0.715737	0.080331	0.243714	0.457995	0.345781	0.080314	0.226155	0.198431	0.327881	0.071724	0.191081	0.311024	0.409260	0.206928	0.543840	0.297981	0.421385	0.224750	0.112011	0.149619	0.147236	0.113160	0.146516	0.211284	0.246691	0.200930	0.341334	0.178242	0.127182
21	0.149604	0.163004	0.246293	0.289908	0.200138	0.197016	0.483342	0.270423	0.086597	0.349438	0.288399	0.180256	0.116306	0.215147	0.430280	0.302813	0.065281	0.117045	0.178564	0.423977	0.353475	0.425556	0.430094	0.256799	0.279529	0.293777	0.519675	0.424438	0.072488	0.293829	0.289226	0.152005	0.124262	0.114107	0.411620	0.380810	0.028606	0.051526	0.311383	0.242371	0.043277	0.129759	0.301823	0.383251	0.046962	0.056143	0.463019	0.292759	0.241936	0.681102	0.142748	0.718310	0.099215	0.253251	0.274437	0.285653	0.087326	0.228394	0.198218	0.317613	0.073133	0.239202	0.320174	0.412931	0.195982	0.577472	0.310461	0.424277	0.222072	0.119284	0.148312	0.140942	0.113016	0.146951	0.247627	0.294434	0.263770	0.343907	0.179432	0.125149
22	0.162018	0.171589	0.254387	0.263823	0.174043	0.199395	0.495635	0.238919	0.084757	0.345664	0.287833	0.180318	0.103596	0.228481	0.422385	0.304506	0.063506	0.109595	0.179417	0.341458	0.394223	0.476236	0.414310	0.205190	0.282016	0.297611	0.478992	0.437911	0.073004	0.309084	0.295013	0.154312	0.212018	0.108272	0.401080	0.380156	0.028923	0.051980	0.312144	0.200490	0.043981	0.142855	0.271201	0.386234	0.046735	0.067015	0.468609	0.307499	0.231348	0.634025	0.146814	0.639519	0.106385	0.218229	0.230050	0.232806	0.101204	0.251382	0.190573	0.319728	0.061311	0.224688	0.325699	0.414114	0.208102	0.707371	0.323572	0.445379	0.209839	0.164508	0.141568	0.135581	0.109977	0.162121	0.265961	0.323919	0.322632	0.338270	0.183369	0.125233
23	0.166592	0.179627	0.266376	0.261910	0.168292	0.199265	0.488945	0.223299	0.082519	0.346687	0.293148	0.183300	0.101134	0.228957	0.422925	0.305047	0.058707	0.111851	0.206754	0.281840	0.518972	0.528827	0.415763	0.205268	0.295478	0.330534	0.410163	0.430280	0.059150	0.299397	0.319771	0.155833	0.296555	0.156105	0.381440	0.383387	0.035309	0.157788	0.312169	0.140699	0.048297	0.249438	0.210547	0.375372	0.052726	0.108673	0.418144	0.313269	0.232765	0.554470	0.162632	0.626228	0.108321	0.206645	0.267053	0.214487	0.106691	0.314555	0.194056	0.329860	0.067030	0.259710	0.321454	0.417105	0.211462	0.791503	0.315852	0.440996	0.162685	0.173163	0.138185	0.120146	0.099457	0.190839	0.267381	0.328345	0.328563	0.358583	0.183118	0.132966
24	0.169364	0.182043	0.257562	0.236478	0.134808	0.183310	0.482811	0.214283	0.075112	0.346867	0.298277	0.239912	0.104884	0.261700	0.419390	0.319506	0.057836	0.112041	0.268138	0.285161	0.558300	0.550842	0.436877	0.204912	0.300240	0.386958	0.373867	0.412841	0.043674	0.233617	0.331388	0.141319	0.364716	0.193118	0.347716	0.358699	0.046751	0.240730	0.310967	0.105081	0.048825	0.323552	0.199498	0.325864	0.059487	0.191325	0.350264	0.283404	0.244821	0.519677	0.194397	0.644217	0.124564	0.235984	0.275320	0.213801	0.109130	0.463117	0.200986	0.344477	0.066992	0.272229	0.300123	0.407226	0.208151	0.791636	0.307225	0.409539	0.107358	0.172164	0.140404	0.116631	0.090293	0.203466	0.251709	0.334757	0.329543	0.394011	0.194585	0.143252
25	0.169607	0.182144	0.254017	0.170062	0.134676	0.188353	0.485125	0.215702	0.073311	0.340216	0.300440	0.264455	0.113012	0.349603	0.386785	0.322976	0.058933	0.115864	0.276851	0.287924	0.562325	0.556440	0.462294	0.210052	0.298499	0.423213	0.379055	0.381335	0.040968	0.188669	0.334528	0.110564	0.413335	0.200455	0.301479	0.303849	0.047378	0.250821	0.273937	0.098479	0.049644	0.325335	0.186497	0.249903	0.068003	0.322834	0.284046	0.238642	0.236950	0.491796	0.204566	0.612831	0.129091	0.270841	0.265001	0.214178	0.117778	0.666284	0.192188	0.357179	0.066987	0.271840	0.227869	0.354512	0.193053	0.773085	0.310646	0.389942	0.084182	0.213459	0.135645	0.115908	0.092283	0.219789	0.263078	0.357635	0.327041	0.409665	0.253028	0.142428
26	0.168394	0.177865	0.219182	0.136818	0.084383	0.274427	0.485349	0.208301	0.073826	0.306178	0.312031	0.265096	0.113612	0.354189	0.406126	0.342520	0.058922	0.129929	0.282433	0.298360	0.562319	0.556620	0.474186	0.226071	0.294469	0.451228	0.377901	0.356640	0.042714	0.195929	0.317807	0.105373	0.426770	0.201681	0.271934	0.283841	0.050201	0.253752	0.266544	0.083731	0.051921	0.315444	0.183910	0.199642	0.068317	0.385726	0.268954	0.218937	0.211284	0.487428	0.204442	0.560569	0.129715	0.278872	0.248328	0.207864	0.115867	0.734449	0.165374	0.354256	0.067584	0.272954	0.233064	0.262893	0.176390	0.705007	0.318715	0.394529	0.082746	0.249271	0.139841	0.114605	0.077527	0.262768	0.329857	0.375370	0.313447	0.371277	0.308330	0.151447
27	0.159379	0.195660	0.194915	0.141797	0.069102	0.349657	0.410388	0.151534	0.068993	0.236030	0.316826	0.294854	0.114442	0.352674	0.423212	0.403521	0.058581	0.132039	0.305704	0.321306	0.553977	0.542621	0.475416	0.232589	0.291102	0.474348	0.374665	0.351576	0.043391	0.196980	0.312569	0.113974	0.486914	0.202028	0.260635	0.284567	0.054959	0.262136	0.245911	0.081443	0.050180	0.314224	0.254963	0.217240	0.076204	0.388557	0.283646	0.218276	0.208296	0.490202	0.217152	0.543625	0.133856	0.274786	0.237130	0.169654	0.115823	0.737370	0.185671	0.311366	0.067358	0.274235	0.238729	0.253839	0.166590	0.630145	0.311853	0.391379	0.121086	0.268419	0.147960	0.113449	0.065126	0.309929	0.372181	0.385614	0.295111	0.311095	0.294722	0.165040
28	0.154714	0.265844	0.187080	0.117188	0.071081	0.345976	0.314749	0.107188	0.065583	0.182640	0.292078	0.371203	0.115522	0.351786	0.328734	0.447337	0.055946	0.133176	0.364516	0.306654	0.525585	0.456291	0.472921	0.235450	0.296708	0.517012	0.382056	0.344942	0.043691	0.189031	0.308967	0.123707	0.526093	0.255440	0.261908	0.281920	0.054245	0.266887	0.200673	0.065930	0.051527	0.331174	0.301512	0.423563	0.093253	0.434384	0.277340	0.229647	0.207964	0.472713	0.263174	0.554145	0.139464	0.259032	0.222893	0.100460	0.119262	0.765959	0.255443	0.294628	0.066148	0.275249	0.241153	0.220438	0.166210	0.629934	0.312067	0.327554	0.126065	0.269055	0.150422	0.090835	0.071005	0.330846	0.368807	0.381819	0.288790	0.305321	0.284238	0.153499
29	0.148878	0.288593	0.184858	0.102313	0.089272	0.331630	0.312987	0.109882	0.067017	0.201612	0.278525	0.446826	0.105344	0.356463	0.282829	0.396748	0.073247	0.182142	0.384234	0.279553	0.488666	0.384169	0.455334	0.235201	0.310761	0.568420	0.360435	0.288807	0.037221	0.142126	0.242609	0.101050	0.534479	0.293375	0.238243	0.283074	0.054338	0.273401	0.154957	0.101795	0.058008	0.378029	0.308672	0.526047	0.100298	0.485820	0.268665	0.229622	0.197307	0.414377	0.268406	0.569356	0.139489	0.255347	0.225892	0.082832	0.130181	0.809634	0.266954	0.343428	0.064620	0.259576	0.213387	0.155451	0.165764	0.632406	0.292577	0.270681	0.125892	0.265958	0.141886	0.080000	0.069166	0.334706	0.367904	0.379213	0.285455	0.285798	0.282985	0.159758
30	0.144511	0.302371	0.183235	0.107327	0.102967	0.321660	0.255781	0.098223	0.075403	0.305674	0.281161	0.494316	0.078510	0.338993	0.285388	0.364569	0.082709	0.245058	0.387862	0.318604	0.459386	0.376770	0.373067	0.224936	0.296201	0.567295	0.364317	0.231644	0.035211	0.104616	0.253152	0.126835	0.568923	0.305886	0.223683	0.293454	0.053101	0.274277	0.136262	0.149935	0.055781	0.382467	0.312097	0.528696	0.099678	0.492371	0.299383	0.224990	0.187904	0.344436	0.300980	0.575055	0.140699	0.249450	0.277098	0.088652	0.130042	0.827068	0.268638	0.377021	0.047238	0.201084	0.176570	0.118374	0.146652	0.628607	0.311309	0.273492	0.126205	0.264840	0.176996	0.115712	0.070967	0.330947	0.397536	0.379327	0.281640	0.270433	0.293706	0.165326
31	0.139793	0.315518	0.192149	0.114638	0.105754	0.322802	0.163219	0.086491	0.072446	0.360339	0.274772	0.506635	0.075323	0.338437	0.290110	0.365199	0.081084	0.245648	0.389055	0.373589	0.442578	0.357136	0.281056	0.199170	0.301068	0.618799	0.380057	0.228211	0.037265	0.104189	0.256952	0.142357	0.596336	0.392407	0.222802	0.304180	0.053133	0.274410	0.131631	0.161617	0.058300	0.384987	0.335236	0.550878	0.099712	0.494134	0.325808	0.250538	0.181131	0.282762	0.438954	0.577661	0.131690	0.217589	0.293955	0.092388	0.149143	0.901373	0.256473	0.380613	0.042662	0.184260	0.161561	0.121249	0.133886	0.617057	0.352415	0.289043	0.125946	0.264710	0.191502	0.165996	0.072605	0.331725	0.404480	0.362181	0.247481	0.265707	0.298955	0.169379
32	0.123750	0.312475	0.174568	0.111608	0.104883	0.320474	0.146939	0.088193	0.068289	0.366444	0.281427	0.506559	0.075433	0.332563	0.292877	0.362639	0.087104	0.288436	0.403306	0.376964	0.371149	0.267360	0.250556	0.166379	0.318204	0.659364	0.380314	0.228216	0.046796	0.102946	0.241704	0.140630	0.625267	0.431696	0.214139	0.302116	0.059570	0.285834	0.126827	0.162404	0.068987	0.388845	0.398630	0.621510	0.099532	0.501333	0.330095	0.277355	0.179490	0.279498	0.516802	0.595834	0.113007	0.209866	0.283117	0.099051	0.174632	0.995323	0.253224	0.386945	0.028341	0.141443	0.171881	0.100953	0.095427	0.480154	0.362070	0.290779	0.126483	0.265603	0.194624	0.226497	0.072877	0.333076	0.393368	0.332622	0.131330	0.259111	0.301553	0.183852
33	0.082853	0.305675	0.182819	0.111282	0.104787	0.319059	0.146829	0.084769	0.069960	0.398411	0.312185	0.512294	0.061227	0.280341	0.299043	0.350250	0.087890	0.306791	0.401182	0.405104	0.137147	0.144460	0.245930	0.160594	0.327317	0.668948	0.385172	0.198463	0.061188	0.113428	0.221561	0.164298	0.629528	0.435222	0.206810	0.302538	0.074051	0.309484	0.127368	0.169296	0.069804	0.375023	0.440288	0.695912	0.099236	0.517757	0.323921	0.275563	0.179396	0.236421	0.524720	0.630218	0.111176	0.209888	0.244202	0.164500	0.176531	1.030088	0.302575	0.411269	0.028010	0.098582	0.169333	0.078978	0.076927	0.284814	0.372493	0.296964	0.122521	0.245084	0.197218	0.242490	0.078665	0.337905	0.415315	0.367014	0.061637	0.250472	0.314303	0.195698
34	0.073085	0.335889	0.183992	0.121761	0.096203	0.275739	0.131102	0.089264	0.074743	0.424045	0.338189	0.536382	0.053363	0.188119	0.322545	0.364220	0.088003	0.306448	0.358295	0.442496	0.086107	0.120063	0.209794	0.176516	0.387509	0.691193	0.376947	0.163736	0.063146	0.096601	0.298920	0.199420	0.612035	0.434154	0.204875	0.302213	0.071196	0.259949	0.132517	0.183310	0.068923	0.301387	0.445982	0.743800	0.101359	0.528057	0.283024	0.259061	0.180397	0.244453	0.520328	0.651742	0.098425	0.196985	0.228665	0.188079	0.177725	1.027475	0.361686	0.439015	0.025768	0.094894	0.150189	0.105677	0.083754	0.291379	0.377338	0.307677	0.119116	0.233642	0.197329	0.262702	0.082197	0.325970	0.447110	0.458492	0.059432	0.196552	0.335409	0.190724
35	0.072853	0.424437	0.202738	0.131506	0.092320	0.143205	0.142447	0.139941	0.078132	0.433298	0.350113	0.558210	0.045899	0.183621	0.282127	0.363673	0.091720	0.304707	0.348960	0.476684	0.079303	0.127191	0.188888	0.182444	0.442331	0.689085	0.374835	0.158291	0.066845	0.083451	0.314704	0.202004	0.578098	0.433516	0.204983	0.311269	0.066950	0.207183	0.133299	0.192730	0.066884	0.249064	0.443337	0.754839	0.098397	0.523907	0.286767	0.252478	0.169294	0.265287	0.532450	0.630952	0.093163	0.134060	0.231298	0.191437	0.194603	1.011943	0.378994	0.453141	0.025372	0.092426	0.131129	0.146207	0.081419	0.310740	0.374600	0.295471	0.126926	0.240346	0.217328	0.318245	0.085466	0.318179	0.481167	0.526885	0.061192	0.138653	0.327406	0.189750
36	0.073299	0.442784	0.214318	0.135935	0.093798	0.120365	0.165039	0.148128	0.078790	0.436642	0.352360	0.561989	0.047588	0.205294	0.220447	0.299064	0.097203	0.299107	0.344726	0.482341	0.079566	0.130249	0.367539	0.193704	0.492921	0.661797	0.363788	0.151164	0.086476	0.072341	0.387654	0.242793	0.536472	0.464798	0.207755	0.320729	0.069078	0.203067	0.162428	0.196361	0.066439	0.244762	0.441226	0.753992	0.092994	0.491113	0.323471	0.266226	0.154180	0.269822	0.580547	0.644202	0.109133	0.109628	0.237239	0.205329	0.207908	0.964064	0.377347	0.447724	0.025276	0.090107	0.117585	0.193753	0.080057	0.319643	0.371965	0.301145	0.144213	0.220392	0.241274	0.358975	0.087410	0.310437	0.475191	0.546969	0.061620	0.111987	0.274792	0.194829
37	0.078295	0.446133	0.213114	0.136028	0.078766	0.108572	0.186955	0.151167	0.077909	0.438825	0.370294	0.590096	0.041073	0.190623	0.221108	0.251835	0.099582	0.298490	0.326227	0.457007	0.074559	0.129540	0.493170	0.329960	0.513473	0.639073	0.352579	0.149565	0.087323	0.073965	0.427046	0.313150	0.496269	0.487012	0.218957	0.337016	0.063955	0.194093	0.176497	0.240505	0.066328	0.242425	0.442306	0.754463	0.089971	0.412824	0.336833	0.276063	0.124654	0.243737	0.644040	0.685888	0.128801	0.105239	0.273791	0.206653	0.211781	0.854196	0.377678	0.437499	0.023950	0.113811	0.139818	0.213960	0.078540	0.316795	0.376543	0.422215	0.170189	0.188316	0.244690	0.366878	0.089850	0.280362	0.432961	0.542296	0.060229	0.119438	0.299580	0.184695
38	0.078020	0.445993	0.218973	0.156426	0.052813	0.099150	0.216578	0.151163	0.077926	0.439894	0.358444	0.614867	0.036965	0.174428	0.220267	0.262608	0.099553	0.295652	0.260565	0.463121	0.072018	0.141011	0.501034	0.356494	0.517601	0.619548	0.352811	0.170310	0.097970	0.077898	0.435820	0.316882	0.478990	0.486773	0.253306	0.325072	0.062544	0.186846	0.208539	0.269522	0.067055	0.239606	0.368794	0.738990	0.091497	0.375813	0.329886	0.272443	0.125050	0.239037	0.675508	0.708741	0.142785	0.106345	0.290413	0.206900	0.216044	0.807101	0.379091	0.434224	0.021492	0.155067	0.141588	0.216342	0.089372	0.312044	0.362229	0.531657	0.165433	0.159099	0.238749	0.366439	0.083964	0.222812	0.400426	0.589491	0.057564	0.129321	0.296491	0.175569
39	0.074051	0.413680	0.229346	0.169503	0.045043	0.094408	0.221977	0.148956	0.078197	0.438750	0.351191	0.602123	0.046418	0.186802	0.216302	0.267236	0.084446	0.266472	0.224138	0.534219	0.072219	0.150105	0.557399	0.360062	0.517884	0.601948	0.333502	0.169318	0.133989	0.080245	0.425089	0.311669	0.469027	0.490021	0.270528	0.273840	0.067571	0.181126	0.218695	0.270839	0.064979	0.190514	0.372423	0.639283	0.082346	0.371312	0.316988	0.259142	0.131976	0.268012	0.685533	0.706536	0.153049	0.099980	0.302776	0.218543	0.216985	0.814204	0.382942	0.438576	0.022731	0.147491	0.179698	0.245450	0.106774	0.326899	0.331410	0.611979	0.158987	0.152230	0.233400	0.367022	0.082001	0.176853	0.396877	0.645898	0.056322	0.130699	0.298706	0.167599
40	0.067546	0.378364	0.232385	0.179271	0.061342	0.154146	0.232516	0.151719	0.078320	0.437414	0.343867	0.554224	0.047463	0.185449	0.213015	0.268520	0.072019	0.203116	0.322956	0.565049	0.074392	0.154875	0.659863	0.397998	0.515467	0.570451	0.297329	0.203866	0.130760	0.100800	0.422104	0.310941	0.386023	0.477898	0.268062	0.251722	0.068786	0.175876	0.228288	0.267758	0.060437	0.104994	0.393942	0.645546	0.061950	0.299057	0.329900	0.250501	0.139952	0.354453	0.687434	0.700362	0.158051	0.103219	0.286935	0.225240	0.215089	0.792374	0.367622	0.437375	0.023122	0.165209	0.190286	0.289943	0.124836	0.360465	0.331336	0.643669	0.171077	0.151640	0.236120	0.366136	0.088508	0.157048	0.396950	0.676774	0.052502	0.133787	0.305281	0.141224
41	0.069612	0.374828	0.253746	0.182073	0.120266	0.188714	0.325418	0.190016	0.076179	0.421955	0.364882	0.492984	0.047869	0.187384	0.204005	0.278439	0.077055	0.198697	0.548904	0.628207	0.076246	0.161498	0.718374	0.438536	0.495545	0.509695	0.333631	0.278221	0.185557	0.152896	0.427557	0.300891	0.376443	0.445678	0.289010	0.273180	0.070418	0.202372	0.235127	0.297143	0.062026	0.136718	0.403058	0.674283	0.054027	0.228749	0.353931	0.255198	0.132076	0.373876	0.677402	0.698300	0.184801	0.110694	0.263087	0.221726	0.209494	0.749350	0.388517	0.402229	0.033149	0.166374	0.184115	0.299234	0.138669	0.399955	0.289037	0.637379	0.213044	0.150970	0.347639	0.366225	0.094300	0.167881	0.405119	0.688991	0.048110	0.132782	0.296508	0.140841
42	0.083768	0.409685	0.261550	0.205786	0.121988	0.197335	0.410618	0.223014	0.061976	0.349005	0.388356	0.458385	0.048928	0.189759	0.179457	0.314515	0.081574	0.134766	0.583236	0.673058	0.087908	0.178794	0.719067	0.443623	0.470932	0.514874	0.336387	0.341286	0.335469	0.221230	0.381820	0.284427	0.338387	0.440846	0.333417	0.326645	0.086416	0.238721	0.236063	0.338614	0.061211	0.145051	0.380201	0.647423	0.053508	0.221942	0.334904	0.261237	0.122561	0.390983	0.631497	0.699452	0.186787	0.102081	0.292392	0.223925	0.211184	0.736899	0.416804	0.389597	0.037423	0.164517	0.179005	0.312626	0.136653	0.403244	0.247573	0.665193	0.244780	0.154948	0.437625	0.373689	0.097553	0.175429	0.409249	0.693215	0.046153	0.132756	0.295868	0.130743
43	0.115596	0.513729	0.260573	0.258549	0.125574	0.208441	0.422193	0.200179	0.047269	0.269958	0.398636	0.473921	0.054323	0.192583	0.188489	0.334046	0.089233	0.094628	0.587641	0.655944	0.090725	0.198946	0.715536	0.441769	0.457693	0.447342	0.316167	0.370059	0.489802	0.254908	0.367339	0.282170	0.286808	0.401724	0.358461	0.383859	0.090801	0.222076	0.294575	0.347290	0.058494	0.141548	0.315757	0.577769	0.053220	0.217694	0.319903	0.238477	0.118694	0.422265	0.595874	0.713161	0.186439	0.093351	0.351584	0.210711	0.197266	0.644239	0.439437	0.452270	0.038124	0.167844	0.196966	0.331922	0.136207	0.398381	0.245447	0.732856	0.244346	0.152299	0.443274	0.359984	0.098054	0.174248	0.403414	0.695361	0.045745	0.133330	0.303243	0.109652
44	0.126641	0.577780	0.264656	0.304714	0.125627	0.204269	0.423567	0.189487	0.046125	0.260301	0.388444	0.520829	0.056811	0.182649	0.210551	0.334453	0.091915	0.106485	0.649057	0.630928	0.076302	0.186761	0.711659	0.432721	0.448669	0.376349	0.309164	0.382788	0.543057	0.257369	0.333030	0.244915	0.219966	0.320914	0.362776	0.434617	0.082737	0.191003	0.393332	0.376603	0.057399	0.138761	0.276356	0.512578	0.053757	0.193328	0.333466	0.257146	0.120290	0.436256	0.606214	0.827413	0.184812	0.084893	0.389585	0.205020	0.173617	0.466595	0.459740	0.519453	0.041842	0.174043	0.204998	0.317734	0.131441	0.375206	0.294042	0.798547	0.243662	0.149004	0.451465	0.342872	0.093831	0.153368	0.419980	0.689762	0.037020	0.126336	0.309031	0.093118
45	0.128031	0.600113	0.398830	0.315433	0.125572	0.203479	0.408074	0.188410	0.052150	0.243300	0.366836	0.552623	0.054908	0.127467	0.209383	0.341364	0.091932	0.133761	0.717049	0.652180	0.072938	0.176835	0.688880	0.431345	0.448196	0.418222	0.334470	0.386420	0.600717	0.306051	0.333124	0.171946	0.182356	0.337830	0.361461	0.457383	0.083433	0.190434	0.427836	0.451091	0.055935	0.140204	0.278401	0.461601	0.054152	0.143148	0.335147	0.313120	0.120824	0.444861	0.629509	0.857240	0.180722	0.078649	0.394234	0.224729	0.168845	0.367181	0.454568	0.530597	0.047200	0.178953	0.239571	0.306185	0.134707	0.347157	0.331775	0.846810	0.243349	0.147307	0.472161	0.346061	0.091546	0.147285	0.411356	0.647460	0.026594	0.117990	0.301467	0.093948
46	0.134110	0.570802	0.556350	0.348145	0.125192	0.204317	0.392627	0.190668	0.065541	0.294383	0.337330	0.543688	0.052575	0.124640	0.208864	0.331918	0.087434	0.148758	0.739714	0.701051	0.073001	0.174851	0.586091	0.387905	0.406632	0.418969	0.433240	0.474239	0.623330	0.359807	0.308054	0.157631	0.185437	0.363103	0.358709	0.461052	0.084147	0.195671	0.428009	0.506193	0.054280	0.139494	0.279930	0.472153	0.050932	0.090791	0.337096	0.335295	0.113580	0.428697	0.645262	0.879665	0.174803	0.079449	0.394584	0.213162	0.162896	0.360087	0.409907	0.507286	0.052361	0.174979	0.258677	0.314379	0.144166	0.342498	0.331800	0.861216	0.236958	0.133265	0.492494	0.340849	0.088884	0.148471	0.372497	0.606272	0.023726	0.117285	0.295589	0.084711
47	0.133113	0.532843	0.591752	0.501210	0.125654	0.207191	0.394028	0.196627	0.070803	0.293364	0.328627	0.521407	0.050255	0.095965	0.230257	0.322417	0.092837	0.161669	0.742337	0.748545	0.074923	0.177787	0.532141	0.298729	0.335946	0.400082	0.516527	0.666688	0.696259	0.416073	0.302150	0.165827	0.186730	0.375900	0.365476	0.493490	0.093218	0.211140	0.413761	0.516285	0.053572	0.140253	0.309845	0.499758	0.049688	0.082370	0.314148	0.329661	0.118184	0.423770	0.620565	0.876913	0.156184	0.084750	0.368748	0.210083	0.138037	0.350056	0.439112	0.487023	0.060422	0.154012	0.262805	0.332996	0.150974	0.351412	0.321697	0.819621	0.226766	0.117957	0.501672	0.338705	0.081752	0.153992	0.395620	0.574774	0.022525	0.102930	0.251050	0.076232
48	0.145986	0.547825	0.590894	0.658887	0.122577	0.196856	0.404731	0.194093	0.069970	0.307124	0.335911	0.510185	0.044404	0.062900	0.237119	0.337660	0.096889	0.171710	0.741479	0.755874	0.070484	0.167497	0.526476	0.290849	0.247146	0.436942	0.532655	0.803649	0.762462	0.433870	0.320900	0.173045	0.186430	0.344843	0.367005	0.529846	0.100651	0.220687	0.428535	0.503461	0.052421	0.139924	0.407672	0.525969	0.049420	0.087119	0.302395	0.326564	0.126209	0.425811	0.553419	0.849149	0.146897	0.085557	0.351385	0.212403	0.113753	0.333945	0.567000	0.524227	0.063287	0.157825	0.245875	0.324478	0.148472	0.346596	0.301372	0.749005	0.209706	0.102495	0.503854	0.352522	0.078617	0.157590	0.436392	0.567962	0.023180	0.086691	0.234801	0.089749
49	0.184300	0.630410	0.600538	0.705989	0.067144	0.125415	0.360797	0.176640	0.069276	0.313704	0.336566	0.538425	0.041785	0.061640	0.231870	0.350644	0.103685	0.186896	0.743237	0.716268	0.070263	0.163196	0.431606	0.266702	0.193944	0.468073	0.532888	0.850676	0.774878	0.424001	0.315885	0.169875	0.187751	0.276862	0.361283	0.551169	0.102731	0.237195	0.446770	0.539659	0.055497	0.145500	0.459979	0.547527	0.047159	0.099114	0.316272	0.356064	0.126289	0.428215	0.509193	0.830641	0.126668	0.085535	0.355563	0.204323	0.098034	0.300501	0.625881	0.611705	0.065469	0.187015	0.234204	0.280430	0.142417	0.381395	0.305186	0.683608	0.196136	0.094496	0.507481	0.356061	0.078428	0.157448	0.444579	0.505222	0.054361	0.069772	0.231490	0.109212
50	0.219115	0.766607	0.619784	0.708278	0.057427	0.124585	0.243072	0.151898	0.068511	0.315734	0.336156	0.639292	0.043566	0.051893	0.229755	0.348743	0.110942	0.203304	0.706068	0.677967	0.071175	0.158972	0.259725	0.189181	0.182036	0.478724	0.538683	0.850709	0.722835	0.400833	0.330110	0.160233	0.183922	0.318873	0.317554	0.544931	0.104682	0.314446	0.462605	0.597726	0.062701	0.154233	0.441613	0.531186	0.058273	0.133038	0.328390	0.403078	0.124512	0.426014	0.485025	0.827410	0.134973	0.080583	0.335997	0.188404	0.086694	0.228409	0.634481	0.706630	0.064304	0.190037	0.235815	0.262884	0.130127	0.463998	0.343047	0.660911	0.194987	0.095642	0.506454	0.357475	0.076035	0.159165	0.447454	0.424442	0.055971	0.064562	0.205248	0.121235
51	0.223327	0.784693	0.634513	0.712527	0.052711	0.126081	0.210398	0.158318	0.076790	0.340987	0.331131	0.699538	0.052083	0.059606	0.222405	0.303998	0.109470	0.206320	0.550598	0.588218	0.064392	0.151575	0.180612	0.113149	0.186490	0.486582	0.552422	0.853474	0.628472	0.386615	0.329444	0.154788	0.160361	0.326724	0.284407	0.542766	0.109987	0.379471	0.475829	0.617207	0.064836	0.155033	0.421500	0.471814	0.069443	0.149090	0.326190	0.440012	0.107097	0.351243	0.487579	0.826853	0.101594	0.061409	0.322930	0.188214	0.081449	0.172714	0.628382	0.766209	0.063588	0.227655	0.241236	0.271252	0.109569	0.441458	0.346463	0.674850	0.190404	0.095907	0.503744	0.360275	0.071390	0.157405	0.473139	0.372714	0.057611	0.079664	0.199023	0.124291
52	0.225760	0.786485	0.637953	0.745161	0.047189	0.139302	0.259977	0.171564	0.093206	0.368227	0.328464	0.706995	0.046294	0.073182	0.194694	0.262330	0.100040	0.202093	0.492662	0.530732	0.049038	0.113424	0.180204	0.121261	0.191477	0.489494	0.531521	0.853412	0.582713	0.385375	0.274272	0.153195	0.147251	0.325348	0.288138	0.545574	0.119048	0.426330	0.474896	0.602515	0.065909	0.121450	0.413342	0.449574	0.075531	0.152639	0.303185	0.448295	0.098176	0.312238	0.499380	0.825970	0.081925	0.103817	0.308277	0.186664	0.089356	0.190688	0.613002	0.783298	0.066473	0.237468	0.235477	0.260254	0.120612	0.505969	0.347791	0.649789	0.152030	0.102012	0.456697	0.357408	0.059030	0.140886	0.467808	0.350482	0.059934	0.095239	0.222604	0.125174
53	0.233233	0.786862	0.638697	0.795862	0.048372	0.137504	0.277109	0.175210	0.122252	0.388551	0.298774	0.717218	0.060188	0.121540	0.169873	0.226210	0.091901	0.224930	0.470974	0.525288	0.048152	0.082620	0.178750	0.127718	0.191235	0.487096	0.516604	0.833279	0.530613	0.354900	0.209618	0.126399	0.144225	0.323350	0.278270	0.541008	0.107758	0.438325	0.477916	0.583262	0.063108	0.116172	0.404698	0.449087	0.079901	0.154475	0.271447	0.445666	0.098912	0.302985	0.489246	0.827699	0.083722	0.103257	0.249117	0.168617	0.090293	0.186962	0.598281	0.782059	0.069802	0.233862	0.221181	0.260051	0.122903	0.537487	0.339913	0.565266	0.074180	0.136996	0.331681	0.334064	0.055907	0.131836	0.458419	0.359742	0.062815	0.096540	0.287656	0.191719
54	0.231885	0.738955	0.634046	0.840944	0.068923	0.137728	0.350734	0.174208	0.134077	0.394694	0.274064	0.746845	0.062060	0.127033	0.168725	0.206306	0.103614	0.501035	0.395236	0.517762	0.053217	0.075033	0.178708	0.126701	0.180970	0.476280	0.528109	0.813048	0.532763	0.322078	0.215336	0.126802	0.143290	0.319896	0.232704	0.524773	0.101315	0.438745	0.420737	0.582231	0.061097	0.138136	0.394865	0.433046	0.080490	0.151996	0.270452	0.438739	0.097362	0.250582	0.429803	0.804084	0.087006	0.103328	0.186901	0.153208	0.082596	0.158443	0.578172	0.772395	0.068681	0.229053	0.197852	0.255430	0.123638	0.546944	0.299319	0.455395	0.068297	0.134784	0.312604	0.309097	0.055302	0.131256	0.458579	0.362842	0.066374	0.135363	0.364573	0.275568
55	0.226716	0.688076	0.634380	0.844519	0.089300	0.140042	0.464715	0.167569	0.135381	0.395551	0.276176	0.779939	0.065860	0.159881	0.176477	0.192513	0.104145	0.612955	0.266773	0.490507	0.056402	0.073570	0.167018	0.133170	0.165642	0.470675	0.529796	0.826635	0.479271	0.261849	0.228833	0.180626	0.138876	0.319663	0.178473	0.485180	0.111557	0.492675	0.350576	0.551838	0.059612	0.150611	0.404228	0.408405	0.080344	0.151709	0.266256	0.432021	0.095964	0.224350	0.390793	0.653669	0.086988	0.100939	0.221903	0.151440	0.080821	0.152805	0.565416	0.751042	0.070223	0.227511	0.139581	0.224095	0.117582	0.547894	0.243901	0.367696	0.069635	0.139079	0.306884	0.307488	0.062928	0.136181	0.422726	0.310398	0.067993	0.151058	0.378905	0.294049
56	0.225415	0.645008	0.624450	0.834166	0.089772	0.163688	0.460171	0.219208	0.139382	0.399091	0.287308	0.781338	0.065906	0.160791	0.142903	0.189431	0.133600	0.707631	0.200032	0.447965	0.063569	0.065793	0.164880	0.157633	0.148667	0.451411	0.534869	0.875437	0.424041	0.224190	0.198545	0.180657	0.131950	0.316014	0.168267	0.432342	0.127516	0.579144	0.338073	0.495256	0.057274	0.209319	0.413994	0.410032	0.078604	0.151740	0.251242	0.396990	0.092030	0.185872	0.355395	0.503796	0.086833	0.100970	0.223100	0.153698	0.078219	0.151494	0.554686	0.719236	0.063136	0.218302	0.138787	0.187540	0.105487	0.538517	0.243085	0.339106	0.069804	0.137532	0.304247	0.322310	0.067045	0.144103	0.396765	0.273572	0.074371	0.158745	0.385860	0.291996
57	0.226047	0.645055	0.480415	0.833649	0.109164	0.166157	0.549739	0.255432	0.139380	0.385949	0.289830	0.762289	0.065841	0.163478	0.151064	0.152002	0.147895	0.824889	0.199037	0.422086	0.064372	0.054864	0.167210	0.163117	0.119502	0.386426	0.513478	0.932727	0.400678	0.247747	0.254011	0.212194	0.124606	0.299885	0.167811	0.406145	0.125908	0.591872	0.364017	0.452531	0.056553	0.260312	0.419552	0.389425	0.074286	0.151682	0.249554	0.356163	0.087368	0.166143	0.315836	0.440002	0.084543	0.102511	0.244257	0.155952	0.074418	0.151218	0.535884	0.704561	0.060691	0.210829	0.160017	0.183601	0.094165	0.528918	0.249695	0.348782	0.070803	0.136570	0.276171	0.339674	0.067133	0.143854	0.400363	0.244183	0.078379	0.161050	0.403981	0.291119
58	0.224572	0.634182	0.352931	0.799462	0.118706	0.164274	0.716060	0.275522	0.132041	0.315587	0.288756	0.752263	0.068203	0.180933	0.153566	0.114600	0.145632	0.838085	0.202273	0.526657	0.065991	0.070301	0.182676	0.171707	0.102973	0.342731	0.448341	0.937648	0.485790	0.258745	0.312771	0.274685	0.108082	0.266447	0.166662	0.443455	0.118319	0.588633	0.362059	0.447338	0.064180	0.285302	0.377245	0.364729	0.072208	0.150666	0.239419	0.339399	0.077066	0.156327	0.319313	0.422680	0.087413	0.109241	0.251415	0.156743	0.071521	0.151412	0.529904	0.702324	0.057736	0.174073	0.153640	0.201946	0.095110	0.521481	0.249986	0.351028	0.069746	0.135812	0.229658	0.308094	0.062693	0.125097	0.373678	0.245189	0.079502	0.160408	0.435136	0.289658
59	0.222113	0.628909	0.337290	0.673328	0.128260	0.205980	0.728840	0.279200	0.126699	0.298709	0.277231	0.751783	0.065033	0.183541	0.186489	0.140769	0.146756	0.856569	0.200759	0.550426	0.062479	0.075549	0.270270	0.171826	0.134582	0.382661	0.344245	0.837799	0.492094	0.252276	0.319851	0.318095	0.093131	0.243685	0.150003	0.465888	0.118428	0.590054	0.334555	0.427224	0.076711	0.373312	0.259293	0.331641	0.072212	0.144878	0.230786	0.338140	0.062220	0.156501	0.354782	0.422993	0.103900	0.114606	0.235344	0.155522	0.066166	0.151282	0.495510	0.699303	0.057022	0.156263	0.178251	0.200270	0.103852	0.505013	0.247446	0.362583	0.065206	0.131477	0.216009	0.271178	0.062669	0.118518	0.320503	0.249473	0.077590	0.179209	0.459143	0.297260
60	0.200946	0.592481	0.331651	0.581250	0.130996	0.226577	0.755697	0.308630	0.127347	0.291748	0.261815	0.745394	0.059909	0.181615	0.207363	0.162341	0.142033	0.860546	0.205991	0.562148	0.061575	0.074727	0.378040	0.195678	0.139779	0.346774	0.318924	0.698815	0.491120	0.273338	0.320303	0.324609	0.094343	0.247171	0.147778	0.449206	0.119382	0.576128	0.309031	0.353856	0.072527	0.384724	0.194050	0.290210	0.071801	0.141518	0.197355	0.323903	0.069074	0.190471	0.354073	0.384819	0.097733	0.116634	0.235708	0.163754	0.062729	0.150979	0.346059	0.673335	0.053936	0.114858	0.207557	0.193674	0.098220	0.403571	0.209342	0.342567	0.058920	0.127656	0.213464	0.271928	0.063168	0.129459	0.304858	0.242335	0.069013	0.192982	0.469045	0.317207
61	0.158878	0.417801	0.296563	0.549100	0.143404	0.236682	0.833621	0.384780	0.128347	0.284010	0.229888	0.698214	0.053810	0.164123	0.195875	0.163370	0.141376	0.861919	0.206117	0.642599	0.063695	0.075358	0.381284	0.198297	0.136419	0.296472	0.319500	0.640143	0.490044	0.293775	0.321932	0.322492	0.101201	0.266693	0.163536	0.408895	0.115764	0.531401	0.277863	0.252318	0.067888	0.384487	0.246438	0.250441	0.084327	0.122481	0.147616	0.274289	0.062902	0.191974	0.333177	0.304196	0.079862	0.118825	0.246205	0.184974	0.064585	0.141684	0.205084	0.606633	0.064440	0.075793	0.198800	0.228886	0.096810	0.368659	0.158254	0.297577	0.053169	0.131799	0.214391	0.277348	0.071014	0.138439	0.311363	0.346905	0.068120	0.191879	0.471583	0.328264
62	0.132234	0.250712	0.254302	0.548461	0.150760	0.243021	0.877147	0.446914	0.128982	0.297250	0.219264	0.584276	0.047562	0.146986	0.209012	0.165761	0.141825	0.863266	0.258599	0.731687	0.070025	0.076008	0.405855	0.195112	0.133635	0.274879	0.309992	0.652572	0.473209	0.286046	0.319369	0.315151	0.097252	0.240612	0.180054	0.390611	0.108849	0.490151	0.256598	0.188606	0.065697	0.386010	0.262771	0.233632	0.079601	0.075265	0.127803	0.189468	0.063275	0.210087	0.323059	0.225108	0.081269	0.082332	0.252283	0.199234	0.070196	0.132397	0.199358	0.500811	0.062099	0.077675	0.197670	0.221252	0.083352	0.287448	0.177254	0.302825	0.051175	0.149098	0.215072	0.284939	0.070135	0.136472	0.274999	0.382871	0.066557	0.180877	0.470560	0.337865
63	0.130953	0.245142	0.280016	0.556551	0.135093	0.244163	0.826901	0.481188	0.127012	0.335835	0.219201	0.492025	0.041947	0.139111	0.206609	0.188187	0.153324	0.867883	0.297198	0.783726	0.063118	0.090012	0.417874	0.222512	0.125016	0.259393	0.296005	0.657329	0.424460	0.273060	0.300982	0.287418	0.092217	0.221661	0.179082	0.389484	0.098233	0.449324	0.265423	0.170552	0.062258	0.386051	0.265477	0.217440	0.074766	0.050097	0.126683	0.096331	0.063095	0.253579	0.313971	0.202024	0.086337	0.087184	0.252753	0.201849	0.069613	0.129189	0.243820	0.396138	0.057297	0.080917	0.205843	0.252565	0.076432	0.180230	0.194249	0.332792	0.049358	0.151695	0.213691	0.299297	0.069840	0.135768	0.226436	0.389560	0.063989	0.180139	0.438413	0.332304
64	0.120379	0.228817	0.254196	0.559433	0.134805	0.227746	0.817895	0.478377	0.117975	0.335827	0.219800	0.477190	0.036979	0.109071	0.210511	0.198422	0.151107	0.751385	0.288291	0.793261	0.063281	0.103599	0.418449	0.263951	0.116373	0.246820	0.301765	0.653313	0.382482	0.290817	0.302856	0.286969	0.097636	0.272846	0.168456	0.384776	0.097976	0.433378	0.273416	0.171659	0.059824	0.384115	0.277369	0.210877	0.073126	0.051356	0.126134	0.066155	0.059930	0.261113	0.327071	0.220084	0.088059	0.092582	0.248393	0.191282	0.060220	0.097508	0.294138	0.360126	0.052832	0.078692	0.262389	0.304045	0.076163	0.147250	0.313584	0.356049	0.040287	0.119876	0.232474	0.306456	0.068489	0.136267	0.221654	0.420766	0.061737	0.168812	0.388141	0.268766
65	0.099606	0.201573	0.244960	0.501834	0.122611	0.223677	0.791277	0.449359	0.089999	0.311494	0.210770	0.462842	0.040592	0.118463	0.217002	0.210625	0.149933	0.652988	0.272776	0.771863	0.060217	0.103568	0.419214	0.251381	0.118469	0.246190	0.273159	0.663800	0.418452	0.300475	0.268615	0.272404	0.099581	0.291792	0.162836	0.384185	0.097173	0.429463	0.272521	0.160803	0.060581	0.378227	0.282415	0.217390	0.071002	0.050988	0.122422	0.059061	0.070590	0.332339	0.344777	0.303092	0.088297	0.095238	0.207619	0.172101	0.056429	0.071780	0.303794	0.402901	0.059706	0.095489	0.335096	0.349460	0.081630	0.125373	0.331975	0.371362	0.039830	0.126033	0.263178	0.307581	0.067965	0.139912	0.227284	0.443710	0.058299	0.143970	0.320807	0.219951
66	0.081311	0.170916	0.241704	0.423767	0.111297	0.222760	0.641503	0.432535	0.066165	0.303088	0.181602	0.402805	0.044658	0.138913	0.256584	0.268473	0.127399	0.562822	0.268582	0.746607	0.052768	0.104945	0.440398	0.241435	0.118872	0.242656	0.229908	0.680201	0.320150	0.294606	0.163603	0.221340	0.099937	0.308395	0.166506	0.383304	0.076523	0.323006	0.270969	0.129434	0.064598	0.373997	0.282028	0.215863	0.070766	0.137830	0.110051	0.061074	0.075914	0.380480	0.355749	0.408323	0.088185	0.095012	0.227702	0.178850	0.062809	0.099258	0.303144	0.466051	0.070969	0.134492	0.327540	0.379992	0.083138	0.130157	0.343805	0.345990	0.035885	0.120306	0.292305	0.310000	0.066865	0.127318	0.211150	0.454625	0.052709	0.137167	0.337605	0.223453
67	0.073133	0.145346	0.226048	0.415481	0.099018	0.202714	0.587062	0.416389	0.064660	0.310962	0.152135	0.292370	0.057030	0.141124	0.289399	0.320648	0.102848	0.361562	0.259232	0.715331	0.050377	0.102233	0.455337	0.239553	0.118654	0.240413	0.241462	0.658690	0.317178	0.296695	0.145775	0.162686	0.102633	0.342731	0.185963	0.384940	0.062613	0.184274	0.253562	0.096150	0.067051	0.331264	0.267503	0.204499	0.071193	0.180103	0.154291	0.082109	0.078625	0.399432	0.359843	0.546768	0.090534	0.093341	0.222215	0.181605	0.072064	0.146848	0.317629	0.489780	0.074406	0.145910	0.327911	0.375813	0.083224	0.131137	0.353552	0.352118	0.032428	0.117198	0.268621	0.294898	0.076833	0.117851	0.232378	0.454034	0.044605	0.133182	0.352557	0.251493
68	0.070007	0.119695	0.247358	0.422833	0.090709	0.125912	0.553454	0.405858	0.055865	0.306546	0.137910	0.183497	0.073348	0.186570	0.261066	0.306783	0.103459	0.327912	0.266145	0.624189	0.047046	0.089656	0.469545	0.230772	0.119054	0.240952	0.286293	0.590116	0.330059	0.275555	0.148388	0.147529	0.101296	0.360879	0.181488	0.420426	0.064041	0.155636	0.292677	0.115273	0.068168	0.311559	0.270277	0.187869	0.074643	0.198994	0.202424	0.172420	0.086597	0.415043	0.352631	0.625496	0.087783	0.085065	0.203515	0.181657	0.079549	0.166608	0.311458	0.473965	0.074173	0.145656	0.326784	0.380384	0.081698	0.125995	0.395757	0.352385	0.029456	0.118469	0.247928	0.234230	0.081031	0.121804	0.236314	0.456014	0.042483	0.134647	0.331121	0.277203
69	0.069568	0.115133	0.283584	0.423381	0.074854	0.109044	0.425532	0.346935	0.048635	0.304315	0.133567	0.143359	0.075269	0.200047	0.253541	0.303435	0.097056	0.271337	0.306108	0.611381	0.046788	0.090053	0.370080	0.237439	0.126013	0.247256	0.286027	0.491925	0.320607	0.257292	0.148021	0.154678	0.092608	0.366228	0.260758	0.480604	0.062477	0.145575	0.455936	0.157043	0.059990	0.268292	0.289815	0.163941	0.081281	0.202577	0.222945	0.211164	0.091316	0.423870	0.322053	0.630115	0.069183	0.077710	0.232284	0.190142	0.084522	0.179591	0.322406	0.462752	0.074610	0.145004	0.326138	0.400928	0.061999	0.104084	0.474712	0.393705	0.035251	0.123976	0.252706	0.196946	0.081384	0.121144	0.230507	0.461617	0.041416	0.125869	0.292440	0.280554
70	0.068319	0.111631	0.303678	0.418307	0.048273	0.088562	0.274389	0.260126	0.052790	0.303937	0.167511	0.148488	0.074852	0.202982	0.252525	0.302030	0.099279	0.254991	0.348596	0.653531	0.051255	0.100301	0.323677	0.263845	0.134017	0.248847	0.290512	0.413928	0.315694	0.286056	0.149890	0.163565	0.091170	0.372150	0.277214	0.509365	0.053778	0.143198	0.475646	0.159690	0.051449	0.166290	0.303581	0.159322	0.089243	0.207866	0.223064	0.215853	0.091182	0.424863	0.265422	0.640082	0.068585	0.080551	0.272828	0.201870	0.085458	0.179939	0.373291	0.465874	0.070443	0.142836	0.349490	0.385962	0.060778	0.125610	0.514176	0.446791	0.039357	0.124789	0.280085	0.194349	0.081745	0.111213	0.231070	0.458827	0.033650	0.083766	0.287425	0.252495
71	0.068042	0.114781	0.317707	0.410455	0.038200	0.091750	0.288676	0.203063	0.069896	0.304619	0.205921	0.166615	0.070590	0.198459	0.254154	0.300041	0.110536	0.263876	0.349475	0.707168	0.045880	0.104433	0.319050	0.292944	0.105719	0.179336	0.335848	0.380337	0.319572	0.321088	0.157329	0.155108	0.092179	0.376219	0.290957	0.480596	0.048496	0.192557	0.484414	0.165327	0.050669	0.148384	0.298077	0.232091	0.096821	0.210692	0.222254	0.217171	0.082490	0.410366	0.266043	0.699536	0.071726	0.075978	0.287801	0.191395	0.086083	0.180304	0.458803	0.479409	0.068605	0.147380	0.357996	0.382665	0.080898	0.169248	0.579600	0.454773	0.040999	0.124903	0.307246	0.179337	0.090428	0.109563	0.292393	0.451298	0.029438	0.069740	0.307146	0.227935
72	0.066893	0.174502	0.387573	0.420681	0.048889	0.105147	0.335046	0.234944	0.090584	0.313140	0.212360	0.220202	0.070915	0.201480	0.283149	0.285606	0.119387	0.268281	0.315168	0.682462	0.044196	0.104445	0.288527	0.298952	0.090750	0.126092	0.341035	0.399175	0.299935	0.306919	0.147490	0.145428	0.094272	0.371731	0.335354	0.440227	0.053122	0.206282	0.543649	0.184721	0.051769	0.139848	0.256454	0.271931	0.105442	0.212299	0.251983	0.225582	0.080489	0.397474	0.283277	0.775205	0.071120	0.077730	0.282322	0.180595	0.085999	0.180220	0.499587	0.484361	0.074346	0.152992	0.356039	0.369388	0.086424	0.182705	0.587226	0.446322	0.042795	0.125075	0.311554	0.166848	0.086458	0.098574	0.282541	0.368524	0.029802	0.070088	0.307662	0.225150
73	0.066894	0.201349	0.420937	0.445754	0.053327	0.111038	0.326194	0.265447	0.096617	0.337056	0.244587	0.316662	0.071674	0.203743	0.267442	0.303517	0.109719	0.245383	0.300388	0.624993	0.042910	0.079414	0.285235	0.259976	0.106315	0.136093	0.340800	0.415083	0.209615	0.280955	0.128337	0.130512	0.111768	0.366767	0.358133	0.422529	0.054109	0.188483	0.581191	0.211067	0.054204	0.139299	0.253314	0.278484	0.090711	0.214666	0.335157	0.248567	0.095194	0.401441	0.282759	0.830722	0.062413	0.072489	0.293326	0.172716	0.084059	0.182489	0.504123	0.478707	0.076794	0.153041	0.338915	0.329513	0.085820	0.181692	0.760227	0.444480	0.040060	0.102792	0.310986	0.148908	0.084421	0.094989	0.283996	0.337031	0.030917	0.069150	0.310270	0.233471
74	0.067910	0.208966	0.447921	0.452031	0.055428	0.113157	0.337516	0.270783	0.096367	0.333806	0.297970	0.346301	0.070815	0.197202	0.261694	0.287205	0.100613	0.232656	0.296833	0.621718	0.039836	0.076106	0.286734	0.241715	0.153479	0.170895	0.352761	0.388180	0.219518	0.309990	0.170587	0.108188	0.197386	0.369325	0.385701	0.425130	0.063240	0.182447	0.589637	0.215806	0.087794	0.144896	0.249422	0.289963	0.094572	0.229567	0.362991	0.274193	0.106626	0.387295	0.301937	0.858159	0.056109	0.070425	0.297131	0.173547	0.077530	0.184838	0.494988	0.471297	0.076963	0.152787	0.258215	0.285081	0.085318	0.176643	0.910204	0.483546	0.040204	0.090942	0.310983	0.111231	0.084129	0.094505	0.343569	0.338160	0.030090	0.091680	0.313314	0.245184
75	0.069371	0.222252	0.458577	0.389596	0.056262	0.107089	0.372349	0.273693	0.108559	0.269270	0.333514	0.345751	0.074623	0.210299	0.207783	0.225200	0.100391	0.235640	0.301252	0.649825	0.038015	0.075999	0.269904	0.248232	0.207622	0.182042	0.353463	0.414438	0.397538	0.331341	0.173898	0.094422	0.210651	0.357213	0.436097	0.459366	0.069304	0.183146	0.662309	0.229603	0.150369	0.156361	0.273930	0.308554	0.098550	0.242389	0.370497	0.285980	0.109127	0.379621	0.329107	0.861403	0.077280	0.082708	0.290385	0.167993	0.077486	0.183052	0.476805	0.471268	0.103103	0.143274	0.238309	0.233596	0.080731	0.175293	0.921197	0.488621	0.039950	0.086938	0.304287	0.079559	0.083968	0.086538	0.351974	0.291153	0.037466	0.143550	0.305930	0.250105
76	0.075360	0.225878	0.499007	0.311224	0.053193	0.093185	0.373711	0.298715	0.121911	0.223639	0.351042	0.369855	0.063649	0.197168	0.178083	0.164032	0.101482	0.246751	0.305656	0.670632	0.036976	0.073266	0.233160	0.255178	0.258372	0.185266	0.347547	0.421336	0.390286	0.333789	0.177453	0.093125	0.208572	0.338806	0.465582	0.511220	0.069930	0.182010	0.691921	0.234721	0.158493	0.150562	0.312939	0.304591	0.097112	0.242745	0.440204	0.303270	0.105856	0.337266	0.307945	0.839375	0.109126	0.104546	0.270811	0.143727	0.077080	0.181416	0.450031	0.464146	0.157698	0.147579	0.239147	0.214873	0.080292	0.172024	0.929072	0.484522	0.037611	0.069233	0.284458	0.078834	0.085086	0.077108	0.365164	0.255843	0.040333	0.145870	0.285907	0.247992
77	0.079515	0.226153	0.645723	0.312204	0.056611	0.093618	0.364892	0.312482	0.135572	0.220591	0.361735	0.411392	0.054450	0.162228	0.177970	0.158326	0.108505	0.287890	0.314829	0.702782	0.037190	0.072652	0.179044	0.262368	0.268469	0.187225	0.348131	0.415266	0.400664	0.328641	0.179265	0.081202	0.213550	0.322497	0.469297	0.532510	0.068508	0.185151	0.694164	0.236023	0.159344	0.150503	0.320428	0.303633	0.096692	0.242679	0.511523	0.351749	0.100587	0.268737	0.322622	0.809225	0.138371	0.122700	0.262058	0.130356	0.072647	0.178370	0.500443	0.428289	0.213103	0.156160	0.232003	0.208707	0.090656	0.191600	0.930519	0.469580	0.037190	0.063406	0.270054	0.058241	0.080442	0.077021	0.462050	0.249608	0.039704	0.154317	0.254699	0.231439
78	0.078854	0.226167	0.687778	0.319547	0.069109	0.099786	0.357266	0.307328	0.160233	0.218485	0.372048	0.445994	0.055421	0.151372	0.208133	0.164065	0.109672	0.303564	0.311143	0.736702	0.037344	0.069440	0.127719	0.266168	0.289591	0.223115	0.358289	0.381280	0.422465	0.290488	0.172881	0.067929	0.226730	0.325086	0.484627	0.532662	0.071249	0.216961	0.739453	0.245222	0.159156	0.155486	0.362627	0.315839	0.096668	0.191008	0.531365	0.365181	0.099699	0.237682	0.379476	0.771974	0.162858	0.130959	0.263892	0.129226	0.065504	0.162081	0.538112	0.358441	0.239904	0.156140	0.220071	0.174450	0.090868	0.201684	0.934508	0.471274	0.037762	0.063516	0.265284	0.062738	0.072537	0.085847	0.469478	0.263527	0.037691	0.153671	0.223150	0.195766
79	0.078294	0.226066	0.686315	0.317458	0.082903	0.107522	0.312062	0.293292	0.177496	0.212997	0.372295	0.465820	0.055562	0.149602	0.268924	0.170773	0.109445	0.299216	0.281699	0.740761	0.035377	0.062224	0.122894	0.244811	0.341476	0.265519	0.351585	0.363674	0.464550	0.276848	0.165989	0.080119	0.229707	0.296748	0.502802	0.525610	0.068960	0.233456	0.773484	0.240974	0.161326	0.151483	0.356366	0.335934	0.096464	0.166472	0.513173	0.357641	0.095661	0.211114	0.465641	0.709623	0.166159	0.130948	0.290558	0.124902	0.055837	0.119644	0.531752	0.308095	0.244967	0.164059	0.183895	0.130302	0.089015	0.200146	0.902049	0.474246	0.037585	0.062573	0.273454	0.064556	0.068537	0.078547	0.468627	0.270874	0.034876	0.151542	0.229499	0.178647
80	0.068434	0.220628	0.679486	0.301750	0.102617	0.118493	0.219675	0.253765	0.182967	0.212695	0.367276	0.473613	0.055597	0.148948	0.277440	0.181762	0.106680	0.288928	0.237534	0.701277	0.028311	0.045066	0.124574	0.217487	0.354849	0.271395	0.304412	0.381437	0.502070	0.285311	0.178408	0.090949	0.251360	0.295198	0.537849	0.505140	0.077769	0.238747	0.740448	0.250180	0.174025	0.133129	0.336516	0.343218	0.096400	0.150962	0.506471	0.328994	0.091021	0.190124	0.507958	0.701585	0.200830	0.154655	0.268846	0.147422	0.045242	0.092476	0.526484	0.294329	0.298024	0.190285	0.168101	0.108852	0.087816	0.187602	0.895801	0.413691	0.033113	0.052554	0.275910	0.062654	0.068339	0.078977	0.499944	0.302713	0.034165	0.151935	0.216701	0.198750
81	0.065827	0.215142	0.711910	0.294985	0.130923	0.146001	0.216105	0.221906	0.185063	0.212855	0.371236	0.474988	0.059228	0.146857	0.255607	0.169340	0.096337	0.273068	0.242568	0.572645	0.025609	0.048091	0.126090	0.237422	0.355756	0.266283	0.299044	0.407315	0.540053	0.278989	0.181239	0.109916	0.280042	0.297590	0.547291	0.457231	0.088306	0.246505	0.736040	0.262118	0.187280	0.131638	0.344689	0.345430	0.095015	0.149656	0.538208	0.324638	0.098997	0.189453	0.526435	0.720892	0.228370	0.189832	0.233627	0.173853	0.033427	0.066096	0.527687	0.290757	0.385067	0.212885	0.165786	0.106936	0.080245	0.164945	0.859784	0.391127	0.026178	0.043558	0.249508	0.062762	0.065056	0.077164	0.589815	0.339789	0.033701	0.152939	0.173906	0.235044
82	0.068920	0.211718	0.749509	0.302159	0.147173	0.160769	0.209210	0.212590	0.185400	0.220110	0.386851	0.488565	0.061923	0.148810	0.255393	0.135720	0.084310	0.264388	0.247012	0.484538	0.019183	0.047849	0.117582	0.242696	0.357813	0.257547	0.280859	0.409698	0.535308	0.229633	0.145230	0.117978	0.289743	0.289744	0.603275	0.440531	0.088494	0.217528	0.711098	0.256114	0.194800	0.148703	0.411914	0.316993	0.089695	0.149080	0.594969	0.336690	0.116534	0.200977	0.526190	0.698924	0.251883	0.213617	0.229352	0.171404	0.039895	0.079282	0.538779	0.274380	0.405664	0.217175	0.154268	0.104418	0.087017	0.167414	0.847378	0.397210	0.024801	0.046344	0.205482	0.071916	0.054374	0.059648	0.594815	0.347786	0.036445	0.158186	0.163316	0.250793
83	0.076857	0.203349	0.738543	0.354223	0.163647	0.163484	0.146824	0.211880	0.203274	0.222317	0.439782	0.506763	0.059453	0.138251	0.268790	0.144086	0.079747	0.256667	0.218678	0.484719	0.025183	0.056764	0.109139	0.247785	0.381614	0.262675	0.264865	0.400264	0.458542	0.204102	0.158877	0.165885	0.316306	0.300858	0.699789	0.530033	0.086941	0.216313	0.677502	0.242593	0.199747	0.165882	0.485768	0.281094	0.088935	0.160811	0.612583	0.351053	0.123499	0.200067	0.540053	0.612610	0.269000	0.222470	0.221946	0.176382	0.055799	0.106132	0.499646	0.255260	0.405808	0.214184	0.177929	0.093248	0.091325	0.174695	0.783534	0.398941	0.026338	0.061876	0.188230	0.080294	0.054380	0.056132	0.604032	0.438557	0.039025	0.160124	0.160547	0.235543
84	0.077420	0.155682	0.711884	0.387980	0.169248	0.165050	0.117175	0.188566	0.215190	0.223672	0.564265	0.548374	0.049880	0.086572	0.307094	0.188613	0.084165	0.264175	0.259299	0.482724	0.039535	0.076976	0.119048	0.263142	0.401381	0.269932	0.271571	0.378277	0.478165	0.210532	0.152006	0.186043	0.395212	0.323167	0.715841	0.576776	0.085563	0.237593	0.682305	0.272561	0.278467	0.174019	0.498368	0.275347	0.085815	0.164274	0.598613	0.351401	0.115024	0.175718	0.538943	0.539889	0.273096	0.222092	0.225624	0.195716	0.057910	0.110202	0.460298	0.247671	0.400615	0.204047	0.201177	0.081524	0.105742	0.206987	0.529120	0.341687	0.032426	0.079876	0.186740	0.080871	0.062023	0.075390	0.607960	0.452800	0.039668	0.159091	0.147727	0.223337
85	0.076277	0.158859	0.689576	0.387118	0.236636	0.211670	0.115169	0.155191	0.233670	0.204426	0.594420	0.570218	0.047945	0.076661	0.316889	0.209668	0.080606	0.257658	0.315163	0.446356	0.043561	0.081150	0.138891	0.280339	0.401244	0.263837	0.431225	0.380684	0.486488	0.235935	0.153695	0.194210	0.402400	0.318406	0.722370	0.580997	0.079659	0.239227	0.657575	0.292541	0.368072	0.179757	0.497151	0.254667	0.086311	0.157947	0.555522	0.332956	0.104682	0.139969	0.522414	0.498289	0.285639	0.221332	0.228468	0.212436	0.058400	0.109924	0.450984	0.248537	0.384212	0.189824	0.229122	0.090082	0.108532	0.210968	0.426320	0.284309	0.033378	0.084084	0.186458	0.083895	0.065687	0.087197	0.575071	0.468371	0.037285	0.121891	0.142398	0.235017
86	0.094543	0.157225	0.664907	0.376633	0.341617	0.270720	0.105378	0.138828	0.242861	0.194487	0.574768	0.563559	0.046371	0.073891	0.318306	0.209848	0.075925	0.228445	0.314581	0.414857	0.057047	0.099163	0.135883	0.286744	0.413511	0.260039	0.498495	0.544825	0.458225	0.251889	0.159108	0.191586	0.385771	0.311002	0.715888	0.580211	0.076382	0.243187	0.581537	0.284325	0.426576	0.193697	0.462364	0.241940	0.078733	0.130503	0.546641	0.312271	0.102746	0.122619	0.514908	0.496381	0.283473	0.214469	0.239220	0.220227	0.057844	0.107269	0.450518	0.255905	0.356989	0.182670	0.231557	0.092042	0.106893	0.207971	0.437664	0.286348	0.032167	0.083524	0.178488	0.087337	0.065025	0.086884	0.573726	0.503610	0.034162	0.090214	0.147072	0.252366
87	0.105979	0.151813	0.683790	0.378090	0.358483	0.284009	0.207070	0.145011	0.239646	0.201793	0.561760	0.566252	0.054165	0.077647	0.307585	0.225752	0.063387	0.149556	0.341251	0.397048	0.062824	0.107648	0.132633	0.281710	0.440516	0.282700	0.562888	0.654181	0.427280	0.229953	0.194368	0.184344	0.374018	0.315093	0.721765	0.571500	0.077025	0.313129	0.565788	0.285417	0.445375	0.196865	0.447346	0.242939	0.072759	0.108040	0.536354	0.305682	0.101160	0.121808	0.527018	0.517084	0.270993	0.204608	0.238804	0.220806	0.059813	0.110485	0.449123	0.255558	0.338078	0.185589	0.221946	0.099959	0.100036	0.193171	0.449817	0.295909	0.032171	0.083478	0.166198	0.086164	0.067093	0.088788	0.615849	0.504731	0.041810	0.088255	0.148440	0.257217
88	0.106044	0.149021	0.641875	0.450482	0.356297	0.283783	0.251613	0.145073	0.232369	0.206248	0.587416	0.580920	0.056807	0.078623	0.299450	0.243721	0.058795	0.104282	0.404361	0.344904	0.064000	0.109620	0.132197	0.274122	0.453149	0.314827	0.572052	0.679194	0.480502	0.222667	0.212726	0.179031	0.374273	0.310482	0.800460	0.567071	0.077949	0.369027	0.551032	0.292022	0.464110	0.209019	0.453037	0.242858	0.072415	0.104444	0.469552	0.276963	0.102646	0.133354	0.523066	0.512741	0.255817	0.197422	0.238028	0.222198	0.063627	0.115688	0.447838	0.254501	0.344438	0.184661	0.213530	0.090512	0.097655	0.182933	0.423480	0.348499	0.032088	0.083457	0.132853	0.094809	0.066772	0.117353	0.606165	0.517873	0.048944	0.078689	0.150371	0.257971
89	0.104358	0.148342	0.570479	0.529708	0.348449	0.269699	0.255652	0.127899	0.226093	0.209913	0.658075	0.594441	0.064067	0.102088	0.293028	0.249100	0.058683	0.105778	0.441238	0.367551	0.064152	0.109196	0.131878	0.267025	0.496514	0.351879	0.582373	0.675657	0.472449	0.220368	0.238037	0.185995	0.373808	0.304657	0.890455	0.609069	0.075375	0.361090	0.459684	0.292770	0.561696	0.246802	0.465225	0.229452	0.072209	0.106636	0.401300	0.218057	0.101881	0.140028	0.478386	0.455431	0.252850	0.196234	0.200971	0.221139	0.067330	0.117725	0.386784	0.245601	0.334447	0.162167	0.214117	0.085462	0.105604	0.197861	0.445499	0.361636	0.032076	0.082935	0.124863	0.097561	0.062081	0.140377	0.603219	0.522180	0.049594	0.078623	0.139834	0.257548
90	0.120273	0.167640	0.624537	0.579066	0.337964	0.257041	0.255474	0.117613	0.225193	0.209447	0.737447	0.597268	0.062718	0.104264	0.316840	0.254597	0.067970	0.121215	0.435156	0.400457	0.064043	0.106324	0.170655	0.235273	0.511869	0.354375	0.609085	0.704760	0.567466	0.305093	0.262001	0.204774	0.377166	0.297175	0.934365	0.673733	0.073979	0.359364	0.310439	0.281125	0.598266	0.268926	0.466744	0.205955	0.072085	0.107531	0.383049	0.205563	0.100386	0.140219	0.413816	0.413126	0.234947	0.183861	0.155665	0.199687	0.075726	0.119080	0.327052	0.246371	0.244818	0.116271	0.216480	0.086482	0.115071	0.209849	0.435238	0.353609	0.032504	0.082350	0.100460	0.097070	0.148448	0.173652	0.603102	0.516067	0.052535	0.081256	0.131263	0.249258
91	0.159837	0.203756	0.659417	0.611011	0.333754	0.254863	0.317819	0.124434	0.224803	0.220845	0.780022	0.602343	0.058965	0.100837	0.333187	0.257615	0.081725	0.140153	0.430510	0.407693	0.064187	0.104011	0.256919	0.212574	0.479714	0.324256	0.634812	0.759882	0.567388	0.356555	0.254652	0.170055	0.388967	0.296316	0.945741	0.711666	0.059649	0.389582	0.265737	0.259976	0.628863	0.282263	0.512870	0.192526	0.071239	0.106809	0.382380	0.203855	0.104945	0.148484	0.341714	0.406178	0.197336	0.144956	0.164897	0.160003	0.078008	0.120737	0.316942	0.228290	0.180712	0.097380	0.217513	0.090369	0.114797	0.208851	0.429529	0.355526	0.032666	0.085206	0.073869	0.099711	0.320390	0.188467	0.627725	0.495321	0.059560	0.084291	0.171166	0.232696
92	0.185496	0.237473	0.649345	0.625505	0.340316	0.268708	0.352398	0.133229	0.219889	0.237156	0.783753	0.609623	0.058721	0.101759	0.312920	0.243366	0.083087	0.141221	0.446467	0.424870	0.064249	0.105620	0.261303	0.219400	0.469758	0.336812	0.661643	0.822339	0.596520	0.378799	0.275682	0.161420	0.384158	0.279259	0.952107	0.725420	0.051201	0.398968	0.272606	0.254478	0.652884	0.288255	0.596164	0.155806	0.065206	0.099798	0.364461	0.190358	0.135114	0.157905	0.309410	0.391510	0.191446	0.107182	0.180865	0.150646	0.087805	0.144538	0.320453	0.217515	0.191367	0.106237	0.194793	0.093515	0.102100	0.188414	0.427655	0.380689	0.033519	0.086211	0.118731	0.104064	0.461799	0.196422	0.598120	0.519755	0.063424	0.077746	0.189962	0.221605
93	0.203549	0.257555	0.610399	0.627549	0.368836	0.277093	0.354045	0.123295	0.218717	0.243303	0.789141	0.611562	0.058204	0.102214	0.283858	0.204294	0.080698	0.127063	0.453866	0.418365	0.060250	0.103433	0.279467	0.206802	0.475154	0.370132	0.733987	0.871261	0.597262	0.359401	0.301842	0.174027	0.391529	0.278479	0.943369	0.728607	0.058491	0.406036	0.311034	0.289062	0.659439	0.285640	0.576478	0.171029	0.060905	0.097782	0.288449	0.165659	0.203731	0.150294	0.322168	0.365904	0.170047	0.072990	0.180928	0.147573	0.102894	0.159404	0.323846	0.216370	0.196536	0.112257	0.176278	0.092840	0.095080	0.183675	0.427295	0.550973	0.036145	0.084648	0.163840	0.101619	0.550505	0.222092	0.580115	0.576936	0.061521	0.070541	0.203684	0.215277
94	0.204484	0.256975	0.656062	0.646908	0.309718	0.239620	0.358962	0.111517	0.217438	0.238835	0.820802	0.600841	0.056412	0.101189	0.294909	0.194997	0.075974	0.105462	0.460772	0.396596	0.055420	0.102147	0.310619	0.183971	0.480539	0.404552	0.764649	0.892644	0.595224	0.361469	0.310011	0.179845	0.439300	0.296779	0.926806	0.717377	0.071140	0.419705	0.342825	0.388525	0.659236	0.280114	0.541014	0.218959	0.053646	0.080120	0.181585	0.149686	0.285071	0.155445	0.300764	0.401094	0.169004	0.074218	0.163659	0.122169	0.115019	0.156650	0.255844	0.218605	0.222295	0.123316	0.145631	0.083036	0.082710	0.154620	0.444071	0.620860	0.034023	0.071534	0.166239	0.092624	0.556762	0.223938	0.571548	0.539034	0.060719	0.075132	0.222396	0.217582
95	0.207444	0.255563	0.727692	0.660852	0.284520	0.213193	0.345678	0.121474	0.198252	0.236567	0.829459	0.582390	0.052300	0.096285	0.305589	0.185891	0.075735	0.108276	0.465003	0.414442	0.048540	0.099646	0.357872	0.163407	0.467244	0.415115	0.750384	0.894007	0.580661	0.413571	0.344371	0.185585	0.492020	0.304767	0.845041	0.646260	0.084277	0.435183	0.316032	0.425962	0.620300	0.271471	0.557885	0.356674	0.040245	0.046825	0.213869	0.166931	0.332451	0.161190	0.294692	0.404967	0.151185	0.064649	0.156213	0.086192	0.119617	0.139724	0.177968	0.233717	0.230589	0.121015	0.144081	0.081394	0.082429	0.143279	0.453834	0.621152	0.033005	0.046368	0.181448	0.091737	0.620443	0.244498	0.574264	0.535249	0.060123	0.079520	0.232321	0.213806
96	0.208775	0.249481	0.806948	0.677998	0.289943	0.206188	0.296963	0.131798	0.174516	0.218103	0.762625	0.532483	0.045659	0.094576	0.274495	0.149282	0.075547	0.109484	0.495691	0.460515	0.048806	0.123446	0.377130	0.165325	0.450407	0.410923	0.743986	0.898883	0.505790	0.455248	0.351879	0.220596	0.492990	0.276734	0.810214	0.591962	0.098014	0.495362	0.314057	0.426583	0.566201	0.257010	0.702767	0.385065	0.027576	0.036646	0.230767	0.184712	0.372840	0.168191	0.496130	0.396145	0.136462	0.054467	0.153191	0.055994	0.133288	0.137828	0.153241	0.225805	0.228309	0.116716	0.146610	0.069134	0.123758	0.164883	0.452071	0.615289	0.037607	0.033710	0.189022	0.092497	0.893215	0.311945	0.580623	0.538502	0.059706	0.078841	0.240045	0.199615
97	0.223644	0.250479	0.822365	0.685394	0.314530	0.221585	0.295690	0.132427	0.154351	0.200716	0.725301	0.453783	0.044205	0.088072	0.233319	0.102985	0.075462	0.109974	0.498100	0.464197	0.047584	0.133247	0.377685	0.166629	0.450890	0.410470	0.669028	0.892587	0.473599	0.453700	0.332764	0.248228	0.510184	0.262156	0.801704	0.597087	0.112578	0.574239	0.319846	0.435004	0.527275	0.246370	0.829309	0.386466	0.024295	0.037869	0.231703	0.188251	0.515727	0.191260	0.645942	0.446488	0.136966	0.062864	0.143143	0.054633	0.150060	0.148244	0.158490	0.216459	0.217431	0.113364	0.166538	0.051887	0.138097	0.172762	0.415007	0.611633	0.044341	0.034208	0.192108	0.090689	0.924604	0.325885	0.579230	0.517260	0.057360	0.072512	0.250444	0.190059
98	0.250143	0.267919	0.814128	0.686421	0.336311	0.239849	0.292749	0.132483	0.152420	0.194957	0.722424	0.437775	0.032662	0.057371	0.240956	0.092680	0.075024	0.108309	0.445242	0.449312	0.047242	0.139086	0.433540	0.196457	0.440003	0.404951	0.612517	0.810022	0.350001	0.429157	0.322286	0.239192	0.522003	0.271794	0.796979	0.605809	0.114000	0.543864	0.384129	0.479899	0.531241	0.255792	0.863887	0.422821	0.024448	0.038699	0.239657	0.191724	0.575283	0.206935	0.661731	0.492004	0.151235	0.062253	0.142453	0.052741	0.213288	0.165701	0.168342	0.200765	0.182485	0.106870	0.167864	0.056320	0.142547	0.193504	0.436416	0.583094	0.062328	0.034239	0.192339	0.090724	0.924435	0.328570	0.520033	0.543567	0.053902	0.066053	0.257476	0.190677
99	0.256323	0.275944	0.780757	0.666561	0.345387	0.245124	0.241635	0.127379	0.163040	0.186830	0.720714	0.467101	0.031997	0.047260	0.264163	0.102811	0.073235	0.107431	0.423824	0.421419	0.050571	0.140966	0.468856	0.240941	0.419099	0.397941	0.545673	0.697387	0.289828	0.411930	0.329242	0.247937	0.617624	0.337916	0.803626	0.606231	0.131711	0.522173	0.438905	0.538458	0.509770	0.241457	0.859520	0.511541	0.022503	0.039068	0.249509	0.205739	0.579193	0.212733	0.662398	0.514278	0.159285	0.064028	0.157509	0.054407	0.281266	0.184007	0.170165	0.206440	0.158878	0.106359	0.165553	0.056241	0.164617	0.199915	0.431951	0.584957	0.068163	0.041385	0.194802	0.086342	0.924394	0.321738	0.456269	0.622176	0.052568	0.070007	0.261579	0.198112
100	0.256128	0.277817	0.751670	0.594509	0.338989	0.234766	0.159037	0.113421	0.177018	0.181823	0.692712	0.450301	0.035903	0.047177	0.269916	0.151547	0.062428	0.099607	0.450297	0.392169	0.059226	0.185881	0.452869	0.253481	0.388391	0.376825	0.531432	0.655815	0.178396	0.417435	0.323162	0.278947	0.740347	0.412352	0.753238	0.588458	0.152430	0.534917	0.447030	0.568852	0.435452	0.224024	0.850088	0.582407	0.021116	0.039145	0.256589	0.221178	0.581693	0.211866	0.671253	0.519087	0.165421	0.065976	0.166132	0.075577	0.292354	0.182893	0.166427	0.188478	0.166876	0.136813	0.165969	0.051323	0.179132	0.187852	0.403566	0.634389	0.121049	0.059667	0.201465	0.116044	0.924408	0.310669	0.442545	0.654037	0.052531	0.092944	0.261142	0.201143
101	0.259953	0.280024	0.725803	0.538561	0.305011	0.205788	0.164671	0.114965	0.187038	0.180377	0.624470	0.393853	0.040709	0.041160	0.270523	0.157218	0.037603	0.076566	0.461183	0.382964	0.067546	0.254758	0.427165	0.236420	0.327578	0.348596	0.524997	0.653740	0.143068	0.482316	0.312811	0.300126	0.774107	0.427629	0.654797	0.531534	0.157611	0.535414	0.445590	0.572157	0.389299	0.208081	0.858871	0.609496	0.021751	0.030551	0.263379	0.230750	0.598100	0.212989	0.696682	0.521378	0.163809	0.070704	0.159433	0.076997	0.301834	0.192322	0.184196	0.226956	0.211995	0.173749	0.176363	0.051404	0.188840	0.187046	0.398745	0.641883	0.148558	0.067056	0.203289	0.146989	0.919089	0.293100	0.440036	0.651789	0.047310	0.167612	0.254096	0.199362
