	301_At_T2_sh_ND_02.c3d	301_At_T2_sh_ND_02.c3d	301_At_T2_sh_ND_02.c3d	301_At_T2_sh_ND_02.c3d	301_At_T2_sh_ND_02.c3d	301_At_T2_sh_ND_02.c3d	301_At_T2_sh_ND_02.c3d	301_At_T2_sh_ND_02.c3d	301_At_T2_sh_ND_03.c3d	301_At_T2_sh_ND_03.c3d	301_At_T2_sh_ND_03.c3d	301_At_T2_sh_ND_03.c3d	301_At_T2_sh_ND_03.c3d	301_At_T2_sh_ND_03.c3d	301_At_T2_sh_ND_03.c3d	301_At_T2_sh_ND_03.c3d	301_At_T2_sh_ND_04.c3d	301_At_T2_sh_ND_04.c3d	301_At_T2_sh_ND_04.c3d	301_At_T2_sh_ND_04.c3d	301_At_T2_sh_ND_04.c3d	301_At_T2_sh_ND_04.c3d	301_At_T2_sh_ND_04.c3d	301_At_T2_sh_ND_04.c3d	301_At_T2_sh_ND_05.c3d	301_At_T2_sh_ND_05.c3d	301_At_T2_sh_ND_05.c3d	301_At_T2_sh_ND_05.c3d	301_At_T2_sh_ND_05.c3d	301_At_T2_sh_ND_05.c3d	301_At_T2_sh_ND_05.c3d	301_At_T2_sh_ND_05.c3d	301_At_T2_sh_ND_06.c3d	301_At_T2_sh_ND_06.c3d	301_At_T2_sh_ND_06.c3d	301_At_T2_sh_ND_06.c3d	301_At_T2_sh_ND_06.c3d	301_At_T2_sh_ND_06.c3d	301_At_T2_sh_ND_06.c3d	301_At_T2_sh_ND_06.c3d	301_At_T2_sh_ND_07.c3d	301_At_T2_sh_ND_07.c3d	301_At_T2_sh_ND_07.c3d	301_At_T2_sh_ND_07.c3d	301_At_T2_sh_ND_07.c3d	301_At_T2_sh_ND_07.c3d	301_At_T2_sh_ND_07.c3d	301_At_T2_sh_ND_07.c3d	301_At_T2_sh_ND_08.c3d	301_At_T2_sh_ND_08.c3d	301_At_T2_sh_ND_08.c3d	301_At_T2_sh_ND_08.c3d	301_At_T2_sh_ND_08.c3d	301_At_T2_sh_ND_08.c3d	301_At_T2_sh_ND_08.c3d	301_At_T2_sh_ND_08.c3d	301_At_T2_sh_ND_09.c3d	301_At_T2_sh_ND_09.c3d	301_At_T2_sh_ND_09.c3d	301_At_T2_sh_ND_09.c3d	301_At_T2_sh_ND_09.c3d	301_At_T2_sh_ND_09.c3d	301_At_T2_sh_ND_09.c3d	301_At_T2_sh_ND_09.c3d	301_At_T2_sh_ND_10.c3d	301_At_T2_sh_ND_10.c3d	301_At_T2_sh_ND_10.c3d	301_At_T2_sh_ND_10.c3d	301_At_T2_sh_ND_10.c3d	301_At_T2_sh_ND_10.c3d	301_At_T2_sh_ND_10.c3d	301_At_T2_sh_ND_10.c3d
	Biceps femoris_lat	Semitendinosus_lat	Vastus lateralis_lat	Vastus medialis_lat	Biceps femoris_med	Semitendinosus_med	Vastus lateralis_med	Vastus medialis_med	Biceps femoris_lat	Semitendinosus_lat	Vastus lateralis_lat	Vastus medialis_lat	Biceps femoris_med	Semitendinosus_med	Vastus lateralis_med	Vastus medialis_med	Biceps femoris_lat	Semitendinosus_lat	Vastus lateralis_lat	Vastus medialis_lat	Biceps femoris_med	Semitendinosus_med	Vastus lateralis_med	Vastus medialis_med	Biceps femoris_lat	Semitendinosus_lat	Vastus lateralis_lat	Vastus medialis_lat	Biceps femoris_med	Semitendinosus_med	Vastus lateralis_med	Vastus medialis_med	Biceps femoris_lat	Semitendinosus_lat	Vastus lateralis_lat	Vastus medialis_lat	Biceps femoris_med	Semitendinosus_med	Vastus lateralis_med	Vastus medialis_med	Biceps femoris_lat	Semitendinosus_lat	Vastus lateralis_lat	Vastus medialis_lat	Biceps femoris_med	Semitendinosus_med	Vastus lateralis_med	Vastus medialis_med	Biceps femoris_lat	Semitendinosus_lat	Vastus lateralis_lat	Vastus medialis_lat	Biceps femoris_med	Semitendinosus_med	Vastus lateralis_med	Vastus medialis_med	Biceps femoris_lat	Semitendinosus_lat	Vastus lateralis_lat	Vastus medialis_lat	Biceps femoris_med	Semitendinosus_med	Vastus lateralis_med	Vastus medialis_med	Biceps femoris_lat	Semitendinosus_lat	Vastus lateralis_lat	Vastus medialis_lat	Biceps femoris_med	Semitendinosus_med	Vastus lateralis_med	Vastus medialis_med
	P2D	P2D	P2D	P2D	P2D	P2D	P2D	P2D	P2D	P2D	P2D	P2D	P2D	P2D	P2D	P2D	P2D	P2D	P2D	P2D	P2D	P2D	P2D	P2D	P2D	P2D	P2D	P2D	P2D	P2D	P2D	P2D	P2D	P2D	P2D	P2D	P2D	P2D	P2D	P2D	P2D	P2D	P2D	P2D	P2D	P2D	P2D	P2D	P2D	P2D	P2D	P2D	P2D	P2D	P2D	P2D	P2D	P2D	P2D	P2D	P2D	P2D	P2D	P2D	P2D	P2D	P2D	P2D	P2D	P2D	P2D	P2D
	EMG_lat	EMG_lat	EMG_lat	EMG_lat	EMG_med	EMG_med	EMG_med	EMG_med	EMG_lat	EMG_lat	EMG_lat	EMG_lat	EMG_med	EMG_med	EMG_med	EMG_med	EMG_lat	EMG_lat	EMG_lat	EMG_lat	EMG_med	EMG_med	EMG_med	EMG_med	EMG_lat	EMG_lat	EMG_lat	EMG_lat	EMG_med	EMG_med	EMG_med	EMG_med	EMG_lat	EMG_lat	EMG_lat	EMG_lat	EMG_med	EMG_med	EMG_med	EMG_med	EMG_lat	EMG_lat	EMG_lat	EMG_lat	EMG_med	EMG_med	EMG_med	EMG_med	EMG_lat	EMG_lat	EMG_lat	EMG_lat	EMG_med	EMG_med	EMG_med	EMG_med	EMG_lat	EMG_lat	EMG_lat	EMG_lat	EMG_med	EMG_med	EMG_med	EMG_med	EMG_lat	EMG_lat	EMG_lat	EMG_lat	EMG_med	EMG_med	EMG_med	EMG_med
ITEM	Y	Y	Y	Y	Y	Y	Y	Y	Y	Y	Y	Y	Y	Y	Y	Y	Y	Y	Y	Y	Y	Y	Y	Y	Y	Y	Y	Y	Y	Y	Y	Y	Y	Y	Y	Y	Y	Y	Y	Y	Y	Y	Y	Y	Y	Y	Y	Y	Y	Y	Y	Y	Y	Y	Y	Y	Y	Y	Y	Y	Y	Y	Y	Y	Y	Y	Y	Y	Y	Y	Y	Y
1	0.135148	0.257615	0.249553	0.239937	0.165345	0.205478	0.280503	0.385089	0.218907	0.283534	0.271167	0.246268	0.191204	0.124762	0.310837	0.444350	0.287996	0.189261	0.385070	0.144130	0.094245	0.097404	0.422716	0.347926	0.060177	0.076124	0.399535	0.269129	0.110632	0.144507	0.156942	0.168514	0.202551	0.190114	0.300480	0.214205	0.157006	0.153221	0.189455	0.230181	0.102459	0.120717	0.252789	0.298699	0.086743	0.423234	0.209219	0.217972	0.043487	0.107506	0.314497	0.113241	0.038109	0.051872	0.245287	0.425148	0.121395	0.189852	0.198136	0.238912	0.046696	0.080544	0.266840	0.256526	0.098065	0.278127	0.240066	0.232577	0.038498	0.051064	0.363989	0.150809
2	0.133771	0.256018	0.212820	0.265228	0.167484	0.212369	0.264396	0.379724	0.183277	0.240987	0.263106	0.234180	0.119779	0.086976	0.266350	0.414787	0.284644	0.163849	0.387664	0.152987	0.057403	0.096273	0.398837	0.349510	0.066987	0.081632	0.402306	0.307632	0.109466	0.167189	0.158383	0.159053	0.196201	0.187398	0.275090	0.202420	0.152560	0.159048	0.179302	0.212930	0.103127	0.117342	0.251711	0.298077	0.086768	0.409382	0.202709	0.217390	0.047841	0.111671	0.283114	0.117310	0.034237	0.056890	0.199698	0.401802	0.105255	0.187409	0.197745	0.246413	0.044882	0.083690	0.276596	0.251313	0.097278	0.269549	0.236758	0.215199	0.039578	0.055479	0.361807	0.154474
3	0.132743	0.254767	0.220022	0.295240	0.166066	0.212465	0.256803	0.370060	0.143378	0.209607	0.216491	0.235319	0.066876	0.094612	0.283399	0.382034	0.250183	0.139455	0.384943	0.153980	0.048139	0.095044	0.388113	0.329694	0.070909	0.094594	0.404411	0.330397	0.111322	0.162640	0.143398	0.131885	0.184050	0.187119	0.244344	0.168890	0.131362	0.156593	0.183131	0.249379	0.103025	0.116175	0.232889	0.290783	0.085511	0.370376	0.185613	0.222062	0.048339	0.108286	0.257402	0.121664	0.040300	0.131991	0.193143	0.362096	0.096436	0.161065	0.281902	0.248329	0.044556	0.079391	0.276017	0.240082	0.088431	0.262827	0.247075	0.226572	0.036021	0.078551	0.371916	0.140394
4	0.133120	0.254877	0.232446	0.323020	0.166443	0.210735	0.257926	0.332964	0.130109	0.226848	0.156620	0.241611	0.046084	0.082769	0.278891	0.374672	0.191769	0.134517	0.382672	0.152624	0.054310	0.096399	0.394915	0.292492	0.068358	0.097386	0.420567	0.329553	0.102705	0.173243	0.137332	0.156062	0.159530	0.178342	0.239408	0.126689	0.122465	0.153088	0.193627	0.251527	0.099446	0.125560	0.262143	0.302381	0.087691	0.306973	0.184713	0.214755	0.046400	0.108344	0.236136	0.132019	0.039355	0.144977	0.197798	0.360088	0.091100	0.147887	0.420444	0.262446	0.044609	0.075697	0.264061	0.236467	0.081716	0.255780	0.397340	0.251669	0.037060	0.080290	0.415024	0.138622
5	0.123801	0.247814	0.226418	0.345035	0.167404	0.200221	0.298326	0.288542	0.136880	0.235798	0.150424	0.262467	0.040975	0.076024	0.288134	0.375716	0.164869	0.137684	0.396492	0.153716	0.055855	0.092473	0.348078	0.286917	0.063963	0.096014	0.460905	0.335896	0.119849	0.202467	0.180119	0.151697	0.121877	0.147059	0.234635	0.123308	0.116361	0.148149	0.254965	0.275172	0.094802	0.151698	0.274383	0.363113	0.096341	0.222710	0.195988	0.208419	0.044266	0.107089	0.239121	0.172849	0.040002	0.146047	0.291464	0.395766	0.092351	0.146771	0.470216	0.348190	0.045374	0.075230	0.261476	0.230229	0.080733	0.256231	0.494727	0.308134	0.038274	0.081324	0.492841	0.175744
6	0.107700	0.231757	0.240178	0.351993	0.148252	0.181162	0.310030	0.255583	0.148526	0.235506	0.146586	0.283310	0.035597	0.078228	0.245810	0.314611	0.165526	0.143132	0.398533	0.170969	0.055675	0.092499	0.355295	0.287004	0.062896	0.094702	0.474323	0.355966	0.135386	0.209870	0.241389	0.162760	0.083134	0.110880	0.236861	0.114457	0.113907	0.145755	0.280579	0.275738	0.092635	0.162544	0.264459	0.399831	0.093919	0.164197	0.204517	0.193450	0.042868	0.104613	0.241019	0.349939	0.045522	0.144071	0.297324	0.318161	0.090528	0.161044	0.468088	0.447817	0.045307	0.074939	0.262530	0.228494	0.073864	0.236753	0.482410	0.320947	0.041912	0.088112	0.528990	0.197496
7	0.111300	0.243311	0.292092	0.353813	0.118205	0.163621	0.308971	0.245942	0.149049	0.229423	0.134319	0.299315	0.036038	0.094452	0.242085	0.227781	0.165665	0.124784	0.435233	0.210880	0.055514	0.089060	0.377768	0.292476	0.066750	0.092977	0.448287	0.389143	0.132267	0.204953	0.343780	0.182709	0.075253	0.086041	0.246421	0.149158	0.095458	0.126746	0.280613	0.261557	0.095511	0.161504	0.257217	0.405179	0.093971	0.125696	0.175893	0.185107	0.042914	0.101856	0.257497	0.485127	0.056785	0.147651	0.323302	0.269374	0.098094	0.178074	0.492870	0.474333	0.047209	0.075137	0.255078	0.231862	0.064703	0.199792	0.484196	0.316165	0.045198	0.099107	0.513871	0.200827
8	0.109806	0.257166	0.367214	0.370472	0.111300	0.162608	0.321215	0.292043	0.128191	0.220241	0.133747	0.297784	0.083266	0.106942	0.242163	0.276570	0.166316	0.114789	0.489575	0.281997	0.051925	0.072276	0.395162	0.323188	0.075293	0.105515	0.455546	0.445840	0.132616	0.205717	0.347402	0.182072	0.058486	0.059013	0.226880	0.173341	0.067323	0.114084	0.277776	0.270777	0.100198	0.158789	0.253616	0.402454	0.095096	0.114091	0.197162	0.177686	0.047914	0.101130	0.262215	0.510758	0.058154	0.144818	0.455503	0.295488	0.104049	0.167501	0.531479	0.472964	0.047418	0.076917	0.230414	0.233247	0.065459	0.171188	0.552449	0.343587	0.044160	0.108230	0.516099	0.207396
9	0.094228	0.226265	0.426480	0.421849	0.114844	0.188528	0.352939	0.395289	0.114557	0.221117	0.135555	0.285769	0.134940	0.123625	0.321301	0.254711	0.158750	0.115993	0.493093	0.375245	0.049788	0.067483	0.398858	0.305666	0.092196	0.149734	0.457870	0.458119	0.135322	0.205755	0.342040	0.191161	0.054089	0.059131	0.162220	0.164152	0.053485	0.113765	0.278290	0.275221	0.092237	0.148094	0.278790	0.404766	0.087626	0.113975	0.199571	0.182515	0.063684	0.118847	0.250464	0.511336	0.071589	0.146555	0.493134	0.306159	0.107154	0.169711	0.590030	0.471435	0.045933	0.075631	0.212121	0.232002	0.065493	0.168163	0.606097	0.401492	0.044226	0.109542	0.601034	0.206867
10	0.082709	0.185187	0.429433	0.464468	0.109109	0.191278	0.390699	0.463821	0.114043	0.258464	0.141468	0.302555	0.187394	0.133223	0.335278	0.249093	0.141478	0.105552	0.484703	0.390891	0.037073	0.065350	0.349962	0.266659	0.104360	0.175161	0.484991	0.445598	0.136029	0.197714	0.370439	0.208864	0.064907	0.092592	0.172114	0.159297	0.048302	0.107584	0.304617	0.276386	0.082244	0.144546	0.329207	0.428790	0.062948	0.114390	0.190028	0.192551	0.073600	0.131219	0.249363	0.534408	0.148182	0.144992	0.502083	0.301639	0.116811	0.182298	0.654882	0.500026	0.071008	0.076733	0.259659	0.238269	0.065325	0.161703	0.667619	0.451105	0.067651	0.115311	0.706659	0.227175
11	0.087336	0.178918	0.433762	0.483606	0.103259	0.182386	0.393428	0.456474	0.134174	0.364575	0.148483	0.325298	0.196566	0.133262	0.402176	0.249091	0.130944	0.105413	0.509063	0.397068	0.034777	0.065244	0.305847	0.256944	0.101613	0.176579	0.530457	0.452951	0.149315	0.173883	0.473717	0.224254	0.071463	0.106329	0.167689	0.160308	0.043337	0.101735	0.341717	0.289928	0.083431	0.155560	0.346499	0.454221	0.067095	0.115449	0.219698	0.204638	0.078311	0.143710	0.250811	0.577916	0.152715	0.123582	0.503414	0.304630	0.119344	0.185895	0.700165	0.576231	0.111359	0.097792	0.292160	0.256626	0.073065	0.148674	0.685248	0.482036	0.104828	0.155804	0.729096	0.275011
12	0.099861	0.201745	0.449009	0.484722	0.117031	0.200423	0.444269	0.473608	0.227169	0.509922	0.209618	0.318041	0.196524	0.128774	0.501553	0.273470	0.118048	0.104682	0.518931	0.418873	0.034538	0.057534	0.378553	0.258154	0.097990	0.176977	0.560616	0.481316	0.162380	0.174844	0.519146	0.331127	0.077263	0.112706	0.164086	0.162170	0.047810	0.092787	0.405917	0.269432	0.083320	0.152044	0.342434	0.458363	0.064807	0.103917	0.281679	0.229588	0.091100	0.160160	0.229339	0.626371	0.155736	0.068879	0.500354	0.294089	0.116297	0.184950	0.699397	0.666583	0.127161	0.102479	0.274189	0.263411	0.078134	0.150538	0.684848	0.487593	0.112795	0.173685	0.720311	0.286306
13	0.105712	0.217542	0.462204	0.484388	0.121257	0.204694	0.585290	0.520896	0.295024	0.593116	0.223250	0.307943	0.272949	0.141058	0.519889	0.296645	0.106311	0.109968	0.515496	0.431222	0.034596	0.054094	0.437449	0.256945	0.093977	0.170608	0.583344	0.496858	0.166145	0.179942	0.520323	0.420434	0.083613	0.117270	0.170531	0.165454	0.047363	0.076790	0.405918	0.244683	0.090203	0.156508	0.343181	0.459099	0.064238	0.096146	0.298900	0.250220	0.095605	0.164733	0.212707	0.664579	0.165090	0.092915	0.484466	0.200152	0.123744	0.213334	0.701100	0.703111	0.129697	0.103438	0.271897	0.222681	0.079334	0.154341	0.685547	0.486853	0.130765	0.175481	0.721270	0.282121
14	0.106942	0.218438	0.476362	0.483698	0.128891	0.220832	0.633220	0.622623	0.336105	0.620790	0.215439	0.319296	0.345992	0.198104	0.514130	0.291157	0.136824	0.142492	0.519277	0.448886	0.037423	0.069828	0.459921	0.250000	0.091112	0.169015	0.585755	0.486639	0.253241	0.153118	0.504376	0.439710	0.083281	0.119174	0.202988	0.160825	0.049755	0.079364	0.401538	0.281509	0.133362	0.182303	0.361723	0.471511	0.064199	0.094371	0.306424	0.263049	0.098845	0.172345	0.196675	0.691274	0.171730	0.100822	0.491640	0.191627	0.128016	0.230814	0.709477	0.704402	0.130862	0.101569	0.263529	0.200786	0.080709	0.154571	0.685645	0.489669	0.130505	0.174992	0.721761	0.282197
15	0.105441	0.217105	0.483168	0.508594	0.134438	0.255544	0.613798	0.690621	0.351661	0.622059	0.232898	0.317653	0.447883	0.253650	0.515706	0.272824	0.153269	0.163274	0.530960	0.468320	0.036285	0.077936	0.455306	0.251272	0.091397	0.171695	0.583419	0.485727	0.275810	0.141769	0.491538	0.438018	0.083686	0.128754	0.211035	0.199897	0.052037	0.082505	0.369298	0.266409	0.148016	0.187523	0.364035	0.485968	0.065068	0.095953	0.309992	0.264712	0.110705	0.198273	0.248375	0.704503	0.176972	0.096535	0.493918	0.191833	0.128179	0.235198	0.697934	0.705718	0.169412	0.104367	0.261547	0.195628	0.080387	0.152410	0.635327	0.478039	0.133260	0.169148	0.713458	0.286646
16	0.105615	0.216483	0.475751	0.540762	0.130208	0.275392	0.622498	0.701780	0.359567	0.627698	0.251040	0.316054	0.448588	0.250554	0.515649	0.250034	0.148959	0.160517	0.527711	0.477122	0.028840	0.071011	0.445430	0.267859	0.091988	0.173278	0.552080	0.483133	0.276798	0.134876	0.420933	0.427202	0.083816	0.133572	0.220652	0.232384	0.054827	0.081256	0.351877	0.255872	0.147255	0.189795	0.340145	0.472662	0.062771	0.098631	0.310282	0.267608	0.117754	0.212976	0.307348	0.706694	0.177856	0.096286	0.447646	0.168046	0.128160	0.237344	0.639378	0.719826	0.193962	0.112633	0.261466	0.196319	0.079757	0.132590	0.538310	0.430534	0.139992	0.171249	0.679045	0.281660
17	0.115047	0.232214	0.474754	0.571407	0.127079	0.278311	0.625700	0.702832	0.404718	0.659909	0.252772	0.310408	0.444551	0.243020	0.499382	0.254690	0.150651	0.154105	0.496609	0.475990	0.029386	0.071510	0.448129	0.307455	0.093641	0.175009	0.528799	0.471962	0.280119	0.131115	0.408427	0.428176	0.083816	0.137979	0.216717	0.260835	0.059656	0.083587	0.349883	0.251353	0.147033	0.186037	0.333934	0.428803	0.052377	0.098655	0.306335	0.264426	0.122305	0.216850	0.324894	0.706367	0.183993	0.093857	0.379531	0.137402	0.127331	0.238517	0.565946	0.714245	0.196080	0.115165	0.260459	0.197131	0.079472	0.108294	0.516845	0.402943	0.141270	0.171493	0.626539	0.258760
18	0.122018	0.250756	0.472510	0.583285	0.127301	0.278034	0.622298	0.691257	0.521055	0.726942	0.256427	0.306051	0.435793	0.232978	0.523108	0.433268	0.151048	0.149981	0.436434	0.460070	0.029145	0.076029	0.425878	0.363996	0.090914	0.174887	0.490947	0.424401	0.281370	0.132194	0.422406	0.429437	0.080584	0.139889	0.208564	0.300704	0.059700	0.084876	0.350043	0.230800	0.145667	0.183081	0.335411	0.422321	0.052015	0.096214	0.318452	0.254309	0.126740	0.219023	0.325652	0.705985	0.146558	0.093527	0.389946	0.126655	0.123344	0.234864	0.560438	0.648975	0.196257	0.115833	0.258254	0.204872	0.074177	0.099791	0.549138	0.401675	0.144384	0.168435	0.598679	0.255405
19	0.120813	0.247297	0.459353	0.583967	0.125649	0.262987	0.600338	0.647496	0.570172	0.768525	0.258392	0.310328	0.426866	0.229286	0.591462	0.474196	0.152426	0.151712	0.380020	0.424288	0.028928	0.082752	0.404457	0.392149	0.086032	0.169191	0.463691	0.352727	0.284985	0.135526	0.526209	0.438988	0.079862	0.142087	0.193109	0.308994	0.060061	0.083742	0.379306	0.231243	0.140370	0.182355	0.342868	0.426353	0.051762	0.095900	0.367991	0.271413	0.128457	0.219092	0.330794	0.704166	0.120503	0.094154	0.384777	0.125949	0.119566	0.223339	0.547569	0.612390	0.195863	0.116204	0.270280	0.200454	0.072705	0.102304	0.500462	0.390481	0.152437	0.165694	0.612028	0.253628
20	0.114654	0.229202	0.421827	0.577173	0.121865	0.247402	0.551718	0.572198	0.583882	0.779869	0.257558	0.316597	0.426882	0.227598	0.523380	0.475911	0.153610	0.163095	0.365673	0.333715	0.028401	0.090235	0.391582	0.375043	0.072577	0.137906	0.468313	0.319983	0.279216	0.136078	0.483329	0.453103	0.081024	0.145111	0.199953	0.315502	0.113654	0.091964	0.383350	0.239544	0.145145	0.180680	0.339080	0.429365	0.049771	0.091837	0.372432	0.292872	0.129905	0.219282	0.336784	0.687032	0.115458	0.092950	0.383572	0.158352	0.119977	0.219729	0.523173	0.606199	0.195714	0.113837	0.285908	0.191166	0.074020	0.103556	0.430675	0.337346	0.160123	0.166703	0.651969	0.248208
21	0.111324	0.223417	0.361757	0.556481	0.119607	0.242063	0.555757	0.570064	0.589829	0.786292	0.257437	0.325557	0.427581	0.227492	0.474063	0.487386	0.153162	0.164849	0.404511	0.318235	0.029537	0.093220	0.383670	0.368769	0.046395	0.090614	0.428961	0.388245	0.269313	0.148564	0.426886	0.400585	0.077018	0.140461	0.207584	0.317514	0.211756	0.130909	0.351714	0.232045	0.163428	0.189358	0.301104	0.415798	0.049227	0.091037	0.369844	0.301124	0.130724	0.219150	0.345552	0.594176	0.110782	0.098122	0.390070	0.197278	0.123702	0.216899	0.469704	0.630763	0.195585	0.108474	0.310402	0.197993	0.087259	0.103628	0.329459	0.267281	0.185480	0.178485	0.577649	0.255561
22	0.109443	0.221179	0.354581	0.511046	0.102906	0.221239	0.550550	0.568378	0.590228	0.785657	0.261263	0.324158	0.363116	0.212379	0.531115	0.535423	0.152770	0.161351	0.398145	0.329192	0.035073	0.093177	0.393743	0.377599	0.043338	0.084699	0.367744	0.480182	0.264703	0.155481	0.467641	0.278977	0.073142	0.135478	0.199140	0.331594	0.217174	0.133699	0.267800	0.225965	0.169690	0.189967	0.245019	0.383626	0.047767	0.098420	0.368367	0.295175	0.129385	0.215721	0.344829	0.517846	0.098129	0.137794	0.356100	0.206534	0.128925	0.211800	0.379376	0.646879	0.187220	0.102641	0.313507	0.211041	0.087593	0.091545	0.262279	0.195735	0.175598	0.172006	0.426211	0.233652
23	0.104225	0.216954	0.338629	0.470128	0.093097	0.207334	0.436257	0.536294	0.598422	0.772797	0.278319	0.302036	0.263127	0.140342	0.548169	0.560367	0.150829	0.160019	0.335210	0.302743	0.042587	0.094284	0.423563	0.424580	0.046483	0.085438	0.313587	0.472213	0.203771	0.157902	0.504536	0.222005	0.075089	0.146949	0.216681	0.349459	0.229619	0.131614	0.266174	0.200764	0.172218	0.187232	0.239236	0.369199	0.042215	0.104711	0.343332	0.279209	0.126560	0.205242	0.349472	0.505768	0.084957	0.161520	0.317178	0.208607	0.140945	0.208497	0.243793	0.599738	0.165474	0.081359	0.277293	0.267581	0.080107	0.071376	0.262899	0.176739	0.158428	0.138751	0.384144	0.182735
24	0.092784	0.200188	0.303842	0.469624	0.086342	0.205438	0.308874	0.431027	0.624617	0.749441	0.293694	0.277328	0.147426	0.118139	0.549665	0.563273	0.144517	0.154925	0.327194	0.283425	0.047584	0.096810	0.407138	0.474104	0.056061	0.084416	0.264039	0.430416	0.115472	0.197679	0.508899	0.219526	0.074832	0.155492	0.228240	0.352337	0.244645	0.146527	0.275278	0.151399	0.178160	0.211238	0.256632	0.394948	0.041201	0.101858	0.307745	0.252302	0.127343	0.196683	0.355445	0.506926	0.086641	0.161347	0.309748	0.217724	0.140560	0.208681	0.201022	0.498653	0.152270	0.070331	0.276344	0.318914	0.080544	0.058006	0.266629	0.186662	0.150642	0.127524	0.389176	0.165009
25	0.085247	0.181994	0.281938	0.490358	0.071423	0.183150	0.288288	0.281744	0.634120	0.708827	0.281112	0.275758	0.146599	0.164932	0.554225	0.562575	0.118869	0.133591	0.340196	0.247447	0.056070	0.098507	0.381109	0.504178	0.055226	0.070638	0.256500	0.446445	0.104919	0.202741	0.546782	0.227100	0.073750	0.153775	0.213535	0.351071	0.270085	0.183365	0.280757	0.143899	0.193718	0.275234	0.237097	0.432588	0.038129	0.097191	0.295037	0.229528	0.158445	0.208101	0.384242	0.498583	0.071202	0.161388	0.263957	0.215734	0.135135	0.198684	0.183027	0.423281	0.153305	0.068368	0.276801	0.330032	0.097862	0.068201	0.281022	0.172125	0.140669	0.137829	0.395719	0.165629
26	0.085642	0.180521	0.257793	0.498150	0.054996	0.131695	0.250408	0.224006	0.644585	0.684318	0.278027	0.289231	0.128095	0.166614	0.550342	0.516751	0.063097	0.095251	0.355727	0.209722	0.055748	0.085860	0.370212	0.507510	0.056908	0.053928	0.260685	0.508119	0.094316	0.203831	0.589697	0.221708	0.079973	0.150898	0.187254	0.363724	0.277137	0.193274	0.329941	0.162224	0.175859	0.281834	0.213315	0.429476	0.038229	0.119948	0.286246	0.213285	0.198435	0.230547	0.415531	0.489730	0.073268	0.166682	0.222597	0.213812	0.129960	0.181159	0.131818	0.422704	0.155480	0.069111	0.277783	0.329909	0.111185	0.083921	0.294959	0.157953	0.142869	0.149335	0.395685	0.166610
27	0.085908	0.180065	0.237047	0.459923	0.054360	0.110279	0.239056	0.216712	0.650748	0.681728	0.305534	0.327926	0.166583	0.206861	0.455107	0.387449	0.063855	0.095787	0.362567	0.188360	0.068224	0.082694	0.376290	0.503532	0.090570	0.090209	0.277606	0.572293	0.091537	0.206112	0.588068	0.219528	0.082582	0.142034	0.205373	0.382187	0.282942	0.192350	0.385066	0.185253	0.170505	0.284263	0.195186	0.412381	0.031321	0.140338	0.284148	0.204728	0.207676	0.229279	0.416300	0.460816	0.073511	0.168425	0.222601	0.215586	0.130890	0.171286	0.112562	0.447972	0.118532	0.064144	0.285197	0.336027	0.108787	0.082438	0.312755	0.194629	0.159601	0.155950	0.403589	0.163185
28	0.083705	0.176403	0.226096	0.401534	0.055550	0.111373	0.253423	0.216452	0.652413	0.682665	0.338380	0.346303	0.169239	0.220162	0.383405	0.364474	0.068581	0.103358	0.353980	0.186738	0.074836	0.083734	0.383437	0.501726	0.108754	0.142693	0.295734	0.598669	0.081968	0.209116	0.523261	0.186279	0.106862	0.144598	0.296283	0.390975	0.288018	0.193132	0.463471	0.232930	0.170374	0.283685	0.225919	0.404374	0.023248	0.156638	0.283791	0.203188	0.215884	0.228295	0.407471	0.419589	0.072688	0.169264	0.220779	0.198455	0.137701	0.169353	0.155199	0.446419	0.065507	0.047391	0.318499	0.351664	0.113640	0.089796	0.366650	0.279037	0.174220	0.175028	0.409760	0.162570
29	0.073452	0.151892	0.226099	0.340672	0.057835	0.116398	0.263796	0.211815	0.708079	0.699450	0.406780	0.357692	0.167326	0.229027	0.379580	0.351747	0.069699	0.100998	0.353480	0.183033	0.074750	0.119411	0.391344	0.472983	0.110296	0.146669	0.325501	0.601537	0.065983	0.207850	0.526285	0.154659	0.110415	0.152059	0.305589	0.377030	0.324604	0.215727	0.453049	0.231269	0.203119	0.298755	0.250364	0.403014	0.022896	0.159488	0.276794	0.202488	0.213491	0.229735	0.409441	0.383417	0.065642	0.162878	0.225648	0.179134	0.137920	0.167608	0.177120	0.405988	0.055383	0.053611	0.342902	0.367139	0.117429	0.116228	0.361026	0.354581	0.183579	0.186666	0.411570	0.157209
30	0.058360	0.118011	0.218326	0.325338	0.067605	0.120665	0.268409	0.201955	0.703631	0.699551	0.527889	0.363337	0.171146	0.244258	0.325482	0.297331	0.068096	0.099632	0.367854	0.185687	0.079974	0.147113	0.402881	0.429988	0.110827	0.176489	0.332205	0.624790	0.057891	0.202292	0.541241	0.164227	0.109624	0.161354	0.305414	0.344775	0.371815	0.258398	0.442402	0.224948	0.293292	0.336110	0.274293	0.436437	0.022221	0.159520	0.247102	0.187757	0.220847	0.242674	0.383644	0.365571	0.071181	0.137081	0.193953	0.193331	0.137499	0.168744	0.185217	0.398900	0.054727	0.071418	0.352707	0.372716	0.132925	0.158237	0.332176	0.373751	0.179629	0.185599	0.406619	0.145266
31	0.058979	0.107232	0.216615	0.336746	0.082827	0.145462	0.260127	0.190215	0.624943	0.664261	0.588872	0.363140	0.176791	0.244510	0.221529	0.167142	0.059262	0.081996	0.393257	0.193358	0.093536	0.145638	0.402252	0.395482	0.112968	0.205591	0.325765	0.682004	0.058000	0.183341	0.511830	0.166338	0.107971	0.173619	0.312295	0.322988	0.333591	0.250293	0.489896	0.222844	0.349652	0.356315	0.280049	0.472820	0.024068	0.159604	0.168050	0.145264	0.255025	0.276793	0.373916	0.365727	0.080828	0.074929	0.199791	0.225290	0.133959	0.174156	0.203301	0.423130	0.056144	0.072527	0.356154	0.373954	0.136806	0.166279	0.369855	0.371790	0.179423	0.196246	0.370483	0.142611
32	0.066198	0.104432	0.193769	0.343301	0.084250	0.158860	0.225104	0.168148	0.593950	0.638653	0.595918	0.363598	0.209073	0.255516	0.229488	0.126192	0.059772	0.087456	0.368754	0.171282	0.104904	0.141917	0.403002	0.384513	0.161568	0.232942	0.317109	0.689785	0.055597	0.179761	0.523724	0.178583	0.106039	0.184808	0.331677	0.314121	0.335015	0.247037	0.573286	0.232750	0.357250	0.376321	0.281331	0.477522	0.027007	0.159553	0.155345	0.106735	0.302189	0.304108	0.381600	0.378780	0.079298	0.091170	0.249140	0.251588	0.126628	0.170209	0.206746	0.441196	0.063431	0.077935	0.336781	0.392809	0.131293	0.166686	0.462585	0.396365	0.202411	0.218462	0.266462	0.134418
33	0.066682	0.107715	0.179269	0.337743	0.085731	0.159207	0.177772	0.151092	0.584739	0.625279	0.661257	0.344227	0.276188	0.282767	0.249889	0.120132	0.064960	0.110694	0.337641	0.151802	0.108711	0.142638	0.405915	0.383954	0.180185	0.255121	0.297114	0.621570	0.048988	0.125871	0.517982	0.200754	0.103951	0.190967	0.329609	0.319854	0.385222	0.309589	0.594525	0.240365	0.352174	0.392161	0.284616	0.472661	0.027296	0.159924	0.156827	0.073559	0.343775	0.322061	0.390567	0.388639	0.082319	0.099456	0.261754	0.259927	0.116559	0.162845	0.195639	0.437205	0.073808	0.091154	0.313819	0.394255	0.130582	0.166609	0.538989	0.448575	0.200041	0.225231	0.289439	0.120639
34	0.067835	0.118693	0.185078	0.325835	0.087879	0.153142	0.216986	0.144035	0.588921	0.621937	0.770291	0.351428	0.347286	0.364698	0.250945	0.119981	0.066999	0.115972	0.358010	0.147378	0.107026	0.144027	0.396292	0.370945	0.180974	0.260929	0.295809	0.591332	0.048171	0.097774	0.502082	0.219938	0.099034	0.181374	0.376213	0.300701	0.518012	0.449729	0.591142	0.236480	0.357265	0.397655	0.281754	0.463244	0.027694	0.152707	0.160121	0.068801	0.372042	0.331467	0.390250	0.395180	0.090427	0.130715	0.261866	0.321392	0.112726	0.163279	0.205323	0.382595	0.078434	0.099758	0.275691	0.387147	0.138244	0.170594	0.568306	0.506820	0.200491	0.224361	0.311030	0.121699
35	0.065034	0.113838	0.215357	0.313277	0.087092	0.130293	0.245658	0.134304	0.591089	0.621552	0.880257	0.389976	0.365396	0.396454	0.311331	0.120047	0.069249	0.116310	0.366262	0.147492	0.106063	0.143106	0.338906	0.314672	0.178303	0.260797	0.333289	0.595817	0.047682	0.094850	0.441880	0.226005	0.093613	0.165509	0.440906	0.280683	0.545105	0.507080	0.586827	0.232533	0.358365	0.396454	0.287139	0.459503	0.035414	0.147150	0.150210	0.074326	0.390526	0.336416	0.381254	0.396969	0.092179	0.140112	0.257979	0.344303	0.075618	0.155510	0.209278	0.358819	0.078341	0.100921	0.259687	0.347977	0.141358	0.178401	0.569808	0.536487	0.201167	0.219247	0.303712	0.125192
36	0.064739	0.111377	0.216366	0.315143	0.088661	0.127241	0.258328	0.129099	0.574417	0.604518	0.937335	0.423067	0.395211	0.398255	0.495356	0.145164	0.071163	0.116369	0.360430	0.149026	0.107931	0.140953	0.283740	0.243080	0.177747	0.260827	0.397470	0.590582	0.042592	0.098998	0.444710	0.239458	0.088539	0.156891	0.476191	0.313124	0.542733	0.510648	0.560135	0.217703	0.363772	0.381037	0.317450	0.436265	0.043935	0.146889	0.161099	0.077730	0.393384	0.337805	0.371508	0.398881	0.091853	0.139303	0.272872	0.344175	0.068266	0.152330	0.214776	0.355375	0.079239	0.100302	0.258569	0.289831	0.133982	0.182621	0.562601	0.542600	0.201140	0.218512	0.293113	0.135794
37	0.072094	0.127309	0.235781	0.291356	0.088230	0.125819	0.256534	0.128153	0.532199	0.550657	0.935946	0.449213	0.510068	0.495320	0.552986	0.213219	0.074219	0.116326	0.333374	0.164393	0.109677	0.139962	0.242452	0.201351	0.179333	0.266045	0.433021	0.558904	0.031722	0.100681	0.438725	0.266912	0.085231	0.158013	0.487795	0.411150	0.539725	0.510647	0.542518	0.201607	0.365115	0.345133	0.369894	0.408100	0.045767	0.136491	0.205277	0.082272	0.401690	0.345027	0.361272	0.401341	0.090652	0.139188	0.271420	0.348709	0.063654	0.138366	0.230465	0.338132	0.073234	0.099893	0.262569	0.279927	0.119052	0.177015	0.555712	0.543219	0.201084	0.208928	0.286881	0.144272
38	0.070244	0.129916	0.241704	0.279328	0.090267	0.134175	0.252939	0.128989	0.482539	0.493676	0.931705	0.466144	0.523537	0.516018	0.550941	0.251787	0.074865	0.117762	0.314079	0.165819	0.111902	0.139899	0.241498	0.202396	0.169497	0.271753	0.422263	0.507131	0.032422	0.104179	0.382801	0.264681	0.079199	0.159677	0.489392	0.472009	0.537386	0.510684	0.497110	0.143992	0.367981	0.340945	0.393913	0.400534	0.046001	0.110096	0.242553	0.082669	0.418129	0.357711	0.363791	0.403308	0.086222	0.138477	0.278373	0.329764	0.057323	0.112460	0.266188	0.319193	0.067334	0.098887	0.265110	0.281285	0.121337	0.176865	0.595949	0.543657	0.196695	0.203588	0.285105	0.138575
39	0.070288	0.137574	0.241039	0.313434	0.091354	0.161237	0.247880	0.134924	0.431711	0.455834	0.946192	0.445636	0.524579	0.522490	0.600277	0.250082	0.064637	0.109940	0.318589	0.168738	0.108575	0.136993	0.230254	0.193459	0.153711	0.253148	0.416571	0.475742	0.043431	0.093762	0.338943	0.248098	0.075372	0.163842	0.468976	0.484328	0.518276	0.503359	0.484837	0.136831	0.368967	0.335622	0.396355	0.400501	0.050465	0.079041	0.275158	0.086274	0.435443	0.375210	0.376762	0.390239	0.075145	0.137973	0.276840	0.305649	0.057922	0.115609	0.310597	0.307538	0.063155	0.098092	0.257861	0.274870	0.120409	0.175031	0.606964	0.564321	0.178399	0.193618	0.305290	0.193739
40	0.068978	0.139861	0.245334	0.329602	0.084673	0.171611	0.250649	0.136448	0.404041	0.441586	0.984346	0.410010	0.521770	0.524659	0.681392	0.304291	0.060895	0.110090	0.319631	0.177757	0.109624	0.134282	0.219170	0.174446	0.151088	0.253125	0.400580	0.471929	0.045566	0.090538	0.335393	0.246583	0.026582	0.161529	0.424210	0.490971	0.477005	0.484430	0.477297	0.130255	0.368704	0.329451	0.371156	0.398544	0.056554	0.042589	0.289546	0.102848	0.425187	0.372352	0.361045	0.351485	0.067158	0.131002	0.242038	0.287655	0.043907	0.123018	0.306657	0.292570	0.062344	0.098642	0.218491	0.256482	0.119242	0.162172	0.585800	0.646967	0.160376	0.174521	0.327425	0.248568
41	0.068006	0.142162	0.258691	0.326863	0.069496	0.158647	0.248686	0.132384	0.380070	0.436602	0.989788	0.396307	0.508814	0.519969	0.686916	0.340939	0.073942	0.110193	0.322875	0.170884	0.114398	0.093213	0.275707	0.172750	0.151103	0.242404	0.426102	0.475850	0.045588	0.093425	0.247706	0.243760	0.018664	0.157415	0.438919	0.494533	0.473497	0.488425	0.434049	0.118969	0.345340	0.305017	0.368941	0.381850	0.056601	0.064388	0.310321	0.109672	0.411896	0.358378	0.400519	0.284626	0.067385	0.122050	0.230280	0.283742	0.034902	0.127588	0.289272	0.288504	0.062942	0.094285	0.169474	0.236393	0.112584	0.125534	0.602180	0.695156	0.151083	0.165273	0.331764	0.265437
42	0.073530	0.145737	0.264977	0.309127	0.060396	0.140084	0.244177	0.135300	0.240587	0.367155	0.973451	0.388901	0.473536	0.487091	0.679542	0.345230	0.090603	0.109962	0.338033	0.161145	0.112772	0.061610	0.302490	0.156432	0.153470	0.213514	0.482132	0.495751	0.045486	0.090301	0.228474	0.227411	0.020049	0.148373	0.445273	0.495163	0.475723	0.505945	0.317873	0.100731	0.260637	0.262549	0.381057	0.311159	0.057818	0.077020	0.345431	0.143661	0.406023	0.357118	0.445984	0.244912	0.063064	0.097164	0.190288	0.231174	0.034721	0.125984	0.286278	0.286211	0.062993	0.080708	0.169800	0.220980	0.107215	0.106283	0.588287	0.707254	0.149243	0.163618	0.344855	0.274320
43	0.068981	0.139005	0.250638	0.293545	0.056150	0.138352	0.251157	0.139285	0.167645	0.273349	0.922740	0.415890	0.429991	0.425636	0.697854	0.349636	0.104635	0.097034	0.365275	0.159594	0.104220	0.063190	0.302824	0.143840	0.122571	0.188631	0.527996	0.502158	0.045485	0.087318	0.223023	0.211550	0.026866	0.130272	0.462306	0.535960	0.438629	0.488307	0.257538	0.107521	0.209577	0.236272	0.436162	0.317995	0.061135	0.077387	0.349493	0.172851	0.404306	0.357570	0.451200	0.227610	0.058737	0.062366	0.188116	0.144370	0.035097	0.119231	0.311114	0.284377	0.062921	0.079263	0.162472	0.215398	0.114189	0.116963	0.527842	0.701847	0.140672	0.141637	0.344426	0.279937
44	0.060323	0.130336	0.240335	0.288404	0.051152	0.138868	0.235109	0.145648	0.154703	0.172617	0.901000	0.431058	0.423013	0.414047	0.652295	0.351183	0.114440	0.075561	0.382031	0.194406	0.099440	0.062475	0.305448	0.138926	0.092881	0.156220	0.546969	0.567441	0.044848	0.085806	0.208183	0.229449	0.043298	0.110927	0.564157	0.673328	0.258860	0.365602	0.256189	0.112113	0.199468	0.200046	0.467926	0.389061	0.074587	0.077673	0.353201	0.181411	0.404959	0.348222	0.448410	0.244305	0.069814	0.072170	0.169500	0.153094	0.036820	0.103604	0.345746	0.327035	0.056534	0.079610	0.186627	0.185460	0.113206	0.119313	0.447051	0.717645	0.070027	0.085820	0.318868	0.280435
45	0.060259	0.126599	0.239267	0.268478	0.047517	0.138951	0.205305	0.142520	0.154055	0.143492	0.890467	0.420536	0.327966	0.368027	0.536993	0.339070	0.118548	0.068061	0.364541	0.353014	0.097950	0.061130	0.303887	0.138913	0.100558	0.148126	0.539009	0.589093	0.043056	0.082150	0.183314	0.231463	0.063956	0.102334	0.701449	0.770253	0.157302	0.252866	0.266717	0.117769	0.196674	0.159853	0.477515	0.432300	0.081859	0.078440	0.359383	0.182429	0.395901	0.321741	0.467335	0.285225	0.072479	0.102417	0.221705	0.184984	0.046808	0.099857	0.345802	0.452317	0.041870	0.066235	0.188284	0.222883	0.102789	0.121738	0.404025	0.741775	0.040263	0.053592	0.268331	0.282776
46	0.057955	0.114937	0.246671	0.281731	0.043328	0.139345	0.209349	0.139912	0.134725	0.135776	0.837605	0.425949	0.155634	0.242633	0.525101	0.302966	0.120767	0.072857	0.393992	0.469302	0.097613	0.062255	0.295735	0.138029	0.114731	0.156202	0.514459	0.591592	0.041956	0.074493	0.176060	0.209058	0.080399	0.115780	0.709123	0.813221	0.154850	0.244014	0.267739	0.127900	0.188264	0.140966	0.482606	0.462786	0.082638	0.078548	0.355815	0.182115	0.368845	0.284675	0.507693	0.319027	0.072743	0.118601	0.250983	0.234979	0.068762	0.105140	0.360732	0.497253	0.030551	0.050796	0.196926	0.250617	0.101918	0.133175	0.431555	0.746937	0.033762	0.053488	0.247334	0.279787
47	0.058216	0.114674	0.267651	0.328923	0.041255	0.145212	0.203144	0.145183	0.098749	0.120456	0.732874	0.433976	0.129818	0.197660	0.519324	0.288047	0.120196	0.076410	0.404569	0.512195	0.096138	0.065551	0.318120	0.159242	0.114766	0.157000	0.471911	0.629499	0.041457	0.075297	0.172998	0.202138	0.091658	0.138427	0.668680	0.827249	0.156283	0.256081	0.229894	0.124856	0.183915	0.144060	0.471658	0.486154	0.078325	0.077638	0.354115	0.180506	0.327423	0.254086	0.522101	0.343310	0.081054	0.133007	0.248213	0.251155	0.082787	0.109888	0.392380	0.500724	0.029641	0.045045	0.196469	0.243008	0.101170	0.137316	0.447366	0.749249	0.033328	0.056250	0.252657	0.272048
48	0.061682	0.113590	0.354667	0.389434	0.036474	0.145149	0.211780	0.177555	0.090281	0.117489	0.598959	0.416233	0.126459	0.169624	0.443662	0.281814	0.119299	0.079217	0.402606	0.511476	0.091353	0.066764	0.336998	0.175475	0.125949	0.159095	0.438761	0.672298	0.041614	0.074862	0.145266	0.244907	0.096351	0.154369	0.699066	0.816847	0.158025	0.260235	0.200487	0.190821	0.162472	0.134295	0.445730	0.478330	0.074195	0.077930	0.344512	0.188068	0.284704	0.233943	0.520494	0.339912	0.086087	0.136139	0.269644	0.256740	0.086813	0.109210	0.415359	0.547952	0.027204	0.045211	0.201288	0.240350	0.102216	0.139125	0.448504	0.751257	0.041293	0.050120	0.254806	0.268106
49	0.061845	0.095510	0.375774	0.424659	0.030464	0.117277	0.240742	0.200300	0.093480	0.106365	0.527966	0.403105	0.115014	0.175182	0.401973	0.221179	0.118705	0.081926	0.404791	0.515324	0.086797	0.064771	0.340489	0.169815	0.137072	0.143206	0.437691	0.661485	0.051884	0.073174	0.148765	0.265220	0.097064	0.161612	0.761619	0.773132	0.161861	0.261161	0.234005	0.236117	0.129371	0.100387	0.479887	0.474350	0.078039	0.082119	0.329917	0.197737	0.249632	0.222533	0.552101	0.336847	0.084580	0.137956	0.276338	0.294397	0.086886	0.112702	0.419286	0.657082	0.022162	0.045817	0.204589	0.253141	0.100181	0.139804	0.408352	0.750162	0.052937	0.053681	0.256258	0.268004
50	0.084535	0.097129	0.374242	0.424607	0.031482	0.098707	0.259792	0.205719	0.094112	0.098149	0.560793	0.504137	0.095946	0.168867	0.395552	0.177118	0.118593	0.087357	0.444630	0.574578	0.081170	0.066737	0.344524	0.172415	0.149940	0.134064	0.438148	0.652226	0.086648	0.077863	0.151101	0.264470	0.102517	0.162207	0.781694	0.776284	0.160381	0.260243	0.258010	0.249704	0.118502	0.088051	0.530566	0.492208	0.084395	0.084867	0.304567	0.205080	0.226414	0.220445	0.642918	0.358951	0.075088	0.141386	0.276450	0.324673	0.086866	0.123537	0.403832	0.784990	0.020635	0.045266	0.203369	0.291440	0.095293	0.140086	0.326649	0.725648	0.055038	0.055220	0.258532	0.268016
51	0.106208	0.095457	0.374996	0.397407	0.039250	0.107035	0.258887	0.209180	0.094088	0.091338	0.568643	0.577349	0.078233	0.166545	0.390332	0.182189	0.120889	0.178301	0.505606	0.716998	0.074467	0.073561	0.345336	0.195971	0.157866	0.127793	0.453874	0.649212	0.136641	0.098261	0.151965	0.260600	0.112013	0.166813	0.786606	0.822961	0.155186	0.245217	0.269245	0.251006	0.121668	0.100523	0.583433	0.522752	0.086104	0.085024	0.283975	0.213285	0.219929	0.217305	0.693573	0.408465	0.078642	0.139947	0.276532	0.328843	0.090289	0.145902	0.382369	0.857002	0.029396	0.049847	0.203596	0.346554	0.089428	0.139577	0.318926	0.623408	0.056166	0.053515	0.215205	0.224442
52	0.108086	0.089097	0.395728	0.384214	0.040178	0.104573	0.265979	0.224366	0.100491	0.096381	0.531238	0.618782	0.055011	0.164844	0.352418	0.172194	0.130590	0.579501	0.510825	0.810924	0.067860	0.074710	0.342200	0.218796	0.158612	0.122376	0.494771	0.648095	0.160457	0.102251	0.175098	0.280716	0.125518	0.174558	0.785641	0.862865	0.137832	0.207292	0.268295	0.257514	0.124558	0.114440	0.584938	0.562125	0.087331	0.082301	0.287661	0.211270	0.203907	0.204469	0.695552	0.456506	0.079279	0.135844	0.276951	0.329400	0.093481	0.169528	0.431018	0.867458	0.040882	0.053308	0.201367	0.375196	0.082846	0.137283	0.267785	0.523755	0.056201	0.051624	0.209159	0.219766
53	0.112514	0.088980	0.445683	0.384003	0.040083	0.109775	0.272483	0.225986	0.116516	0.097361	0.460986	0.632686	0.056466	0.156255	0.353627	0.190144	0.129457	0.673937	0.476921	0.826942	0.061153	0.072370	0.268696	0.223934	0.156019	0.122257	0.468372	0.580309	0.166097	0.115071	0.175968	0.293971	0.134239	0.181350	0.778599	0.895944	0.123789	0.166711	0.265947	0.250685	0.122146	0.121703	0.584268	0.618196	0.093083	0.060928	0.253340	0.211201	0.152332	0.174511	0.690292	0.522878	0.079810	0.127103	0.254634	0.331283	0.093018	0.177076	0.484996	0.870857	0.042371	0.050499	0.199359	0.374436	0.079063	0.135745	0.262716	0.500705	0.056193	0.050807	0.247677	0.274321
54	0.115391	0.080491	0.462822	0.386802	0.040339	0.128274	0.255427	0.222740	0.130725	0.087288	0.435555	0.636316	0.061689	0.139243	0.336282	0.186853	0.121831	0.679389	0.439885	0.827080	0.091196	0.092822	0.272157	0.275252	0.149835	0.120341	0.436083	0.528614	0.210587	0.156389	0.173562	0.287818	0.136235	0.186211	0.775373	0.913231	0.122915	0.143829	0.264390	0.254287	0.117424	0.143239	0.554290	0.678188	0.097764	0.050262	0.201795	0.195539	0.097937	0.134796	0.678140	0.577850	0.087101	0.117214	0.189009	0.300504	0.093108	0.177979	0.513537	0.914550	0.050962	0.051171	0.185968	0.381512	0.071796	0.127792	0.262354	0.503483	0.055678	0.050014	0.259619	0.302778
55	0.122012	0.090233	0.465814	0.386859	0.040304	0.145894	0.250454	0.221119	0.130046	0.083436	0.388113	0.636724	0.061022	0.134589	0.316549	0.174172	0.112241	0.706852	0.449626	0.823101	0.125188	0.124905	0.322893	0.348134	0.142731	0.119435	0.413438	0.467258	0.236998	0.173209	0.171470	0.288328	0.137022	0.192597	0.750471	0.896447	0.109508	0.138570	0.257501	0.255854	0.106789	0.220540	0.509878	0.713348	0.097323	0.052317	0.198684	0.170846	0.080373	0.119483	0.665731	0.582907	0.087147	0.106061	0.177220	0.296425	0.093425	0.176835	0.505613	0.955280	0.056188	0.050094	0.166181	0.383995	0.069234	0.124621	0.256226	0.462035	0.056790	0.059138	0.259991	0.306413
56	0.125414	0.095336	0.466754	0.386446	0.046377	0.150127	0.233342	0.228995	0.130453	0.078334	0.380205	0.692971	0.058715	0.133415	0.324473	0.175672	0.107232	0.759908	0.499344	0.776769	0.166979	0.145388	0.322235	0.381970	0.137045	0.116600	0.412633	0.424423	0.241032	0.169713	0.162043	0.322945	0.133045	0.195507	0.659688	0.821683	0.103496	0.132325	0.265782	0.260421	0.097946	0.476161	0.494129	0.707940	0.088272	0.052464	0.201400	0.172761	0.074066	0.116312	0.626825	0.584417	0.078722	0.103585	0.123441	0.295716	0.093833	0.173965	0.470913	0.953491	0.057647	0.041663	0.135333	0.403571	0.069295	0.121594	0.250332	0.358515	0.052803	0.064722	0.270382	0.307688
57	0.125035	0.093521	0.474568	0.388846	0.057859	0.145210	0.230888	0.232946	0.133040	0.094891	0.381513	0.845326	0.057626	0.131660	0.327889	0.353987	0.103323	0.846544	0.482390	0.710928	0.204650	0.148369	0.321267	0.386160	0.123143	0.104135	0.409795	0.419729	0.240000	0.172632	0.161376	0.313533	0.123479	0.191926	0.555550	0.757562	0.116853	0.157670	0.269064	0.261522	0.098006	0.588089	0.489386	0.694442	0.085817	0.055345	0.203285	0.177298	0.070410	0.113866	0.613751	0.583802	0.077779	0.104849	0.082599	0.269664	0.091551	0.176969	0.462034	0.905182	0.057756	0.041906	0.136644	0.397742	0.058633	0.105906	0.184173	0.327419	0.052262	0.066589	0.301168	0.314633
58	0.125030	0.093707	0.505258	0.410518	0.060846	0.139713	0.220592	0.218664	0.139404	0.120042	0.378039	0.965082	0.065010	0.113018	0.276085	0.413689	0.100988	0.895225	0.457532	0.680249	0.216642	0.152956	0.338519	0.383028	0.122626	0.100314	0.405582	0.360920	0.237431	0.175217	0.162202	0.295227	0.113737	0.182514	0.534496	0.722208	0.142407	0.219341	0.248468	0.218771	0.095160	0.591810	0.492081	0.664158	0.086451	0.065209	0.202893	0.177469	0.068443	0.109089	0.635611	0.592453	0.076322	0.098581	0.128475	0.205971	0.081029	0.194913	0.463168	0.860283	0.057952	0.048226	0.170424	0.378970	0.052367	0.112688	0.129576	0.325173	0.051670	0.066962	0.323851	0.319496
59	0.125608	0.094594	0.512368	0.439458	0.060247	0.136777	0.190121	0.196539	0.140232	0.131872	0.367011	1.017819	0.072447	0.088799	0.295775	0.418867	0.099349	0.905723	0.458306	0.675626	0.242222	0.214237	0.347697	0.378564	0.112563	0.091261	0.396391	0.218128	0.229852	0.172726	0.172616	0.310797	0.107306	0.167325	0.531658	0.709840	0.149779	0.254243	0.211378	0.168605	0.092739	0.609830	0.494186	0.647426	0.088580	0.070005	0.205910	0.176848	0.062426	0.102301	0.641992	0.622096	0.076692	0.099686	0.190354	0.208240	0.063607	0.220701	0.465069	0.862221	0.058620	0.048753	0.190733	0.383707	0.050431	0.139442	0.173078	0.324462	0.051710	0.069564	0.320260	0.319572
60	0.125919	0.101124	0.454083	0.450990	0.057839	0.130654	0.140403	0.185149	0.142911	0.135803	0.364459	1.044210	0.072873	0.050455	0.344163	0.468217	0.098003	0.906367	0.459695	0.675055	0.365104	0.330647	0.361734	0.411544	0.094982	0.082532	0.381797	0.187545	0.208213	0.161890	0.170735	0.324302	0.105802	0.152775	0.449466	0.702771	0.150867	0.255937	0.179785	0.160894	0.092882	0.668351	0.480781	0.654699	0.090385	0.069673	0.200932	0.168134	0.057995	0.097921	0.615711	0.625530	0.082163	0.103166	0.242465	0.216112	0.059620	0.233442	0.447520	0.863124	0.059034	0.048446	0.192498	0.384554	0.050423	0.160027	0.213243	0.331131	0.048134	0.075072	0.316193	0.316865
61	0.126744	0.115106	0.423015	0.455166	0.051946	0.119927	0.141687	0.183389	0.157300	0.137188	0.363919	1.055623	0.071544	0.050202	0.380091	0.540188	0.098120	0.906062	0.432121	0.649756	0.394209	0.366463	0.368538	0.467554	0.074298	0.077453	0.392715	0.187479	0.186545	0.156698	0.128248	0.334615	0.105640	0.146351	0.341262	0.691544	0.194148	0.276257	0.178360	0.195631	0.093590	0.773572	0.398336	0.675503	0.089697	0.064115	0.213888	0.162530	0.063353	0.098392	0.590838	0.609608	0.088344	0.098244	0.255216	0.193755	0.073536	0.235448	0.432550	0.805761	0.058871	0.047626	0.203972	0.372411	0.051508	0.167710	0.223095	0.333830	0.053699	0.089216	0.314430	0.310992
62	0.118118	0.124755	0.419668	0.460396	0.049678	0.119936	0.132951	0.157545	0.157881	0.148807	0.350749	1.040041	0.073549	0.102452	0.380637	0.575259	0.097866	0.900077	0.355023	0.503711	0.395217	0.367407	0.360426	0.495243	0.049080	0.070970	0.408204	0.222076	0.182164	0.152545	0.125736	0.312782	0.101086	0.142059	0.312632	0.631457	0.258247	0.343334	0.183386	0.240376	0.090948	0.845732	0.306850	0.708756	0.089412	0.064525	0.222589	0.153158	0.067096	0.098185	0.619922	0.595010	0.091157	0.083976	0.295122	0.189069	0.083907	0.233436	0.434225	0.700765	0.058726	0.049697	0.215642	0.344550	0.049742	0.177383	0.228355	0.338198	0.073740	0.109884	0.309933	0.309618
63	0.097866	0.122211	0.420138	0.467446	0.049787	0.126296	0.111173	0.126897	0.159802	0.158743	0.292677	1.007575	0.070265	0.119548	0.402861	0.596089	0.079800	0.767943	0.322017	0.294683	0.398738	0.366947	0.351374	0.496898	0.044743	0.080288	0.353358	0.394742	0.138256	0.114512	0.124922	0.312254	0.093096	0.140287	0.308989	0.539647	0.290287	0.381197	0.183888	0.240342	0.082451	0.872965	0.261368	0.756416	0.088337	0.065054	0.220248	0.152271	0.067499	0.097838	0.648786	0.605580	0.088443	0.076547	0.312694	0.172223	0.085737	0.223994	0.432314	0.585905	0.056841	0.052185	0.216339	0.293703	0.046936	0.176904	0.254612	0.369160	0.090430	0.117604	0.301624	0.301200
64	0.095382	0.121574	0.403178	0.468292	0.054815	0.112378	0.105656	0.123287	0.160250	0.160740	0.297299	1.060803	0.070517	0.121072	0.405054	0.658829	0.057700	0.624396	0.324126	0.248151	0.401184	0.367712	0.347824	0.490778	0.049708	0.094445	0.355969	0.558346	0.074359	0.076521	0.136586	0.312251	0.073003	0.147018	0.335312	0.457449	0.300190	0.390038	0.183701	0.231076	0.078571	0.879622	0.299540	0.826908	0.096862	0.076243	0.282123	0.229021	0.066954	0.095867	0.629984	0.620824	0.088264	0.070023	0.315149	0.140792	0.084319	0.204274	0.391041	0.531651	0.050007	0.052377	0.217597	0.247522	0.043465	0.176326	0.273025	0.376829	0.099108	0.118516	0.283054	0.262696
65	0.088037	0.120194	0.366556	0.472105	0.070421	0.100289	0.104731	0.116129	0.153240	0.156560	0.288699	1.127292	0.068547	0.121000	0.377553	0.654615	0.047831	0.619586	0.327124	0.268349	0.402090	0.367805	0.353245	0.487141	0.062357	0.113960	0.406208	0.651254	0.042960	0.069056	0.130024	0.290466	0.060474	0.158709	0.372176	0.393336	0.299936	0.390226	0.194465	0.228795	0.079127	0.880504	0.302386	0.851038	0.106237	0.091029	0.289128	0.312930	0.065662	0.114431	0.542298	0.635840	0.092438	0.066072	0.315379	0.140311	0.082366	0.186465	0.319294	0.529759	0.047973	0.054823	0.219827	0.246052	0.045513	0.175229	0.274834	0.375399	0.109278	0.141649	0.239333	0.197335
66	0.079286	0.118720	0.380368	0.481717	0.073346	0.087965	0.102820	0.098405	0.138660	0.154568	0.244044	1.189302	0.062976	0.123037	0.339572	0.571922	0.048635	0.594451	0.308100	0.289831	0.395357	0.361130	0.335055	0.452464	0.076608	0.130421	0.417466	0.652464	0.042011	0.072352	0.134018	0.264160	0.056874	0.162933	0.378856	0.371771	0.299329	0.387902	0.209885	0.223663	0.083322	0.876470	0.319853	0.821418	0.112493	0.095809	0.290096	0.332680	0.068850	0.162182	0.509838	0.631442	0.093004	0.065566	0.315793	0.223887	0.083669	0.210899	0.252529	0.483183	0.039797	0.054262	0.226780	0.232542	0.046265	0.174196	0.288917	0.395291	0.170247	0.196164	0.216349	0.162644
67	0.068427	0.112057	0.409640	0.498458	0.067808	0.091339	0.279871	0.199248	0.119038	0.158582	0.222076	1.239465	0.076420	0.127402	0.340935	0.571863	0.047466	0.535883	0.207236	0.303353	0.384533	0.353348	0.298433	0.412100	0.088242	0.137888	0.422652	0.667972	0.044560	0.071755	0.137356	0.261286	0.051370	0.161242	0.384960	0.311434	0.295416	0.372148	0.233892	0.228886	0.089375	0.853580	0.325887	0.770624	0.119275	0.097653	0.284506	0.332606	0.069577	0.187009	0.538594	0.603705	0.092374	0.065202	0.301409	0.295891	0.084567	0.231609	0.234158	0.376903	0.030678	0.053012	0.243962	0.230527	0.046276	0.175177	0.303300	0.435821	0.183575	0.212754	0.221904	0.165264
68	0.060073	0.105645	0.439508	0.501148	0.065913	0.101239	0.428928	0.355868	0.117006	0.184403	0.216694	1.239612	0.115080	0.150782	0.307714	0.575518	0.050486	0.395438	0.165196	0.330775	0.367445	0.355127	0.296194	0.398336	0.090918	0.137956	0.464621	0.728783	0.047793	0.075631	0.122575	0.256370	0.050651	0.158282	0.398277	0.241808	0.282709	0.336463	0.238938	0.238572	0.087451	0.718970	0.316618	0.753303	0.122693	0.097539	0.272088	0.329373	0.077209	0.192027	0.549613	0.542973	0.086081	0.062373	0.248418	0.287254	0.085455	0.232019	0.237696	0.308280	0.028691	0.055317	0.250518	0.194359	0.047212	0.182843	0.314671	0.455403	0.188813	0.222266	0.214824	0.160297
69	0.062189	0.107007	0.441580	0.504774	0.065925	0.100617	0.472107	0.379563	0.111977	0.216116	0.194832	1.178834	0.168535	0.185832	0.244015	0.525712	0.050205	0.228179	0.195234	0.372551	0.357765	0.375112	0.302964	0.396654	0.090894	0.137991	0.524063	0.790705	0.042866	0.076779	0.121639	0.255288	0.054307	0.157969	0.395726	0.211710	0.275764	0.307817	0.258070	0.241330	0.078296	0.670780	0.307444	0.777136	0.130468	0.098653	0.267649	0.331199	0.093591	0.189009	0.551369	0.523499	0.076255	0.061991	0.240573	0.320482	0.086879	0.232239	0.247416	0.312315	0.044193	0.061007	0.248819	0.148413	0.058126	0.206999	0.314612	0.484208	0.193475	0.231368	0.168791	0.141326
70	0.067315	0.111193	0.403203	0.506611	0.066583	0.099370	0.476534	0.383006	0.113069	0.221403	0.204244	1.073290	0.213279	0.190864	0.199617	0.455466	0.050198	0.161251	0.251043	0.379236	0.359676	0.391565	0.308347	0.395669	0.091794	0.142893	0.559361	0.842381	0.040957	0.081224	0.140875	0.255029	0.079677	0.171187	0.407037	0.213706	0.273150	0.302184	0.266205	0.233984	0.068655	0.673297	0.293915	0.820607	0.130689	0.098333	0.279224	0.341591	0.105157	0.185538	0.564929	0.539103	0.062997	0.063946	0.200639	0.374060	0.087141	0.223532	0.240970	0.336883	0.054365	0.063762	0.221847	0.159535	0.068603	0.218902	0.295359	0.505330	0.196690	0.237191	0.137519	0.131782
71	0.069282	0.112843	0.361270	0.494134	0.070518	0.101103	0.547689	0.393129	0.108189	0.218106	0.200212	1.003577	0.234576	0.221896	0.174120	0.435833	0.053861	0.148504	0.313493	0.377126	0.322305	0.355115	0.292116	0.379319	0.103558	0.165873	0.563301	0.864581	0.050353	0.081360	0.147073	0.248166	0.112061	0.186782	0.436865	0.286800	0.246387	0.286010	0.268852	0.208556	0.059091	0.654413	0.290668	0.870465	0.130465	0.125596	0.278871	0.350510	0.112647	0.185221	0.574383	0.562519	0.055655	0.085706	0.161097	0.406921	0.090121	0.195280	0.198545	0.326698	0.058873	0.070071	0.198011	0.174562	0.069962	0.208111	0.265344	0.499806	0.196334	0.236108	0.147105	0.130547
72	0.065924	0.106276	0.355189	0.473548	0.073982	0.101948	0.696762	0.454626	0.108476	0.214621	0.190309	0.966043	0.339470	0.355774	0.134130	0.400382	0.054620	0.149225	0.320440	0.388987	0.182912	0.255962	0.272577	0.332598	0.117616	0.196946	0.559503	0.866478	0.056768	0.080886	0.143882	0.239465	0.127084	0.189307	0.429797	0.315503	0.176131	0.205095	0.291943	0.141455	0.053720	0.584850	0.283438	0.897973	0.129158	0.154989	0.271719	0.351951	0.113484	0.196109	0.595478	0.610623	0.054441	0.095459	0.146447	0.410598	0.091456	0.168999	0.180348	0.290369	0.066793	0.076065	0.199610	0.169151	0.069214	0.201565	0.295329	0.510035	0.194738	0.232230	0.149256	0.132145
73	0.057868	0.094925	0.359647	0.446334	0.079043	0.124892	0.812532	0.551105	0.104309	0.212362	0.186324	0.944135	0.356778	0.391801	0.158191	0.358059	0.057765	0.150666	0.316594	0.395550	0.182821	0.235819	0.266618	0.256211	0.126958	0.215749	0.543410	0.862939	0.060730	0.080799	0.132618	0.239947	0.129758	0.196021	0.433437	0.322089	0.108207	0.118111	0.298699	0.140623	0.055806	0.441940	0.279117	0.902070	0.125992	0.183637	0.252649	0.352279	0.111472	0.289082	0.705458	0.612416	0.051153	0.094649	0.146722	0.418570	0.082986	0.161230	0.212297	0.294569	0.073498	0.078398	0.205111	0.165416	0.071392	0.192891	0.316551	0.551061	0.190232	0.223802	0.149488	0.139966
74	0.049089	0.082045	0.366077	0.427148	0.089087	0.183614	0.817560	0.603031	0.093212	0.216858	0.188259	0.948611	0.356982	0.399076	0.159188	0.365684	0.056345	0.138093	0.314288	0.392486	0.371116	0.298455	0.332496	0.204469	0.132258	0.223519	0.527049	0.819996	0.062663	0.081085	0.136736	0.230856	0.189693	0.230287	0.434079	0.317496	0.067475	0.082982	0.300770	0.166765	0.066172	0.330096	0.268566	0.869737	0.124280	0.230998	0.259758	0.361449	0.118587	0.593490	0.819023	0.574755	0.047424	0.093363	0.148307	0.415495	0.070438	0.160847	0.236456	0.331124	0.077299	0.077352	0.223546	0.165207	0.071979	0.191037	0.308850	0.583520	0.182230	0.214981	0.149929	0.142240
75	0.045458	0.072939	0.373356	0.421342	0.079582	0.210147	0.818766	0.607790	0.185934	0.243463	0.188694	0.951771	0.357200	0.400857	0.151898	0.340960	0.056207	0.119625	0.312670	0.376152	0.413500	0.312851	0.405749	0.184674	0.132161	0.221468	0.498459	0.729026	0.063731	0.079301	0.183044	0.246917	0.231713	0.248193	0.432865	0.329798	0.072056	0.081132	0.321223	0.168978	0.072939	0.276074	0.238482	0.800449	0.121101	0.347887	0.237907	0.364680	0.131838	0.615996	0.835230	0.560535	0.050088	0.091608	0.095869	0.348502	0.064148	0.169270	0.239595	0.361337	0.078639	0.073068	0.234585	0.170519	0.094967	0.205654	0.353344	0.596036	0.175050	0.213376	0.146782	0.143734
76	0.046009	0.084744	0.410425	0.427609	0.073272	0.238703	0.832744	0.634735	0.221653	0.258637	0.222133	0.902962	0.350546	0.398204	0.145475	0.313558	0.055376	0.106924	0.325691	0.368490	0.412038	0.317283	0.423606	0.180720	0.127884	0.213749	0.436464	0.636635	0.062567	0.076872	0.252265	0.270191	0.232696	0.234993	0.411048	0.374115	0.072801	0.082880	0.360757	0.168482	0.075030	0.259974	0.190208	0.690949	0.111006	0.383741	0.150545	0.307933	0.144768	0.633912	0.818387	0.556964	0.046296	0.088549	0.093659	0.332135	0.062497	0.187213	0.239849	0.370159	0.077908	0.069921	0.235021	0.174863	0.144751	0.249528	0.377176	0.604800	0.171879	0.213962	0.169380	0.138396
77	0.047130	0.120598	0.429952	0.422201	0.069857	0.284442	0.858180	0.651958	0.222525	0.262157	0.260273	0.782313	0.341555	0.395195	0.157673	0.316842	0.053875	0.100935	0.365366	0.357718	0.410294	0.364532	0.431762	0.187688	0.123986	0.202744	0.400020	0.613424	0.058353	0.073139	0.267494	0.272543	0.234006	0.221307	0.431142	0.433306	0.063180	0.077845	0.402346	0.185464	0.073323	0.254422	0.178065	0.623869	0.096631	0.382155	0.148508	0.236462	0.145908	0.667443	0.815158	0.549761	0.038701	0.084621	0.088353	0.320369	0.071175	0.213867	0.232184	0.367675	0.079839	0.071863	0.242040	0.174654	0.164572	0.271631	0.371978	0.589820	0.156274	0.192901	0.217327	0.125880
78	0.047117	0.151425	0.405262	0.412601	0.069495	0.336162	0.797924	0.576800	0.226478	0.266859	0.270070	0.658317	0.331996	0.420505	0.161479	0.329658	0.054800	0.098663	0.425925	0.357624	0.410310	0.399167	0.428491	0.189573	0.129931	0.195568	0.394423	0.601034	0.058260	0.073966	0.281748	0.254141	0.235983	0.224212	0.465209	0.469074	0.075509	0.093367	0.404830	0.214397	0.068334	0.252732	0.133265	0.607592	0.083288	0.385997	0.145553	0.226900	0.146391	0.708822	0.853339	0.534829	0.030301	0.080788	0.083706	0.264414	0.074802	0.224573	0.241188	0.366635	0.081402	0.073429	0.265541	0.180144	0.166401	0.274800	0.389202	0.560387	0.094903	0.140706	0.226972	0.110033
79	0.048156	0.170993	0.373734	0.404036	0.072916	0.338777	0.764973	0.548693	0.230770	0.267623	0.270702	0.527566	0.328727	0.457127	0.155751	0.334193	0.058889	0.096168	0.466507	0.341899	0.411705	0.403674	0.430674	0.167172	0.128980	0.202190	0.356151	0.535297	0.058210	0.068774	0.292950	0.232177	0.235942	0.232939	0.472655	0.470116	0.089463	0.105775	0.393897	0.220577	0.060824	0.252619	0.118658	0.608354	0.071211	0.400330	0.145749	0.239061	0.147561	0.745037	0.884977	0.513292	0.029693	0.069991	0.077323	0.192022	0.072259	0.220642	0.313465	0.365497	0.081519	0.073399	0.312375	0.177410	0.170944	0.271261	0.391039	0.520640	0.074928	0.115603	0.219487	0.098625
80	0.048018	0.178985	0.354462	0.450175	0.075964	0.362518	0.768669	0.545979	0.276733	0.270545	0.293158	0.431288	0.306140	0.436949	0.181945	0.324153	0.065215	0.085027	0.469309	0.277048	0.409457	0.393900	0.434142	0.191825	0.129349	0.213133	0.265234	0.437146	0.053353	0.068103	0.292632	0.214507	0.237040	0.261211	0.433946	0.468225	0.095867	0.106868	0.389742	0.220960	0.058966	0.247850	0.115831	0.594459	0.059310	0.418682	0.143865	0.244257	0.153989	0.777276	0.915266	0.470278	0.029366	0.041357	0.074248	0.176208	0.071703	0.273116	0.441019	0.375593	0.081020	0.071838	0.324823	0.180133	0.168595	0.253868	0.392263	0.467579	0.063738	0.095639	0.216199	0.096060
81	0.050762	0.178490	0.405304	0.531089	0.074851	0.397900	0.739550	0.548308	0.347260	0.277710	0.338659	0.427591	0.254918	0.339886	0.195194	0.285230	0.065318	0.067056	0.449335	0.251297	0.403081	0.374065	0.421748	0.200886	0.129173	0.213239	0.149611	0.324391	0.047252	0.072375	0.297842	0.212361	0.240101	0.302629	0.430101	0.471262	0.096077	0.099239	0.379368	0.219786	0.059344	0.238015	0.147601	0.562253	0.038255	0.438929	0.138393	0.240074	0.162998	0.801003	0.933942	0.445018	0.030918	0.041421	0.088615	0.173290	0.070554	0.430432	0.608258	0.383859	0.076859	0.066692	0.325252	0.185601	0.168326	0.226414	0.413899	0.461742	0.051738	0.071532	0.228100	0.086399
82	0.052375	0.179756	0.424887	0.559002	0.080249	0.404527	0.628333	0.521655	0.358711	0.262611	0.384010	0.440994	0.285864	0.345749	0.179708	0.248309	0.062958	0.066488	0.406822	0.249849	0.401250	0.354710	0.397658	0.202195	0.122377	0.223148	0.124489	0.239433	0.041460	0.080012	0.298533	0.209941	0.236284	0.356920	0.454532	0.491619	0.094117	0.091060	0.374935	0.219246	0.060891	0.223162	0.191181	0.505852	0.036583	0.456721	0.113534	0.224671	0.170852	0.820498	0.926947	0.452422	0.031241	0.065277	0.140827	0.142322	0.094391	0.482323	0.664131	0.370990	0.075266	0.061609	0.334774	0.178019	0.176033	0.222392	0.430247	0.502872	0.047514	0.054521	0.262622	0.129920
83	0.052413	0.183036	0.425530	0.536883	0.083735	0.411272	0.425706	0.429008	0.357735	0.251709	0.414874	0.418824	0.288198	0.356573	0.201615	0.242563	0.062526	0.068597	0.408726	0.231864	0.405647	0.348688	0.383028	0.196128	0.110394	0.258015	0.302189	0.235428	0.041258	0.077125	0.297501	0.204588	0.223751	0.472391	0.507230	0.553174	0.102014	0.101030	0.385694	0.217957	0.064078	0.206853	0.208168	0.429456	0.033671	0.463042	0.113932	0.212473	0.169218	0.826115	0.923427	0.443486	0.039697	0.068440	0.160851	0.140889	0.223795	0.510915	0.666632	0.400088	0.080215	0.057551	0.356865	0.146435	0.178835	0.234511	0.460231	0.535262	0.049277	0.060087	0.281002	0.184541
84	0.052644	0.185642	0.457509	0.503752	0.071138	0.431529	0.392218	0.328986	0.357849	0.249592	0.550010	0.398307	0.290196	0.357866	0.242792	0.246179	0.070472	0.058528	0.414931	0.212056	0.406193	0.354772	0.381059	0.180811	0.103052	0.295638	0.453288	0.241775	0.040445	0.074529	0.274113	0.187809	0.217538	0.599528	0.584010	0.642211	0.105783	0.107565	0.393184	0.222174	0.069360	0.190798	0.219846	0.367541	0.037661	0.465045	0.125962	0.207548	0.163493	0.826919	0.954905	0.492091	0.039576	0.068358	0.191253	0.132903	0.268447	0.581014	0.667782	0.421276	0.078740	0.049511	0.376023	0.140084	0.207879	0.278900	0.494835	0.535105	0.061490	0.088512	0.284643	0.209910
85	0.052172	0.184178	0.532071	0.506176	0.070162	0.456944	0.394357	0.309781	0.360003	0.263347	0.656139	0.387926	0.290144	0.357968	0.238591	0.229833	0.075281	0.057132	0.420861	0.213199	0.378421	0.346043	0.374950	0.182014	0.097738	0.313392	0.530816	0.246831	0.042289	0.071054	0.215878	0.159433	0.224060	0.604796	0.614569	0.702235	0.106288	0.113873	0.373827	0.253894	0.074173	0.163859	0.233304	0.311653	0.040981	0.460458	0.131934	0.201458	0.161911	0.826729	1.033997	0.549038	0.042260	0.070233	0.196782	0.128089	0.268362	0.646735	0.688715	0.417759	0.075278	0.045322	0.376846	0.147664	0.282844	0.366394	0.513052	0.554817	0.084331	0.126121	0.284881	0.214156
86	0.051977	0.180879	0.616786	0.526894	0.080392	0.444263	0.382098	0.279692	0.429398	0.353098	0.689175	0.351750	0.283932	0.344230	0.284491	0.191839	0.087876	0.069276	0.480907	0.228231	0.181609	0.310408	0.304886	0.188927	0.097266	0.321611	0.543398	0.207794	0.042457	0.071799	0.170385	0.139074	0.255198	0.648780	0.614406	0.712023	0.111658	0.119542	0.318837	0.266523	0.076184	0.150818	0.250769	0.290761	0.044950	0.432050	0.116653	0.181728	0.167855	0.826531	1.077681	0.562083	0.042609	0.070978	0.196508	0.119791	0.268292	0.701758	0.729618	0.395213	0.071760	0.046597	0.359566	0.153656	0.297518	0.412159	0.497990	0.564898	0.123865	0.175909	0.286463	0.213783
87	0.059084	0.180762	0.747375	0.558888	0.087555	0.421671	0.279496	0.190000	0.454979	0.388881	0.691789	0.318671	0.268886	0.294177	0.331487	0.209992	0.127404	0.098453	0.628426	0.213787	0.138928	0.314548	0.220409	0.193066	0.099009	0.327354	0.607304	0.182675	0.041736	0.071362	0.154717	0.136019	0.313255	0.764384	0.637809	0.711021	0.117543	0.125899	0.241569	0.248541	0.083968	0.181203	0.241564	0.299389	0.055585	0.340255	0.121171	0.167043	0.175772	0.822740	1.052456	0.551561	0.042313	0.072614	0.196634	0.118817	0.268202	0.734637	0.750352	0.339508	0.068929	0.048965	0.350378	0.142848	0.286237	0.394487	0.539998	0.551258	0.170596	0.224803	0.291928	0.213079
88	0.070538	0.179186	0.796874	0.571868	0.090082	0.374169	0.218724	0.199344	0.422771	0.364890	0.701594	0.310654	0.258294	0.239461	0.338926	0.200578	0.135022	0.105128	0.678506	0.209747	0.162103	0.303252	0.200158	0.191093	0.098999	0.330199	0.634015	0.186383	0.043435	0.075703	0.114415	0.135185	0.392567	0.898212	0.655322	0.717892	0.111080	0.113699	0.254454	0.223391	0.088118	0.212153	0.254653	0.314372	0.060589	0.314714	0.124920	0.176260	0.181321	0.757053	0.972511	0.545227	0.041595	0.071691	0.200368	0.100289	0.268165	0.751806	0.765389	0.316608	0.070572	0.054120	0.349829	0.135321	0.288335	0.376366	0.598089	0.609031	0.238364	0.286424	0.270034	0.213298
89	0.079188	0.160967	0.780623	0.574375	0.089191	0.368628	0.215411	0.235996	0.426765	0.356562	0.718464	0.324933	0.254393	0.217487	0.323957	0.192264	0.245301	0.242756	0.689449	0.180857	0.182128	0.232566	0.165548	0.186201	0.072841	0.330518	0.648306	0.196280	0.040443	0.080661	0.117898	0.125345	0.405605	0.991597	0.622234	0.724695	0.102460	0.100545	0.272452	0.242862	0.088783	0.229752	0.300537	0.311331	0.063932	0.314865	0.127623	0.173544	0.180895	0.602558	0.942467	0.552058	0.040252	0.071272	0.222899	0.094745	0.266631	0.752155	0.776442	0.324226	0.074316	0.057184	0.346333	0.128831	0.346081	0.396971	0.660596	0.721797	0.277474	0.323689	0.238602	0.211541
90	0.084650	0.131949	0.795475	0.571000	0.086171	0.353228	0.197662	0.252079	0.426637	0.353184	0.754175	0.335946	0.136039	0.208584	0.354851	0.198224	0.293882	0.323364	0.664685	0.181451	0.185161	0.195225	0.162662	0.187888	0.065490	0.326625	0.661379	0.237371	0.033960	0.079581	0.098421	0.120346	0.406134	1.022519	0.604091	0.707451	0.095936	0.104459	0.271082	0.259196	0.089853	0.241660	0.347784	0.309843	0.067594	0.309850	0.131981	0.157513	0.172359	0.638392	0.966354	0.592413	0.041152	0.047650	0.243534	0.092365	0.264864	0.745417	0.791030	0.359754	0.080737	0.064634	0.333421	0.118827	0.366396	0.444438	0.681920	0.836397	0.278239	0.326679	0.233632	0.209232
91	0.084328	0.106128	0.830047	0.562821	0.084970	0.311077	0.178059	0.248335	0.424863	0.357552	0.816893	0.346705	0.137707	0.202562	0.392570	0.195018	0.315361	0.340638	0.667551	0.175425	0.203039	0.228839	0.151203	0.180148	0.074762	0.328379	0.661726	0.250266	0.034120	0.070266	0.092980	0.120330	0.411069	1.024622	0.595024	0.704559	0.090096	0.112943	0.270824	0.262709	0.091122	0.245676	0.404738	0.317173	0.069467	0.290578	0.134348	0.140450	0.163118	0.654544	0.990552	0.623597	0.031613	0.042730	0.271355	0.116450	0.268340	0.743107	0.794124	0.400393	0.087591	0.073339	0.282757	0.118452	0.412371	0.580585	0.686185	0.875750	0.290326	0.346943	0.231423	0.208517
92	0.083913	0.091120	0.852940	0.526917	0.079188	0.295590	0.169155	0.228729	0.427084	0.399882	0.841961	0.373991	0.134107	0.182747	0.396869	0.200941	0.394173	0.418147	0.671884	0.186030	0.211232	0.252368	0.145226	0.140520	0.087844	0.333638	0.667464	0.379543	0.030928	0.067422	0.096051	0.123060	0.413642	1.017717	0.607818	0.712711	0.086641	0.116155	0.275987	0.262575	0.113820	0.254553	0.426761	0.314893	0.070109	0.261664	0.135073	0.127910	0.162539	0.641926	0.957500	0.663458	0.027117	0.042882	0.274932	0.121467	0.272227	0.736385	0.753319	0.430675	0.094110	0.080385	0.261525	0.113901	0.417190	0.618921	0.713286	0.865053	0.353941	0.406685	0.223629	0.208954
93	0.081732	0.090304	0.861840	0.452079	0.070565	0.287280	0.217407	0.218018	0.385956	0.441988	0.871790	0.408000	0.137386	0.184213	0.384718	0.197119	0.486985	0.524324	0.669603	0.199613	0.259401	0.273521	0.164732	0.134744	0.090836	0.326193	0.678275	0.529436	0.034982	0.064059	0.104698	0.121617	0.415317	1.004559	0.617394	0.707704	0.077666	0.106777	0.277818	0.274431	0.155180	0.292784	0.425900	0.302894	0.071951	0.223703	0.134953	0.125790	0.162315	0.601594	0.912065	0.692759	0.025965	0.040181	0.340175	0.139790	0.276815	0.695277	0.645446	0.447472	0.097750	0.084600	0.264267	0.105786	0.424998	0.619497	0.745688	0.862399	0.380167	0.452954	0.207012	0.207995
94	0.078062	0.087353	0.890244	0.405958	0.070575	0.247234	0.231271	0.225906	0.340894	0.433476	0.920602	0.418960	0.138013	0.186136	0.381164	0.194370	0.560361	0.590903	0.680941	0.192511	0.261702	0.276965	0.164770	0.155853	0.091027	0.285639	0.648473	0.566953	0.038058	0.064218	0.122605	0.131485	0.431250	0.988811	0.619809	0.702210	0.072026	0.099314	0.271505	0.277606	0.162828	0.309801	0.488767	0.271964	0.072124	0.182219	0.139278	0.128195	0.160008	0.555378	0.911978	0.698062	0.030401	0.043633	0.379731	0.163588	0.277658	0.619891	0.537589	0.453405	0.096757	0.084643	0.254508	0.103109	0.483710	0.650666	0.744677	0.890239	0.382516	0.481283	0.141772	0.178093
95	0.078183	0.083743	0.907235	0.431528	0.068598	0.127006	0.230873	0.242810	0.351536	0.432118	0.922607	0.413123	0.132260	0.185692	0.346928	0.193240	0.571194	0.599949	0.785178	0.195160	0.255895	0.276647	0.156130	0.185727	0.108995	0.241683	0.562591	0.574741	0.048658	0.071654	0.144264	0.119480	0.465595	0.950582	0.617016	0.676686	0.065708	0.091892	0.303807	0.245982	0.166217	0.312797	0.517896	0.261388	0.070734	0.145886	0.150931	0.149043	0.152084	0.503714	0.901878	0.696194	0.033869	0.045944	0.383906	0.176271	0.242033	0.613809	0.530491	0.442965	0.094054	0.082495	0.222048	0.104253	0.624268	0.745778	0.714986	0.910933	0.385246	0.491124	0.111351	0.153164
96	0.079535	0.079250	0.901809	0.455302	0.065601	0.110996	0.250852	0.267289	0.367072	0.436512	0.902358	0.420207	0.132305	0.190261	0.328646	0.146737	0.579744	0.607294	0.810700	0.194248	0.257929	0.265867	0.148361	0.198348	0.121779	0.222301	0.462817	0.624015	0.074279	0.090368	0.146663	0.114178	0.516483	0.941864	0.587006	0.667093	0.054458	0.081300	0.330525	0.234288	0.218007	0.354422	0.515647	0.266686	0.068304	0.108594	0.150416	0.197559	0.149915	0.470456	0.885824	0.693334	0.034921	0.046658	0.399513	0.184727	0.137080	0.555963	0.542455	0.410011	0.103076	0.082609	0.182827	0.098626	0.733906	0.816695	0.703820	0.886482	0.383637	0.487444	0.112730	0.136095
97	0.087783	0.084713	0.861372	0.447380	0.055260	0.112092	0.283785	0.290304	0.384320	0.435870	0.812544	0.403778	0.132529	0.191719	0.330684	0.148066	0.674204	0.680900	0.794441	0.171416	0.251842	0.258584	0.148000	0.187923	0.120106	0.206102	0.460353	0.663843	0.103174	0.099631	0.156049	0.117160	0.558115	0.988698	0.577129	0.627586	0.039820	0.068274	0.327766	0.244589	0.288134	0.428641	0.511509	0.281751	0.065484	0.080286	0.141185	0.246669	0.140873	0.461934	0.887678	0.688673	0.036210	0.048205	0.425064	0.187453	0.135099	0.485518	0.536703	0.406754	0.119547	0.083485	0.153256	0.082423	0.766158	0.822162	0.706856	0.855464	0.377904	0.477898	0.118519	0.128663
98	0.102964	0.111592	0.815491	0.422537	0.047842	0.110628	0.292617	0.293082	0.382125	0.424161	0.750075	0.388228	0.137105	0.195752	0.321375	0.149413	0.793232	0.791421	0.689819	0.170701	0.252002	0.238478	0.140690	0.178943	0.126549	0.195083	0.427624	0.667701	0.125292	0.094566	0.151794	0.117797	0.559742	0.974653	0.612299	0.638534	0.037977	0.068736	0.317916	0.238939	0.301811	0.441281	0.505904	0.293629	0.059424	0.079208	0.139938	0.257321	0.140342	0.483516	0.905184	0.690743	0.039707	0.056767	0.413916	0.226034	0.154681	0.398037	0.476654	0.407520	0.143110	0.085836	0.138745	0.065734	0.786580	0.825888	0.664585	0.852538	0.366009	0.462854	0.112059	0.129448
99	0.120682	0.142210	0.714801	0.393251	0.041324	0.114255	0.291675	0.270285	0.295240	0.360808	0.736721	0.387076	0.169503	0.209700	0.285574	0.140920	0.814692	0.839989	0.604750	0.170926	0.253785	0.255788	0.134788	0.182039	0.141656	0.243149	0.371715	0.683454	0.172200	0.130798	0.155493	0.114861	0.518827	0.880970	0.603344	0.679828	0.045445	0.069328	0.302581	0.208818	0.298712	0.422450	0.518116	0.309102	0.047308	0.081241	0.132440	0.248609	0.137173	0.497337	0.868285	0.653786	0.039326	0.059506	0.385829	0.250450	0.161345	0.316655	0.425024	0.416607	0.168781	0.087063	0.138042	0.060042	0.872876	0.900611	0.612202	0.846720	0.343334	0.440639	0.098579	0.128874
100	0.134924	0.159946	0.635333	0.382573	0.041781	0.117595	0.292731	0.251086	0.284741	0.385420	0.744555	0.386402	0.158825	0.194978	0.250486	0.134451	0.801520	0.831456	0.548298	0.170287	0.258959	0.295236	0.123405	0.192824	0.151993	0.316516	0.345666	0.689648	0.206866	0.152949	0.158441	0.109476	0.528688	0.753928	0.582452	0.666021	0.103600	0.079780	0.297786	0.184681	0.299069	0.416448	0.509745	0.309137	0.039859	0.084505	0.140182	0.241666	0.132496	0.504092	0.755689	0.621977	0.041241	0.061451	0.377854	0.243443	0.175016	0.248497	0.391156	0.425092	0.185775	0.083998	0.136606	0.068772	0.931405	0.971888	0.536075	0.813025	0.295867	0.400313	0.098969	0.133112
101	0.143345	0.164489	0.640426	0.416619	0.044757	0.117791	0.339355	0.293942	0.278454	0.428091	0.735683	0.392048	0.159933	0.197474	0.222750	0.140262	0.780986	0.803749	0.531621	0.164044	0.269615	0.340021	0.127815	0.190474	0.184650	0.364770	0.313950	0.686097	0.212712	0.159395	0.170148	0.110487	0.539146	0.643190	0.580779	0.628083	0.117645	0.078815	0.293284	0.179254	0.348576	0.466630	0.495936	0.298411	0.038318	0.086611	0.151109	0.240135	0.125857	0.505665	0.709935	0.592862	0.042613	0.065878	0.319155	0.242031	0.175470	0.212272	0.366529	0.420068	0.188813	0.096541	0.131187	0.088037	0.951157	0.994678	0.488593	0.838460	0.273639	0.379735	0.103167	0.146752
