	302_At_T1_sh_ND_02.c3d	302_At_T1_sh_ND_02.c3d	302_At_T1_sh_ND_02.c3d	302_At_T1_sh_ND_02.c3d	302_At_T1_sh_ND_02.c3d	302_At_T1_sh_ND_02.c3d	302_At_T1_sh_ND_02.c3d	302_At_T1_sh_ND_02.c3d	302_At_T1_sh_ND_04.c3d	302_At_T1_sh_ND_04.c3d	302_At_T1_sh_ND_04.c3d	302_At_T1_sh_ND_04.c3d	302_At_T1_sh_ND_04.c3d	302_At_T1_sh_ND_04.c3d	302_At_T1_sh_ND_04.c3d	302_At_T1_sh_ND_04.c3d	302_At_T1_sh_ND_06.c3d	302_At_T1_sh_ND_06.c3d	302_At_T1_sh_ND_06.c3d	302_At_T1_sh_ND_06.c3d	302_At_T1_sh_ND_06.c3d	302_At_T1_sh_ND_06.c3d	302_At_T1_sh_ND_06.c3d	302_At_T1_sh_ND_06.c3d	302_At_T1_sh_ND_07.c3d	302_At_T1_sh_ND_07.c3d	302_At_T1_sh_ND_07.c3d	302_At_T1_sh_ND_07.c3d	302_At_T1_sh_ND_07.c3d	302_At_T1_sh_ND_07.c3d	302_At_T1_sh_ND_07.c3d	302_At_T1_sh_ND_07.c3d	302_At_T1_sh_ND_08.c3d	302_At_T1_sh_ND_08.c3d	302_At_T1_sh_ND_08.c3d	302_At_T1_sh_ND_08.c3d	302_At_T1_sh_ND_08.c3d	302_At_T1_sh_ND_08.c3d	302_At_T1_sh_ND_08.c3d	302_At_T1_sh_ND_08.c3d
	Biceps femoris_lat	Semitendinosus_lat	Vastus lateralis_lat	Vastus medialis_lat	Biceps femoris_med	Semitendinosus_med	Vastus lateralis_med	Vastus medialis_med	Biceps femoris_lat	Semitendinosus_lat	Vastus lateralis_lat	Vastus medialis_lat	Biceps femoris_med	Semitendinosus_med	Vastus lateralis_med	Vastus medialis_med	Biceps femoris_lat	Semitendinosus_lat	Vastus lateralis_lat	Vastus medialis_lat	Biceps femoris_med	Semitendinosus_med	Vastus lateralis_med	Vastus medialis_med	Biceps femoris_lat	Semitendinosus_lat	Vastus lateralis_lat	Vastus medialis_lat	Biceps femoris_med	Semitendinosus_med	Vastus lateralis_med	Vastus medialis_med	Biceps femoris_lat	Semitendinosus_lat	Vastus lateralis_lat	Vastus medialis_lat	Biceps femoris_med	Semitendinosus_med	Vastus lateralis_med	Vastus medialis_med
	P2D	P2D	P2D	P2D	P2D	P2D	P2D	P2D	P2D	P2D	P2D	P2D	P2D	P2D	P2D	P2D	P2D	P2D	P2D	P2D	P2D	P2D	P2D	P2D	P2D	P2D	P2D	P2D	P2D	P2D	P2D	P2D	P2D	P2D	P2D	P2D	P2D	P2D	P2D	P2D
	EMG_lat	EMG_lat	EMG_lat	EMG_lat	EMG_med	EMG_med	EMG_med	EMG_med	EMG_lat	EMG_lat	EMG_lat	EMG_lat	EMG_med	EMG_med	EMG_med	EMG_med	EMG_lat	EMG_lat	EMG_lat	EMG_lat	EMG_med	EMG_med	EMG_med	EMG_med	EMG_lat	EMG_lat	EMG_lat	EMG_lat	EMG_med	EMG_med	EMG_med	EMG_med	EMG_lat	EMG_lat	EMG_lat	EMG_lat	EMG_med	EMG_med	EMG_med	EMG_med
ITEM	Y	Y	Y	Y	Y	Y	Y	Y	Y	Y	Y	Y	Y	Y	Y	Y	Y	Y	Y	Y	Y	Y	Y	Y	Y	Y	Y	Y	Y	Y	Y	Y	Y	Y	Y	Y	Y	Y	Y	Y
1	0.259986	0.356223	0.081788	0.221512	0.195626	0.186129	0.067898	0.066998	0.179697	0.396130	0.053705	0.122483	0.564560	0.419728	0.060907	0.059340	0.094860	0.115208	0.082268	0.217488	0.276550	0.186841	0.060147	0.157257	0.131614	0.133773	0.072686	0.106577	0.308945	0.244858	0.052875	0.157324	0.096066	0.087263	0.046031	0.195074	0.357210	0.361217	0.054109	0.090747
2	0.235935	0.251055	0.084824	0.220248	0.196660	0.188008	0.066989	0.080699	0.179713	0.371824	0.048559	0.127488	0.566954	0.419797	0.059538	0.048024	0.089288	0.109601	0.092626	0.211935	0.323492	0.223273	0.062702	0.151025	0.090840	0.111950	0.080113	0.100752	0.218434	0.185489	0.053346	0.155423	0.078266	0.075018	0.055120	0.199572	0.370433	0.372493	0.049936	0.092398
3	0.230685	0.225361	0.087796	0.228458	0.195390	0.187716	0.057786	0.086791	0.156381	0.295779	0.046481	0.125815	0.540314	0.389228	0.059337	0.047730	0.093549	0.108037	0.094727	0.199308	0.334718	0.234482	0.062449	0.144763	0.111379	0.146807	0.101611	0.100403	0.120879	0.119589	0.058101	0.144056	0.078502	0.073898	0.082722	0.195154	0.371409	0.375058	0.053024	0.108472
4	0.229292	0.222136	0.099819	0.260975	0.189783	0.179895	0.065296	0.086918	0.117239	0.213619	0.047529	0.125891	0.467997	0.338576	0.057458	0.056046	0.085069	0.100751	0.090562	0.196649	0.319467	0.229408	0.062824	0.149226	0.110845	0.148219	0.116499	0.100878	0.089093	0.080197	0.070825	0.132901	0.079267	0.077110	0.085797	0.203476	0.365934	0.370083	0.055815	0.120907
5	0.234896	0.230255	0.104123	0.296579	0.165290	0.155222	0.081052	0.088694	0.106655	0.168428	0.049425	0.149608	0.406669	0.318722	0.102322	0.083337	0.082486	0.106915	0.091865	0.196430	0.320111	0.227409	0.065162	0.154787	0.105868	0.143062	0.126295	0.098292	0.088896	0.065154	0.100623	0.137942	0.078791	0.078305	0.086596	0.210252	0.340119	0.352462	0.066618	0.118185
6	0.234375	0.231668	0.112828	0.303132	0.122556	0.109790	0.088076	0.093149	0.111069	0.158884	0.048707	0.145414	0.394021	0.305447	0.173561	0.112099	0.074163	0.097818	0.091544	0.199191	0.321210	0.228155	0.064133	0.157805	0.104979	0.142885	0.156343	0.113428	0.085468	0.060166	0.124429	0.147816	0.078449	0.079729	0.086238	0.191597	0.286907	0.315484	0.103636	0.123647
7	0.215091	0.207375	0.109528	0.255828	0.099189	0.083870	0.088552	0.103173	0.106703	0.155716	0.047099	0.142213	0.188576	0.133633	0.202324	0.140452	0.063116	0.083776	0.092183	0.205353	0.321899	0.227720	0.062387	0.150927	0.104703	0.143734	0.168824	0.164598	0.084173	0.059691	0.130467	0.147837	0.070062	0.077521	0.116184	0.181820	0.256300	0.279175	0.119903	0.127543
8	0.204022	0.191453	0.110401	0.229858	0.080945	0.079772	0.100802	0.108767	0.077292	0.141482	0.048843	0.153679	0.191421	0.144704	0.207105	0.143665	0.059105	0.076816	0.097337	0.177332	0.320605	0.226266	0.071507	0.133880	0.107724	0.147244	0.168330	0.164622	0.081638	0.063564	0.140203	0.146384	0.055152	0.067928	0.135018	0.214667	0.233312	0.257295	0.119695	0.127295
9	0.197312	0.190403	0.105206	0.230034	0.072260	0.097084	0.110462	0.107028	0.066420	0.132009	0.061838	0.157964	0.214964	0.162513	0.217914	0.164736	0.059520	0.076614	0.104340	0.131080	0.321280	0.219099	0.071909	0.132664	0.085323	0.118579	0.165743	0.187822	0.077744	0.064525	0.154631	0.156913	0.048066	0.064381	0.135479	0.203595	0.228209	0.253677	0.120303	0.113078
10	0.172047	0.179477	0.105600	0.228754	0.077234	0.105442	0.111071	0.108171	0.068574	0.123839	0.058875	0.152362	0.186485	0.147414	0.270694	0.204336	0.057585	0.079000	0.097177	0.118862	0.291245	0.193448	0.071861	0.135007	0.057823	0.081466	0.175895	0.228067	0.074825	0.063819	0.156783	0.165042	0.046594	0.065546	0.129808	0.210116	0.206922	0.213330	0.118704	0.109360
11	0.126310	0.167624	0.109154	0.228793	0.084456	0.108714	0.111777	0.107733	0.070215	0.110413	0.068991	0.144976	0.171444	0.156221	0.296520	0.210008	0.044993	0.074870	0.088628	0.112784	0.262810	0.188463	0.068120	0.131771	0.057501	0.075941	0.184491	0.232756	0.069045	0.062668	0.171265	0.160210	0.051973	0.068751	0.114750	0.211241	0.164472	0.150843	0.121535	0.108487
12	0.091794	0.126981	0.108728	0.227655	0.088280	0.108634	0.111585	0.105241	0.066993	0.078761	0.087228	0.144327	0.176491	0.171318	0.303783	0.214150	0.046728	0.071066	0.083628	0.101470	0.245577	0.186926	0.066557	0.121558	0.060263	0.078448	0.176001	0.240871	0.061766	0.059844	0.200348	0.163518	0.053114	0.072996	0.114183	0.191132	0.122327	0.109762	0.128729	0.109682
13	0.086493	0.116183	0.096817	0.213353	0.091510	0.110084	0.110066	0.110020	0.066072	0.055743	0.087586	0.125723	0.175968	0.174775	0.307124	0.213740	0.050814	0.061289	0.085152	0.110560	0.242554	0.174782	0.059081	0.100724	0.055242	0.076729	0.162183	0.234675	0.056765	0.058167	0.220324	0.177065	0.053950	0.081448	0.113202	0.187225	0.101433	0.078810	0.131978	0.103500
14	0.082671	0.108973	0.092094	0.163363	0.094986	0.114549	0.112791	0.111801	0.061850	0.053707	0.110959	0.128311	0.175824	0.173590	0.305913	0.207241	0.064811	0.087857	0.084208	0.120011	0.187938	0.124454	0.049895	0.096807	0.051901	0.070685	0.156378	0.213620	0.055216	0.057500	0.241114	0.199595	0.052640	0.082318	0.113278	0.188219	0.101776	0.078596	0.162645	0.085561
15	0.052043	0.074894	0.084739	0.121803	0.101734	0.117512	0.118559	0.107191	0.058617	0.064446	0.150740	0.179267	0.174770	0.172373	0.268473	0.195704	0.062217	0.090051	0.080810	0.105926	0.119992	0.069840	0.050880	0.097866	0.052084	0.063389	0.154432	0.216247	0.054958	0.057689	0.262681	0.240879	0.047598	0.077794	0.077087	0.160521	0.099409	0.082076	0.201267	0.089234
16	0.041163	0.065202	0.076257	0.108448	0.103561	0.113317	0.118190	0.102194	0.071353	0.095123	0.174542	0.210337	0.167430	0.170784	0.243623	0.183222	0.063246	0.091286	0.069395	0.126685	0.093226	0.061940	0.055518	0.097676	0.061769	0.067061	0.153725	0.194134	0.054703	0.059407	0.280618	0.265305	0.049196	0.080475	0.068214	0.124409	0.089533	0.082514	0.226538	0.100975
17	0.051179	0.077783	0.077152	0.111096	0.106439	0.107500	0.156248	0.120331	0.071066	0.103618	0.169358	0.214692	0.154554	0.161651	0.244662	0.183729	0.065559	0.092176	0.069053	0.149213	0.086423	0.068478	0.067864	0.098590	0.072912	0.086359	0.125238	0.146910	0.054404	0.058806	0.283408	0.267405	0.059980	0.099854	0.081645	0.183567	0.095219	0.102361	0.232206	0.098105
18	0.057632	0.088333	0.085545	0.111470	0.107872	0.105354	0.195688	0.129137	0.063352	0.096559	0.183446	0.264833	0.084303	0.125632	0.248662	0.176328	0.069699	0.094233	0.066497	0.149337	0.078827	0.069644	0.084623	0.122190	0.072401	0.090198	0.127584	0.191527	0.054312	0.057910	0.278913	0.265327	0.061531	0.104183	0.105312	0.206118	0.099367	0.137490	0.235907	0.094596
19	0.057961	0.088543	0.089605	0.109959	0.108499	0.104534	0.203669	0.130312	0.070880	0.103604	0.211486	0.298551	0.081956	0.120402	0.198487	0.123072	0.075225	0.101671	0.074309	0.151165	0.082373	0.083144	0.095503	0.152678	0.070259	0.092409	0.143304	0.269950	0.053689	0.057420	0.263840	0.260250	0.060744	0.105662	0.109680	0.214717	0.117383	0.175486	0.237692	0.096320
20	0.056504	0.090051	0.080782	0.126360	0.110056	0.104134	0.202776	0.127269	0.080052	0.114915	0.209486	0.298494	0.070232	0.096138	0.147423	0.109294	0.077621	0.112499	0.079401	0.162411	0.089955	0.098610	0.090575	0.154153	0.066165	0.086180	0.126421	0.272531	0.053280	0.056223	0.258417	0.257205	0.061303	0.104561	0.117952	0.274036	0.129275	0.202808	0.244938	0.111513
21	0.057552	0.102936	0.086011	0.243108	0.111778	0.104626	0.208661	0.129046	0.085353	0.119418	0.215526	0.302054	0.047294	0.079203	0.123493	0.100051	0.079459	0.125218	0.075541	0.155243	0.088818	0.110638	0.099703	0.162896	0.071161	0.110611	0.123361	0.300092	0.053627	0.054171	0.255016	0.256697	0.060241	0.097991	0.170664	0.308011	0.132332	0.218051	0.250453	0.116998
22	0.070355	0.132242	0.100276	0.297594	0.110946	0.099239	0.231018	0.170310	0.088246	0.124014	0.223158	0.301750	0.040309	0.098755	0.114789	0.103416	0.068976	0.111287	0.075800	0.144820	0.084571	0.118598	0.103540	0.175216	0.078146	0.148876	0.161273	0.379506	0.053790	0.057822	0.248129	0.250199	0.062435	0.096413	0.212004	0.314439	0.132207	0.219923	0.248337	0.115124
23	0.078569	0.140005	0.112637	0.297410	0.105385	0.084488	0.265780	0.213985	0.092319	0.129647	0.201205	0.286814	0.040951	0.105191	0.105723	0.124221	0.066828	0.107501	0.079056	0.151195	0.085216	0.118576	0.105183	0.175502	0.074404	0.160020	0.187647	0.406295	0.053411	0.061567	0.244671	0.234905	0.062727	0.092554	0.223849	0.324188	0.134216	0.229194	0.248640	0.112785
24	0.078877	0.138809	0.110779	0.319044	0.099406	0.080145	0.291225	0.231591	0.090108	0.129787	0.190771	0.273224	0.045497	0.109409	0.102628	0.132537	0.064236	0.105791	0.133769	0.233816	0.088842	0.119828	0.106446	0.175559	0.064238	0.161347	0.192265	0.410573	0.056638	0.061013	0.245910	0.235180	0.059368	0.083692	0.306598	0.440119	0.139777	0.246314	0.234722	0.109480
25	0.079779	0.138636	0.129349	0.375469	0.097024	0.081635	0.294317	0.232178	0.085639	0.117890	0.208896	0.275375	0.048526	0.115340	0.104854	0.124981	0.065424	0.111657	0.154774	0.244441	0.094110	0.123671	0.106274	0.176961	0.084331	0.189570	0.215621	0.419689	0.076916	0.073785	0.241962	0.253068	0.053032	0.064646	0.321224	0.462935	0.149110	0.268155	0.203376	0.107205
26	0.076449	0.139617	0.185394	0.434461	0.090505	0.079440	0.295285	0.230918	0.087053	0.118350	0.207963	0.240821	0.049612	0.122189	0.090208	0.107952	0.062274	0.109868	0.155097	0.269425	0.094025	0.124823	0.110737	0.176062	0.092685	0.206174	0.250169	0.410331	0.088935	0.081804	0.258371	0.300899	0.051656	0.058527	0.315700	0.455468	0.156169	0.288205	0.158886	0.091444
27	0.074499	0.134276	0.194271	0.441414	0.082896	0.075449	0.295273	0.227996	0.083152	0.116487	0.184889	0.197144	0.063720	0.151961	0.061394	0.103200	0.059375	0.101609	0.169837	0.308327	0.091464	0.129676	0.155118	0.188494	0.092767	0.205300	0.267026	0.410941	0.089492	0.079391	0.254285	0.343664	0.047546	0.052599	0.329650	0.469305	0.158040	0.297521	0.121344	0.084381
28	0.074419	0.131899	0.191821	0.442243	0.075699	0.067131	0.293666	0.227218	0.069111	0.105396	0.177015	0.174179	0.063999	0.153175	0.061889	0.101059	0.088829	0.125139	0.182471	0.310511	0.090496	0.139467	0.192657	0.211815	0.089950	0.194234	0.264951	0.384783	0.089122	0.111304	0.236934	0.344162	0.064076	0.096514	0.327231	0.446392	0.149555	0.288155	0.108569	0.089399
29	0.078052	0.131988	0.194857	0.445622	0.067640	0.059496	0.290765	0.227216	0.063335	0.102747	0.176243	0.169933	0.062769	0.152883	0.071706	0.102375	0.128382	0.182089	0.185316	0.312039	0.087478	0.141515	0.203072	0.220968	0.078547	0.164170	0.248920	0.309016	0.089579	0.124454	0.214888	0.317098	0.067599	0.106243	0.301943	0.430538	0.134448	0.266884	0.105898	0.086380
30	0.078800	0.127700	0.208216	0.432224	0.062861	0.058832	0.290299	0.223792	0.057713	0.096642	0.164480	0.163354	0.063641	0.155970	0.075659	0.103725	0.138465	0.199479	0.192590	0.314690	0.087012	0.145786	0.197926	0.214136	0.078725	0.161297	0.260666	0.315816	0.091292	0.125135	0.201445	0.330722	0.074418	0.123357	0.279127	0.434567	0.116305	0.239673	0.114119	0.112612
31	0.078129	0.116635	0.211109	0.377335	0.057294	0.057098	0.266799	0.212273	0.067170	0.096302	0.156900	0.165518	0.061118	0.142895	0.084805	0.135176	0.143344	0.203481	0.217663	0.313395	0.081603	0.143637	0.195637	0.192477	0.092012	0.166826	0.310957	0.394494	0.095948	0.130290	0.200227	0.389579	0.080122	0.133682	0.285808	0.431842	0.103489	0.219735	0.118625	0.132859
32	0.066937	0.117010	0.203970	0.355462	0.055504	0.056777	0.240060	0.207829	0.070605	0.079797	0.181130	0.248511	0.061927	0.142967	0.099869	0.163373	0.156279	0.215645	0.189715	0.239987	0.069313	0.133030	0.213332	0.200459	0.077200	0.137068	0.305028	0.394935	0.101220	0.137062	0.206054	0.431004	0.078394	0.150240	0.208560	0.302371	0.101832	0.215920	0.114876	0.134461
33	0.118068	0.311274	0.200763	0.352427	0.055478	0.056350	0.230998	0.208365	0.068472	0.077500	0.222472	0.348767	0.070529	0.160379	0.167739	0.213874	0.163299	0.219007	0.169009	0.217497	0.067143	0.125008	0.245707	0.230097	0.072716	0.114003	0.268615	0.378614	0.102862	0.138235	0.213684	0.435508	0.085895	0.154091	0.191813	0.242511	0.098052	0.209122	0.113971	0.139002
34	0.166081	0.407752	0.201390	0.334633	0.051851	0.077231	0.233930	0.215053	0.066242	0.076703	0.233278	0.371286	0.069074	0.166868	0.199561	0.308176	0.163731	0.219293	0.181428	0.191839	0.072231	0.124187	0.258939	0.234343	0.072274	0.113847	0.262295	0.422949	0.104071	0.139118	0.217020	0.436198	0.095604	0.168316	0.191554	0.237647	0.097058	0.192980	0.136195	0.172028
35	0.170950	0.424871	0.180728	0.284777	0.048510	0.088148	0.228109	0.213565	0.073482	0.077990	0.238397	0.386615	0.083847	0.227177	0.211246	0.316591	0.162937	0.220003	0.183401	0.133864	0.081109	0.131599	0.261151	0.233872	0.071154	0.112023	0.293580	0.425286	0.107737	0.137754	0.218752	0.436295	0.099900	0.175156	0.162709	0.192540	0.082861	0.162523	0.152235	0.183899
36	0.191109	0.511415	0.150200	0.248873	0.050002	0.087963	0.195712	0.178181	0.086041	0.087207	0.281785	0.469853	0.086752	0.232387	0.212565	0.341074	0.147516	0.208866	0.187268	0.124202	0.082227	0.133845	0.261563	0.233970	0.080690	0.114179	0.294541	0.429010	0.111731	0.135765	0.221607	0.436069	0.087942	0.161457	0.169583	0.192294	0.068858	0.126593	0.156586	0.195717
37	0.193760	0.520795	0.155146	0.248573	0.049142	0.083408	0.138706	0.124616	0.085279	0.084658	0.325943	0.522394	0.119673	0.297914	0.246378	0.416736	0.113776	0.212233	0.199001	0.122990	0.073800	0.130795	0.262288	0.234040	0.082610	0.130942	0.265422	0.401028	0.112443	0.135665	0.221360	0.435403	0.086713	0.177861	0.188446	0.230730	0.058036	0.088426	0.165691	0.203308
38	0.193459	0.521261	0.172571	0.277700	0.047327	0.078033	0.081040	0.095789	0.084591	0.089092	0.340305	0.534642	0.123047	0.302561	0.301750	0.482326	0.105936	0.209823	0.201140	0.115781	0.074439	0.129918	0.262874	0.234041	0.073589	0.135061	0.199078	0.322434	0.103083	0.133129	0.213837	0.430355	0.087552	0.175481	0.199651	0.230144	0.052723	0.071981	0.182030	0.201722
39	0.193159	0.522816	0.212539	0.318546	0.041049	0.073039	0.074681	0.096737	0.081163	0.089059	0.340893	0.535687	0.136043	0.321511	0.318225	0.485709	0.136352	0.311382	0.173584	0.107884	0.079562	0.129702	0.249291	0.229934	0.071834	0.130118	0.170440	0.283837	0.091763	0.129098	0.175792	0.403892	0.094244	0.171843	0.161440	0.203640	0.052599	0.069463	0.189671	0.203079
40	0.192038	0.522803	0.226392	0.332734	0.038057	0.071980	0.071949	0.098467	0.063949	0.082269	0.337843	0.519782	0.140348	0.325223	0.324775	0.487474	0.133166	0.335128	0.174363	0.110384	0.084342	0.119393	0.221222	0.210170	0.070591	0.183142	0.175243	0.244141	0.091066	0.127765	0.135107	0.357401	0.098102	0.159674	0.155291	0.209351	0.053707	0.069453	0.184336	0.203307
41	0.191399	0.522193	0.227336	0.334237	0.037412	0.072012	0.074494	0.098530	0.066659	0.073849	0.304912	0.454369	0.140326	0.324444	0.325506	0.477051	0.122881	0.335662	0.179521	0.112253	0.087305	0.110005	0.202038	0.197817	0.079526	0.212602	0.166255	0.143887	0.092612	0.127068	0.123837	0.318896	0.128911	0.157692	0.165178	0.218885	0.059180	0.075541	0.180753	0.185877
42	0.185225	0.498673	0.227615	0.337640	0.036206	0.072877	0.075214	0.100232	0.076628	0.073199	0.272019	0.408214	0.135838	0.313758	0.309282	0.459903	0.121887	0.335436	0.172934	0.107112	0.090408	0.105075	0.198115	0.195046	0.091196	0.244861	0.097752	0.133021	0.091690	0.160209	0.119579	0.311234	0.193138	0.177561	0.164461	0.218317	0.059465	0.075984	0.184570	0.182705
43	0.141135	0.378026	0.228206	0.333072	0.034914	0.073772	0.071664	0.110267	0.093963	0.085105	0.268235	0.405769	0.134498	0.310406	0.285151	0.409038	0.121162	0.335561	0.157434	0.089868	0.090416	0.099270	0.202506	0.195886	0.086049	0.259152	0.080391	0.114034	0.091691	0.192917	0.116457	0.307977	0.228846	0.188636	0.164746	0.213264	0.061473	0.078389	0.187325	0.183859
44	0.105924	0.333269	0.230357	0.308422	0.033490	0.073558	0.083052	0.138972	0.094778	0.082504	0.241820	0.338461	0.129071	0.276376	0.292018	0.399315	0.121284	0.332067	0.136106	0.077211	0.090350	0.098225	0.198822	0.185878	0.079499	0.242844	0.080066	0.095882	0.088102	0.207711	0.116222	0.282287	0.230691	0.181978	0.152711	0.190493	0.064427	0.085364	0.175785	0.167274
45	0.090532	0.253109	0.227634	0.274797	0.045459	0.081491	0.089135	0.175023	0.093610	0.081789	0.156525	0.198806	0.124483	0.259962	0.301596	0.389851	0.123306	0.294468	0.121402	0.078574	0.088339	0.097803	0.162770	0.152317	0.078382	0.230644	0.083395	0.078441	0.086762	0.212296	0.110803	0.239650	0.243647	0.167268	0.123235	0.127412	0.072536	0.089688	0.163884	0.142812
46	0.039571	0.082246	0.217522	0.272578	0.060449	0.087738	0.089552	0.180988	0.120958	0.105985	0.085815	0.124032	0.085349	0.176279	0.288480	0.331574	0.135881	0.287309	0.106118	0.081852	0.080719	0.092579	0.119878	0.118137	0.096968	0.256994	0.081723	0.061408	0.095839	0.245566	0.118840	0.262882	0.259771	0.163600	0.099132	0.102142	0.075467	0.084311	0.168999	0.134924
47	0.034853	0.072259	0.214806	0.262726	0.067282	0.088430	0.088130	0.179517	0.316566	0.271405	0.073275	0.106833	0.080199	0.168302	0.226227	0.214060	0.114897	0.170702	0.103656	0.082706	0.067160	0.078063	0.109440	0.118462	0.110930	0.269398	0.064820	0.049653	0.112303	0.288519	0.143755	0.290596	0.284909	0.206838	0.093744	0.099742	0.082734	0.082680	0.162421	0.136269
48	0.030933	0.075490	0.189453	0.209094	0.069465	0.071189	0.077179	0.183697	0.429185	0.369163	0.071442	0.104949	0.057103	0.133657	0.187194	0.195219	0.103966	0.097856	0.110095	0.108430	0.060316	0.069037	0.108952	0.120662	0.114736	0.285996	0.077967	0.056630	0.116470	0.300373	0.159433	0.296191	0.285836	0.206652	0.073164	0.065416	0.087410	0.083431	0.147393	0.140118
49	0.036529	0.102743	0.135751	0.156211	0.072726	0.064595	0.075435	0.199879	0.513789	0.422362	0.061036	0.090034	0.039611	0.104268	0.176004	0.181461	0.104714	0.079749	0.122681	0.118066	0.059696	0.070029	0.107564	0.128674	0.115849	0.283440	0.230873	0.267339	0.112781	0.300088	0.166925	0.299243	0.263550	0.198531	0.095805	0.052461	0.089097	0.086051	0.133862	0.145561
50	0.039128	0.115563	0.148982	0.223794	0.075668	0.108577	0.096573	0.232849	0.734058	0.558262	0.069093	0.085580	0.039035	0.102645	0.168466	0.175905	0.104867	0.081998	0.123173	0.118184	0.058905	0.068549	0.106937	0.157799	0.114871	0.285213	0.306590	0.306313	0.108838	0.300024	0.161950	0.323642	0.252586	0.204856	0.201152	0.179276	0.092869	0.089501	0.137681	0.152219
51	0.038659	0.113937	0.186574	0.257333	0.082577	0.142261	0.128354	0.254162	0.830091	0.653313	0.076990	0.081573	0.039322	0.107162	0.155216	0.181284	0.104683	0.082394	0.205400	0.174457	0.054387	0.064988	0.116825	0.199012	0.114919	0.296163	0.314259	0.314475	0.110773	0.303456	0.165512	0.352257	0.244235	0.203479	0.224853	0.235121	0.096073	0.090510	0.138019	0.163546
52	0.050052	0.138890	0.212703	0.257301	0.083403	0.147244	0.143625	0.254592	0.827920	0.651586	0.076562	0.076499	0.037887	0.106774	0.152160	0.172022	0.109267	0.080417	0.250084	0.236542	0.044173	0.057269	0.132392	0.227659	0.113631	0.295825	0.386935	0.369769	0.109857	0.303541	0.180000	0.381808	0.247720	0.203856	0.230230	0.239382	0.099322	0.091554	0.143696	0.176742
53	0.079891	0.180736	0.212547	0.255606	0.091109	0.173722	0.146106	0.253773	0.827759	0.652231	0.083279	0.079509	0.035371	0.102394	0.119356	0.149944	0.105371	0.080832	0.248670	0.238438	0.039767	0.061820	0.131827	0.231017	0.119153	0.285702	0.475692	0.406271	0.112512	0.311023	0.194110	0.398607	0.238759	0.205415	0.249377	0.255428	0.099816	0.090867	0.146322	0.179259
54	0.099276	0.200665	0.235554	0.273275	0.102280	0.203164	0.147160	0.253275	0.829614	0.658198	0.161941	0.154206	0.032457	0.100333	0.074878	0.144566	0.089278	0.072155	0.257283	0.273390	0.037100	0.071281	0.131811	0.226486	0.116441	0.257990	0.488360	0.409635	0.123975	0.324713	0.196485	0.399733	0.207320	0.190953	0.257782	0.258166	0.093632	0.081174	0.145806	0.172578
55	0.102187	0.233718	0.276265	0.296089	0.103251	0.205985	0.145967	0.256182	0.805652	0.643692	0.290028	0.297271	0.032404	0.083210	0.060033	0.126048	0.092469	0.075110	0.310444	0.315925	0.038672	0.078435	0.128672	0.225630	0.105170	0.207649	0.490270	0.407631	0.132510	0.317050	0.195396	0.400875	0.182299	0.158826	0.266974	0.258359	0.088618	0.074626	0.139739	0.171864
56	0.124748	0.336105	0.290995	0.304043	0.103446	0.207563	0.147816	0.268893	0.749662	0.597381	0.338361	0.339948	0.032279	0.062797	0.056245	0.103452	0.092327	0.090912	0.326400	0.325489	0.039581	0.078372	0.112258	0.225734	0.096216	0.186345	0.436938	0.308743	0.136438	0.292722	0.194655	0.401871	0.179154	0.160872	0.266831	0.265894	0.092551	0.076699	0.127663	0.171074
57	0.133826	0.354601	0.294854	0.309584	0.104407	0.215969	0.150140	0.276256	0.693673	0.563156	0.353145	0.343806	0.029381	0.052145	0.036337	0.079990	0.091681	0.107993	0.324386	0.320691	0.043658	0.080848	0.106779	0.224445	0.096343	0.160372	0.398532	0.278698	0.136945	0.278552	0.194633	0.392156	0.178227	0.159524	0.256389	0.280877	0.128061	0.100978	0.127113	0.161088
58	0.133537	0.357089	0.291681	0.310447	0.104195	0.219201	0.145306	0.262402	0.635097	0.533032	0.381684	0.373931	0.029954	0.075234	0.033051	0.075555	0.092752	0.113985	0.323558	0.318615	0.049672	0.083909	0.105438	0.221919	0.097036	0.142514	0.403255	0.280067	0.136706	0.273373	0.195876	0.365330	0.122195	0.111432	0.252734	0.265538	0.215174	0.168500	0.126884	0.154023
59	0.131194	0.347915	0.288620	0.283686	0.098478	0.216235	0.145655	0.242096	0.182284	0.251348	0.446612	0.439200	0.038908	0.149700	0.030471	0.061460	0.092671	0.115427	0.277098	0.289762	0.053985	0.084735	0.102018	0.214167	0.097037	0.141277	0.322428	0.208769	0.130535	0.251520	0.197040	0.327631	0.089938	0.099614	0.293928	0.251507	0.243386	0.190434	0.126928	0.152269
60	0.136723	0.378171	0.262486	0.221264	0.092287	0.218104	0.147492	0.241633	0.178014	0.262800	0.479877	0.453454	0.038861	0.157593	0.028114	0.030874	0.086900	0.124056	0.238187	0.243059	0.056370	0.084670	0.097673	0.209607	0.061180	0.094738	0.184528	0.137906	0.120039	0.208120	0.181900	0.297593	0.090950	0.106880	0.301080	0.251833	0.257989	0.195897	0.125390	0.154174
61	0.137911	0.386471	0.236103	0.195937	0.094708	0.226272	0.149017	0.246377	0.196046	0.294255	0.491097	0.460220	0.040779	0.158855	0.027887	0.016562	0.088344	0.132872	0.236037	0.238189	0.056482	0.083466	0.098709	0.216390	0.048499	0.061030	0.152217	0.140767	0.113164	0.161357	0.165500	0.286805	0.077811	0.105973	0.288148	0.236720	0.277382	0.210471	0.122004	0.154778
62	0.136727	0.419049	0.222797	0.195081	0.095935	0.225860	0.148610	0.244079	0.198333	0.298595	0.484459	0.457049	0.051342	0.174601	0.029710	0.017987	0.081242	0.136640	0.230083	0.196628	0.057123	0.084086	0.103501	0.224472	0.045137	0.041374	0.127144	0.140765	0.118811	0.160991	0.151373	0.286458	0.076629	0.099641	0.280183	0.243895	0.416388	0.305883	0.105095	0.141894
63	0.118957	0.407520	0.226883	0.200279	0.093724	0.229085	0.146710	0.224595	0.185217	0.280429	0.434576	0.399358	0.062053	0.218491	0.078580	0.130125	0.059598	0.145691	0.162444	0.117920	0.058431	0.085356	0.105075	0.217792	0.046042	0.032204	0.123778	0.143577	0.125149	0.161167	0.146877	0.271521	0.080888	0.096057	0.276937	0.264067	0.482349	0.340828	0.095309	0.135151
64	0.114572	0.406023	0.210618	0.210840	0.089383	0.223463	0.131513	0.185602	0.154568	0.249962	0.382939	0.335795	0.062482	0.222902	0.107616	0.258869	0.056632	0.142298	0.117187	0.050929	0.062729	0.089284	0.111152	0.205751	0.043667	0.034436	0.100552	0.142695	0.126732	0.159450	0.146334	0.234907	0.110300	0.124706	0.293668	0.268496	0.487137	0.342894	0.092164	0.139322
65	0.106556	0.380782	0.197439	0.213602	0.083883	0.211483	0.100291	0.164661	0.148561	0.228428	0.354978	0.329842	0.063746	0.224141	0.111110	0.281959	0.054869	0.130999	0.101141	0.049754	0.066047	0.087488	0.110581	0.202421	0.040963	0.035055	0.054517	0.115922	0.123050	0.165265	0.134302	0.189851	0.134770	0.151772	0.339473	0.263851	0.487509	0.342721	0.099139	0.154932
66	0.077748	0.324927	0.193372	0.199417	0.083112	0.209869	0.083221	0.173318	0.146541	0.220274	0.346799	0.333290	0.068033	0.237169	0.113777	0.282149	0.054379	0.165174	0.089503	0.047362	0.067960	0.082415	0.110477	0.204298	0.033996	0.041000	0.143501	0.208272	0.120769	0.175789	0.112790	0.136723	0.144477	0.146176	0.331336	0.224440	0.487497	0.345726	0.101351	0.158534
67	0.077427	0.320088	0.190469	0.195414	0.072041	0.189154	0.082311	0.188113	0.134129	0.216791	0.262573	0.242804	0.078027	0.253023	0.115095	0.288040	0.055548	0.165586	0.083554	0.047832	0.068489	0.073850	0.110164	0.204554	0.036483	0.053390	0.247270	0.349130	0.106916	0.153987	0.105646	0.144490	0.147809	0.140046	0.300548	0.206778	0.489484	0.351567	0.100153	0.160014
68	0.079986	0.318008	0.192589	0.196691	0.062887	0.163871	0.083787	0.199166	0.128755	0.202844	0.165753	0.175388	0.075788	0.219552	0.127298	0.340032	0.052513	0.164540	0.084387	0.043874	0.068438	0.072224	0.111018	0.212505	0.049835	0.084088	0.273862	0.373677	0.092525	0.137784	0.118722	0.153491	0.154324	0.161111	0.294815	0.203961	0.464989	0.331094	0.098553	0.160733
69	0.078464	0.307984	0.200224	0.203715	0.074836	0.162658	0.088963	0.198212	0.110482	0.161121	0.133755	0.156941	0.084504	0.212147	0.136369	0.359929	0.048854	0.162745	0.087177	0.068250	0.066708	0.070135	0.110508	0.225097	0.060835	0.099322	0.283645	0.405942	0.082853	0.131371	0.127595	0.149547	0.220885	0.212942	0.300187	0.230392	0.456257	0.320241	0.096606	0.161759
70	0.072269	0.276908	0.205563	0.204556	0.078402	0.165430	0.086031	0.178339	0.101625	0.133887	0.125124	0.144625	0.085151	0.212658	0.137063	0.367905	0.052341	0.179571	0.099209	0.156931	0.064007	0.069290	0.122315	0.246951	0.063286	0.102905	0.359618	0.509609	0.083741	0.138661	0.133704	0.148028	0.226467	0.217760	0.304370	0.226982	0.462608	0.322952	0.094253	0.150356
71	0.066820	0.243290	0.209466	0.204199	0.077013	0.172324	0.080966	0.164735	0.099904	0.120279	0.123465	0.141160	0.080458	0.205294	0.154519	0.380246	0.042146	0.168675	0.146234	0.290065	0.063782	0.071753	0.147424	0.264360	0.088301	0.140667	0.444071	0.557245	0.088507	0.153631	0.135899	0.149044	0.226999	0.218327	0.317919	0.203115	0.463880	0.328121	0.078479	0.123589
72	0.058724	0.180897	0.219167	0.208263	0.077687	0.177551	0.076920	0.167435	0.099033	0.112939	0.144249	0.139598	0.076131	0.168476	0.167293	0.380251	0.041566	0.168371	0.230400	0.370780	0.064047	0.074197	0.153238	0.268964	0.102730	0.165069	0.468829	0.562093	0.095039	0.164953	0.132639	0.151414	0.213893	0.204300	0.299758	0.211028	0.392765	0.282832	0.071748	0.129564
73	0.051797	0.174882	0.223436	0.194521	0.080546	0.177870	0.078166	0.168069	0.095045	0.103906	0.176065	0.142326	0.075929	0.153517	0.154346	0.307755	0.048934	0.172978	0.252555	0.385008	0.065023	0.075217	0.154703	0.267147	0.108869	0.170656	0.448671	0.526244	0.096032	0.165079	0.123958	0.150661	0.202744	0.189701	0.228175	0.247847	0.262651	0.212718	0.077712	0.139877
74	0.047769	0.165733	0.197501	0.142495	0.081838	0.171670	0.088831	0.163760	0.106770	0.117007	0.184290	0.108872	0.074996	0.152512	0.148312	0.276698	0.046722	0.133413	0.257049	0.406308	0.071539	0.077319	0.150993	0.256534	0.107909	0.168001	0.401545	0.447813	0.092746	0.165701	0.114552	0.138954	0.196713	0.193457	0.208317	0.292505	0.248581	0.206822	0.097479	0.143402
75	0.043834	0.095358	0.177339	0.127499	0.085448	0.164679	0.090966	0.152240	0.138623	0.139471	0.188338	0.108601	0.073866	0.139507	0.155689	0.289042	0.044983	0.129759	0.263028	0.471482	0.086290	0.080669	0.148744	0.239745	0.104846	0.182368	0.390353	0.431200	0.082994	0.169522	0.122199	0.141437	0.194825	0.195424	0.259633	0.330665	0.250516	0.206762	0.102715	0.131869
76	0.041234	0.087076	0.169826	0.132758	0.087280	0.164052	0.091950	0.140089	0.156278	0.148937	0.311859	0.425784	0.066326	0.103073	0.192908	0.304986	0.044705	0.122914	0.307937	0.531102	0.099388	0.081370	0.136312	0.218292	0.100091	0.184507	0.386273	0.395267	0.072428	0.173160	0.134778	0.145755	0.173991	0.164164	0.304319	0.340457	0.252593	0.204184	0.099435	0.122701
77	0.041544	0.091293	0.169459	0.130729	0.089205	0.155637	0.093059	0.140266	0.156699	0.149579	0.403104	0.575409	0.070537	0.102505	0.218876	0.262502	0.046142	0.119038	0.375580	0.560419	0.104630	0.077854	0.116058	0.201315	0.097283	0.182203	0.319432	0.253556	0.064692	0.173747	0.136751	0.145666	0.101500	0.117635	0.315536	0.324121	0.238685	0.187138	0.105350	0.122195
78	0.033877	0.080007	0.164884	0.124813	0.089346	0.134104	0.094269	0.146304	0.198226	0.177892	0.446771	0.588165	0.066582	0.094657	0.219761	0.221783	0.080113	0.130285	0.395168	0.550031	0.106315	0.075231	0.122973	0.223483	0.074873	0.155693	0.203261	0.144073	0.062644	0.178869	0.136196	0.144729	0.101125	0.124987	0.312192	0.324663	0.230055	0.180506	0.119254	0.123658
79	0.031818	0.078515	0.154291	0.115384	0.088759	0.127966	0.095111	0.146240	0.222731	0.212018	0.456065	0.606836	0.065916	0.091397	0.226069	0.212722	0.117133	0.240871	0.381962	0.492415	0.103964	0.072059	0.128739	0.250725	0.053657	0.137220	0.156163	0.138801	0.063432	0.221558	0.142056	0.144732	0.095441	0.116517	0.306490	0.337160	0.220713	0.177452	0.167728	0.223653
80	0.035886	0.089586	0.165130	0.122692	0.088975	0.127496	0.093110	0.133857	0.240578	0.242679	0.509549	0.699185	0.069908	0.102091	0.243180	0.210660	0.124564	0.279877	0.338274	0.436085	0.102902	0.072888	0.132919	0.256104	0.047870	0.157735	0.157333	0.138087	0.064981	0.292868	0.157615	0.135858	0.090616	0.109005	0.329384	0.346800	0.189463	0.167005	0.213885	0.331053
81	0.041932	0.102282	0.195803	0.155605	0.088951	0.118210	0.089593	0.112249	0.243135	0.246914	0.602178	0.770837	0.091255	0.169585	0.243480	0.203989	0.131220	0.325484	0.324433	0.429539	0.102924	0.073680	0.146574	0.247784	0.048445	0.167059	0.155021	0.133823	0.075580	0.309881	0.164913	0.140312	0.095326	0.115463	0.345841	0.348964	0.183285	0.160765	0.235663	0.349885
82	0.051691	0.158517	0.243492	0.225298	0.084161	0.117067	0.086429	0.093714	0.243048	0.249021	0.630179	0.781223	0.142041	0.402840	0.246596	0.212296	0.131940	0.331211	0.336508	0.420354	0.105522	0.076871	0.158898	0.231612	0.042506	0.147875	0.151348	0.129407	0.096240	0.401576	0.161820	0.149867	0.094099	0.119343	0.343774	0.344705	0.128117	0.104051	0.254100	0.345816
83	0.053179	0.165384	0.281785	0.294634	0.075418	0.116146	0.082856	0.088221	0.233690	0.241264	0.638657	0.785569	0.155036	0.455176	0.256284	0.209274	0.132157	0.331509	0.360397	0.362153	0.108876	0.076970	0.140280	0.210223	0.040015	0.140057	0.139913	0.117717	0.100107	0.440656	0.156974	0.150560	0.095473	0.120716	0.333992	0.315143	0.131294	0.104786	0.254135	0.363607
84	0.064536	0.168240	0.287618	0.299454	0.075142	0.103490	0.083062	0.087063	0.215159	0.231376	0.617569	0.737413	0.175819	0.531344	0.256058	0.196018	0.132314	0.330713	0.356356	0.277015	0.107567	0.071405	0.133200	0.215109	0.040501	0.141796	0.130497	0.103280	0.097497	0.438614	0.154153	0.153113	0.093317	0.120267	0.291894	0.311284	0.130854	0.106756	0.283955	0.417009
85	0.072343	0.168273	0.288091	0.307236	0.080774	0.069758	0.083392	0.081043	0.209911	0.226969	0.550293	0.578324	0.191092	0.578859	0.236564	0.168662	0.136707	0.336250	0.295362	0.206370	0.107923	0.068273	0.138119	0.223975	0.039996	0.141753	0.114822	0.085032	0.102247	0.443927	0.156941	0.167238	0.075901	0.092932	0.294707	0.334360	0.134857	0.122343	0.355145	0.457986
86	0.078658	0.167563	0.294094	0.341311	0.085803	0.051433	0.084539	0.075408	0.191422	0.218767	0.497382	0.529082	0.188570	0.578668	0.210284	0.160340	0.123214	0.322702	0.270591	0.191968	0.108209	0.067257	0.140847	0.224667	0.040042	0.134189	0.123416	0.063510	0.105855	0.449181	0.157968	0.185631	0.216949	0.204474	0.361199	0.370555	0.137451	0.140792	0.392663	0.464768
87	0.085248	0.217120	0.329998	0.369861	0.085680	0.050981	0.079169	0.087545	0.131637	0.166251	0.477835	0.525433	0.185465	0.579480	0.213415	0.182107	0.090102	0.255795	0.300464	0.209659	0.104176	0.061915	0.141358	0.219096	0.038207	0.105720	0.137737	0.068254	0.110907	0.452663	0.160887	0.200810	0.438322	0.401519	0.379709	0.372872	0.141850	0.151956	0.399758	0.465276
88	0.102584	0.250136	0.362861	0.374306	0.081962	0.049964	0.073010	0.109356	0.085007	0.111384	0.475295	0.465130	0.184670	0.581647	0.218999	0.226863	0.079360	0.210868	0.342215	0.218950	0.089173	0.053620	0.146780	0.218580	0.035602	0.088427	0.138877	0.079495	0.111488	0.451921	0.159283	0.202698	0.537299	0.480684	0.366750	0.344347	0.142159	0.156278	0.398254	0.464886
89	0.111253	0.304881	0.374477	0.375830	0.071031	0.040562	0.091199	0.123143	0.068164	0.089433	0.393295	0.336921	0.184262	0.582449	0.215814	0.274863	0.065580	0.138975	0.355289	0.212346	0.076417	0.049990	0.149270	0.217821	0.039981	0.077391	0.140535	0.086632	0.111772	0.451818	0.147298	0.198445	0.592829	0.506231	0.349464	0.295637	0.129107	0.151278	0.385202	0.442346
90	0.110496	0.321902	0.360984	0.371514	0.066866	0.041521	0.101564	0.125875	0.049870	0.062394	0.362315	0.354525	0.176234	0.573960	0.229715	0.290484	0.068729	0.142687	0.340330	0.191188	0.074104	0.058143	0.148350	0.205251	0.041388	0.077002	0.146923	0.097383	0.111215	0.451862	0.141393	0.198051	0.675678	0.549974	0.326318	0.264790	0.115648	0.141171	0.359873	0.361818
91	0.108779	0.313352	0.338591	0.351214	0.066004	0.064127	0.102325	0.122751	0.047742	0.051448	0.348750	0.346654	0.145014	0.473199	0.221297	0.287054	0.069677	0.145829	0.314363	0.174255	0.096029	0.078027	0.142735	0.160458	0.045923	0.075215	0.140452	0.100418	0.110587	0.451442	0.142185	0.203496	0.689540	0.563728	0.379683	0.361892	0.106637	0.138228	0.345609	0.327888
92	0.105531	0.294745	0.283375	0.285462	0.075892	0.145131	0.101367	0.115191	0.064689	0.083718	0.359328	0.364613	0.118693	0.375201	0.212089	0.321068	0.070080	0.161028	0.293400	0.190885	0.129518	0.097181	0.140202	0.136469	0.072737	0.098722	0.152560	0.124655	0.110520	0.437407	0.143646	0.211890	0.700601	0.575876	0.475364	0.466329	0.119011	0.141486	0.332199	0.327491
93	0.103209	0.297548	0.251579	0.240684	0.085415	0.210871	0.100438	0.112068	0.067601	0.093155	0.423034	0.422506	0.103401	0.312927	0.232803	0.374414	0.055407	0.149147	0.294368	0.233297	0.162211	0.119391	0.130317	0.129463	0.074583	0.099360	0.171935	0.153646	0.110186	0.397426	0.131522	0.218818	0.707445	0.587644	0.484891	0.469619	0.184190	0.166542	0.329250	0.311790
94	0.095894	0.296361	0.248168	0.237606	0.085517	0.215007	0.100544	0.119320	0.067938	0.093204	0.459171	0.449592	0.056709	0.161165	0.286092	0.414988	0.043429	0.146406	0.328797	0.346763	0.176211	0.123570	0.110596	0.128413	0.078503	0.100237	0.173342	0.155135	0.110814	0.373606	0.111945	0.217649	0.671897	0.564051	0.438888	0.454957	0.238025	0.185425	0.310736	0.247268
95	0.094243	0.302047	0.247119	0.204309	0.088664	0.232370	0.101814	0.130444	0.074936	0.092158	0.475421	0.459681	0.057472	0.155667	0.305071	0.421252	0.044337	0.135255	0.302339	0.372522	0.181998	0.132433	0.097578	0.126971	0.083305	0.103909	0.218719	0.192218	0.095548	0.310856	0.096257	0.210712	0.561847	0.464095	0.454281	0.500799	0.238586	0.178886	0.230300	0.129822
96	0.095719	0.305373	0.229818	0.132731	0.091532	0.245452	0.102862	0.135950	0.160552	0.172501	0.476185	0.455805	0.057365	0.151105	0.298189	0.415751	0.056222	0.148590	0.256744	0.384780	0.226331	0.171181	0.096012	0.103752	0.079640	0.093941	0.230530	0.192000	0.084137	0.195132	0.093597	0.209890	0.482754	0.395817	0.537636	0.558290	0.232552	0.164725	0.136963	0.082923
97	0.076780	0.251297	0.161188	0.075391	0.091875	0.263475	0.102614	0.140159	0.336529	0.324077	0.442084	0.425635	0.055971	0.143124	0.288789	0.393512	0.058827	0.144109	0.242163	0.441028	0.236802	0.178308	0.081333	0.069631	0.079200	0.091948	0.247126	0.223078	0.083227	0.171577	0.108385	0.226300	0.390134	0.356696	0.600609	0.593454	0.242908	0.158969	0.118703	0.082029
98	0.066716	0.230192	0.103478	0.067639	0.090743	0.268411	0.102496	0.148129	0.442201	0.419662	0.416246	0.383801	0.057955	0.140946	0.280339	0.357061	0.057315	0.134134	0.245340	0.472119	0.237354	0.179231	0.074276	0.043826	0.083001	0.100974	0.276187	0.239994	0.076058	0.149674	0.114468	0.239530	0.270441	0.309961	0.636712	0.597641	0.302846	0.188312	0.119791	0.084136
99	0.046449	0.143703	0.075536	0.059598	0.095875	0.303038	0.104897	0.154325	0.463365	0.447606	0.451416	0.404158	0.058936	0.139461	0.250757	0.324451	0.059017	0.137323	0.242572	0.474814	0.236140	0.181092	0.070883	0.039964	0.072487	0.094871	0.268864	0.240776	0.061019	0.124243	0.114416	0.241140	0.254685	0.307884	0.586985	0.526909	0.311432	0.195870	0.120091	0.089123
100	0.050817	0.159736	0.075523	0.058199	0.094672	0.327660	0.108581	0.154179	0.559027	0.511951	0.491677	0.436907	0.057277	0.134853	0.248541	0.323340	0.058537	0.119296	0.220150	0.477688	0.236846	0.184171	0.063522	0.038155	0.070180	0.092912	0.248610	0.246259	0.045528	0.133942	0.139346	0.227942	0.237734	0.298737	0.531876	0.452898	0.320219	0.201443	0.119380	0.092862
101	0.055587	0.205856	0.072662	0.058356	0.092798	0.333059	0.106616	0.145957	0.593387	0.581360	0.454142	0.397055	0.056695	0.132231	0.251546	0.300663	0.058732	0.115539	0.209129	0.475061	0.237479	0.185239	0.050291	0.037457	0.076431	0.104875	0.237591	0.243812	0.040618	0.131472	0.165279	0.219390	0.220989	0.275292	0.562278	0.466282	0.328705	0.210240	0.117033	0.090068
