	303_At_T2_sh_ND_01.c3d	303_At_T2_sh_ND_01.c3d	303_At_T2_sh_ND_01.c3d	303_At_T2_sh_ND_01.c3d	303_At_T2_sh_ND_01.c3d	303_At_T2_sh_ND_01.c3d	303_At_T2_sh_ND_01.c3d	303_At_T2_sh_ND_01.c3d	303_At_T2_sh_ND_02.c3d	303_At_T2_sh_ND_02.c3d	303_At_T2_sh_ND_02.c3d	303_At_T2_sh_ND_02.c3d	303_At_T2_sh_ND_02.c3d	303_At_T2_sh_ND_02.c3d	303_At_T2_sh_ND_02.c3d	303_At_T2_sh_ND_02.c3d	303_At_T2_sh_ND_03.c3d	303_At_T2_sh_ND_03.c3d	303_At_T2_sh_ND_03.c3d	303_At_T2_sh_ND_03.c3d	303_At_T2_sh_ND_03.c3d	303_At_T2_sh_ND_03.c3d	303_At_T2_sh_ND_03.c3d	303_At_T2_sh_ND_03.c3d	303_At_T2_sh_ND_04.c3d	303_At_T2_sh_ND_04.c3d	303_At_T2_sh_ND_04.c3d	303_At_T2_sh_ND_04.c3d	303_At_T2_sh_ND_04.c3d	303_At_T2_sh_ND_04.c3d	303_At_T2_sh_ND_04.c3d	303_At_T2_sh_ND_04.c3d	303_At_T2_sh_ND_05.c3d	303_At_T2_sh_ND_05.c3d	303_At_T2_sh_ND_05.c3d	303_At_T2_sh_ND_05.c3d	303_At_T2_sh_ND_05.c3d	303_At_T2_sh_ND_05.c3d	303_At_T2_sh_ND_05.c3d	303_At_T2_sh_ND_05.c3d	303_At_T2_sh_ND_06.c3d	303_At_T2_sh_ND_06.c3d	303_At_T2_sh_ND_06.c3d	303_At_T2_sh_ND_06.c3d	303_At_T2_sh_ND_06.c3d	303_At_T2_sh_ND_06.c3d	303_At_T2_sh_ND_06.c3d	303_At_T2_sh_ND_06.c3d	303_At_T2_sh_ND_07.c3d	303_At_T2_sh_ND_07.c3d	303_At_T2_sh_ND_07.c3d	303_At_T2_sh_ND_07.c3d	303_At_T2_sh_ND_07.c3d	303_At_T2_sh_ND_07.c3d	303_At_T2_sh_ND_07.c3d	303_At_T2_sh_ND_07.c3d	303_At_T2_sh_ND_08.c3d	303_At_T2_sh_ND_08.c3d	303_At_T2_sh_ND_08.c3d	303_At_T2_sh_ND_08.c3d	303_At_T2_sh_ND_08.c3d	303_At_T2_sh_ND_08.c3d	303_At_T2_sh_ND_08.c3d	303_At_T2_sh_ND_08.c3d	303_At_T2_sh_ND_09.c3d	303_At_T2_sh_ND_09.c3d	303_At_T2_sh_ND_09.c3d	303_At_T2_sh_ND_09.c3d	303_At_T2_sh_ND_09.c3d	303_At_T2_sh_ND_09.c3d	303_At_T2_sh_ND_09.c3d	303_At_T2_sh_ND_09.c3d	303_At_T2_sh_ND_10.c3d	303_At_T2_sh_ND_10.c3d	303_At_T2_sh_ND_10.c3d	303_At_T2_sh_ND_10.c3d	303_At_T2_sh_ND_10.c3d	303_At_T2_sh_ND_10.c3d	303_At_T2_sh_ND_10.c3d	303_At_T2_sh_ND_10.c3d
	Biceps femoris_lat	Semitendinosus_lat	Vastus lateralis_lat	Vastus medialis_lat	Biceps femoris_med	Semitendinosus_med	Vastus lateralis_med	Vastus medialis_med	Biceps femoris_lat	Semitendinosus_lat	Vastus lateralis_lat	Vastus medialis_lat	Biceps femoris_med	Semitendinosus_med	Vastus lateralis_med	Vastus medialis_med	Biceps femoris_lat	Semitendinosus_lat	Vastus lateralis_lat	Vastus medialis_lat	Biceps femoris_med	Semitendinosus_med	Vastus lateralis_med	Vastus medialis_med	Biceps femoris_lat	Semitendinosus_lat	Vastus lateralis_lat	Vastus medialis_lat	Biceps femoris_med	Semitendinosus_med	Vastus lateralis_med	Vastus medialis_med	Biceps femoris_lat	Semitendinosus_lat	Vastus lateralis_lat	Vastus medialis_lat	Biceps femoris_med	Semitendinosus_med	Vastus lateralis_med	Vastus medialis_med	Biceps femoris_lat	Semitendinosus_lat	Vastus lateralis_lat	Vastus medialis_lat	Biceps femoris_med	Semitendinosus_med	Vastus lateralis_med	Vastus medialis_med	Biceps femoris_lat	Semitendinosus_lat	Vastus lateralis_lat	Vastus medialis_lat	Biceps femoris_med	Semitendinosus_med	Vastus lateralis_med	Vastus medialis_med	Biceps femoris_lat	Semitendinosus_lat	Vastus lateralis_lat	Vastus medialis_lat	Biceps femoris_med	Semitendinosus_med	Vastus lateralis_med	Vastus medialis_med	Biceps femoris_lat	Semitendinosus_lat	Vastus lateralis_lat	Vastus medialis_lat	Biceps femoris_med	Semitendinosus_med	Vastus lateralis_med	Vastus medialis_med	Biceps femoris_lat	Semitendinosus_lat	Vastus lateralis_lat	Vastus medialis_lat	Biceps femoris_med	Semitendinosus_med	Vastus lateralis_med	Vastus medialis_med
	P2D	P2D	P2D	P2D	P2D	P2D	P2D	P2D	P2D	P2D	P2D	P2D	P2D	P2D	P2D	P2D	P2D	P2D	P2D	P2D	P2D	P2D	P2D	P2D	P2D	P2D	P2D	P2D	P2D	P2D	P2D	P2D	P2D	P2D	P2D	P2D	P2D	P2D	P2D	P2D	P2D	P2D	P2D	P2D	P2D	P2D	P2D	P2D	P2D	P2D	P2D	P2D	P2D	P2D	P2D	P2D	P2D	P2D	P2D	P2D	P2D	P2D	P2D	P2D	P2D	P2D	P2D	P2D	P2D	P2D	P2D	P2D	P2D	P2D	P2D	P2D	P2D	P2D	P2D	P2D
	EMG_lat	EMG_lat	EMG_lat	EMG_lat	EMG_med	EMG_med	EMG_med	EMG_med	EMG_lat	EMG_lat	EMG_lat	EMG_lat	EMG_med	EMG_med	EMG_med	EMG_med	EMG_lat	EMG_lat	EMG_lat	EMG_lat	EMG_med	EMG_med	EMG_med	EMG_med	EMG_lat	EMG_lat	EMG_lat	EMG_lat	EMG_med	EMG_med	EMG_med	EMG_med	EMG_lat	EMG_lat	EMG_lat	EMG_lat	EMG_med	EMG_med	EMG_med	EMG_med	EMG_lat	EMG_lat	EMG_lat	EMG_lat	EMG_med	EMG_med	EMG_med	EMG_med	EMG_lat	EMG_lat	EMG_lat	EMG_lat	EMG_med	EMG_med	EMG_med	EMG_med	EMG_lat	EMG_lat	EMG_lat	EMG_lat	EMG_med	EMG_med	EMG_med	EMG_med	EMG_lat	EMG_lat	EMG_lat	EMG_lat	EMG_med	EMG_med	EMG_med	EMG_med	EMG_lat	EMG_lat	EMG_lat	EMG_lat	EMG_med	EMG_med	EMG_med	EMG_med
ITEM	Y	Y	Y	Y	Y	Y	Y	Y	Y	Y	Y	Y	Y	Y	Y	Y	Y	Y	Y	Y	Y	Y	Y	Y	Y	Y	Y	Y	Y	Y	Y	Y	Y	Y	Y	Y	Y	Y	Y	Y	Y	Y	Y	Y	Y	Y	Y	Y	Y	Y	Y	Y	Y	Y	Y	Y	Y	Y	Y	Y	Y	Y	Y	Y	Y	Y	Y	Y	Y	Y	Y	Y	Y	Y	Y	Y	Y	Y	Y	Y
1	0.144439	0.262609	0.266683	0.150772	0.201545	0.395915	0.156131	0.178221	0.289557	0.444986	0.117944	0.101175	0.324634	0.330274	0.376865	0.093367	0.477217	0.608587	0.150071	0.051009	0.482625	0.407674	0.155578	0.161931	0.454702	0.444742	0.079624	0.099466	0.681837	0.763782	0.163710	0.097937	0.227391	0.164053	0.464139	0.094846	0.114725	0.274710	0.217891	0.115992	0.078595	0.124592	0.409615	0.154683	0.615519	0.522148	0.316046	0.207343	0.345052	0.552712	0.244108	0.089719	0.162923	0.252610	0.262932	0.255043	0.288559	0.598693	0.419285	0.250108	0.240328	0.236235	0.132099	0.190325	0.295464	0.460254	0.483818	0.144374	0.116964	0.250675	0.186220	0.093021	0.122462	0.219496	0.236382	0.176374	0.173225	0.352359	0.158238	0.144815
2	0.140894	0.249724	0.271797	0.138098	0.189655	0.339130	0.157864	0.179225	0.254365	0.444209	0.110557	0.137244	0.317384	0.321596	0.373889	0.105560	0.468998	0.627300	0.149568	0.065858	0.478391	0.403502	0.158403	0.162138	0.452669	0.440561	0.073266	0.099741	0.660670	0.759780	0.197715	0.118678	0.160441	0.148644	0.369518	0.093076	0.119321	0.283374	0.208399	0.124650	0.079364	0.112008	0.396740	0.143658	0.603164	0.508152	0.311145	0.215930	0.372384	0.607494	0.245245	0.195501	0.156952	0.236724	0.252679	0.251101	0.273241	0.580471	0.420723	0.274575	0.275111	0.238261	0.145075	0.184838	0.278761	0.437202	0.498129	0.149334	0.115573	0.260999	0.195139	0.092622	0.156782	0.272489	0.236846	0.178820	0.167165	0.310243	0.162847	0.136232
3	0.136689	0.237490	0.287312	0.115274	0.139544	0.232607	0.159730	0.191726	0.252758	0.444579	0.089950	0.150373	0.264849	0.236043	0.368762	0.118607	0.478402	0.656497	0.158333	0.068260	0.465445	0.409125	0.159303	0.161878	0.427294	0.425802	0.069718	0.104666	0.600167	0.744827	0.218892	0.134925	0.122912	0.142982	0.199648	0.088836	0.139296	0.376210	0.195213	0.127074	0.079594	0.114990	0.392259	0.135080	0.596280	0.485577	0.271245	0.215932	0.376955	0.604015	0.348335	0.222959	0.158302	0.239167	0.221429	0.251634	0.253929	0.568247	0.433645	0.275975	0.285916	0.243616	0.155542	0.166906	0.240397	0.374013	0.500416	0.165512	0.103301	0.238359	0.193644	0.089013	0.173731	0.290077	0.218473	0.181248	0.158527	0.274701	0.199343	0.142571
4	0.134604	0.224914	0.297992	0.089119	0.129079	0.209976	0.256103	0.205680	0.224044	0.447439	0.090107	0.161382	0.215249	0.178855	0.353405	0.128693	0.480429	0.657747	0.171211	0.075080	0.431717	0.405658	0.172355	0.162409	0.337639	0.326845	0.069467	0.116870	0.573052	0.741320	0.228126	0.141148	0.128204	0.151295	0.153609	0.136921	0.147392	0.406146	0.189167	0.123713	0.078346	0.117689	0.322547	0.117584	0.576853	0.440906	0.245850	0.215084	0.386510	0.635858	0.364890	0.241360	0.159109	0.244665	0.219511	0.245011	0.235305	0.538626	0.465132	0.273049	0.293650	0.265249	0.168515	0.164088	0.202573	0.332674	0.498749	0.168975	0.089156	0.205842	0.205123	0.090455	0.173719	0.287874	0.206844	0.183328	0.156092	0.262620	0.209548	0.155195
5	0.128689	0.217955	0.298765	0.081928	0.138735	0.226256	0.327431	0.196076	0.218322	0.451981	0.093742	0.169011	0.202576	0.174771	0.347371	0.137477	0.473814	0.645431	0.211557	0.078620	0.412965	0.405223	0.174391	0.138905	0.298447	0.238938	0.069334	0.151298	0.538953	0.645794	0.228792	0.138676	0.137450	0.154045	0.159397	0.252645	0.150066	0.410173	0.214035	0.123781	0.085980	0.131097	0.194860	0.120069	0.411224	0.385707	0.260497	0.223969	0.404663	0.645300	0.395907	0.270521	0.153779	0.227266	0.218478	0.256629	0.210798	0.479201	0.490027	0.274255	0.295863	0.295858	0.176359	0.165070	0.156173	0.305522	0.480267	0.163387	0.085571	0.220852	0.210611	0.088841	0.170353	0.273742	0.210943	0.195079	0.116855	0.181057	0.204680	0.156123
6	0.122411	0.170555	0.292991	0.122991	0.144117	0.243498	0.330302	0.185090	0.181122	0.395430	0.113627	0.228640	0.182524	0.173857	0.352285	0.141892	0.408339	0.601378	0.204798	0.078628	0.407972	0.406365	0.165637	0.123810	0.293094	0.235579	0.075815	0.180102	0.389297	0.451973	0.231394	0.136941	0.138301	0.150625	0.173030	0.308938	0.217740	0.553825	0.215390	0.183011	0.085873	0.135624	0.148266	0.125191	0.307132	0.382095	0.279375	0.245284	0.394215	0.597574	0.408818	0.285926	0.130916	0.193294	0.209978	0.283204	0.209811	0.477763	0.483317	0.274372	0.298012	0.310985	0.219546	0.175783	0.130188	0.302649	0.479519	0.165595	0.087335	0.209205	0.211915	0.089119	0.166043	0.257393	0.222206	0.205515	0.101532	0.155765	0.218904	0.156042
7	0.125981	0.181865	0.253648	0.136191	0.148123	0.302778	0.343441	0.183487	0.133441	0.291798	0.114077	0.249964	0.165692	0.182366	0.361940	0.146751	0.351198	0.589680	0.211126	0.080488	0.392640	0.385532	0.161467	0.123569	0.263264	0.231834	0.090589	0.182705	0.272072	0.386804	0.240731	0.133145	0.140301	0.145359	0.213634	0.317372	0.239913	0.617257	0.195657	0.259040	0.085845	0.139472	0.145087	0.127198	0.238628	0.398347	0.288026	0.252288	0.313602	0.547543	0.421128	0.294061	0.120844	0.184582	0.209855	0.304004	0.203911	0.420385	0.488880	0.276466	0.295596	0.309899	0.225341	0.175694	0.128430	0.266768	0.479603	0.193193	0.096447	0.224284	0.214389	0.096748	0.164343	0.253901	0.207608	0.212435	0.100368	0.150967	0.226415	0.182051
8	0.162779	0.307307	0.223515	0.169114	0.150636	0.338845	0.363738	0.187647	0.121872	0.264495	0.112832	0.250054	0.165697	0.194141	0.378132	0.151710	0.346268	0.443816	0.210636	0.118936	0.294756	0.341282	0.161164	0.122727	0.185554	0.221424	0.090430	0.189626	0.212698	0.382217	0.256313	0.130680	0.146229	0.144643	0.210452	0.320685	0.242371	0.625518	0.219276	0.283320	0.095453	0.147399	0.134846	0.127190	0.229465	0.398990	0.288684	0.252278	0.305930	0.542428	0.418290	0.302889	0.110753	0.170652	0.214434	0.307490	0.199563	0.387535	0.476379	0.302808	0.285996	0.305000	0.223424	0.160617	0.112532	0.159417	0.463178	0.209872	0.105491	0.243941	0.215460	0.099232	0.164603	0.251582	0.186412	0.216063	0.097958	0.138286	0.215105	0.212560
9	0.162475	0.320189	0.242920	0.218692	0.149983	0.348496	0.368733	0.261113	0.123680	0.249597	0.206662	0.251831	0.164223	0.185704	0.337031	0.177612	0.309659	0.327845	0.204849	0.184599	0.196352	0.311302	0.157396	0.127155	0.164687	0.244829	0.099664	0.205463	0.210010	0.343101	0.261468	0.140670	0.143535	0.149027	0.205593	0.332128	0.245048	0.625128	0.222003	0.295544	0.098654	0.148771	0.128082	0.123074	0.227502	0.398984	0.287653	0.248651	0.293197	0.516744	0.405283	0.324939	0.104488	0.153779	0.213832	0.309288	0.185300	0.366851	0.452216	0.282297	0.285452	0.305188	0.221598	0.173024	0.113064	0.142067	0.349125	0.220991	0.105551	0.244721	0.218639	0.101932	0.165877	0.242399	0.188967	0.301481	0.096063	0.128335	0.231520	0.211906
10	0.165144	0.388119	0.269429	0.222656	0.169053	0.459243	0.394996	0.327459	0.152187	0.264046	0.284203	0.247573	0.160693	0.183344	0.287878	0.213782	0.251760	0.307347	0.198025	0.207793	0.161347	0.301863	0.138229	0.147290	0.163816	0.249269	0.152273	0.216686	0.188294	0.297581	0.260049	0.147939	0.137320	0.142265	0.205851	0.341347	0.246358	0.612878	0.227992	0.299128	0.093192	0.138004	0.124288	0.121437	0.228174	0.404224	0.263553	0.237853	0.290611	0.510477	0.412795	0.348002	0.097515	0.140996	0.211658	0.321806	0.168831	0.327052	0.454917	0.258865	0.257859	0.281366	0.235187	0.199397	0.112614	0.135557	0.247505	0.213846	0.105818	0.244871	0.240033	0.096637	0.160790	0.225497	0.205985	0.525859	0.098565	0.129094	0.231495	0.207255
11	0.169606	0.425927	0.270355	0.225725	0.199532	0.519079	0.441406	0.362605	0.146237	0.257830	0.292615	0.280092	0.147472	0.182038	0.277212	0.251050	0.184153	0.306707	0.216499	0.215633	0.167019	0.269568	0.213552	0.161855	0.150559	0.237224	0.208231	0.213902	0.168450	0.274018	0.257703	0.169783	0.114686	0.129619	0.210020	0.359107	0.247419	0.612522	0.231858	0.300862	0.083496	0.121742	0.124781	0.103048	0.225090	0.383095	0.245256	0.239053	0.250248	0.424424	0.421351	0.324094	0.082248	0.131537	0.306117	0.314244	0.167721	0.317120	0.439274	0.260397	0.214493	0.246210	0.252109	0.193915	0.104311	0.127436	0.259061	0.205189	0.107055	0.242377	0.282265	0.103983	0.118508	0.143895	0.255571	0.618478	0.101446	0.133416	0.231622	0.207569
12	0.167528	0.424380	0.275453	0.229426	0.207510	0.519460	0.436330	0.359384	0.150668	0.259614	0.343063	0.306637	0.150613	0.184263	0.266347	0.282876	0.160247	0.293821	0.231571	0.218085	0.166332	0.218134	0.241465	0.162716	0.128686	0.205118	0.244952	0.213186	0.147011	0.244234	0.249963	0.202365	0.108764	0.127231	0.232615	0.390217	0.246956	0.612176	0.232941	0.305834	0.081411	0.119967	0.130001	0.092419	0.189149	0.314666	0.244431	0.247130	0.219636	0.348467	0.454100	0.348603	0.079847	0.132240	0.351742	0.321816	0.124290	0.224430	0.438130	0.254071	0.208885	0.242187	0.250296	0.193861	0.092532	0.121195	0.243677	0.204393	0.107780	0.237663	0.286207	0.123134	0.072273	0.080299	0.301166	0.639065	0.102623	0.135234	0.243974	0.220117
13	0.176048	0.426546	0.274946	0.264956	0.205481	0.519399	0.466699	0.366995	0.151376	0.258769	0.351921	0.304873	0.151421	0.171158	0.263097	0.285638	0.146396	0.203428	0.253817	0.237762	0.183525	0.263591	0.242749	0.161406	0.112843	0.190109	0.251496	0.229339	0.103683	0.194045	0.248866	0.204773	0.117202	0.125835	0.235931	0.396804	0.246350	0.612646	0.308488	0.305788	0.082151	0.132128	0.114560	0.092092	0.161289	0.268718	0.256976	0.238635	0.208077	0.309054	0.483307	0.383025	0.081057	0.132562	0.349815	0.332357	0.098082	0.161830	0.489034	0.249231	0.208172	0.241907	0.248711	0.199503	0.086199	0.116428	0.235339	0.226298	0.104933	0.226366	0.275941	0.198823	0.057617	0.066204	0.379376	0.780908	0.109791	0.139513	0.269111	0.223764
14	0.185215	0.428793	0.263532	0.291228	0.207306	0.525617	0.506848	0.405566	0.153154	0.251733	0.352042	0.317783	0.144865	0.166183	0.245083	0.289251	0.102751	0.123529	0.255655	0.238715	0.206046	0.310093	0.241878	0.152224	0.115137	0.190579	0.302222	0.244433	0.097541	0.170309	0.248031	0.213886	0.112639	0.124391	0.263887	0.395284	0.241681	0.612290	0.422058	0.306663	0.082333	0.136191	0.113077	0.090206	0.142754	0.249508	0.249826	0.225834	0.167472	0.195456	0.467180	0.397254	0.081055	0.133008	0.350537	0.335010	0.102676	0.160649	0.491140	0.228747	0.206443	0.242768	0.241652	0.208333	0.098028	0.123647	0.224008	0.243318	0.094979	0.198346	0.270195	0.226047	0.052750	0.061871	0.517697	0.876920	0.117178	0.146760	0.284679	0.232649
15	0.185538	0.429013	0.259869	0.305985	0.205689	0.529302	0.516986	0.455761	0.150289	0.231649	0.353132	0.334145	0.135319	0.168521	0.211705	0.307415	0.086705	0.103089	0.241878	0.268567	0.212977	0.326224	0.236598	0.166071	0.117743	0.185003	0.324486	0.248079	0.092454	0.165161	0.231033	0.240317	0.112255	0.124211	0.310320	0.395043	0.236020	0.574581	0.432859	0.326766	0.085639	0.138956	0.122382	0.095885	0.126198	0.237612	0.252559	0.216177	0.144324	0.136901	0.445890	0.389374	0.086342	0.147667	0.358252	0.388095	0.107473	0.150150	0.519903	0.227413	0.161085	0.239560	0.234946	0.221175	0.091563	0.100473	0.210916	0.238799	0.091623	0.196127	0.271652	0.229543	0.062558	0.064797	0.526440	0.902880	0.119717	0.149876	0.292666	0.262951
16	0.185534	0.428215	0.321178	0.324087	0.199124	0.527109	0.464921	0.467699	0.140733	0.207953	0.350887	0.306828	0.133091	0.170026	0.218009	0.317604	0.088480	0.098739	0.262015	0.333103	0.214008	0.324881	0.250210	0.228377	0.118546	0.177214	0.324712	0.245548	0.086439	0.165928	0.203600	0.256608	0.111663	0.119726	0.314824	0.393495	0.225597	0.517907	0.447489	0.367860	0.086029	0.142030	0.140726	0.088671	0.111464	0.234302	0.259306	0.213846	0.142642	0.151070	0.446248	0.385660	0.089612	0.177740	0.369642	0.504503	0.109341	0.150324	0.524926	0.229071	0.143072	0.247952	0.242338	0.218288	0.088071	0.086225	0.222015	0.264821	0.081628	0.172724	0.287303	0.265284	0.071008	0.065905	0.525637	0.903898	0.129630	0.182793	0.276603	0.273771
17	0.185043	0.421993	0.390257	0.332734	0.189234	0.514170	0.448885	0.471106	0.141391	0.208559	0.354587	0.279500	0.118807	0.171266	0.238443	0.332605	0.082625	0.072826	0.259914	0.379476	0.213403	0.310893	0.314030	0.256905	0.118016	0.168894	0.331953	0.244864	0.086270	0.167126	0.196798	0.265741	0.103659	0.104728	0.312512	0.369934	0.225249	0.508422	0.472217	0.390457	0.090082	0.158166	0.149562	0.110883	0.093470	0.235775	0.279361	0.214146	0.145673	0.202221	0.418680	0.382184	0.094691	0.198242	0.370049	0.601249	0.105797	0.128361	0.504929	0.225475	0.147774	0.298934	0.261285	0.232947	0.079591	0.073338	0.220017	0.325487	0.082017	0.163656	0.303634	0.296040	0.071821	0.065841	0.525270	0.902987	0.148019	0.237872	0.256236	0.270302
18	0.168199	0.366040	0.398189	0.327966	0.183505	0.493743	0.448320	0.472608	0.142860	0.222163	0.361880	0.290447	0.099518	0.169065	0.242479	0.338874	0.075945	0.064882	0.318331	0.402410	0.212277	0.307367	0.338255	0.261446	0.117694	0.169939	0.358576	0.219676	0.086676	0.167440	0.203265	0.286876	0.097852	0.089774	0.325154	0.296791	0.193557	0.430746	0.480133	0.392988	0.124237	0.210726	0.157380	0.149891	0.087152	0.232845	0.292319	0.205705	0.161595	0.239924	0.408298	0.377871	0.091340	0.190485	0.366212	0.648764	0.092396	0.096736	0.507811	0.225364	0.154542	0.339272	0.265214	0.239481	0.076598	0.070320	0.218436	0.360310	0.082300	0.176471	0.306585	0.322329	0.067120	0.060826	0.522697	0.881985	0.146572	0.244756	0.254507	0.270191
19	0.135400	0.307576	0.371392	0.298398	0.179009	0.450112	0.440587	0.472702	0.143413	0.242035	0.360306	0.302250	0.096325	0.169379	0.242063	0.334066	0.058590	0.048378	0.451200	0.383586	0.205475	0.304387	0.342532	0.261349	0.119107	0.171487	0.364894	0.217447	0.086883	0.166628	0.216240	0.288493	0.098828	0.089614	0.331333	0.257299	0.162855	0.336865	0.477583	0.348324	0.126119	0.212714	0.161829	0.159504	0.085130	0.202980	0.271850	0.189686	0.156444	0.249804	0.398858	0.353940	0.087164	0.189829	0.366065	0.647202	0.090318	0.096286	0.499256	0.207415	0.177720	0.381664	0.228877	0.233932	0.076221	0.070071	0.218994	0.373003	0.098048	0.200759	0.309878	0.329265	0.064956	0.055323	0.508950	0.789946	0.145715	0.245529	0.248087	0.283449
20	0.130574	0.270650	0.346888	0.295156	0.192681	0.466801	0.434953	0.455087	0.120881	0.208082	0.293395	0.303180	0.087039	0.171410	0.237493	0.333260	0.052384	0.045561	0.480447	0.372296	0.196606	0.300765	0.345845	0.294664	0.118034	0.167903	0.362660	0.219762	0.082648	0.150862	0.222329	0.287362	0.092512	0.090882	0.329985	0.253186	0.192940	0.386555	0.467414	0.324972	0.119239	0.210106	0.155196	0.209194	0.089897	0.188021	0.260105	0.169656	0.159472	0.289744	0.392798	0.349346	0.091889	0.205264	0.372173	0.636466	0.087469	0.098054	0.509984	0.170808	0.189091	0.393205	0.218709	0.235404	0.074225	0.071408	0.211778	0.370183	0.116490	0.231012	0.313149	0.330018	0.064796	0.053348	0.490602	0.681494	0.149230	0.249665	0.256723	0.307368
21	0.099677	0.125753	0.359817	0.313894	0.200520	0.454128	0.434620	0.417045	0.104056	0.218890	0.308758	0.284143	0.085722	0.167482	0.228594	0.336548	0.052312	0.055223	0.482583	0.370224	0.190271	0.303516	0.361318	0.340382	0.101061	0.128318	0.365228	0.223535	0.068981	0.120976	0.211209	0.287923	0.093234	0.096567	0.330263	0.245959	0.195277	0.384308	0.474586	0.314846	0.118530	0.211915	0.158433	0.295305	0.103302	0.221120	0.254970	0.167569	0.153339	0.292576	0.352215	0.295997	0.122094	0.262838	0.374953	0.634573	0.094770	0.113869	0.529319	0.189859	0.187714	0.395536	0.220033	0.247652	0.068972	0.071992	0.202137	0.368650	0.128451	0.263953	0.311153	0.328461	0.063894	0.052608	0.450624	0.676560	0.148192	0.250696	0.337051	0.305923
22	0.095573	0.091261	0.370309	0.316065	0.169837	0.325904	0.392654	0.395352	0.096874	0.221420	0.328923	0.239643	0.083344	0.137985	0.189182	0.345417	0.054057	0.072211	0.496295	0.368549	0.184049	0.305217	0.422774	0.380255	0.079866	0.092148	0.369860	0.251333	0.065614	0.120239	0.233972	0.288161	0.104523	0.103422	0.358927	0.233355	0.192340	0.383414	0.487572	0.310021	0.117001	0.228740	0.183248	0.307865	0.109399	0.233946	0.253786	0.183351	0.151542	0.293290	0.204318	0.237330	0.138755	0.285766	0.372001	0.634996	0.099845	0.124937	0.512687	0.221028	0.201125	0.426597	0.219921	0.256697	0.065993	0.073126	0.176421	0.368755	0.130498	0.268970	0.263787	0.327697	0.063853	0.045022	0.423193	0.546117	0.148817	0.258965	0.351976	0.319132
23	0.100674	0.137455	0.360062	0.299566	0.150466	0.306985	0.359128	0.394636	0.108907	0.238757	0.329094	0.228068	0.084892	0.128290	0.198164	0.346715	0.055622	0.074800	0.504486	0.358611	0.178373	0.302751	0.463350	0.388393	0.078343	0.084313	0.383786	0.290177	0.055234	0.095201	0.273365	0.282111	0.111018	0.115754	0.368502	0.230771	0.194802	0.405195	0.486180	0.311780	0.117813	0.236489	0.190754	0.322470	0.101126	0.225057	0.247470	0.179050	0.164969	0.297888	0.182504	0.165238	0.141432	0.300400	0.382937	0.623132	0.096877	0.127696	0.521931	0.231884	0.203166	0.429919	0.208636	0.254096	0.064304	0.074427	0.167177	0.369232	0.164942	0.374960	0.226681	0.323819	0.063846	0.044506	0.208301	0.322100	0.148705	0.260120	0.350142	0.324092
24	0.114190	0.195414	0.361854	0.270601	0.153943	0.345292	0.335373	0.395659	0.105889	0.241000	0.418074	0.232598	0.098295	0.157004	0.214011	0.327096	0.058814	0.102063	0.504861	0.354955	0.182953	0.311930	0.453960	0.382267	0.085742	0.082740	0.400587	0.346685	0.046503	0.070096	0.284847	0.286846	0.116367	0.119171	0.385115	0.194125	0.230382	0.501320	0.489306	0.309301	0.123540	0.262150	0.196229	0.382464	0.092551	0.222436	0.221758	0.167271	0.190650	0.302359	0.182066	0.131400	0.167372	0.360343	0.356447	0.612169	0.096640	0.130073	0.532791	0.239692	0.206183	0.430038	0.191889	0.260241	0.064082	0.068376	0.147732	0.359691	0.189625	0.421931	0.227320	0.293296	0.057730	0.041411	0.095069	0.178684	0.149556	0.258629	0.351739	0.319673
25	0.126360	0.205367	0.370547	0.258009	0.161581	0.354180	0.281541	0.387723	0.106001	0.247629	0.434859	0.245763	0.105867	0.175851	0.214426	0.300189	0.056997	0.122465	0.507641	0.351750	0.195242	0.375908	0.423051	0.395950	0.082355	0.086260	0.397395	0.378112	0.048136	0.068346	0.285534	0.281300	0.108486	0.120933	0.394020	0.133657	0.255234	0.566768	0.487836	0.309966	0.138668	0.298820	0.195044	0.447649	0.093159	0.221770	0.229167	0.153872	0.193939	0.291771	0.161565	0.130509	0.176779	0.380236	0.243169	0.603978	0.096124	0.129082	0.501973	0.223525	0.208505	0.437563	0.190776	0.259260	0.045225	0.045778	0.159350	0.348986	0.191272	0.424584	0.226819	0.263623	0.043409	0.037236	0.087224	0.140598	0.155615	0.269290	0.354523	0.304686
26	0.128364	0.213552	0.363072	0.234690	0.159146	0.343687	0.216878	0.317576	0.104155	0.249442	0.448385	0.255983	0.103703	0.176213	0.211978	0.264901	0.063548	0.122184	0.486832	0.305127	0.235277	0.507341	0.424773	0.399222	0.082390	0.098607	0.388440	0.374375	0.056732	0.094558	0.283327	0.262112	0.101889	0.122026	0.397138	0.130805	0.269112	0.598568	0.396039	0.308210	0.141248	0.303317	0.197081	0.478157	0.106132	0.238198	0.235209	0.144511	0.178821	0.258768	0.164455	0.121517	0.176080	0.383622	0.217918	0.595360	0.088861	0.124365	0.497614	0.219837	0.216916	0.449073	0.191927	0.256621	0.036725	0.037411	0.154697	0.341747	0.196208	0.432040	0.221625	0.280795	0.038438	0.036435	0.073612	0.141665	0.168421	0.296667	0.356010	0.293302
27	0.141604	0.239715	0.307042	0.199092	0.163509	0.342920	0.191686	0.270513	0.104227	0.245411	0.458243	0.261901	0.088284	0.164350	0.215296	0.266629	0.071486	0.121188	0.486247	0.243631	0.245127	0.547493	0.429330	0.402278	0.098008	0.129917	0.350050	0.368195	0.065524	0.133845	0.281190	0.262519	0.113602	0.121905	0.381303	0.143246	0.335342	0.750752	0.351238	0.293682	0.138793	0.300024	0.200067	0.485115	0.118412	0.252144	0.232533	0.146781	0.158987	0.211410	0.186458	0.101604	0.176068	0.385905	0.218782	0.593785	0.083239	0.121450	0.431918	0.215673	0.234286	0.494757	0.193198	0.254570	0.032480	0.040185	0.140583	0.330292	0.197232	0.437389	0.186362	0.272447	0.037516	0.035463	0.091620	0.147889	0.183064	0.316647	0.359517	0.291331
28	0.145193	0.241893	0.281626	0.192594	0.174268	0.344999	0.235545	0.258032	0.102088	0.235479	0.473601	0.293297	0.084780	0.162067	0.222791	0.279300	0.092488	0.128392	0.479883	0.180972	0.235903	0.537140	0.470705	0.413565	0.103632	0.133751	0.344976	0.367517	0.108005	0.264039	0.282174	0.263696	0.120736	0.127042	0.373186	0.167717	0.349717	0.803168	0.342960	0.250562	0.138398	0.299397	0.193891	0.484969	0.129055	0.260706	0.236134	0.145364	0.155146	0.206674	0.197124	0.083054	0.176515	0.386622	0.226902	0.581852	0.081050	0.120089	0.366528	0.212898	0.240149	0.516085	0.192417	0.239328	0.031891	0.039876	0.128925	0.274915	0.197145	0.437727	0.137398	0.232932	0.028322	0.025258	0.169381	0.240048	0.181311	0.315502	0.357168	0.269856
29	0.144991	0.241672	0.274034	0.196811	0.217778	0.402815	0.270463	0.261349	0.098957	0.211581	0.468048	0.332473	0.098884	0.186501	0.233632	0.271205	0.095349	0.129630	0.383035	0.158341	0.239616	0.561214	0.484279	0.394759	0.103653	0.135917	0.348678	0.393290	0.169153	0.434128	0.282917	0.247809	0.133328	0.134225	0.373263	0.192490	0.354443	0.808090	0.299791	0.191895	0.124583	0.277912	0.188018	0.475793	0.140666	0.267712	0.242873	0.149069	0.150388	0.138089	0.192228	0.103163	0.172215	0.373923	0.210137	0.509161	0.079054	0.116290	0.358834	0.210582	0.235941	0.511770	0.174433	0.241870	0.030804	0.039752	0.134176	0.195632	0.197118	0.435547	0.116927	0.194745	0.021792	0.019798	0.210884	0.320123	0.170393	0.297335	0.362554	0.248541
30	0.151561	0.259949	0.272517	0.203258	0.246056	0.439723	0.279586	0.262560	0.112327	0.197690	0.457094	0.367148	0.106091	0.191660	0.229803	0.261547	0.095631	0.134734	0.275408	0.140538	0.244575	0.573778	0.462158	0.369221	0.116558	0.165733	0.337091	0.443004	0.200279	0.529511	0.277977	0.234870	0.147184	0.140631	0.373309	0.208489	0.370686	0.818613	0.254808	0.164770	0.093188	0.244680	0.180001	0.469410	0.148202	0.268854	0.235339	0.153922	0.150651	0.121825	0.162257	0.368638	0.168715	0.359526	0.199395	0.387823	0.079465	0.113983	0.361641	0.201108	0.222986	0.480551	0.131300	0.240026	0.030675	0.039403	0.149552	0.145018	0.189881	0.419955	0.126581	0.159166	0.024427	0.023428	0.313106	0.314202	0.151589	0.253597	0.363294	0.250417
31	0.163981	0.275940	0.256782	0.178399	0.244973	0.439065	0.270713	0.263537	0.107137	0.161164	0.449850	0.375917	0.116315	0.213388	0.204717	0.237308	0.094587	0.142503	0.286546	0.126398	0.249033	0.586607	0.434243	0.359003	0.128426	0.184347	0.310538	0.456011	0.206219	0.540922	0.268143	0.227005	0.169394	0.147906	0.367779	0.214488	0.368514	0.823710	0.243438	0.166495	0.090742	0.243297	0.175952	0.467182	0.152437	0.267764	0.229016	0.153493	0.152187	0.119217	0.167970	0.575696	0.173093	0.375410	0.201711	0.245934	0.079004	0.113337	0.361442	0.201187	0.206427	0.440095	0.105423	0.241276	0.031244	0.036694	0.161197	0.125272	0.172392	0.396348	0.115301	0.153947	0.053834	0.040874	0.369458	0.322777	0.142535	0.226547	0.362775	0.269764
32	0.164963	0.278922	0.232367	0.161719	0.232783	0.408509	0.263681	0.253280	0.101007	0.136965	0.402092	0.375058	0.140399	0.244880	0.193861	0.213691	0.094318	0.137427	0.266868	0.119657	0.259803	0.605213	0.447389	0.364527	0.130016	0.191464	0.318894	0.449177	0.264053	0.645181	0.256004	0.201543	0.175992	0.149979	0.340965	0.219521	0.354332	0.782757	0.238646	0.154954	0.090175	0.239691	0.182102	0.437668	0.153874	0.267615	0.291734	0.156157	0.142790	0.106495	0.391941	0.627505	0.176930	0.378191	0.201945	0.178504	0.075898	0.104522	0.328854	0.201485	0.179931	0.388939	0.113211	0.253370	0.030812	0.035255	0.161855	0.129208	0.162142	0.376078	0.117980	0.160829	0.060598	0.044843	0.391621	0.328819	0.142332	0.226773	0.363666	0.275476
33	0.164886	0.275844	0.226603	0.165921	0.224989	0.392424	0.255217	0.226401	0.083899	0.103099	0.380255	0.373662	0.154627	0.261860	0.208240	0.211961	0.093844	0.132370	0.228942	0.119497	0.277374	0.625510	0.457930	0.355797	0.130864	0.196614	0.361189	0.449666	0.299781	0.716163	0.248363	0.201903	0.175437	0.147898	0.332234	0.221665	0.379772	0.838254	0.219051	0.140312	0.087082	0.236629	0.174762	0.401535	0.156497	0.265543	0.385611	0.177873	0.102312	0.088775	0.437477	0.661177	0.176907	0.377775	0.196616	0.174912	0.047803	0.069765	0.299916	0.164418	0.160731	0.367084	0.129159	0.277421	0.030893	0.032674	0.162397	0.133357	0.156793	0.364991	0.166936	0.161734	0.067949	0.049525	0.458943	0.353041	0.142520	0.227127	0.376812	0.253645
34	0.148546	0.240857	0.232587	0.174688	0.224011	0.385513	0.250873	0.188989	0.079999	0.089664	0.305310	0.451374	0.155932	0.261773	0.228142	0.211906	0.096083	0.134461	0.193133	0.115359	0.284929	0.630935	0.459569	0.316274	0.130790	0.197235	0.379546	0.439287	0.302229	0.729221	0.246480	0.203236	0.176794	0.141656	0.321402	0.225568	0.396356	0.853474	0.176691	0.142012	0.085355	0.213881	0.207187	0.431450	0.149098	0.225895	0.411080	0.197852	0.061871	0.075617	0.489366	0.675638	0.165239	0.350855	0.191998	0.156556	0.030074	0.053128	0.300248	0.121216	0.169581	0.386276	0.122352	0.286161	0.029688	0.026388	0.165840	0.131804	0.148567	0.333727	0.223294	0.161283	0.088422	0.060370	0.501604	0.354793	0.145332	0.240683	0.359830	0.218752
35	0.118802	0.212446	0.220677	0.172108	0.220313	0.355586	0.251742	0.191990	0.078764	0.075001	0.263909	0.610007	0.156808	0.261466	0.244209	0.206808	0.092057	0.105763	0.165684	0.104355	0.280405	0.628054	0.424946	0.262251	0.130580	0.197210	0.368317	0.413412	0.302262	0.732154	0.243941	0.202693	0.186409	0.125815	0.293587	0.246997	0.397683	0.851070	0.163261	0.143571	0.085080	0.209809	0.284674	0.437797	0.145833	0.189177	0.414188	0.203209	0.056589	0.079742	0.487732	0.784405	0.142780	0.316716	0.200125	0.144030	0.029289	0.040125	0.269038	0.094988	0.159311	0.361070	0.131283	0.265322	0.029585	0.025747	0.159101	0.126775	0.104446	0.189870	0.264155	0.163486	0.095578	0.063752	0.508458	0.355825	0.145949	0.243191	0.321983	0.184922
36	0.116279	0.211443	0.319394	0.168680	0.215202	0.327355	0.255248	0.177003	0.078504	0.059904	0.257678	0.664865	0.161329	0.279971	0.249192	0.192491	0.091881	0.110586	0.160462	0.099583	0.279710	0.627578	0.364424	0.219495	0.124989	0.196802	0.328735	0.379719	0.302822	0.738593	0.197917	0.202933	0.193968	0.115857	0.280429	0.243303	0.386599	0.814968	0.160990	0.141591	0.070025	0.152444	0.278422	0.387019	0.179686	0.194689	0.426163	0.189234	0.057646	0.080461	0.481543	0.917593	0.136930	0.311811	0.178337	0.126703	0.027755	0.034928	0.185127	0.086810	0.156159	0.354911	0.136232	0.252006	0.028536	0.026860	0.134883	0.167598	0.110671	0.166367	0.293056	0.164075	0.095942	0.063977	0.540397	0.354210	0.145697	0.246743	0.305691	0.159776
37	0.103375	0.183195	0.305968	0.233935	0.217214	0.327122	0.252791	0.161578	0.076160	0.057222	0.231554	0.699895	0.204517	0.430717	0.235508	0.180933	0.092764	0.114596	0.168744	0.179108	0.274177	0.624805	0.347443	0.212312	0.120566	0.197428	0.296940	0.328129	0.303736	0.748800	0.135845	0.207874	0.195708	0.113825	0.250012	0.249099	0.365444	0.766403	0.123819	0.143994	0.032619	0.070177	0.278008	0.343752	0.234279	0.204406	0.444988	0.188517	0.059833	0.065786	0.500687	1.008870	0.127996	0.259153	0.166213	0.119093	0.022859	0.034586	0.198894	0.183170	0.152002	0.354990	0.122960	0.251969	0.028400	0.029192	0.130443	0.300354	0.125466	0.158211	0.388233	0.137705	0.098336	0.064637	0.545831	0.324136	0.149196	0.265916	0.302295	0.162804
38	0.093070	0.170945	0.308125	0.370149	0.218613	0.328127	0.361040	0.158075	0.077819	0.049097	0.228277	0.691876	0.247568	0.554787	0.217724	0.185952	0.069496	0.109818	0.220210	0.483654	0.270001	0.612254	0.345097	0.190217	0.121610	0.193671	0.304772	0.300440	0.303815	0.751598	0.119597	0.208915	0.195394	0.110175	0.223198	0.273831	0.361703	0.756416	0.094183	0.146059	0.031400	0.050353	0.274449	0.371086	0.253765	0.206525	0.449434	0.213585	0.059436	0.060301	0.524513	1.050021	0.122766	0.248736	0.167587	0.152284	0.020993	0.027561	0.238176	0.274514	0.149332	0.347055	0.119993	0.266704	0.024693	0.026508	0.197180	0.344310	0.125967	0.133448	0.409354	0.102156	0.104815	0.066392	0.524908	0.221552	0.144070	0.260744	0.306875	0.209351
39	0.090829	0.170344	0.355839	0.488861	0.214880	0.327357	0.421478	0.155360	0.084705	0.035724	0.219292	0.682595	0.249826	0.564114	0.222421	0.201074	0.063380	0.106256	0.305951	0.673802	0.247395	0.529683	0.341758	0.174824	0.118565	0.184054	0.305524	0.298678	0.306175	0.751825	0.113175	0.215313	0.213806	0.114276	0.238876	0.280302	0.313331	0.642182	0.109034	0.148219	0.031164	0.039732	0.268094	0.386675	0.253566	0.194540	0.440334	0.229438	0.066515	0.058412	0.546376	1.019883	0.126955	0.257818	0.171323	0.285208	0.022416	0.027340	0.262878	0.301990	0.136824	0.332690	0.125727	0.275001	0.024585	0.027721	0.281711	0.350703	0.130026	0.109062	0.409898	0.098432	0.104198	0.067768	0.500038	0.228486	0.141463	0.253277	0.309007	0.241434
40	0.087011	0.158254	0.524510	0.586860	0.193998	0.306042	0.406320	0.150641	0.080225	0.030705	0.225753	0.699858	0.324240	0.742078	0.262327	0.202753	0.067918	0.105962	0.414817	0.690067	0.199790	0.392160	0.342164	0.197760	0.102897	0.164575	0.303623	0.301398	0.304702	0.748572	0.112540	0.223376	0.227053	0.117133	0.220929	0.295222	0.278179	0.524143	0.184851	0.148189	0.030482	0.031171	0.321288	0.388164	0.250512	0.163368	0.445148	0.228471	0.085989	0.087117	0.559324	0.911418	0.127495	0.254639	0.206337	0.346094	0.025973	0.028576	0.267186	0.312332	0.105657	0.266721	0.157469	0.279877	0.029058	0.032343	0.320689	0.353439	0.133334	0.105533	0.410362	0.099535	0.107015	0.095474	0.460928	0.218765	0.126987	0.242959	0.297609	0.245062
41	0.055918	0.104858	0.581797	0.614164	0.137759	0.204983	0.387690	0.257293	0.055930	0.028551	0.312410	0.720672	0.364790	0.806013	0.271401	0.194672	0.073207	0.096869	0.574313	0.697832	0.188122	0.368798	0.314600	0.185291	0.098029	0.163999	0.305941	0.299171	0.302452	0.740985	0.126891	0.223695	0.224022	0.109068	0.218920	0.403228	0.277232	0.498664	0.217151	0.165233	0.030675	0.030708	0.364846	0.401045	0.270575	0.151053	0.456745	0.228104	0.098553	0.127666	0.453990	0.893190	0.128204	0.250238	0.205753	0.351322	0.025821	0.027914	0.316489	0.350139	0.082016	0.206956	0.170727	0.355195	0.033748	0.034676	0.329849	0.374533	0.134012	0.104271	0.426363	0.103016	0.128180	0.142735	0.448057	0.208422	0.112306	0.232886	0.285508	0.253800
42	0.043581	0.103182	0.605059	0.676097	0.137943	0.186105	0.385729	0.343891	0.062151	0.042031	0.331152	0.765185	0.365773	0.807014	0.273261	0.187059	0.074948	0.089148	0.592248	0.698586	0.187347	0.339412	0.275317	0.163754	0.101796	0.159622	0.318952	0.241666	0.288173	0.697769	0.160310	0.212858	0.218760	0.101990	0.224088	0.548325	0.257273	0.491642	0.218294	0.162202	0.030668	0.030545	0.366173	0.454043	0.275294	0.135955	0.461288	0.231624	0.103703	0.159521	0.410414	0.884692	0.133434	0.250217	0.256246	0.350794	0.035861	0.034949	0.530156	0.397435	0.084823	0.207417	0.171439	0.381061	0.035788	0.038602	0.535623	0.376964	0.149828	0.097597	0.432049	0.106954	0.135190	0.153791	0.391999	0.194566	0.118828	0.248478	0.273834	0.256782
43	0.050511	0.112749	0.650433	0.773394	0.137837	0.167832	0.389687	0.348281	0.062226	0.041882	0.331489	0.825892	0.362818	0.802783	0.300819	0.204581	0.077731	0.089439	0.605677	0.746553	0.184121	0.302428	0.272264	0.164626	0.090081	0.124315	0.335402	0.278291	0.264273	0.606751	0.182061	0.199404	0.202818	0.089592	0.222529	0.721558	0.234538	0.438781	0.261073	0.148072	0.035993	0.033371	0.379407	0.504789	0.270918	0.128192	0.455011	0.226471	0.112684	0.185724	0.311572	0.884226	0.141866	0.247122	0.267912	0.349438	0.040700	0.037225	0.675067	0.400334	0.084138	0.198844	0.176208	0.374653	0.042928	0.042701	0.628183	0.375251	0.159688	0.095022	0.436678	0.105863	0.125302	0.152113	0.307267	0.195554	0.127157	0.260541	0.283109	0.255548
44	0.054560	0.113220	0.680429	0.806522	0.142811	0.157609	0.402636	0.344353	0.065286	0.041499	0.333170	0.832322	0.359815	0.803525	0.338425	0.230747	0.076581	0.093179	0.604870	0.825988	0.184719	0.287209	0.289447	0.165077	0.081596	0.100140	0.400592	0.405971	0.246390	0.537278	0.197093	0.190873	0.187714	0.079569	0.238897	0.894707	0.230406	0.421488	0.309576	0.172152	0.043010	0.037568	0.439953	0.505654	0.273312	0.127932	0.452057	0.229286	0.127050	0.262279	0.316975	0.863010	0.140332	0.224067	0.272915	0.346465	0.054517	0.047039	0.691747	0.411254	0.082569	0.180183	0.187951	0.383407	0.043351	0.042865	0.659670	0.373442	0.162069	0.085650	0.428134	0.120844	0.117868	0.154960	0.364482	0.192971	0.129827	0.264037	0.305975	0.239001
45	0.069048	0.113907	0.689787	0.826386	0.141673	0.146130	0.513403	0.339477	0.078815	0.045627	0.343926	0.721187	0.358407	0.800939	0.370879	0.234267	0.077114	0.093190	0.650470	0.879220	0.175645	0.255318	0.300857	0.158630	0.079960	0.079394	0.391876	0.479930	0.238631	0.521627	0.256826	0.186374	0.182981	0.075673	0.253373	0.960669	0.193196	0.346322	0.314307	0.185694	0.045237	0.036903	0.452920	0.497376	0.275639	0.128261	0.418671	0.238416	0.130103	0.279411	0.338499	0.774377	0.135597	0.202209	0.294175	0.355197	0.060116	0.050349	0.708450	0.440547	0.082704	0.177129	0.194598	0.391195	0.045969	0.043031	0.668358	0.380205	0.163219	0.085626	0.411374	0.149925	0.125278	0.168399	0.393201	0.193857	0.137526	0.266733	0.310430	0.238698
46	0.070944	0.113145	0.693175	0.861276	0.159657	0.140669	0.553437	0.343563	0.094812	0.057439	0.340711	0.651661	0.350323	0.791676	0.380463	0.236843	0.086341	0.091956	0.870982	0.950087	0.153440	0.201366	0.277574	0.144312	0.078041	0.061745	0.454213	0.557238	0.164010	0.367197	0.277763	0.189649	0.185002	0.086979	0.259102	0.966618	0.123180	0.194022	0.323919	0.206499	0.044266	0.033780	0.416509	0.467019	0.275750	0.126854	0.348997	0.225761	0.124399	0.280424	0.342563	0.649054	0.142401	0.201431	0.299030	0.367364	0.060555	0.051215	0.716850	0.475136	0.083766	0.179223	0.195596	0.375366	0.046340	0.041800	0.670608	0.423368	0.159797	0.083572	0.396273	0.174889	0.129108	0.170426	0.359945	0.201687	0.144074	0.269489	0.307454	0.243626
47	0.071461	0.113103	0.707209	0.869891	0.159219	0.140831	0.556064	0.347797	0.106459	0.072946	0.346706	0.651771	0.342049	0.784201	0.375599	0.246009	0.103006	0.099817	0.936363	0.965220	0.122505	0.146791	0.267710	0.142195	0.077500	0.057125	0.501276	0.587914	0.105709	0.232490	0.277060	0.230826	0.176361	0.086763	0.384317	1.047208	0.107135	0.192308	0.324789	0.268615	0.044108	0.032993	0.377530	0.461783	0.308792	0.134704	0.300259	0.209468	0.129658	0.289477	0.284785	0.574770	0.160900	0.217603	0.294505	0.367869	0.067275	0.059264	0.716242	0.534709	0.065744	0.132591	0.198411	0.366009	0.046857	0.040700	0.674205	0.477133	0.151765	0.079189	0.389724	0.200241	0.127343	0.171895	0.365805	0.250524	0.143477	0.261439	0.266579	0.253857
48	0.071796	0.113144	0.716115	0.837227	0.155003	0.139818	0.565001	0.355211	0.108905	0.077455	0.342027	0.675645	0.341269	0.784103	0.364415	0.249647	0.110773	0.104106	0.946898	0.920790	0.109295	0.127312	0.272892	0.144585	0.078333	0.057115	0.508074	0.589912	0.119377	0.197162	0.274940	0.263945	0.158850	0.079441	0.523444	1.234482	0.103945	0.194432	0.335096	0.297198	0.045716	0.044220	0.377654	0.474764	0.336763	0.145914	0.448107	0.190432	0.134873	0.299537	0.265855	0.550624	0.165610	0.230403	0.327043	0.367703	0.070117	0.061230	0.715881	0.594855	0.049343	0.089876	0.201127	0.369613	0.047975	0.040275	0.675712	0.467286	0.133077	0.065685	0.315060	0.220367	0.128872	0.177989	0.358747	0.249115	0.141343	0.249856	0.243106	0.267670
49	0.073231	0.113173	0.775630	0.787502	0.157356	0.140659	0.547520	0.378185	0.103761	0.079779	0.329547	0.682217	0.340774	0.783994	0.367456	0.249179	0.114129	0.104706	0.951993	0.747576	0.105335	0.120854	0.282105	0.160085	0.077075	0.055686	0.543832	0.601203	0.130499	0.185977	0.275162	0.273238	0.146949	0.077135	0.550182	1.431685	0.090704	0.152756	0.338583	0.297421	0.048070	0.065702	0.394451	0.472895	0.333075	0.141710	0.485331	0.188919	0.123172	0.296404	0.234414	0.548610	0.165851	0.231286	0.359610	0.369553	0.071636	0.061252	0.714595	0.607267	0.053543	0.088485	0.210348	0.365379	0.049551	0.039935	0.686222	0.476137	0.120059	0.056636	0.242034	0.226096	0.125368	0.182260	0.335220	0.248029	0.160389	0.274608	0.249084	0.277606
50	0.075101	0.113204	0.756973	0.719873	0.162207	0.141790	0.471584	0.424994	0.100241	0.082526	0.336046	0.650878	0.340427	0.783064	0.362349	0.249088	0.113036	0.108840	0.965387	0.693894	0.105425	0.118157	0.298456	0.160121	0.077014	0.055312	0.611408	0.628899	0.129054	0.156294	0.274948	0.309489	0.142644	0.077788	0.552753	1.543200	0.084038	0.113309	0.353885	0.315855	0.047460	0.076703	0.414388	0.447031	0.305849	0.126134	0.473981	0.205203	0.109311	0.282159	0.255384	0.517423	0.162967	0.236319	0.361152	0.375806	0.074822	0.061450	0.725771	0.594574	0.053560	0.086881	0.216878	0.357766	0.062745	0.068287	0.668950	0.500540	0.118021	0.055693	0.235771	0.225567	0.098433	0.150790	0.335742	0.276936	0.174379	0.276552	0.249043	0.286938
51	0.075126	0.112926	0.656107	0.657891	0.160809	0.139255	0.443241	0.473197	0.097110	0.084162	0.279785	0.619043	0.323551	0.735747	0.361551	0.249969	0.113201	0.122887	0.896577	0.683002	0.108722	0.117394	0.301008	0.201043	0.075852	0.056140	0.614430	0.656946	0.126422	0.104042	0.275678	0.397687	0.141340	0.078661	0.556233	1.572974	0.085158	0.113720	0.365653	0.316177	0.052178	0.085030	0.429002	0.436457	0.279986	0.117692	0.471524	0.197880	0.108821	0.270978	0.258540	0.465870	0.147072	0.209881	0.382336	0.373953	0.080412	0.063554	0.742544	0.588749	0.054494	0.086891	0.220638	0.349139	0.080825	0.095052	0.650308	0.504840	0.108802	0.058322	0.238703	0.232724	0.084101	0.137373	0.356995	0.280283	0.178958	0.277261	0.246009	0.278746
52	0.074672	0.106704	0.653972	0.654190	0.160790	0.135547	0.445079	0.472460	0.093859	0.077465	0.239080	0.576701	0.285211	0.628524	0.366397	0.265379	0.119323	0.139668	0.835264	0.681778	0.103805	0.112342	0.300462	0.252247	0.087722	0.058603	0.655479	0.672290	0.126158	0.086277	0.314999	0.402653	0.101806	0.071998	0.547787	1.581813	0.084870	0.108415	0.349359	0.321121	0.083969	0.148057	0.410275	0.447839	0.275209	0.116336	0.491001	0.166105	0.107141	0.250191	0.255466	0.455514	0.131496	0.147919	0.430112	0.327475	0.086256	0.069625	0.746506	0.581332	0.054324	0.086911	0.217921	0.353041	0.082884	0.097687	0.646935	0.496226	0.108997	0.064649	0.231324	0.236456	0.089172	0.141412	0.364879	0.272224	0.175832	0.273700	0.230965	0.242234
53	0.070346	0.092569	0.630400	0.545652	0.142128	0.119512	0.454927	0.390380	0.093931	0.077639	0.239868	0.501936	0.272684	0.601103	0.380586	0.307442	0.115998	0.141767	0.829174	0.666672	0.098213	0.106688	0.328287	0.254105	0.089217	0.059237	0.666745	0.697153	0.120279	0.081831	0.366834	0.407404	0.071461	0.069951	0.543056	1.576129	0.081447	0.099091	0.323805	0.326326	0.101411	0.177681	0.416777	0.457307	0.276193	0.120719	0.499877	0.159552	0.115107	0.207700	0.253212	0.405791	0.131612	0.144014	0.451726	0.226422	0.089393	0.072608	0.699148	0.558242	0.054304	0.086975	0.194956	0.357294	0.082275	0.099550	0.529453	0.505463	0.103284	0.065913	0.189963	0.237548	0.088856	0.140249	0.334683	0.273845	0.174680	0.259468	0.208819	0.236089
54	0.060710	0.070966	0.569745	0.461757	0.131537	0.098912	0.461127	0.377922	0.095454	0.084071	0.243114	0.439320	0.220127	0.448054	0.360756	0.350087	0.115198	0.143814	0.830986	0.569355	0.096495	0.105530	0.333968	0.246928	0.088743	0.058707	0.666558	0.733597	0.120975	0.084708	0.383087	0.450592	0.067204	0.070340	0.533072	1.545781	0.076926	0.090854	0.384791	0.323713	0.105810	0.192309	0.442339	0.396752	0.284969	0.138543	0.490471	0.160420	0.107783	0.145561	0.227925	0.212556	0.132808	0.148331	0.458185	0.214127	0.086011	0.068962	0.546971	0.545365	0.053807	0.085087	0.186770	0.286370	0.078873	0.098380	0.378421	0.519588	0.078748	0.058538	0.185073	0.244628	0.077916	0.122544	0.245129	0.318128	0.230718	0.359814	0.213393	0.232904
55	0.047500	0.046640	0.558728	0.434424	0.118360	0.076150	0.461347	0.388681	0.089592	0.093082	0.209644	0.453353	0.077109	0.163337	0.361897	0.357999	0.134328	0.218903	0.828889	0.479807	0.095963	0.104947	0.358676	0.295635	0.082037	0.057755	0.660658	0.759767	0.120870	0.113408	0.464536	0.511029	0.067777	0.069853	0.531892	1.493350	0.075342	0.086713	0.431392	0.340603	0.119303	0.220114	0.428979	0.354829	0.311159	0.168386	0.478103	0.163786	0.112350	0.144534	0.209062	0.206153	0.130787	0.149585	0.442525	0.233640	0.083187	0.066358	0.389981	0.571844	0.050434	0.083707	0.194373	0.238764	0.087632	0.104000	0.331487	0.553822	0.067048	0.056845	0.181484	0.253120	0.077361	0.122334	0.219833	0.358951	0.288049	0.478500	0.220357	0.226911
56	0.037587	0.031391	0.564227	0.376325	0.113608	0.063686	0.394828	0.389411	0.084140	0.108205	0.211997	0.443915	0.053692	0.135802	0.436282	0.361753	0.173029	0.392354	0.702926	0.335137	0.084057	0.098005	0.362141	0.379676	0.082805	0.061578	0.654389	0.723090	0.115826	0.120479	0.502675	0.575402	0.069039	0.069459	0.531266	1.409372	0.076350	0.087381	0.400687	0.347385	0.123425	0.233607	0.372533	0.359898	0.335145	0.188844	0.484436	0.155394	0.109578	0.138596	0.372695	0.140030	0.126019	0.155408	0.420015	0.240347	0.074939	0.060067	0.387854	0.596713	0.050705	0.082724	0.190834	0.238170	0.090415	0.106803	0.319568	0.565408	0.062857	0.059028	0.209928	0.243573	0.075604	0.122202	0.225897	0.392967	0.286685	0.478526	0.210401	0.250368
57	0.035846	0.031928	0.524696	0.339255	0.095114	0.066242	0.261520	0.380103	0.074181	0.109065	0.242543	0.393231	0.054014	0.134028	0.434658	0.347670	0.171744	0.414252	0.455641	0.180131	0.066947	0.081451	0.380917	0.437620	0.095118	0.070856	0.667727	0.660659	0.096814	0.115107	0.504797	0.637278	0.067896	0.070258	0.531754	1.317066	0.078123	0.088510	0.437286	0.342264	0.127040	0.239394	0.391505	0.356111	0.351632	0.205568	0.488621	0.164583	0.101005	0.114605	0.379144	0.189328	0.129436	0.178114	0.433565	0.246405	0.073111	0.059116	0.356547	0.584941	0.052054	0.082304	0.188110	0.222876	0.089789	0.107379	0.358016	0.543309	0.063860	0.057683	0.248426	0.226154	0.077820	0.119717	0.417191	0.382639	0.299517	0.515194	0.188180	0.274743
58	0.040464	0.032683	0.505569	0.368296	0.077315	0.066115	0.265438	0.376074	0.065794	0.105584	0.355091	0.326056	0.053946	0.113356	0.411258	0.336857	0.208910	0.540256	0.437630	0.189229	0.057960	0.066752	0.365036	0.449460	0.100638	0.074107	0.661635	0.610919	0.097570	0.121216	0.498103	0.653460	0.067082	0.066703	0.542891	1.288767	0.073983	0.083440	0.445361	0.350052	0.138001	0.248482	0.403814	0.354321	0.362485	0.218541	0.493224	0.149371	0.100946	0.108946	0.375245	0.251378	0.132784	0.191242	0.493849	0.241314	0.076460	0.060346	0.346261	0.553639	0.054102	0.080782	0.206484	0.197252	0.091155	0.144943	0.390074	0.497772	0.056695	0.052490	0.231475	0.205989	0.077531	0.100525	0.432240	0.447856	0.315190	0.542881	0.183932	0.269269
59	0.054863	0.042246	0.433638	0.366673	0.077026	0.064233	0.251732	0.370127	0.066961	0.103211	0.354316	0.320958	0.055410	0.100790	0.393870	0.329739	0.209170	0.557707	0.372963	0.200144	0.053670	0.057037	0.348125	0.450621	0.099554	0.073440	0.590163	0.546320	0.107731	0.128256	0.477677	0.653317	0.057677	0.049059	0.539573	1.283983	0.075760	0.093067	0.442440	0.338140	0.157580	0.263496	0.403661	0.336660	0.364302	0.219041	0.494330	0.142709	0.101929	0.110794	0.416022	0.262474	0.129180	0.197540	0.545845	0.217357	0.072393	0.054518	0.353882	0.492822	0.056622	0.074322	0.204665	0.189730	0.093329	0.186972	0.392369	0.446020	0.058841	0.048798	0.234196	0.178259	0.076699	0.088124	0.496531	0.518777	0.316304	0.543391	0.221757	0.257938
60	0.060703	0.053805	0.300801	0.362284	0.070040	0.060098	0.248668	0.354666	0.068461	0.101566	0.375481	0.337631	0.056818	0.101613	0.380495	0.356204	0.211374	0.560925	0.289890	0.202551	0.051816	0.048934	0.353354	0.460140	0.098924	0.072811	0.560214	0.532316	0.121780	0.158887	0.471581	0.651870	0.056281	0.040427	0.421599	1.204062	0.081486	0.103598	0.438491	0.297581	0.162175	0.266026	0.403897	0.316234	0.357683	0.213879	0.497004	0.140427	0.097632	0.100719	0.426278	0.272818	0.118507	0.204478	0.557430	0.212517	0.072303	0.053196	0.383922	0.417683	0.061424	0.077030	0.200833	0.176143	0.108325	0.201065	0.368854	0.388163	0.074343	0.060181	0.231569	0.156125	0.072376	0.078241	0.510016	0.552944	0.314726	0.557962	0.258148	0.250264
61	0.066244	0.057536	0.287687	0.373277	0.039797	0.040806	0.238212	0.315829	0.070684	0.101176	0.414631	0.336750	0.056777	0.101533	0.380554	0.406403	0.210995	0.562136	0.224838	0.249458	0.051537	0.047330	0.350883	0.466782	0.098449	0.073385	0.550990	0.534127	0.125834	0.173432	0.471513	0.636716	0.062748	0.046607	0.284909	1.052266	0.082031	0.106203	0.435815	0.295979	0.162737	0.263306	0.390173	0.282047	0.320806	0.211130	0.439145	0.146692	0.091582	0.096441	0.481187	0.276785	0.113840	0.203578	0.549616	0.214832	0.072750	0.054869	0.399952	0.363413	0.056948	0.074890	0.224861	0.165704	0.141115	0.255399	0.356010	0.340133	0.092770	0.082657	0.270636	0.150961	0.064541	0.065443	0.516793	0.553393	0.315638	0.579674	0.290932	0.239199
62	0.066532	0.057870	0.357968	0.378780	0.035820	0.040616	0.225799	0.237373	0.070983	0.101125	0.442417	0.325297	0.052971	0.095469	0.383105	0.455582	0.214050	0.565902	0.219048	0.275637	0.052022	0.046600	0.341298	0.464435	0.099368	0.073970	0.496180	0.517026	0.105560	0.178724	0.469872	0.624853	0.073945	0.068170	0.265515	0.835390	0.078379	0.125329	0.425873	0.278440	0.162663	0.261094	0.373826	0.256176	0.321876	0.229818	0.328003	0.232369	0.067029	0.078426	0.534788	0.278071	0.121241	0.206457	0.524168	0.216869	0.070127	0.058065	0.404280	0.343981	0.054304	0.072930	0.289809	0.163650	0.133043	0.252755	0.347338	0.325095	0.171223	0.361595	0.297868	0.147019	0.065140	0.065004	0.528363	0.638753	0.315452	0.581348	0.290153	0.235876
63	0.067009	0.058112	0.392827	0.391099	0.038115	0.041429	0.229842	0.169785	0.074840	0.101311	0.448911	0.309607	0.053331	0.094122	0.372162	0.498887	0.237296	0.603307	0.218755	0.281549	0.051896	0.045948	0.325792	0.462392	0.099113	0.073512	0.420737	0.477684	0.096051	0.199867	0.469950	0.621692	0.076844	0.084527	0.284454	0.672546	0.079286	0.129050	0.417181	0.271552	0.160809	0.255651	0.359884	0.261054	0.382525	0.263172	0.320869	0.317367	0.058202	0.072238	0.548912	0.356880	0.121309	0.201275	0.553294	0.210058	0.073769	0.090989	0.411114	0.346585	0.070169	0.101042	0.291087	0.162427	0.128001	0.251027	0.346667	0.325881	0.242449	0.566688	0.299880	0.137652	0.065104	0.060766	0.549542	0.840660	0.329013	0.632938	0.353210	0.233788
64	0.068602	0.057353	0.393228	0.405166	0.035517	0.042003	0.220038	0.164491	0.073807	0.097012	0.446098	0.288038	0.055465	0.092671	0.378638	0.527094	0.241691	0.608334	0.222978	0.277574	0.046322	0.041161	0.320131	0.459184	0.095067	0.074809	0.402772	0.443348	0.095958	0.206261	0.470173	0.598208	0.077047	0.087997	0.308220	0.625606	0.084237	0.157792	0.406353	0.268314	0.147133	0.222142	0.327135	0.236151	0.454240	0.287303	0.319847	0.320720	0.051218	0.069369	0.553151	0.465686	0.122071	0.199415	0.599462	0.218627	0.071361	0.098890	0.544852	0.348921	0.076991	0.107915	0.293117	0.158617	0.127670	0.250310	0.346187	0.304558	0.260877	0.613557	0.296676	0.140332	0.060449	0.055164	0.568956	0.982329	0.352134	0.678392	0.507933	0.226781
65	0.070710	0.057104	0.410378	0.390474	0.036014	0.041075	0.193818	0.147253	0.072426	0.089743	0.444596	0.262110	0.055344	0.082981	0.384637	0.533891	0.240041	0.604641	0.201594	0.281867	0.033088	0.030848	0.316534	0.429172	0.085236	0.077738	0.332624	0.421266	0.095766	0.206663	0.468716	0.544733	0.081027	0.102437	0.317706	0.608326	0.079226	0.180377	0.406400	0.258598	0.143203	0.211958	0.334841	0.178221	0.476344	0.293577	0.292285	0.331016	0.045595	0.061181	0.470217	0.487080	0.123312	0.199917	0.577241	0.246724	0.068098	0.104524	0.595066	0.345038	0.079092	0.108642	0.301610	0.131965	0.127954	0.250290	0.342863	0.296996	0.359685	0.816645	0.296946	0.139129	0.056531	0.053912	0.568018	0.994343	0.356658	0.687446	0.577432	0.229014
66	0.069911	0.056569	0.492606	0.388961	0.036571	0.040435	0.192689	0.111302	0.062033	0.070373	0.445159	0.268095	0.060059	0.078590	0.382360	0.527521	0.213692	0.528370	0.245093	0.278298	0.032469	0.029032	0.311726	0.410431	0.085056	0.079817	0.324045	0.387017	0.094699	0.207182	0.438321	0.539410	0.090325	0.109538	0.334510	0.604458	0.077836	0.182876	0.380357	0.249869	0.147727	0.198482	0.303578	0.190445	0.485893	0.294522	0.330683	0.353952	0.047417	0.055904	0.467133	0.570133	0.122507	0.201345	0.549608	0.299898	0.069546	0.120335	0.601588	0.325524	0.079375	0.110441	0.304385	0.103296	0.130143	0.263650	0.309403	0.323754	0.371726	0.835864	0.295340	0.116459	0.047145	0.044012	0.461914	1.020207	0.356167	0.689112	0.587982	0.226857
67	0.071328	0.055553	0.491676	0.460554	0.052333	0.043958	0.202419	0.092094	0.057175	0.054735	0.429900	0.295229	0.065044	0.090821	0.365411	0.501065	0.201901	0.467713	0.251528	0.275784	0.029945	0.029798	0.288221	0.408804	0.084414	0.080318	0.312639	0.322711	0.094054	0.206952	0.403948	0.527316	0.093476	0.118399	0.355244	0.600740	0.080002	0.184847	0.281139	0.237018	0.143416	0.175451	0.306348	0.196419	0.485387	0.293450	0.390815	0.371866	0.046892	0.053657	0.501753	0.581080	0.121459	0.199537	0.537015	0.339584	0.070789	0.120494	0.601887	0.269785	0.079569	0.111527	0.303539	0.102764	0.132867	0.270936	0.317803	0.323983	0.371956	0.838446	0.293588	0.095380	0.043034	0.042547	0.475688	1.007368	0.339217	0.669542	0.586183	0.229332
68	0.076506	0.055538	0.499912	0.463123	0.094377	0.058966	0.207905	0.089366	0.069853	0.061735	0.355634	0.301413	0.070964	0.096955	0.362037	0.467255	0.170766	0.385263	0.260274	0.323859	0.031488	0.033130	0.264097	0.394105	0.081648	0.075797	0.312453	0.250253	0.092879	0.205232	0.376161	0.490110	0.092950	0.118680	0.358948	0.593122	0.084640	0.198578	0.266056	0.206107	0.141533	0.163130	0.337597	0.211660	0.482032	0.287554	0.394499	0.385295	0.043826	0.050916	0.493026	0.582645	0.119342	0.197499	0.542797	0.328710	0.071844	0.120863	0.602392	0.209618	0.083689	0.139062	0.297094	0.097300	0.137583	0.275412	0.283524	0.337015	0.371879	0.838856	0.240564	0.106725	0.051797	0.055565	0.590246	0.970492	0.281089	0.577469	0.580770	0.231635
69	0.084497	0.054828	0.504140	0.450162	0.139571	0.073493	0.188667	0.089534	0.071541	0.063653	0.341682	0.277085	0.073355	0.112980	0.352231	0.455862	0.146606	0.276692	0.277370	0.391248	0.031776	0.031909	0.234103	0.333800	0.070361	0.068487	0.265415	0.238852	0.092265	0.190064	0.257681	0.434403	0.092552	0.118704	0.360979	0.587868	0.089121	0.214696	0.194267	0.186294	0.137551	0.156347	0.312124	0.239542	0.459379	0.274865	0.388303	0.392693	0.040557	0.047138	0.463369	0.593973	0.117569	0.197195	0.549687	0.324944	0.074528	0.123079	0.607223	0.211705	0.098404	0.198607	0.296773	0.093387	0.137414	0.265854	0.229308	0.338223	0.371487	0.841206	0.219653	0.222782	0.066949	0.062716	0.656719	0.969047	0.260817	0.544968	0.580467	0.224259
70	0.087294	0.046170	0.598352	0.479705	0.174573	0.082904	0.191153	0.089952	0.068936	0.063193	0.335289	0.231858	0.085251	0.145380	0.275257	0.459606	0.149029	0.274716	0.268055	0.430930	0.032791	0.033912	0.226049	0.225551	0.047875	0.060754	0.159672	0.276388	0.094320	0.187234	0.160869	0.351963	0.094028	0.119271	0.350032	0.601641	0.090196	0.218445	0.109202	0.177990	0.122406	0.137631	0.409201	0.260197	0.457920	0.270330	0.387961	0.389832	0.041040	0.046937	0.428409	0.590769	0.109072	0.189260	0.561620	0.328653	0.084513	0.130599	0.610657	0.219806	0.104315	0.214442	0.293913	0.074115	0.136057	0.233038	0.245231	0.384654	0.371268	0.841834	0.215450	0.303391	0.070783	0.068097	0.702788	0.996375	0.251723	0.521950	0.579467	0.209625
71	0.088235	0.037893	0.665309	0.477222	0.195897	0.091926	0.189826	0.090022	0.066857	0.060418	0.279493	0.222130	0.089863	0.160674	0.208041	0.467161	0.145267	0.266300	0.266410	0.453463	0.039052	0.043139	0.172269	0.153065	0.040232	0.058050	0.176305	0.283137	0.094083	0.184556	0.147308	0.248077	0.095141	0.119934	0.348300	0.625451	0.088420	0.216578	0.100041	0.122961	0.100392	0.109595	0.562514	0.256901	0.513444	0.276803	0.432823	0.430092	0.038756	0.048092	0.348749	0.603025	0.103334	0.199197	0.533682	0.335586	0.084054	0.131525	0.629756	0.220610	0.103909	0.229100	0.276875	0.069594	0.133976	0.228689	0.258305	0.410448	0.372087	0.847795	0.218249	0.310039	0.069408	0.067274	0.715868	0.997348	0.228570	0.480704	0.577344	0.225629
72	0.133973	0.072489	0.653424	0.465240	0.213227	0.096685	0.185349	0.089344	0.067798	0.062601	0.241980	0.268151	0.089346	0.159315	0.198169	0.469854	0.145335	0.264717	0.291852	0.452177	0.039010	0.047597	0.233732	0.146348	0.040499	0.058032	0.188239	0.280703	0.091614	0.189379	0.138846	0.219238	0.095324	0.119945	0.347580	0.630253	0.080529	0.207051	0.095658	0.092058	0.099029	0.102325	0.566278	0.267273	0.588201	0.284313	0.436839	0.506292	0.047501	0.060374	0.324003	0.591399	0.109741	0.216506	0.455524	0.341255	0.083604	0.131364	0.668930	0.236409	0.102599	0.233505	0.269334	0.088772	0.097805	0.166605	0.235786	0.422006	0.366533	0.850872	0.199860	0.310546	0.074113	0.070254	0.720746	0.875139	0.211520	0.467461	0.565953	0.236370
73	0.192934	0.097621	0.633534	0.439885	0.281877	0.116757	0.192229	0.073577	0.067207	0.067034	0.208110	0.466472	0.089028	0.165902	0.160654	0.471953	0.112791	0.191939	0.305219	0.467975	0.038912	0.047212	0.276777	0.142820	0.042411	0.057862	0.192847	0.273143	0.080867	0.189656	0.112206	0.214443	0.094319	0.119486	0.374020	0.594896	0.080454	0.205439	0.094520	0.087160	0.109565	0.105321	0.583948	0.289811	0.594392	0.285293	0.444472	0.531601	0.054054	0.075787	0.340469	0.490790	0.105938	0.212623	0.417617	0.348402	0.083352	0.130810	0.657164	0.249032	0.099791	0.231135	0.273045	0.101762	0.092153	0.144954	0.242836	0.430503	0.359435	0.830660	0.126874	0.316009	0.081872	0.071766	0.735793	0.693924	0.210490	0.461303	0.554599	0.238527
74	0.200726	0.099921	0.647513	0.409507	0.296388	0.124790	0.219153	0.069984	0.066224	0.069017	0.243111	0.702537	0.090051	0.174635	0.152031	0.461529	0.078563	0.099250	0.298081	0.652523	0.039220	0.047377	0.285844	0.132056	0.044472	0.059073	0.187495	0.265149	0.055148	0.163806	0.098268	0.211829	0.088410	0.114637	0.410139	0.482333	0.082185	0.207256	0.096648	0.071183	0.116200	0.108723	0.601069	0.289773	0.593469	0.283697	0.457972	0.534247	0.077074	0.118746	0.334086	0.474005	0.108256	0.219734	0.423404	0.348007	0.082469	0.129159	0.635216	0.246623	0.110658	0.239987	0.254468	0.139507	0.092267	0.143167	0.321572	0.429505	0.306540	0.692622	0.123409	0.337851	0.081533	0.073203	0.748732	0.592740	0.207126	0.428917	0.535432	0.255673
75	0.214004	0.104215	0.650617	0.400360	0.296861	0.126503	0.221940	0.062316	0.066634	0.070137	0.259146	0.792951	0.089985	0.174610	0.154895	0.419579	0.080772	0.098717	0.294984	0.775479	0.049597	0.049364	0.286968	0.124475	0.054602	0.062308	0.177660	0.265357	0.044915	0.152976	0.091418	0.213254	0.081217	0.102474	0.459674	0.409044	0.087599	0.213580	0.087664	0.070269	0.114210	0.107590	0.602996	0.282912	0.599041	0.279946	0.446609	0.523010	0.082282	0.128009	0.326125	0.369674	0.093347	0.215265	0.425995	0.346696	0.072923	0.105445	0.580153	0.257821	0.125453	0.258619	0.189182	0.205020	0.093729	0.142508	0.346484	0.426800	0.288462	0.632115	0.130040	0.367771	0.085697	0.078934	0.761018	0.619684	0.206532	0.419057	0.523516	0.266956
76	0.253053	0.116380	0.614173	0.411480	0.297087	0.131193	0.232882	0.061351	0.067732	0.067265	0.302231	0.787329	0.092957	0.178028	0.147229	0.361905	0.077831	0.097460	0.290695	0.781613	0.067615	0.059407	0.306286	0.123303	0.057270	0.062846	0.178606	0.265317	0.043868	0.143847	0.089184	0.214926	0.078552	0.089458	0.448451	0.393403	0.083598	0.211754	0.075664	0.080586	0.113502	0.105752	0.591938	0.289240	0.656555	0.297880	0.466015	0.485247	0.105501	0.192282	0.271446	0.274645	0.100134	0.224889	0.403700	0.345698	0.071269	0.100543	0.473438	0.266016	0.119305	0.253401	0.187766	0.262287	0.094938	0.142949	0.362810	0.445070	0.200450	0.424288	0.141565	0.375800	0.087269	0.079272	0.764994	0.607876	0.185871	0.367316	0.522451	0.260995
77	0.265903	0.123723	0.573879	0.366061	0.300140	0.175003	0.231744	0.066007	0.064165	0.060238	0.364067	0.798950	0.111545	0.223044	0.149395	0.297181	0.077880	0.097226	0.283482	0.792860	0.072426	0.063072	0.347775	0.122717	0.059828	0.059495	0.185351	0.262118	0.047958	0.115999	0.085816	0.214895	0.073991	0.085227	0.437580	0.381197	0.078162	0.195079	0.105895	0.104976	0.105718	0.096086	0.574299	0.333328	0.667973	0.294555	0.507480	0.501989	0.221063	0.506049	0.285349	0.297426	0.157788	0.422650	0.323907	0.343249	0.072865	0.087354	0.434027	0.271344	0.114093	0.249792	0.207058	0.272829	0.089598	0.123321	0.411960	0.449740	0.068975	0.190737	0.171592	0.374864	0.082680	0.068612	0.717174	0.613331	0.116901	0.219583	0.427469	0.257676
78	0.275441	0.137384	0.560724	0.283095	0.305026	0.230022	0.217434	0.104720	0.049777	0.047840	0.382810	0.825754	0.125579	0.247090	0.133358	0.229424	0.085106	0.099881	0.292902	0.786978	0.072638	0.061894	0.374040	0.121955	0.068359	0.057231	0.187603	0.248141	0.051800	0.105820	0.084326	0.213797	0.053165	0.066636	0.455102	0.378235	0.078317	0.195352	0.148415	0.109899	0.089229	0.078347	0.577733	0.328002	0.669602	0.305224	0.523585	0.551847	0.246238	0.592685	0.278030	0.285358	0.187463	0.587550	0.280338	0.336029	0.073697	0.076184	0.429163	0.278071	0.112859	0.251306	0.199949	0.276171	0.080433	0.092300	0.433307	0.470614	0.062718	0.169235	0.172790	0.378643	0.071659	0.063748	0.649051	0.573409	0.079061	0.161548	0.274092	0.257606
79	0.285407	0.147658	0.552572	0.292410	0.306236	0.250222	0.232624	0.116812	0.040847	0.042322	0.377401	0.889430	0.126592	0.251114	0.102739	0.197788	0.079720	0.089130	0.282901	0.751088	0.095660	0.081720	0.387380	0.122496	0.076232	0.056807	0.185200	0.218108	0.058855	0.108310	0.079302	0.212329	0.057839	0.062412	0.460837	0.376521	0.078734	0.194290	0.166395	0.107982	0.081757	0.068848	0.571281	0.356707	0.722880	0.326291	0.520085	0.564938	0.397768	0.865997	0.304694	0.288798	0.212407	0.644288	0.315741	0.314563	0.071848	0.075380	0.459758	0.297272	0.113745	0.251503	0.224345	0.293711	0.078355	0.078322	0.429301	0.466218	0.065572	0.169071	0.187019	0.378715	0.076957	0.067728	0.613561	0.517653	0.080975	0.166331	0.244042	0.258719
80	0.282351	0.149201	0.568028	0.227188	0.313383	0.319208	0.274729	0.117115	0.052013	0.048912	0.375429	0.971484	0.127599	0.257627	0.102131	0.192774	0.067443	0.071514	0.343540	0.726250	0.151691	0.177010	0.384564	0.127704	0.084066	0.056523	0.184792	0.211670	0.062180	0.108237	0.065207	0.209152	0.068824	0.059805	0.470363	0.434886	0.081637	0.191233	0.169069	0.104585	0.078102	0.067120	0.549779	0.344216	0.756756	0.331811	0.463084	0.557641	0.439612	0.940978	0.311399	0.299869	0.325873	0.853762	0.325668	0.242324	0.072537	0.075790	0.515637	0.318742	0.115994	0.252964	0.236835	0.317495	0.076021	0.075093	0.426517	0.470131	0.071336	0.164475	0.189324	0.358741	0.076200	0.067550	0.586184	0.470217	0.080947	0.161937	0.246514	0.269946
81	0.280794	0.149304	0.562634	0.230334	0.303520	0.350465	0.278146	0.122993	0.053916	0.049617	0.375201	1.018442	0.125750	0.254524	0.095986	0.191886	0.064129	0.059163	0.396119	0.724786	0.206917	0.292484	0.386333	0.134373	0.085906	0.055907	0.184264	0.254219	0.062278	0.114084	0.060134	0.201159	0.071401	0.061007	0.469890	0.532964	0.074289	0.170569	0.171294	0.104552	0.078520	0.069234	0.547298	0.331462	0.750014	0.323747	0.444813	0.547977	0.444708	0.952122	0.305073	0.284278	0.345732	0.879504	0.335668	0.217220	0.064851	0.068612	0.550220	0.309754	0.115241	0.240714	0.239989	0.348075	0.082149	0.077255	0.411267	0.489620	0.074707	0.160598	0.215007	0.278417	0.077818	0.065681	0.559855	0.398574	0.080985	0.157761	0.245016	0.297819
82	0.276328	0.148280	0.622534	0.299506	0.287629	0.352376	0.285063	0.126565	0.053147	0.047692	0.383100	1.029334	0.123282	0.254542	0.096264	0.194173	0.065439	0.059185	0.611590	0.716207	0.217783	0.317505	0.414535	0.135038	0.086454	0.056185	0.182736	0.367659	0.062273	0.116070	0.060349	0.184278	0.076934	0.068817	0.485710	0.563471	0.070357	0.159110	0.174836	0.107223	0.078540	0.069141	0.433442	0.321659	0.746189	0.327164	0.462636	0.539689	0.445159	0.952980	0.459999	0.300395	0.349188	0.883272	0.334769	0.219206	0.049394	0.052507	0.550023	0.311400	0.102492	0.194317	0.245049	0.375569	0.082656	0.072892	0.401725	0.529173	0.072447	0.148355	0.222485	0.244054	0.080324	0.068413	0.531950	0.367505	0.086436	0.162806	0.246065	0.325738
83	0.248276	0.140416	0.618016	0.308966	0.284196	0.363506	0.316213	0.133953	0.051260	0.042179	0.393707	0.975253	0.123161	0.256503	0.095365	0.192028	0.065106	0.054190	0.636902	0.716512	0.232295	0.345266	0.423981	0.134730	0.107520	0.062262	0.175713	0.430149	0.066395	0.114272	0.060878	0.154827	0.093787	0.082199	0.475802	0.541962	0.070189	0.157563	0.175152	0.116912	0.075839	0.068639	0.291315	0.323418	0.762906	0.366429	0.480797	0.540378	0.442355	0.950308	0.595345	0.303804	0.349682	0.883241	0.318495	0.203758	0.051033	0.055853	0.498337	0.370578	0.095520	0.171377	0.244751	0.395741	0.083984	0.067435	0.405249	0.553639	0.064139	0.097053	0.220051	0.244189	0.077868	0.066302	0.584989	0.368341	0.087013	0.161840	0.249695	0.320335
84	0.233588	0.151647	0.665320	0.369910	0.235610	0.366106	0.341358	0.147453	0.072648	0.058092	0.391482	0.842049	0.117741	0.247968	0.096975	0.177759	0.064229	0.052919	0.680769	0.640247	0.307042	0.452282	0.425021	0.134789	0.113957	0.064567	0.184710	0.457631	0.066942	0.111548	0.052860	0.128473	0.094138	0.082438	0.482608	0.514064	0.070711	0.156332	0.178902	0.208859	0.068699	0.064434	0.293711	0.310257	0.792725	0.409787	0.461194	0.534742	0.440595	0.948718	0.603090	0.303532	0.351731	0.878950	0.310123	0.181595	0.050255	0.058335	0.425207	0.444820	0.095356	0.151835	0.260820	0.399680	0.080548	0.059719	0.407391	0.569270	0.063750	0.091203	0.222537	0.241039	0.076017	0.055022	0.605984	0.326475	0.087063	0.161834	0.251961	0.300659
85	0.236291	0.166684	0.713174	0.492851	0.184828	0.379764	0.342631	0.148013	0.088899	0.100847	0.386273	0.721559	0.116389	0.242894	0.101876	0.148239	0.060110	0.048905	0.705715	0.395853	0.338441	0.500359	0.425484	0.137655	0.120774	0.072097	0.257857	0.481256	0.068270	0.113873	0.037458	0.089453	0.097869	0.083636	0.494422	0.505587	0.071902	0.156095	0.197438	0.258177	0.042856	0.054012	0.238359	0.342038	0.841550	0.441067	0.447073	0.466736	0.438361	0.945356	0.627953	0.295979	0.349356	0.871922	0.310874	0.175739	0.051663	0.060014	0.417826	0.510460	0.099103	0.143964	0.277427	0.395725	0.080641	0.058082	0.365390	0.578987	0.062248	0.090719	0.224019	0.224562	0.074470	0.055372	0.584526	0.283697	0.108954	0.210425	0.249894	0.282199
86	0.205989	0.174783	0.715370	0.500141	0.178811	0.379393	0.339234	0.149284	0.091153	0.136994	0.477367	0.732725	0.116629	0.243796	0.103663	0.109028	0.058241	0.046883	0.705647	0.319148	0.340993	0.508157	0.397619	0.135903	0.130118	0.081556	0.400795	0.536388	0.076311	0.098243	0.035052	0.067284	0.099031	0.085598	0.528548	0.484177	0.069611	0.148328	0.215837	0.263262	0.034640	0.053811	0.217304	0.405541	0.870235	0.451724	0.446676	0.410124	0.403382	0.852032	0.613637	0.282592	0.348955	0.870480	0.316038	0.162371	0.050029	0.053653	0.431711	0.512857	0.100928	0.143798	0.295958	0.398659	0.080961	0.058107	0.340302	0.578849	0.061332	0.089278	0.208481	0.168735	0.073985	0.054063	0.566065	0.275843	0.192052	0.421689	0.246233	0.278309
87	0.178984	0.177447	0.706282	0.495030	0.178908	0.379542	0.330154	0.150261	0.093472	0.142632	0.471006	0.764647	0.116069	0.241466	0.104649	0.079649	0.059022	0.047739	0.699545	0.318903	0.341005	0.509680	0.399452	0.116055	0.139394	0.089450	0.413927	0.605791	0.093027	0.089019	0.036338	0.064292	0.100264	0.087610	0.490666	0.489932	0.063013	0.125922	0.225632	0.267612	0.043323	0.057872	0.302427	0.544724	0.877237	0.454031	0.421693	0.398444	0.377667	0.753869	0.609666	0.277248	0.345419	0.863470	0.313127	0.163255	0.064777	0.057120	0.459737	0.507047	0.093227	0.130843	0.334485	0.410865	0.079039	0.057972	0.337918	0.570379	0.058883	0.084101	0.208774	0.114241	0.087032	0.065576	0.479804	0.269711	0.220917	0.490220	0.249628	0.270983
88	0.166895	0.171886	0.704771	0.498747	0.178366	0.372949	0.326553	0.155181	0.104033	0.159968	0.456823	0.741344	0.116008	0.231875	0.104137	0.088395	0.057273	0.048475	0.695327	0.304770	0.340560	0.510188	0.422329	0.099258	0.138100	0.087322	0.430668	0.613989	0.107954	0.089517	0.041831	0.063669	0.101775	0.087839	0.488315	0.485476	0.056269	0.110012	0.235223	0.299136	0.050282	0.062912	0.414351	0.548890	0.895720	0.460726	0.408453	0.397726	0.274690	0.539390	0.598280	0.272944	0.344927	0.862134	0.305999	0.181442	0.081971	0.060757	0.505955	0.538207	0.074582	0.091014	0.334240	0.420376	0.078938	0.054301	0.282024	0.535529	0.058836	0.081359	0.189134	0.095624	0.082417	0.062638	0.437218	0.270552	0.230907	0.530760	0.252900	0.248213
89	0.145831	0.163384	0.718274	0.489089	0.177801	0.353857	0.327812	0.171952	0.110967	0.171963	0.463152	0.687419	0.120492	0.233269	0.095042	0.098724	0.079612	0.072331	0.688439	0.321804	0.337785	0.509768	0.420350	0.098688	0.137371	0.086850	0.522477	0.686990	0.118096	0.089029	0.044289	0.057256	0.102471	0.086803	0.494350	0.492138	0.056349	0.097599	0.248517	0.340480	0.052940	0.062783	0.431314	0.527884	0.880634	0.443524	0.397845	0.389950	0.110347	0.220234	0.598013	0.244224	0.355808	0.876603	0.305294	0.211985	0.099635	0.062122	0.509647	0.572771	0.073398	0.078697	0.326836	0.403935	0.077170	0.053576	0.202841	0.497561	0.053606	0.073929	0.182760	0.085136	0.091331	0.063037	0.453877	0.276494	0.270545	0.610781	0.251993	0.241269
90	0.137018	0.159718	0.869864	0.488744	0.209208	0.435201	0.334736	0.181119	0.108016	0.172302	0.502152	0.560070	0.125145	0.236159	0.093132	0.095550	0.083799	0.077443	0.696882	0.321867	0.335625	0.508984	0.392918	0.104387	0.134264	0.085840	0.559525	0.791484	0.120664	0.087926	0.042886	0.050244	0.103277	0.087583	0.485345	0.537775	0.050954	0.065170	0.267078	0.410549	0.053267	0.064022	0.546206	0.532114	0.828877	0.420710	0.350024	0.351233	0.082663	0.143476	0.597244	0.286493	0.373434	0.886373	0.308438	0.223110	0.103295	0.063517	0.536482	0.619160	0.073096	0.078829	0.313284	0.397436	0.079458	0.060378	0.245900	0.489391	0.050129	0.065299	0.174779	0.071738	0.092660	0.063767	0.478448	0.286128	0.290532	0.653050	0.214336	0.241770
91	0.137308	0.165828	0.915567	0.490314	0.198306	0.464283	0.309876	0.194662	0.106736	0.171805	0.549938	0.459710	0.118230	0.213365	0.093968	0.094771	0.085666	0.083639	0.646154	0.297280	0.336349	0.509552	0.364103	0.120985	0.133659	0.088387	0.558982	0.846293	0.121810	0.084589	0.042421	0.057231	0.109677	0.089460	0.525701	0.593527	0.049614	0.065465	0.278921	0.457992	0.057299	0.063577	0.580139	0.514326	0.815918	0.421369	0.291369	0.262497	0.094463	0.143579	0.540005	0.265552	0.368229	0.782247	0.313933	0.216454	0.128402	0.091079	0.500842	0.611494	0.072429	0.073400	0.312318	0.412112	0.081392	0.062385	0.274243	0.487760	0.042483	0.052073	0.159363	0.070726	0.084052	0.058870	0.475937	0.288043	0.293260	0.661132	0.211656	0.242048
92	0.149195	0.185354	0.961864	0.477698	0.179246	0.464937	0.282484	0.211165	0.112921	0.173190	0.551543	0.411349	0.096424	0.166208	0.091671	0.094380	0.090548	0.082280	0.560316	0.276033	0.335159	0.510109	0.341501	0.137363	0.131866	0.091209	0.586286	0.874843	0.157330	0.089850	0.042945	0.070176	0.104601	0.081696	0.569667	0.609634	0.043602	0.051887	0.275117	0.472377	0.059750	0.071926	0.584440	0.555594	0.806179	0.414542	0.277275	0.163683	0.102889	0.143408	0.303117	0.284647	0.364817	0.745523	0.284202	0.205069	0.135163	0.096676	0.435946	0.626827	0.071182	0.069950	0.292693	0.414671	0.077513	0.058111	0.274351	0.445726	0.035187	0.042320	0.139560	0.059310	0.082756	0.058267	0.375940	0.307819	0.293438	0.658424	0.179612	0.245679
93	0.150253	0.188709	1.115981	0.462238	0.203815	0.537778	0.281933	0.208522	0.114850	0.173702	0.561928	0.409173	0.094641	0.165095	0.088437	0.094435	0.090780	0.080306	0.443145	0.310394	0.323138	0.500992	0.333367	0.143940	0.127565	0.091138	0.626216	0.881182	0.191893	0.091773	0.045825	0.073508	0.104663	0.082343	0.567932	0.557778	0.047288	0.048449	0.284890	0.475019	0.071207	0.081295	0.582619	0.635695	0.765750	0.407129	0.254412	0.114922	0.106043	0.142173	0.295983	0.291137	0.303581	0.549517	0.264174	0.196994	0.140723	0.099559	0.401301	0.638229	0.067768	0.064016	0.285181	0.404868	0.067862	0.051325	0.270337	0.358507	0.033406	0.039414	0.109748	0.044506	0.080809	0.059965	0.310865	0.402916	0.293718	0.657133	0.150560	0.247745
94	0.137030	0.179316	1.148358	0.503945	0.201873	0.534202	0.259289	0.213236	0.105948	0.171009	0.559134	0.408273	0.089882	0.163728	0.087890	0.094857	0.090938	0.085140	0.450796	0.334334	0.290795	0.454124	0.331341	0.135747	0.127137	0.090953	0.633285	0.860718	0.195305	0.091874	0.047332	0.072597	0.111568	0.089553	0.591462	0.493559	0.051032	0.048745	0.290183	0.474910	0.080149	0.087933	0.584107	0.727591	0.761751	0.415857	0.253085	0.098113	0.104916	0.136853	0.235238	0.291979	0.236981	0.381892	0.214994	0.192390	0.146854	0.102610	0.414215	0.630094	0.064059	0.062482	0.288419	0.384953	0.061665	0.047776	0.313712	0.282862	0.033287	0.038228	0.102681	0.042255	0.081463	0.061811	0.330889	0.382470	0.294079	0.657146	0.172719	0.218240
95	0.120832	0.160751	1.124146	0.495643	0.200260	0.530827	0.242870	0.211816	0.087339	0.155567	0.597383	0.411813	0.089730	0.161569	0.086188	0.102126	0.093866	0.099105	0.362245	0.348718	0.269045	0.412553	0.304190	0.127979	0.123240	0.087194	0.641151	0.805572	0.198298	0.083788	0.046608	0.072042	0.113550	0.088927	0.648314	0.466877	0.052245	0.047914	0.297373	0.473899	0.081098	0.088112	0.638234	0.837515	0.819968	0.449850	0.233329	0.096508	0.102371	0.133892	0.210449	0.286250	0.230995	0.370784	0.201229	0.189206	0.152215	0.106586	0.508216	0.604772	0.063944	0.062280	0.284641	0.361384	0.054546	0.044488	0.375977	0.288251	0.026771	0.028633	0.099987	0.060733	0.082844	0.064867	0.309100	0.420460	0.293289	0.656986	0.215066	0.169062
96	0.112368	0.149133	1.114394	0.518727	0.198416	0.517883	0.222391	0.208971	0.082837	0.126616	0.543172	0.391085	0.099279	0.182026	0.089343	0.119852	0.097974	0.113038	0.355528	0.347986	0.266776	0.408110	0.275406	0.127852	0.105898	0.082258	0.705011	0.772693	0.199621	0.089007	0.048841	0.078078	0.105074	0.080279	0.689021	0.490312	0.052727	0.047916	0.304485	0.461867	0.082183	0.090760	0.726229	0.883923	0.832654	0.458760	0.181442	0.085605	0.093608	0.123008	0.214745	0.273452	0.260827	0.378551	0.184524	0.187805	0.152003	0.106348	0.638138	0.594881	0.061426	0.059317	0.285604	0.337691	0.058440	0.050256	0.377001	0.290491	0.028239	0.027184	0.095679	0.077276	0.076776	0.060555	0.296851	0.438948	0.292776	0.656292	0.221214	0.141500
97	0.102680	0.132138	1.116895	0.541634	0.197653	0.512970	0.228027	0.214245	0.086580	0.132325	0.486063	0.304542	0.098898	0.185462	0.090819	0.128288	0.097453	0.116897	0.343155	0.416921	0.216888	0.333235	0.274265	0.131402	0.103945	0.081400	0.779680	0.760121	0.219667	0.115637	0.066922	0.089365	0.106206	0.086127	0.704431	0.547686	0.050798	0.047148	0.304079	0.434180	0.082902	0.089945	0.738347	0.869189	0.813321	0.443171	0.152581	0.068416	0.096489	0.118902	0.237801	0.283795	0.298489	0.382552	0.168972	0.193640	0.151031	0.105876	0.639061	0.590945	0.061291	0.059354	0.272390	0.330465	0.058857	0.050401	0.374440	0.291063	0.030165	0.027614	0.093619	0.089992	0.081332	0.055673	0.361545	0.434912	0.294134	0.658073	0.233294	0.140295
98	0.103919	0.129188	1.134858	0.546941	0.197488	0.512963	0.220494	0.216299	0.092666	0.121308	0.476963	0.244455	0.097581	0.182135	0.110820	0.130659	0.098043	0.121149	0.363384	0.556946	0.097926	0.178404	0.261136	0.135318	0.099969	0.075484	0.740461	0.744419	0.272605	0.152524	0.077232	0.093170	0.113065	0.101225	0.700613	0.571521	0.049635	0.046736	0.318038	0.436616	0.081574	0.089171	0.732346	0.830941	0.766349	0.422476	0.098234	0.080109	0.104396	0.117802	0.239797	0.284981	0.302435	0.383393	0.154659	0.195988	0.150086	0.105418	0.639351	0.605495	0.056632	0.072168	0.251408	0.328544	0.064901	0.052677	0.389327	0.295064	0.032635	0.029688	0.120036	0.090680	0.084512	0.061966	0.359206	0.460751	0.293839	0.657951	0.299924	0.141122
99	0.099298	0.125744	1.146399	0.649213	0.196787	0.512794	0.241522	0.216093	0.082201	0.100422	0.496979	0.239108	0.091684	0.167863	0.141851	0.139737	0.086614	0.115387	0.403490	0.614463	0.053086	0.115901	0.251578	0.144953	0.085771	0.063030	0.719569	0.698968	0.331246	0.176556	0.079723	0.094839	0.128840	0.116906	0.672819	0.623406	0.049921	0.047599	0.324631	0.443243	0.075613	0.089264	0.694605	0.764954	0.759874	0.415136	0.068282	0.112475	0.103367	0.109846	0.269569	0.244229	0.302825	0.383515	0.146015	0.199163	0.142975	0.101860	0.638115	0.598302	0.052824	0.086665	0.232442	0.322992	0.068900	0.053134	0.397283	0.303347	0.034601	0.029464	0.127332	0.097977	0.086308	0.065512	0.331510	0.500429	0.266353	0.594775	0.439392	0.139506
100	0.094915	0.125394	1.118133	0.850094	0.195547	0.512447	0.275104	0.204231	0.095317	0.098436	0.517309	0.245060	0.089760	0.163650	0.148012	0.187924	0.093147	0.117332	0.496369	0.636305	0.051958	0.100760	0.244922	0.150049	0.074347	0.053862	0.771927	0.652236	0.385917	0.198659	0.080138	0.095389	0.145587	0.127951	0.670425	0.677781	0.050204	0.052504	0.325394	0.434407	0.075456	0.094119	0.656852	0.769194	0.739497	0.411816	0.069363	0.124374	0.089330	0.093079	0.291023	0.222805	0.303534	0.385469	0.127145	0.194793	0.136056	0.102403	0.629204	0.563594	0.048245	0.088259	0.166897	0.297496	0.069987	0.053105	0.403409	0.290065	0.042713	0.031332	0.120884	0.103180	0.096672	0.069315	0.352248	0.501446	0.218443	0.478532	0.457920	0.171309
101	0.092645	0.120461	1.009696	0.892400	0.167985	0.473176	0.286254	0.171899	0.163831	0.121452	0.449175	0.295659	0.090196	0.163966	0.147132	0.214593	0.107299	0.120767	0.512976	0.645955	0.051935	0.098286	0.184361	0.150607	0.073414	0.053095	0.776269	0.648900	0.409311	0.208344	0.079807	0.100990	0.163849	0.134957	0.647075	0.691179	0.059536	0.110705	0.316494	0.408932	0.077479	0.098552	0.647232	0.771959	0.725857	0.406984	0.080638	0.124778	0.076989	0.079098	0.338536	0.211829	0.304564	0.387308	0.116588	0.182766	0.126235	0.103383	0.676487	0.524501	0.042845	0.099922	0.132219	0.244183	0.060726	0.046152	0.391962	0.275147	0.043856	0.032528	0.116754	0.103910	0.115161	0.078237	0.392672	0.502082	0.212764	0.462105	0.455747	0.223869
