	303_At_T1_sh_ND_01.c3d	303_At_T1_sh_ND_01.c3d	303_At_T1_sh_ND_01.c3d	303_At_T1_sh_ND_01.c3d	303_At_T1_sh_ND_01.c3d	303_At_T1_sh_ND_01.c3d	303_At_T1_sh_ND_01.c3d	303_At_T1_sh_ND_01.c3d	303_At_T1_sh_ND_02.c3d	303_At_T1_sh_ND_02.c3d	303_At_T1_sh_ND_02.c3d	303_At_T1_sh_ND_02.c3d	303_At_T1_sh_ND_02.c3d	303_At_T1_sh_ND_02.c3d	303_At_T1_sh_ND_02.c3d	303_At_T1_sh_ND_02.c3d	303_At_T1_sh_ND_03.c3d	303_At_T1_sh_ND_03.c3d	303_At_T1_sh_ND_03.c3d	303_At_T1_sh_ND_03.c3d	303_At_T1_sh_ND_03.c3d	303_At_T1_sh_ND_03.c3d	303_At_T1_sh_ND_03.c3d	303_At_T1_sh_ND_03.c3d	303_At_T1_sh_ND_04.c3d	303_At_T1_sh_ND_04.c3d	303_At_T1_sh_ND_04.c3d	303_At_T1_sh_ND_04.c3d	303_At_T1_sh_ND_04.c3d	303_At_T1_sh_ND_04.c3d	303_At_T1_sh_ND_04.c3d	303_At_T1_sh_ND_04.c3d	303_At_T1_sh_ND_05.c3d	303_At_T1_sh_ND_05.c3d	303_At_T1_sh_ND_05.c3d	303_At_T1_sh_ND_05.c3d	303_At_T1_sh_ND_05.c3d	303_At_T1_sh_ND_05.c3d	303_At_T1_sh_ND_05.c3d	303_At_T1_sh_ND_05.c3d	303_At_T1_sh_ND_06.c3d	303_At_T1_sh_ND_06.c3d	303_At_T1_sh_ND_06.c3d	303_At_T1_sh_ND_06.c3d	303_At_T1_sh_ND_06.c3d	303_At_T1_sh_ND_06.c3d	303_At_T1_sh_ND_06.c3d	303_At_T1_sh_ND_06.c3d	303_At_T1_sh_ND_07.c3d	303_At_T1_sh_ND_07.c3d	303_At_T1_sh_ND_07.c3d	303_At_T1_sh_ND_07.c3d	303_At_T1_sh_ND_07.c3d	303_At_T1_sh_ND_07.c3d	303_At_T1_sh_ND_07.c3d	303_At_T1_sh_ND_07.c3d	303_At_T1_sh_ND_08.c3d	303_At_T1_sh_ND_08.c3d	303_At_T1_sh_ND_08.c3d	303_At_T1_sh_ND_08.c3d	303_At_T1_sh_ND_08.c3d	303_At_T1_sh_ND_08.c3d	303_At_T1_sh_ND_08.c3d	303_At_T1_sh_ND_08.c3d	303_At_T1_sh_ND_09.c3d	303_At_T1_sh_ND_09.c3d	303_At_T1_sh_ND_09.c3d	303_At_T1_sh_ND_09.c3d	303_At_T1_sh_ND_09.c3d	303_At_T1_sh_ND_09.c3d	303_At_T1_sh_ND_09.c3d	303_At_T1_sh_ND_09.c3d	303_At_T1_sh_ND_10.c3d	303_At_T1_sh_ND_10.c3d	303_At_T1_sh_ND_10.c3d	303_At_T1_sh_ND_10.c3d	303_At_T1_sh_ND_10.c3d	303_At_T1_sh_ND_10.c3d	303_At_T1_sh_ND_10.c3d	303_At_T1_sh_ND_10.c3d
	Biceps femoris_lat	Semitendinosus_lat	Vastus lateralis_lat	Vastus medialis_lat	Biceps femoris_med	Semitendinosus_med	Vastus lateralis_med	Vastus medialis_med	Biceps femoris_lat	Semitendinosus_lat	Vastus lateralis_lat	Vastus medialis_lat	Biceps femoris_med	Semitendinosus_med	Vastus lateralis_med	Vastus medialis_med	Biceps femoris_lat	Semitendinosus_lat	Vastus lateralis_lat	Vastus medialis_lat	Biceps femoris_med	Semitendinosus_med	Vastus lateralis_med	Vastus medialis_med	Biceps femoris_lat	Semitendinosus_lat	Vastus lateralis_lat	Vastus medialis_lat	Biceps femoris_med	Semitendinosus_med	Vastus lateralis_med	Vastus medialis_med	Biceps femoris_lat	Semitendinosus_lat	Vastus lateralis_lat	Vastus medialis_lat	Biceps femoris_med	Semitendinosus_med	Vastus lateralis_med	Vastus medialis_med	Biceps femoris_lat	Semitendinosus_lat	Vastus lateralis_lat	Vastus medialis_lat	Biceps femoris_med	Semitendinosus_med	Vastus lateralis_med	Vastus medialis_med	Biceps femoris_lat	Semitendinosus_lat	Vastus lateralis_lat	Vastus medialis_lat	Biceps femoris_med	Semitendinosus_med	Vastus lateralis_med	Vastus medialis_med	Biceps femoris_lat	Semitendinosus_lat	Vastus lateralis_lat	Vastus medialis_lat	Biceps femoris_med	Semitendinosus_med	Vastus lateralis_med	Vastus medialis_med	Biceps femoris_lat	Semitendinosus_lat	Vastus lateralis_lat	Vastus medialis_lat	Biceps femoris_med	Semitendinosus_med	Vastus lateralis_med	Vastus medialis_med	Biceps femoris_lat	Semitendinosus_lat	Vastus lateralis_lat	Vastus medialis_lat	Biceps femoris_med	Semitendinosus_med	Vastus lateralis_med	Vastus medialis_med
	P2D	P2D	P2D	P2D	P2D	P2D	P2D	P2D	P2D	P2D	P2D	P2D	P2D	P2D	P2D	P2D	P2D	P2D	P2D	P2D	P2D	P2D	P2D	P2D	P2D	P2D	P2D	P2D	P2D	P2D	P2D	P2D	P2D	P2D	P2D	P2D	P2D	P2D	P2D	P2D	P2D	P2D	P2D	P2D	P2D	P2D	P2D	P2D	P2D	P2D	P2D	P2D	P2D	P2D	P2D	P2D	P2D	P2D	P2D	P2D	P2D	P2D	P2D	P2D	P2D	P2D	P2D	P2D	P2D	P2D	P2D	P2D	P2D	P2D	P2D	P2D	P2D	P2D	P2D	P2D
	EMG_lat	EMG_lat	EMG_lat	EMG_lat	EMG_med	EMG_med	EMG_med	EMG_med	EMG_lat	EMG_lat	EMG_lat	EMG_lat	EMG_med	EMG_med	EMG_med	EMG_med	EMG_lat	EMG_lat	EMG_lat	EMG_lat	EMG_med	EMG_med	EMG_med	EMG_med	EMG_lat	EMG_lat	EMG_lat	EMG_lat	EMG_med	EMG_med	EMG_med	EMG_med	EMG_lat	EMG_lat	EMG_lat	EMG_lat	EMG_med	EMG_med	EMG_med	EMG_med	EMG_lat	EMG_lat	EMG_lat	EMG_lat	EMG_med	EMG_med	EMG_med	EMG_med	EMG_lat	EMG_lat	EMG_lat	EMG_lat	EMG_med	EMG_med	EMG_med	EMG_med	EMG_lat	EMG_lat	EMG_lat	EMG_lat	EMG_med	EMG_med	EMG_med	EMG_med	EMG_lat	EMG_lat	EMG_lat	EMG_lat	EMG_med	EMG_med	EMG_med	EMG_med	EMG_lat	EMG_lat	EMG_lat	EMG_lat	EMG_med	EMG_med	EMG_med	EMG_med
ITEM	Y	Y	Y	Y	Y	Y	Y	Y	Y	Y	Y	Y	Y	Y	Y	Y	Y	Y	Y	Y	Y	Y	Y	Y	Y	Y	Y	Y	Y	Y	Y	Y	Y	Y	Y	Y	Y	Y	Y	Y	Y	Y	Y	Y	Y	Y	Y	Y	Y	Y	Y	Y	Y	Y	Y	Y	Y	Y	Y	Y	Y	Y	Y	Y	Y	Y	Y	Y	Y	Y	Y	Y	Y	Y	Y	Y	Y	Y	Y	Y
1	0.278928	0.113467	0.260301	0.268479	0.526811	0.528410	0.286241	0.148370	0.365336	0.202456	0.130672	0.201431	0.842798	0.582191	0.074922	0.103281	0.138338	0.312071	0.298676	0.226977	0.122367	0.296087	0.079618	0.074374	0.104008	0.217040	0.112053	0.125169	0.349950	0.630533	0.060336	0.064065	0.242592	0.114344	0.144365	0.128205	0.240473	0.375534	0.085947	0.130339	0.685359	0.340104	0.188281	0.110510	0.151982	0.245729	0.095514	0.103302	0.157618	0.191227	0.191664	0.107578	0.155358	0.449167	0.182802	0.111765	0.288142	0.584332	0.125890	0.093917	0.171951	0.315789	0.105943	0.170805	0.190465	0.099388	0.259806	0.304882	0.172845	0.225974	0.123045	0.122959	0.138898	0.098692	0.104703	0.182488	0.118672	0.143477	0.138245	0.155575
2	0.279774	0.123746	0.268551	0.268078	0.387255	0.359942	0.275424	0.145354	0.448220	0.202896	0.129035	0.220300	0.835815	0.571190	0.074201	0.150787	0.136940	0.312542	0.313002	0.233870	0.120579	0.297033	0.079868	0.085710	0.103921	0.205835	0.118972	0.121751	0.342362	0.619723	0.052890	0.071073	0.206434	0.085491	0.145201	0.128970	0.208538	0.350993	0.076386	0.135999	0.688501	0.343075	0.188257	0.116530	0.218247	0.359861	0.102333	0.105902	0.144155	0.187359	0.187278	0.112274	0.148346	0.428326	0.182963	0.110951	0.256610	0.522656	0.110751	0.098349	0.146722	0.286224	0.103551	0.173285	0.169843	0.090910	0.259803	0.308850	0.120318	0.217795	0.122097	0.137597	0.142953	0.093283	0.106865	0.177196	0.122210	0.145147	0.106707	0.159046
3	0.274557	0.123637	0.269140	0.268086	0.392012	0.402776	0.299668	0.119729	0.451625	0.201352	0.126750	0.191599	0.706355	0.548333	0.073915	0.180606	0.136872	0.312260	0.314736	0.240699	0.117215	0.289437	0.085672	0.108699	0.092001	0.223553	0.109629	0.107818	0.322906	0.598387	0.040538	0.072235	0.131918	0.061279	0.150508	0.134684	0.183631	0.353097	0.064757	0.131309	0.688231	0.342931	0.189546	0.120312	0.272963	0.424144	0.112035	0.099917	0.143785	0.180489	0.201588	0.112238	0.150327	0.428242	0.183576	0.105993	0.247036	0.500600	0.089929	0.117800	0.148871	0.233355	0.108846	0.167559	0.139681	0.101098	0.247624	0.289748	0.117695	0.188156	0.107955	0.134291	0.135716	0.086576	0.106659	0.178071	0.125730	0.155757	0.086281	0.152979
4	0.272224	0.117073	0.269256	0.240780	0.601126	0.467009	0.311543	0.070885	0.451651	0.215304	0.144099	0.170831	0.565976	0.540818	0.065668	0.185041	0.136709	0.310512	0.314784	0.249694	0.118912	0.287328	0.239198	0.111342	0.094632	0.195278	0.095297	0.096955	0.329309	0.612899	0.036366	0.077732	0.130290	0.059477	0.165752	0.139838	0.184743	0.355679	0.056187	0.128957	0.688231	0.343134	0.191890	0.133560	0.278747	0.429951	0.112576	0.089723	0.142583	0.172716	0.197500	0.132482	0.149211	0.426261	0.184700	0.106389	0.268778	0.556281	0.101078	0.131584	0.149102	0.182071	0.111606	0.169574	0.125596	0.220387	0.191530	0.255529	0.106912	0.133526	0.096076	0.126692	0.129167	0.072642	0.220831	0.182015	0.122974	0.164105	0.085853	0.168225
5	0.148239	0.131393	0.235250	0.237314	0.652812	0.496689	0.313203	0.083631	0.452626	0.236149	0.209604	0.172174	0.522321	0.536915	0.055410	0.193667	0.136074	0.301964	0.314864	0.256579	0.102976	0.286562	0.330800	0.113229	0.095108	0.183589	0.090650	0.111132	0.329440	0.628455	0.036979	0.077780	0.118379	0.050106	0.176890	0.141887	0.189552	0.379789	0.082505	0.128174	0.686156	0.342440	0.192049	0.134829	0.285575	0.500142	0.170946	0.080598	0.137958	0.150077	0.196604	0.157712	0.138786	0.398637	0.195362	0.120297	0.269563	0.566097	0.107936	0.134121	0.134222	0.180038	0.108597	0.155168	0.111595	0.280688	0.188238	0.280162	0.118172	0.124505	0.105138	0.138015	0.081419	0.053784	0.238409	0.202697	0.121806	0.166877	0.084149	0.179528
6	0.115436	0.164592	0.227129	0.213538	0.739611	0.563478	0.310977	0.115560	0.443875	0.244231	0.213566	0.182594	0.475689	0.533491	0.054911	0.222896	0.134558	0.274145	0.314466	0.259308	0.096701	0.266305	0.344825	0.116495	0.094637	0.211332	0.116357	0.151853	0.326913	0.628613	0.038015	0.075567	0.114238	0.049125	0.182194	0.145928	0.190496	0.378962	0.194458	0.124655	0.685883	0.335122	0.185087	0.140133	0.287501	0.525578	0.207847	0.107552	0.142432	0.144844	0.194232	0.171599	0.123635	0.364299	0.214264	0.174152	0.288006	0.629656	0.111432	0.142723	0.135248	0.171576	0.200908	0.136665	0.135395	0.352298	0.196691	0.278330	0.131299	0.098120	0.112820	0.134139	0.070435	0.046765	0.324769	0.234964	0.121645	0.168019	0.085128	0.187100
7	0.192440	0.389150	0.205345	0.133955	0.778582	0.590456	0.310238	0.110927	0.402176	0.241942	0.234257	0.186103	0.459429	0.557427	0.050228	0.237992	0.129962	0.252085	0.312885	0.259405	0.097099	0.208159	0.347518	0.133133	0.096841	0.229709	0.185148	0.161630	0.321650	0.637514	0.038962	0.080837	0.107179	0.051907	0.237005	0.152516	0.205898	0.361483	0.237803	0.123697	0.687395	0.332018	0.165057	0.144186	0.287622	0.524860	0.208154	0.178089	0.104508	0.139112	0.187595	0.192840	0.122252	0.366859	0.237783	0.204349	0.312402	0.752092	0.241413	0.147877	0.157125	0.140275	0.336295	0.193674	0.177452	0.420872	0.203019	0.250973	0.128958	0.116395	0.113788	0.121110	0.079066	0.044674	0.376963	0.216294	0.115799	0.157970	0.101444	0.187113
8	0.221863	0.492641	0.148723	0.167002	0.779136	0.554245	0.313918	0.124499	0.359445	0.242094	0.249439	0.192093	0.460684	0.571086	0.046296	0.238482	0.129568	0.258086	0.308966	0.255380	0.101021	0.212017	0.367869	0.151859	0.096190	0.238948	0.187330	0.151951	0.322854	0.627515	0.102723	0.081346	0.076314	0.049096	0.242945	0.153724	0.236568	0.366261	0.243318	0.126436	0.682827	0.332606	0.176204	0.147024	0.290084	0.524136	0.231981	0.217078	0.085457	0.126080	0.201425	0.209409	0.122460	0.359511	0.245060	0.207635	0.287236	0.731424	0.260022	0.147665	0.158520	0.108810	0.429175	0.233142	0.186090	0.427646	0.186245	0.242427	0.140871	0.127486	0.130597	0.116160	0.074078	0.038545	0.378544	0.196654	0.084972	0.123105	0.111245	0.186600
9	0.263480	0.621975	0.243792	0.202633	0.822442	0.549443	0.321788	0.153285	0.352671	0.241222	0.258368	0.195491	0.431231	0.519919	0.041016	0.235864	0.160479	0.289589	0.262366	0.241539	0.101892	0.226448	0.396485	0.161946	0.091220	0.237725	0.198653	0.169854	0.312695	0.546458	0.209145	0.088924	0.074434	0.047308	0.248163	0.158609	0.255525	0.375774	0.242723	0.143925	0.664124	0.330767	0.177308	0.147401	0.300592	0.523414	0.255219	0.264283	0.077747	0.118116	0.169450	0.211912	0.134078	0.347605	0.230111	0.210424	0.261139	0.679752	0.278547	0.144507	0.156631	0.088807	0.449615	0.233281	0.182423	0.428238	0.161386	0.240416	0.158064	0.120193	0.202386	0.115914	0.067476	0.029152	0.375827	0.228748	0.065876	0.110310	0.118446	0.193101
10	0.323688	0.738626	0.277976	0.204737	0.834571	0.543459	0.315526	0.166836	0.352864	0.236994	0.264330	0.202468	0.334102	0.434682	0.042212	0.232767	0.217834	0.381477	0.241494	0.260177	0.096380	0.228580	0.410717	0.167398	0.087065	0.238339	0.212629	0.180712	0.283195	0.482308	0.271446	0.110474	0.061399	0.049279	0.245515	0.159387	0.255068	0.371176	0.242834	0.152895	0.617391	0.313899	0.183327	0.157105	0.322319	0.532953	0.259248	0.309669	0.078450	0.114231	0.165003	0.209164	0.169728	0.347956	0.260221	0.228960	0.253146	0.658809	0.299365	0.131879	0.157469	0.087760	0.477908	0.252043	0.181726	0.428420	0.148366	0.238902	0.160129	0.118519	0.227606	0.127637	0.061718	0.038330	0.382023	0.280547	0.069078	0.107853	0.123978	0.222359
11	0.339462	0.752181	0.294316	0.214068	0.828394	0.550147	0.268323	0.168883	0.353419	0.216775	0.266287	0.224171	0.229387	0.398239	0.120079	0.247425	0.231424	0.397027	0.240500	0.283938	0.092742	0.228357	0.414136	0.187769	0.080899	0.223677	0.213956	0.179114	0.275020	0.477532	0.277420	0.138234	0.053190	0.048105	0.228187	0.162411	0.238920	0.341135	0.246321	0.151188	0.575062	0.281900	0.184191	0.195934	0.324484	0.543208	0.271058	0.310822	0.078032	0.114826	0.150057	0.213541	0.203079	0.350156	0.263638	0.234300	0.251417	0.642647	0.304169	0.148431	0.152976	0.089234	0.560279	0.274610	0.180681	0.428685	0.152545	0.232497	0.160191	0.118097	0.229553	0.159411	0.081403	0.066188	0.414056	0.296119	0.072044	0.109223	0.177471	0.221586
12	0.340679	0.753143	0.304744	0.215394	0.827548	0.534914	0.270137	0.168764	0.295567	0.176780	0.282326	0.212217	0.178661	0.367837	0.224576	0.301797	0.234043	0.424991	0.248957	0.282927	0.110933	0.240765	0.415015	0.208318	0.073631	0.215144	0.211473	0.179032	0.289082	0.510330	0.277515	0.151090	0.052248	0.049589	0.227615	0.160047	0.215974	0.312703	0.247479	0.156334	0.571435	0.272399	0.219699	0.237875	0.323825	0.546183	0.339984	0.323047	0.080501	0.106497	0.137517	0.221129	0.212522	0.350141	0.254800	0.231929	0.247665	0.635771	0.302120	0.159589	0.132769	0.083168	0.655784	0.292092	0.179830	0.428707	0.162426	0.224145	0.158222	0.110905	0.256417	0.186773	0.098942	0.087849	0.402232	0.294382	0.074300	0.112783	0.188312	0.219886
13	0.340551	0.752983	0.305512	0.215443	0.776647	0.471432	0.241153	0.202589	0.133779	0.164436	0.316049	0.201291	0.160688	0.364034	0.256271	0.348777	0.253982	0.499887	0.247339	0.272035	0.126496	0.289399	0.415308	0.228991	0.069404	0.181020	0.231218	0.179554	0.274643	0.499798	0.282832	0.150685	0.051611	0.049059	0.258531	0.154137	0.198648	0.285268	0.257561	0.150426	0.411575	0.229650	0.261562	0.242350	0.321877	0.548065	0.383407	0.337972	0.081218	0.107156	0.239740	0.240839	0.204547	0.317188	0.282517	0.224169	0.215819	0.591760	0.301225	0.153722	0.119813	0.079852	0.701603	0.311563	0.179202	0.425946	0.162956	0.222100	0.157318	0.110801	0.269951	0.180873	0.098779	0.090502	0.416707	0.279933	0.072370	0.113113	0.195924	0.244081
14	0.340663	0.749036	0.312195	0.223529	0.617959	0.407288	0.219731	0.258802	0.114000	0.166484	0.331282	0.200970	0.202887	0.401979	0.270025	0.359044	0.258572	0.507488	0.222735	0.272242	0.129033	0.301788	0.441073	0.264982	0.060710	0.178087	0.251681	0.181234	0.221673	0.464635	0.294877	0.154009	0.051363	0.048110	0.282309	0.136258	0.200896	0.285899	0.297050	0.146048	0.282578	0.156079	0.295134	0.236650	0.308618	0.526450	0.388957	0.350107	0.102100	0.120141	0.269973	0.266601	0.192677	0.257530	0.319434	0.225825	0.208004	0.563324	0.298483	0.154650	0.117854	0.079451	0.711905	0.330429	0.170841	0.386495	0.171021	0.203448	0.162180	0.114718	0.275293	0.176915	0.101538	0.090791	0.356487	0.267426	0.066755	0.114025	0.216512	0.274004
15	0.338104	0.743880	0.316002	0.244040	0.561913	0.372311	0.209515	0.266181	0.110254	0.150937	0.306579	0.203879	0.247620	0.445622	0.280779	0.353006	0.259330	0.508848	0.230248	0.278891	0.124422	0.303266	0.490099	0.327216	0.060542	0.166743	0.252130	0.164161	0.199565	0.443721	0.299107	0.174213	0.059342	0.050270	0.274579	0.132165	0.197827	0.276600	0.346724	0.147197	0.300985	0.150263	0.311498	0.233494	0.280501	0.466224	0.394223	0.373748	0.112676	0.111610	0.269943	0.249321	0.192131	0.251061	0.334427	0.237619	0.205416	0.551539	0.298297	0.172635	0.115021	0.078281	0.712483	0.342502	0.166543	0.331697	0.179200	0.147067	0.158887	0.114193	0.278819	0.188077	0.096419	0.090878	0.326103	0.284215	0.067472	0.101970	0.227716	0.282053
16	0.294892	0.659337	0.346119	0.262753	0.439088	0.258652	0.222627	0.325130	0.092541	0.126653	0.279163	0.204690	0.247931	0.431022	0.283941	0.353849	0.263448	0.516928	0.261561	0.285197	0.122126	0.294459	0.503548	0.342865	0.052676	0.111120	0.218025	0.143833	0.195882	0.435722	0.299174	0.192789	0.072776	0.063727	0.295013	0.138832	0.196818	0.262071	0.376690	0.144076	0.333992	0.156298	0.313037	0.231725	0.219011	0.388409	0.426409	0.411609	0.115643	0.116299	0.278663	0.252843	0.189038	0.223959	0.345257	0.255226	0.105312	0.248905	0.253287	0.239885	0.115410	0.079256	0.711753	0.341036	0.178324	0.312349	0.171942	0.188262	0.144285	0.113870	0.280557	0.196189	0.095106	0.091647	0.379207	0.310932	0.068661	0.086201	0.241378	0.271208
17	0.270200	0.580697	0.360370	0.232166	0.365427	0.161166	0.246658	0.399689	0.065076	0.114358	0.275968	0.195768	0.252512	0.428885	0.302808	0.369375	0.268577	0.522185	0.279064	0.284370	0.120917	0.291057	0.504101	0.339180	0.049786	0.090602	0.208169	0.170192	0.183062	0.409982	0.305961	0.198557	0.075161	0.069012	0.304199	0.143888	0.197323	0.251088	0.391833	0.146638	0.348649	0.158963	0.348036	0.223623	0.183212	0.358062	0.468805	0.444112	0.117001	0.120483	0.273437	0.263878	0.188115	0.222706	0.353488	0.269210	0.059752	0.110989	0.204576	0.261691	0.118203	0.080446	0.711539	0.342966	0.149425	0.175022	0.178150	0.213176	0.127330	0.113493	0.279920	0.197283	0.099179	0.096077	0.412249	0.309852	0.081383	0.105693	0.243536	0.273823
18	0.236635	0.467735	0.295950	0.272445	0.352229	0.186614	0.272524	0.430613	0.101366	0.235368	0.257312	0.198552	0.257343	0.421932	0.359990	0.382636	0.269194	0.523211	0.282543	0.280718	0.125745	0.291380	0.444130	0.368062	0.059184	0.078494	0.225450	0.166949	0.161025	0.356248	0.339580	0.202147	0.074439	0.065561	0.303954	0.181158	0.196111	0.218357	0.397121	0.151842	0.358957	0.155905	0.368916	0.221639	0.179156	0.321461	0.491637	0.462614	0.126489	0.128711	0.346706	0.278465	0.185137	0.218547	0.363669	0.271284	0.061775	0.108960	0.233897	0.266079	0.118515	0.081560	0.705500	0.376243	0.136781	0.151367	0.191197	0.203015	0.122672	0.106889	0.278575	0.202639	0.099001	0.102754	0.409493	0.268433	0.108577	0.199542	0.242109	0.276416
19	0.151786	0.203455	0.267190	0.389175	0.227482	0.268584	0.270803	0.425388	0.135829	0.372754	0.246679	0.195778	0.266850	0.421904	0.418219	0.378956	0.269431	0.523604	0.281887	0.279639	0.126441	0.291303	0.389150	0.408739	0.056497	0.073056	0.212798	0.148406	0.154570	0.331555	0.382226	0.203303	0.080545	0.076818	0.314403	0.248389	0.202644	0.210274	0.375074	0.154011	0.365052	0.158285	0.370359	0.216736	0.167526	0.195989	0.488899	0.471216	0.133205	0.134268	0.371026	0.280090	0.185229	0.223147	0.365476	0.270686	0.058771	0.104840	0.225109	0.281582	0.100144	0.081066	0.660700	0.480749	0.163192	0.158213	0.229258	0.217844	0.108615	0.074612	0.278672	0.205404	0.086461	0.099163	0.376279	0.250345	0.130581	0.260818	0.240511	0.274128
20	0.121820	0.136267	0.263828	0.391483	0.200445	0.380915	0.256562	0.420265	0.145029	0.394915	0.252718	0.206623	0.268268	0.396939	0.438913	0.366496	0.268935	0.523142	0.281423	0.280470	0.134729	0.292652	0.391609	0.448376	0.055972	0.072715	0.211787	0.139770	0.157558	0.324053	0.396602	0.214073	0.090330	0.095120	0.313492	0.250266	0.211292	0.231693	0.370133	0.170346	0.368021	0.157028	0.378114	0.214203	0.170447	0.189440	0.498923	0.455963	0.131722	0.134268	0.374938	0.278726	0.186003	0.211426	0.359309	0.249783	0.055640	0.100484	0.218364	0.295006	0.106491	0.110120	0.605012	0.499480	0.167366	0.200117	0.235052	0.262019	0.071858	0.068714	0.238925	0.220283	0.066354	0.086434	0.334744	0.270394	0.144673	0.290128	0.237665	0.277187
21	0.120983	0.130245	0.265715	0.410042	0.202679	0.377738	0.235735	0.420613	0.244738	0.588233	0.265250	0.205326	0.259981	0.349771	0.447906	0.366917	0.266836	0.523947	0.283566	0.279105	0.135319	0.291438	0.423431	0.481140	0.053057	0.091922	0.239483	0.163761	0.147485	0.289222	0.396749	0.269011	0.095383	0.109810	0.339807	0.248265	0.202258	0.248996	0.399257	0.193388	0.392940	0.156584	0.381447	0.218276	0.171681	0.190374	0.496392	0.442233	0.131680	0.128912	0.348756	0.249181	0.188564	0.184938	0.345030	0.220942	0.050199	0.093742	0.250950	0.290028	0.136213	0.142362	0.589714	0.503574	0.168917	0.218775	0.262345	0.289708	0.060277	0.064133	0.202264	0.228594	0.070776	0.088341	0.300691	0.290374	0.188888	0.346457	0.235083	0.280325
22	0.125626	0.151126	0.272391	0.443198	0.197753	0.376961	0.223993	0.431622	0.264578	0.632209	0.302864	0.185632	0.259948	0.340705	0.453232	0.370041	0.243183	0.527685	0.283846	0.253361	0.138423	0.286840	0.451510	0.495835	0.059156	0.161514	0.252882	0.189208	0.132366	0.266076	0.363991	0.288226	0.095486	0.109412	0.365501	0.249757	0.165777	0.224976	0.427904	0.204175	0.367172	0.149573	0.376366	0.235763	0.165845	0.197032	0.484869	0.434507	0.120952	0.105194	0.302020	0.220231	0.190724	0.192407	0.333683	0.211742	0.052312	0.088521	0.263599	0.292984	0.146935	0.161020	0.603188	0.504569	0.189544	0.245447	0.282160	0.302412	0.055217	0.060536	0.191075	0.221210	0.072681	0.092099	0.294135	0.281469	0.191628	0.353791	0.235478	0.267375
23	0.132643	0.192990	0.276467	0.464054	0.200244	0.375332	0.224856	0.450323	0.264850	0.632261	0.296887	0.161377	0.258310	0.341874	0.455543	0.371329	0.193178	0.505818	0.280389	0.197904	0.141754	0.274944	0.460564	0.499957	0.061697	0.188129	0.243378	0.205089	0.132988	0.279071	0.313861	0.284917	0.095245	0.111849	0.358119	0.282473	0.153958	0.219339	0.440842	0.202649	0.352861	0.121818	0.364549	0.238681	0.135876	0.203680	0.483895	0.409102	0.093126	0.080534	0.300681	0.240298	0.188033	0.212245	0.332400	0.210600	0.046533	0.092367	0.270804	0.332282	0.148389	0.190057	0.556766	0.510357	0.191595	0.247741	0.289500	0.303157	0.054654	0.067208	0.173281	0.200726	0.073357	0.093605	0.267438	0.254955	0.190649	0.357808	0.226610	0.276506
24	0.132359	0.197976	0.305721	0.454847	0.203999	0.389911	0.222792	0.429334	0.265029	0.632574	0.261029	0.151790	0.257977	0.339993	0.454887	0.370062	0.179213	0.533143	0.270536	0.192653	0.144073	0.273703	0.463324	0.498482	0.065532	0.194024	0.261605	0.207228	0.137169	0.303023	0.288746	0.279790	0.097489	0.117456	0.323634	0.317111	0.157046	0.219254	0.441098	0.203772	0.348587	0.117285	0.367338	0.209713	0.104100	0.192222	0.487875	0.404894	0.087024	0.078124	0.303122	0.251317	0.159050	0.192891	0.315883	0.192108	0.041346	0.091192	0.275829	0.349881	0.149090	0.257148	0.448695	0.527886	0.190755	0.249978	0.302366	0.306494	0.054397	0.071143	0.123881	0.192660	0.077161	0.093787	0.179406	0.229056	0.192699	0.391556	0.240364	0.279144
25	0.143883	0.203808	0.279925	0.443202	0.196621	0.413785	0.220388	0.422724	0.265626	0.632145	0.257077	0.185578	0.255786	0.351039	0.418460	0.339265	0.168462	0.516585	0.238060	0.211196	0.155517	0.342504	0.463826	0.490651	0.079567	0.262104	0.269298	0.207240	0.117369	0.290008	0.289826	0.283027	0.100118	0.117910	0.317856	0.336329	0.158329	0.223236	0.448814	0.219034	0.332555	0.110201	0.353296	0.169544	0.106016	0.175769	0.470427	0.415358	0.094223	0.072737	0.341118	0.227161	0.112298	0.187981	0.304241	0.176810	0.044735	0.088787	0.274914	0.320807	0.161884	0.301598	0.326466	0.531135	0.190196	0.259783	0.297005	0.323366	0.059787	0.081859	0.103662	0.193771	0.077690	0.091628	0.083985	0.211876	0.203993	0.432012	0.249312	0.251222
26	0.173749	0.269228	0.257115	0.439386	0.197866	0.421409	0.243845	0.372560	0.269016	0.629314	0.291925	0.245543	0.258577	0.380126	0.385381	0.288590	0.141840	0.493633	0.311973	0.208923	0.149362	0.384558	0.463397	0.483149	0.080765	0.278043	0.267196	0.189256	0.084711	0.242445	0.288400	0.293371	0.093144	0.128127	0.315298	0.343020	0.159971	0.233290	0.459675	0.232394	0.315563	0.108484	0.322318	0.162758	0.102078	0.158953	0.423274	0.406949	0.087497	0.065090	0.326125	0.201674	0.093584	0.202368	0.303607	0.178382	0.053638	0.090498	0.274093	0.304436	0.281375	0.432935	0.283268	0.518648	0.174264	0.251716	0.305575	0.301076	0.057055	0.094010	0.097675	0.186540	0.074475	0.080313	0.062906	0.209418	0.208917	0.468272	0.234197	0.213837
27	0.176980	0.278293	0.257303	0.402871	0.206713	0.428901	0.269757	0.291954	0.271632	0.628328	0.317497	0.277490	0.240195	0.384897	0.376026	0.254273	0.144316	0.490181	0.347774	0.196803	0.140818	0.364635	0.462974	0.475318	0.075384	0.281458	0.246991	0.186043	0.104522	0.247790	0.281562	0.301797	0.103838	0.148615	0.305184	0.338941	0.154018	0.236037	0.455201	0.234848	0.313054	0.109625	0.288944	0.163941	0.100905	0.177016	0.425709	0.397433	0.069205	0.048478	0.264219	0.248059	0.125654	0.243355	0.282008	0.184134	0.057996	0.103714	0.263662	0.336050	0.336785	0.460770	0.281409	0.505927	0.153518	0.241643	0.315906	0.282560	0.061001	0.101577	0.085340	0.178002	0.070993	0.064972	0.063254	0.246954	0.221008	0.540172	0.229268	0.200625
28	0.163321	0.274228	0.299911	0.281854	0.201024	0.419994	0.248445	0.234132	0.270605	0.624894	0.339417	0.289756	0.178490	0.300269	0.366699	0.256167	0.144590	0.488554	0.331427	0.186253	0.184414	0.424660	0.431666	0.459107	0.068908	0.280336	0.232033	0.189178	0.106245	0.250503	0.268921	0.298527	0.115330	0.162138	0.294954	0.351019	0.151437	0.245161	0.426439	0.225994	0.292605	0.109284	0.268858	0.179386	0.105668	0.217681	0.435840	0.381737	0.082527	0.059849	0.256399	0.353547	0.130642	0.251185	0.229918	0.185225	0.065228	0.108935	0.233536	0.350056	0.352730	0.468512	0.280951	0.503559	0.148959	0.237585	0.314120	0.318899	0.066766	0.108369	0.070956	0.198227	0.070882	0.058405	0.146203	0.406734	0.221840	0.565518	0.241679	0.219447
29	0.148297	0.271034	0.304462	0.271642	0.181206	0.371780	0.247380	0.233686	0.253484	0.572731	0.354827	0.288287	0.164973	0.276195	0.367169	0.237136	0.146531	0.481097	0.335582	0.173096	0.216358	0.499706	0.383423	0.421326	0.068619	0.278615	0.233826	0.187519	0.109007	0.249977	0.269234	0.285307	0.116393	0.164643	0.271561	0.324947	0.158942	0.254815	0.393754	0.223828	0.254860	0.103947	0.266430	0.197537	0.113539	0.253098	0.414390	0.350038	0.089149	0.065757	0.276970	0.377699	0.128608	0.251653	0.201236	0.180529	0.064907	0.110996	0.285396	0.349213	0.353519	0.476598	0.282564	0.504971	0.114543	0.226894	0.294831	0.334601	0.074952	0.115775	0.065690	0.223156	0.073945	0.060811	0.310850	0.527531	0.218019	0.567103	0.254606	0.220748
30	0.147567	0.266654	0.310103	0.270691	0.148072	0.248437	0.268979	0.239923	0.240508	0.503895	0.358527	0.283362	0.161601	0.294163	0.382380	0.198339	0.142647	0.479842	0.360138	0.170355	0.216401	0.510529	0.372645	0.411604	0.069391	0.276318	0.215532	0.187796	0.110336	0.249811	0.267631	0.279665	0.109851	0.158496	0.266453	0.309393	0.181924	0.278155	0.372666	0.222528	0.228243	0.099098	0.222806	0.208815	0.136088	0.295089	0.374660	0.309793	0.087105	0.066854	0.306873	0.405039	0.140369	0.266345	0.182260	0.162347	0.065849	0.105825	0.297193	0.339134	0.353962	0.480894	0.282590	0.501494	0.109670	0.202717	0.292083	0.310294	0.099634	0.139216	0.061530	0.228317	0.073097	0.056522	0.344291	0.537340	0.206789	0.544534	0.262044	0.215581
31	0.148206	0.255809	0.334343	0.218208	0.148948	0.229058	0.284574	0.244760	0.223357	0.473308	0.347493	0.274736	0.143334	0.311410	0.358476	0.170759	0.142385	0.481772	0.379852	0.177767	0.213833	0.515207	0.371788	0.407715	0.065706	0.261800	0.191959	0.165607	0.109528	0.251200	0.243641	0.276234	0.104629	0.156165	0.252929	0.310396	0.187161	0.306111	0.362657	0.218993	0.213375	0.097080	0.179772	0.214309	0.177965	0.334229	0.344553	0.276781	0.097489	0.069841	0.316170	0.443819	0.144981	0.276083	0.169383	0.132080	0.062837	0.102840	0.294104	0.342268	0.354919	0.483413	0.284790	0.413864	0.106536	0.166546	0.272128	0.287373	0.106643	0.146347	0.062005	0.220262	0.108210	0.066205	0.371560	0.586023	0.193400	0.515914	0.257604	0.218899
32	0.154759	0.226460	0.327633	0.153047	0.151993	0.226215	0.297937	0.233681	0.091256	0.133491	0.327079	0.270670	0.117600	0.309433	0.292935	0.146120	0.143859	0.489972	0.382548	0.177847	0.211685	0.515101	0.371976	0.378871	0.062784	0.222339	0.175770	0.149759	0.110134	0.255352	0.169020	0.274657	0.103025	0.153020	0.206847	0.304597	0.179614	0.313511	0.366181	0.219225	0.195677	0.092356	0.176575	0.215240	0.192114	0.359101	0.325868	0.256070	0.103344	0.075869	0.396807	0.479448	0.145178	0.277553	0.151148	0.124397	0.063309	0.101431	0.295644	0.340461	0.354619	0.481529	0.289074	0.325244	0.074397	0.136366	0.243650	0.299238	0.106139	0.145727	0.056630	0.204420	0.115255	0.067942	0.417500	0.626043	0.189200	0.514679	0.254353	0.216078
33	0.167154	0.240358	0.320952	0.151753	0.154004	0.229305	0.298068	0.171703	0.075707	0.063032	0.291219	0.293648	0.112178	0.324214	0.232057	0.136310	0.146624	0.496508	0.387650	0.176612	0.211589	0.515382	0.372141	0.335716	0.052915	0.214342	0.135143	0.146832	0.112116	0.264719	0.083569	0.273283	0.105595	0.154400	0.208213	0.290817	0.167322	0.306117	0.358192	0.219969	0.185510	0.090929	0.160735	0.214798	0.191424	0.362089	0.303540	0.248320	0.097969	0.079257	0.418054	0.510887	0.144822	0.276744	0.135791	0.126483	0.068347	0.087209	0.290838	0.327717	0.345656	0.476939	0.258437	0.302050	0.056379	0.124188	0.235083	0.316177	0.115573	0.146760	0.060331	0.197753	0.114394	0.072481	0.464742	0.632367	0.144402	0.481885	0.250713	0.208224
34	0.162658	0.244581	0.388095	0.167550	0.144488	0.216095	0.297718	0.148087	0.079276	0.081846	0.355728	0.357252	0.125831	0.378320	0.212027	0.131671	0.151551	0.484483	0.402219	0.177585	0.210462	0.525047	0.357309	0.278144	0.052696	0.191015	0.093303	0.158031	0.115214	0.276826	0.057778	0.234256	0.107597	0.150273	0.257453	0.252530	0.143943	0.277132	0.315699	0.214083	0.097366	0.086193	0.139612	0.209976	0.188270	0.361512	0.289392	0.244426	0.101496	0.078931	0.383326	0.513863	0.144287	0.273107	0.146996	0.118656	0.069347	0.088874	0.291847	0.321956	0.341313	0.471329	0.248137	0.298395	0.054129	0.123531	0.239381	0.317257	0.120557	0.148109	0.136392	0.187898	0.152072	0.100656	0.541147	0.634053	0.138269	0.475880	0.249025	0.201458
35	0.146109	0.201577	0.401194	0.200431	0.144204	0.176121	0.296250	0.148025	0.088862	0.096250	0.518424	0.434166	0.128730	0.383287	0.200239	0.126920	0.144543	0.432946	0.407241	0.178744	0.213716	0.539529	0.308936	0.208639	0.031961	0.084313	0.083995	0.375808	0.122038	0.288842	0.056150	0.183653	0.102920	0.149201	0.339467	0.258358	0.130070	0.249907	0.267198	0.201527	0.093142	0.085896	0.133395	0.190454	0.186174	0.362412	0.288727	0.226008	0.101197	0.077807	0.380190	0.505392	0.145244	0.311904	0.179937	0.125168	0.067815	0.089785	0.295901	0.311650	0.342010	0.462050	0.235224	0.269583	0.050664	0.104901	0.261454	0.362929	0.123683	0.143865	0.312577	0.181974	0.164629	0.110714	0.578373	0.621128	0.138259	0.477193	0.232088	0.198127
36	0.143862	0.183345	0.405979	0.337128	0.148591	0.163996	0.266966	0.166616	0.088082	0.106914	0.595481	0.498223	0.131396	0.387914	0.194614	0.120190	0.135102	0.349654	0.407470	0.173315	0.210867	0.567592	0.232380	0.161283	0.035576	0.056432	0.190396	0.493246	0.123643	0.325277	0.050696	0.174088	0.102059	0.146509	0.339925	0.293779	0.129677	0.247453	0.231767	0.190004	0.088750	0.085925	0.132654	0.178031	0.179736	0.355278	0.282065	0.204220	0.091135	0.070421	0.388847	0.451842	0.150074	0.335936	0.188324	0.141142	0.101444	0.097241	0.303441	0.276390	0.341759	0.441567	0.227333	0.219508	0.050564	0.086732	0.318552	0.520823	0.125716	0.145268	0.405800	0.179043	0.164991	0.110453	0.575819	0.541171	0.138163	0.465788	0.213936	0.195503
37	0.143377	0.189902	0.376059	0.411214	0.145310	0.145663	0.217149	0.234531	0.075077	0.113052	0.584025	0.475742	0.131847	0.393457	0.190117	0.119137	0.132501	0.316135	0.410418	0.142151	0.211593	0.569612	0.158377	0.143461	0.055121	0.044337	0.255337	0.520042	0.127515	0.313227	0.050463	0.171168	0.085649	0.123658	0.326639	0.457117	0.127505	0.246722	0.230435	0.183627	0.085604	0.077596	0.119648	0.172530	0.175261	0.345186	0.272729	0.182818	0.079958	0.056253	0.385189	0.397722	0.155611	0.329597	0.183916	0.146903	0.134780	0.126525	0.348126	0.241980	0.352189	0.392081	0.239973	0.167103	0.042780	0.060284	0.375561	0.569524	0.129497	0.151801	0.413187	0.179597	0.166883	0.116307	0.507637	0.441487	0.122767	0.431519	0.208851	0.193673
38	0.142217	0.192662	0.372569	0.422166	0.116046	0.157520	0.205977	0.318230	0.074798	0.114017	0.575544	0.470781	0.131177	0.387974	0.188733	0.120603	0.113140	0.232302	0.387919	0.128532	0.214058	0.561539	0.115552	0.140737	0.086377	0.046606	0.354275	0.535923	0.159754	0.342641	0.048383	0.151520	0.062737	0.094639	0.306651	0.564165	0.126069	0.246646	0.245872	0.171900	0.090965	0.066247	0.100564	0.162591	0.172556	0.343043	0.263299	0.150066	0.097948	0.076958	0.391306	0.403434	0.155372	0.321244	0.189215	0.145737	0.139012	0.135048	0.338310	0.223326	0.302158	0.319739	0.248765	0.216812	0.054704	0.053703	0.383943	0.553218	0.152651	0.171892	0.444942	0.190376	0.169089	0.129137	0.487070	0.446534	0.128045	0.405868	0.205624	0.197530
39	0.140977	0.194228	0.372663	0.472118	0.106596	0.160644	0.211371	0.397073	0.110188	0.123338	0.575122	0.469581	0.122853	0.359450	0.188530	0.123197	0.110366	0.185402	0.326912	0.139612	0.204209	0.517314	0.105505	0.144089	0.099208	0.048246	0.470527	0.535478	0.173381	0.376490	0.037936	0.124618	0.049586	0.089279	0.334076	0.556776	0.122085	0.242833	0.241758	0.144358	0.088562	0.057659	0.082331	0.159858	0.172336	0.343508	0.254291	0.117004	0.134659	0.217876	0.395441	0.390814	0.154665	0.322847	0.203283	0.153278	0.141206	0.138576	0.294567	0.215748	0.206308	0.189817	0.244096	0.236528	0.069605	0.062930	0.373343	0.553248	0.153770	0.178963	0.481339	0.187167	0.149383	0.123892	0.466601	0.384068	0.103929	0.303302	0.201077	0.211097
40	0.137728	0.191704	0.350925	0.585668	0.110128	0.161418	0.261474	0.406020	0.124258	0.133787	0.584403	0.472608	0.118201	0.317022	0.187508	0.120677	0.101249	0.183767	0.312894	0.148224	0.202133	0.481093	0.105155	0.146531	0.112325	0.085626	0.495905	0.566455	0.166947	0.385667	0.028275	0.099692	0.057523	0.087287	0.342535	0.614408	0.121519	0.237176	0.227012	0.130989	0.084935	0.055014	0.076645	0.160166	0.171745	0.339123	0.234006	0.111284	0.196557	0.435385	0.362004	0.340905	0.150829	0.319797	0.217199	0.170566	0.142479	0.144359	0.280443	0.220806	0.151770	0.167315	0.250945	0.238388	0.070442	0.065699	0.373215	0.601672	0.155002	0.196663	0.484604	0.143100	0.153137	0.126412	0.426026	0.312538	0.121609	0.293848	0.169320	0.207314
41	0.132514	0.194487	0.349911	0.681225	0.103003	0.162789	0.457441	0.404429	0.124455	0.135918	0.590974	0.474907	0.115699	0.314988	0.186016	0.108892	0.098078	0.182186	0.320412	0.154938	0.200421	0.474500	0.117009	0.142827	0.139613	0.126222	0.513832	0.657021	0.166151	0.376491	0.030550	0.083375	0.083745	0.088977	0.367470	0.687871	0.122594	0.234675	0.219684	0.144800	0.065463	0.050909	0.089696	0.182751	0.172043	0.323062	0.198612	0.111461	0.202956	0.468700	0.337327	0.295694	0.123838	0.291026	0.225745	0.174755	0.142398	0.145874	0.335675	0.200379	0.141563	0.147727	0.266292	0.247893	0.073753	0.073009	0.374656	0.640586	0.148213	0.193106	0.485974	0.126966	0.151071	0.122119	0.371488	0.365479	0.135684	0.318648	0.153691	0.222535
42	0.130887	0.180414	0.332205	0.718674	0.102583	0.162121	0.549967	0.415007	0.123428	0.135034	0.592030	0.476755	0.111633	0.308785	0.183818	0.103084	0.080503	0.176505	0.295793	0.164073	0.149913	0.402695	0.166658	0.128186	0.167064	0.160865	0.616327	0.738666	0.171963	0.388048	0.030332	0.073997	0.113305	0.102020	0.421258	0.727602	0.121381	0.225918	0.226598	0.208700	0.057792	0.041369	0.175933	0.249811	0.167975	0.289909	0.190343	0.111447	0.254107	0.609639	0.326543	0.286586	0.112176	0.277109	0.231023	0.172376	0.150422	0.151209	0.337329	0.147379	0.146066	0.140528	0.285769	0.245791	0.081859	0.080017	0.376075	0.657668	0.142936	0.184948	0.490505	0.125553	0.111158	0.099181	0.254868	0.451156	0.135661	0.319926	0.177995	0.290651
43	0.123348	0.172978	0.275684	0.727271	0.090480	0.159382	0.555834	0.424945	0.130063	0.140795	0.592840	0.475036	0.114874	0.302908	0.153577	0.104635	0.076338	0.165082	0.269936	0.160780	0.115196	0.345425	0.175518	0.113757	0.175378	0.168501	0.683967	0.762496	0.171729	0.395093	0.029239	0.083243	0.119499	0.106343	0.431507	0.747232	0.093026	0.195387	0.230387	0.258403	0.056977	0.041111	0.219804	0.339434	0.164755	0.276835	0.210102	0.100839	0.269884	0.623746	0.328618	0.284971	0.111692	0.277258	0.235417	0.167900	0.160944	0.171865	0.384368	0.186415	0.147475	0.125633	0.310524	0.262672	0.099665	0.095437	0.414095	0.673429	0.153804	0.190939	0.499912	0.125217	0.092035	0.087821	0.170126	0.470448	0.134529	0.319412	0.297145	0.343287
44	0.104250	0.134395	0.308118	0.721882	0.091531	0.145864	0.580222	0.438065	0.141401	0.147858	0.591417	0.480233	0.113681	0.275810	0.108820	0.095195	0.076047	0.161360	0.251338	0.153551	0.113610	0.328677	0.169045	0.105832	0.176822	0.168742	0.704884	0.752997	0.171225	0.398562	0.090831	0.112551	0.121589	0.107508	0.424238	0.760171	0.050959	0.162115	0.232324	0.288167	0.050675	0.037672	0.242984	0.388550	0.124423	0.213887	0.233059	0.091428	0.292903	0.644064	0.322579	0.292768	0.099165	0.267214	0.237448	0.167418	0.164886	0.193771	0.418481	0.244858	0.142962	0.115943	0.308495	0.335487	0.123993	0.126027	0.491746	0.687445	0.154010	0.191324	0.510298	0.125505	0.096712	0.087543	0.150284	0.446547	0.132783	0.303337	0.343584	0.349493
45	0.098186	0.119469	0.307083	0.677481	0.090895	0.127667	0.621713	0.455439	0.139413	0.139531	0.513633	0.465702	0.113655	0.270368	0.083852	0.091085	0.071485	0.132010	0.261073	0.153604	0.114199	0.324480	0.162911	0.113514	0.178204	0.171005	0.714890	0.668930	0.171920	0.404079	0.143355	0.118727	0.121222	0.107666	0.368918	0.761329	0.047113	0.109250	0.232848	0.298172	0.056909	0.037062	0.267311	0.430361	0.076872	0.157812	0.216163	0.135403	0.301123	0.649692	0.316311	0.310018	0.088652	0.253314	0.237202	0.166888	0.167874	0.328302	0.430935	0.267501	0.144345	0.100537	0.301921	0.388395	0.141841	0.152607	0.534556	0.676308	0.144371	0.187183	0.508864	0.129517	0.089571	0.071825	0.156199	0.432213	0.132413	0.291988	0.346832	0.359297
46	0.094718	0.112813	0.301470	0.633055	0.083908	0.117553	0.677498	0.472274	0.134162	0.125149	0.363837	0.410789	0.111312	0.272843	0.080660	0.096984	0.065352	0.107857	0.305547	0.189890	0.128614	0.334453	0.161787	0.144584	0.177316	0.173180	0.689309	0.616804	0.176400	0.437985	0.161955	0.118876	0.125109	0.111133	0.377913	0.745778	0.044708	0.093579	0.219601	0.300069	0.061624	0.037345	0.307324	0.494931	0.077515	0.144436	0.198883	0.167884	0.299338	0.650078	0.299734	0.319218	0.087655	0.251148	0.234178	0.167322	0.211371	0.623828	0.398481	0.271035	0.142688	0.088946	0.283791	0.391230	0.144584	0.157279	0.532921	0.571067	0.143277	0.186644	0.475134	0.132088	0.080296	0.045718	0.150871	0.426565	0.130887	0.290074	0.366217	0.395091
47	0.093822	0.104243	0.281045	0.644074	0.059331	0.112420	0.724855	0.456090	0.134845	0.118810	0.279425	0.402346	0.095822	0.210241	0.100057	0.093982	0.052281	0.093758	0.384142	0.253719	0.157108	0.364742	0.168191	0.161917	0.171177	0.175242	0.672020	0.606788	0.171220	0.432106	0.162248	0.128101	0.130747	0.113871	0.406845	0.704717	0.034749	0.084341	0.230315	0.295128	0.063586	0.041152	0.340582	0.536608	0.079306	0.144747	0.209219	0.170739	0.293650	0.639941	0.265558	0.272590	0.086349	0.244320	0.231990	0.169491	0.231268	0.767620	0.372171	0.275627	0.131853	0.089006	0.269753	0.413323	0.145703	0.164672	0.483742	0.487773	0.139621	0.185573	0.373754	0.134675	0.077473	0.043467	0.150463	0.422428	0.134119	0.285645	0.395597	0.449877
48	0.091382	0.098797	0.283480	0.641270	0.063352	0.072043	0.749907	0.407072	0.137137	0.117431	0.305679	0.445062	0.102815	0.197077	0.158797	0.086605	0.051781	0.090293	0.438800	0.298584	0.158794	0.367913	0.177340	0.170536	0.157389	0.172900	0.599813	0.610538	0.169394	0.430471	0.162423	0.181188	0.131713	0.113079	0.410297	0.589632	0.033383	0.080361	0.267650	0.290190	0.067724	0.043679	0.499093	0.538670	0.078792	0.147340	0.216365	0.172081	0.258734	0.544702	0.270969	0.235324	0.085456	0.241245	0.228969	0.171217	0.360994	1.049831	0.369699	0.296166	0.129584	0.094280	0.285321	0.468747	0.147228	0.168579	0.473573	0.482586	0.136607	0.180040	0.333263	0.168250	0.068385	0.046793	0.152808	0.425660	0.134302	0.263674	0.414904	0.491313
49	0.092290	0.098389	0.296965	0.584128	0.064324	0.055456	0.761386	0.324862	0.132098	0.118360	0.330479	0.441075	0.107847	0.239955	0.198918	0.087750	0.052234	0.090655	0.446481	0.400628	0.156021	0.347742	0.181446	0.200731	0.156470	0.170883	0.537051	0.620674	0.165760	0.408682	0.178968	0.233017	0.135502	0.111940	0.405323	0.555197	0.035360	0.085131	0.282062	0.295172	0.074795	0.044589	0.548579	0.557067	0.074969	0.144258	0.215850	0.205994	0.236982	0.469045	0.178958	0.218528	0.082933	0.201604	0.219631	0.193659	0.377697	1.098290	0.384399	0.296118	0.105856	0.100074	0.303016	0.535033	0.141790	0.171110	0.472891	0.473708	0.113323	0.154322	0.329114	0.222446	0.075364	0.052510	0.151930	0.373584	0.131423	0.252367	0.417564	0.502835
50	0.098562	0.101534	0.342263	0.484995	0.062798	0.053617	0.743972	0.306942	0.110295	0.113095	0.332426	0.448041	0.118825	0.297798	0.203394	0.093832	0.056758	0.098866	0.444298	0.499000	0.167343	0.318292	0.183820	0.263152	0.143230	0.150978	0.528733	0.568872	0.168623	0.389833	0.202675	0.249752	0.139822	0.110735	0.402732	0.525135	0.045587	0.100052	0.287665	0.302256	0.081274	0.046287	0.566396	0.612768	0.079790	0.157960	0.220199	0.232364	0.197080	0.301008	0.147400	0.179357	0.071868	0.136408	0.241687	0.231436	0.377842	1.098361	0.352367	0.295522	0.093828	0.101999	0.322180	0.554424	0.141643	0.180752	0.474161	0.411956	0.099956	0.136604	0.281817	0.251303	0.076150	0.052394	0.139894	0.257256	0.119082	0.244776	0.418626	0.502768
51	0.125107	0.134238	0.369997	0.423173	0.072889	0.046135	0.636115	0.306623	0.103710	0.104439	0.304205	0.489208	0.150573	0.327347	0.223351	0.145911	0.056017	0.102228	0.448333	0.533616	0.167547	0.319483	0.184405	0.290148	0.110775	0.111988	0.490641	0.446541	0.145653	0.368805	0.210900	0.250097	0.137717	0.108992	0.413477	0.423127	0.060433	0.141003	0.282453	0.302731	0.076014	0.047906	0.659666	0.700817	0.079495	0.152190	0.238721	0.248753	0.161467	0.211764	0.155767	0.175761	0.049639	0.088271	0.280743	0.248456	0.377986	1.099141	0.331474	0.334398	0.093587	0.104782	0.353189	0.538833	0.141606	0.183492	0.474469	0.348550	0.097754	0.126762	0.258623	0.260358	0.078216	0.052744	0.132391	0.218319	0.116126	0.232580	0.419113	0.499026
52	0.130380	0.152595	0.367398	0.412208	0.084483	0.046792	0.551339	0.293032	0.103448	0.102971	0.371046	0.521228	0.155308	0.344151	0.251554	0.173270	0.063676	0.105709	0.473207	0.537867	0.162051	0.316971	0.196943	0.294646	0.083305	0.074348	0.348039	0.344199	0.112446	0.303183	0.210968	0.264634	0.105252	0.077670	0.362972	0.316467	0.067145	0.177886	0.262267	0.304121	0.082761	0.052354	0.786751	0.811184	0.089754	0.161505	0.281102	0.252568	0.117943	0.146595	0.144837	0.164558	0.051471	0.074209	0.353914	0.252591	0.372958	1.096381	0.354988	0.334458	0.092336	0.104522	0.366347	0.539719	0.141059	0.184570	0.473837	0.355729	0.088545	0.077724	0.255534	0.252474	0.071599	0.051543	0.101923	0.216946	0.096449	0.177578	0.421460	0.496872
53	0.130712	0.155136	0.326335	0.411659	0.122660	0.045222	0.554906	0.273920	0.102161	0.104209	0.432358	0.526151	0.180619	0.409741	0.257481	0.191743	0.075455	0.120765	0.468422	0.586084	0.161845	0.314553	0.237953	0.297327	0.074036	0.068870	0.295710	0.358843	0.111531	0.260718	0.212526	0.305988	0.092718	0.068052	0.325925	0.250430	0.094499	0.259996	0.250618	0.316793	0.087988	0.053038	0.885322	0.890668	0.095942	0.161370	0.318368	0.256755	0.073661	0.087005	0.139914	0.150419	0.063781	0.063455	0.406569	0.251273	0.377776	1.092484	0.367166	0.301080	0.106731	0.100646	0.358692	0.536474	0.132545	0.176847	0.469837	0.434046	0.084710	0.076340	0.252604	0.261365	0.069662	0.050888	0.105774	0.184245	0.073374	0.093530	0.422005	0.486984
54	0.134246	0.171829	0.335210	0.412007	0.125888	0.045877	0.539977	0.248988	0.086553	0.090536	0.456158	0.523052	0.197131	0.456835	0.276682	0.210053	0.079944	0.132339	0.467004	0.684521	0.156952	0.290965	0.313299	0.295893	0.075962	0.067765	0.253060	0.332887	0.104240	0.255139	0.224500	0.353187	0.085955	0.063898	0.321395	0.222507	0.103751	0.277762	0.248526	0.339467	0.091011	0.053520	0.931569	0.922655	0.099182	0.161775	0.372829	0.295530	0.063515	0.071422	0.138817	0.177369	0.067445	0.055922	0.416533	0.242288	0.381433	1.083598	0.341357	0.279255	0.101832	0.080906	0.345194	0.534757	0.121166	0.159902	0.462225	0.488687	0.062700	0.052107	0.240346	0.268686	0.070735	0.048909	0.124550	0.147608	0.073436	0.076299	0.411769	0.456377
55	0.138104	0.208292	0.337981	0.418012	0.130264	0.046039	0.496525	0.221356	0.076207	0.074146	0.459212	0.489609	0.197784	0.460734	0.318159	0.213228	0.079314	0.135068	0.497963	0.781704	0.166116	0.295111	0.340546	0.314146	0.072707	0.060107	0.240953	0.320798	0.090840	0.249969	0.227626	0.375873	0.088215	0.074542	0.315618	0.225966	0.109917	0.324726	0.237696	0.338555	0.101653	0.060832	0.940698	0.917841	0.094754	0.153622	0.379654	0.365917	0.057103	0.070792	0.158068	0.206819	0.067911	0.057891	0.414130	0.237151	0.365786	0.994912	0.374930	0.276923	0.096283	0.074870	0.323604	0.537574	0.107836	0.138281	0.470365	0.485934	0.044294	0.038991	0.212897	0.270793	0.069877	0.049330	0.125809	0.145281	0.077936	0.096381	0.339799	0.417322
56	0.146019	0.215657	0.343199	0.392719	0.151748	0.048414	0.428041	0.176598	0.080339	0.070379	0.456844	0.458592	0.195019	0.460302	0.360939	0.231601	0.084043	0.140206	0.546097	0.813336	0.173977	0.279200	0.334327	0.384477	0.071539	0.058106	0.252687	0.311027	0.086647	0.228716	0.229059	0.376707	0.095546	0.085079	0.322005	0.225756	0.112211	0.327414	0.241590	0.309722	0.109158	0.068827	0.940193	0.888851	0.091983	0.146188	0.380957	0.420561	0.036901	0.055375	0.182869	0.234998	0.073398	0.059251	0.434121	0.260294	0.333424	0.802484	0.420500	0.286405	0.098591	0.078482	0.313533	0.510274	0.112808	0.130824	0.458584	0.510514	0.043678	0.038462	0.194145	0.270207	0.054982	0.034752	0.124385	0.125499	0.077130	0.112979	0.284587	0.414476
57	0.194364	0.306088	0.337621	0.326381	0.172003	0.054201	0.346705	0.134331	0.082822	0.072683	0.463554	0.420475	0.193318	0.460452	0.384557	0.281894	0.093397	0.138552	0.607644	0.814004	0.173551	0.268587	0.337631	0.449130	0.070921	0.065467	0.253372	0.303060	0.084289	0.222948	0.226449	0.370337	0.089867	0.082004	0.324648	0.215896	0.118557	0.338579	0.272531	0.281145	0.109746	0.070318	0.936685	0.866845	0.092412	0.147370	0.398028	0.450074	0.036141	0.053289	0.197475	0.243865	0.087190	0.062042	0.462619	0.278895	0.246322	0.560731	0.425341	0.271741	0.109664	0.082113	0.341553	0.476757	0.115010	0.128305	0.464197	0.576847	0.045525	0.039663	0.192310	0.267793	0.048226	0.028039	0.124424	0.136400	0.077989	0.116297	0.305207	0.409251
58	0.197736	0.315358	0.318116	0.313737	0.171251	0.068021	0.286757	0.120346	0.081288	0.078814	0.462930	0.357970	0.192714	0.462380	0.386648	0.315269	0.098336	0.137784	0.639943	0.814920	0.170515	0.263740	0.337942	0.465530	0.071159	0.069258	0.252454	0.268177	0.086442	0.219415	0.200161	0.365429	0.086404	0.081264	0.355147	0.204617	0.118850	0.341704	0.316039	0.263497	0.108496	0.070521	0.931468	0.868605	0.092433	0.146611	0.454862	0.455723	0.033135	0.046176	0.196173	0.248488	0.087306	0.062157	0.485469	0.287486	0.142568	0.147582	0.426257	0.263203	0.107536	0.097177	0.432122	0.524228	0.120117	0.130631	0.503639	0.624751	0.049572	0.043344	0.169919	0.269451	0.054640	0.031714	0.143159	0.169299	0.080238	0.131067	0.301689	0.373908
59	0.192871	0.344895	0.271875	0.293054	0.170557	0.072286	0.241712	0.117819	0.079981	0.079204	0.443561	0.314937	0.192694	0.461166	0.406701	0.327049	0.107320	0.143269	0.607863	0.816345	0.169008	0.263240	0.358303	0.462625	0.066590	0.071096	0.252544	0.255249	0.087532	0.159857	0.210120	0.364920	0.084176	0.082008	0.362794	0.200006	0.124182	0.342632	0.353813	0.258233	0.105679	0.070309	0.920583	0.864168	0.083939	0.135030	0.511157	0.442599	0.041000	0.039924	0.216587	0.301973	0.087109	0.060659	0.488419	0.294366	0.144208	0.100190	0.413766	0.278546	0.117165	0.104573	0.462356	0.540650	0.117768	0.126982	0.529134	0.635961	0.050319	0.043277	0.177199	0.268370	0.054063	0.038587	0.313164	0.296496	0.075317	0.142445	0.269007	0.304684
60	0.167871	0.360113	0.238279	0.303157	0.168257	0.074441	0.218906	0.142048	0.070412	0.071853	0.416989	0.312036	0.192508	0.458513	0.422517	0.330085	0.129322	0.156788	0.573368	0.819193	0.154958	0.246004	0.435137	0.452852	0.067280	0.072217	0.251569	0.244693	0.097023	0.125518	0.228532	0.365679	0.079338	0.088026	0.365206	0.218506	0.162807	0.346591	0.367213	0.254518	0.104373	0.068956	0.911361	0.848552	0.080031	0.129573	0.537071	0.440700	0.044539	0.035864	0.234998	0.337738	0.086402	0.058261	0.489197	0.300675	0.150956	0.108221	0.423151	0.266463	0.120963	0.102815	0.455357	0.506644	0.115801	0.113194	0.532866	0.638301	0.049259	0.042759	0.179077	0.239831	0.055106	0.041538	0.380740	0.305116	0.068203	0.151655	0.233172	0.230041
61	0.168842	0.375059	0.203560	0.336611	0.164179	0.075394	0.219772	0.172870	0.063849	0.063772	0.404258	0.282621	0.187620	0.450868	0.423868	0.329828	0.137232	0.165904	0.618712	0.815234	0.128771	0.193985	0.500743	0.444842	0.061198	0.070244	0.231703	0.259196	0.102056	0.124475	0.230515	0.356162	0.082842	0.096332	0.365575	0.229776	0.242307	0.350605	0.346629	0.257172	0.101808	0.066977	0.842535	0.851167	0.080583	0.123512	0.538632	0.446809	0.054218	0.031853	0.264877	0.364755	0.089673	0.055347	0.490318	0.304816	0.149575	0.116009	0.425704	0.227011	0.145712	0.094965	0.443326	0.451403	0.114237	0.101679	0.531015	0.635326	0.047953	0.040956	0.212952	0.205176	0.064515	0.045433	0.414272	0.321829	0.068824	0.193293	0.253256	0.211411
62	0.178375	0.375926	0.199275	0.352974	0.157812	0.076596	0.222795	0.163351	0.066304	0.066536	0.398187	0.191502	0.182230	0.433485	0.406575	0.331208	0.137918	0.166180	0.660546	0.767092	0.123345	0.161553	0.529777	0.442794	0.054173	0.069542	0.187893	0.246477	0.104963	0.132246	0.227394	0.326063	0.083389	0.100190	0.379294	0.238252	0.246400	0.356796	0.335868	0.254049	0.096100	0.064040	0.810356	0.847833	0.080720	0.121556	0.538722	0.444625	0.060197	0.031603	0.360086	0.362135	0.096299	0.055844	0.512112	0.305799	0.150961	0.126489	0.367566	0.257805	0.194852	0.098114	0.432663	0.396716	0.113523	0.095365	0.530898	0.618914	0.044676	0.039478	0.296369	0.178959	0.076805	0.048629	0.429745	0.356736	0.080274	0.241463	0.303639	0.220113
63	0.205278	0.377541	0.176006	0.377600	0.149239	0.074652	0.218025	0.171349	0.067940	0.067063	0.318748	0.134301	0.174705	0.397998	0.402822	0.330814	0.139316	0.165721	0.662534	0.718866	0.118369	0.149473	0.538237	0.427112	0.053106	0.069407	0.152881	0.201251	0.100956	0.131431	0.208577	0.300573	0.080973	0.099444	0.390476	0.246133	0.246871	0.354487	0.339314	0.249997	0.089508	0.061784	0.809613	0.825601	0.078504	0.115042	0.539586	0.442808	0.066558	0.029392	0.408253	0.346514	0.097219	0.064224	0.517731	0.297072	0.118463	0.125781	0.347551	0.303764	0.244932	0.097501	0.420465	0.389058	0.111916	0.092836	0.525986	0.552049	0.052648	0.045459	0.306754	0.176194	0.076985	0.058179	0.508434	0.409988	0.180089	0.434582	0.344052	0.217582
64	0.207193	0.362720	0.194875	0.400405	0.146684	0.070514	0.199072	0.182094	0.070224	0.069087	0.246807	0.123272	0.158793	0.343900	0.405867	0.321252	0.137775	0.161381	0.669512	0.711103	0.098348	0.105335	0.539021	0.392417	0.047453	0.069752	0.149811	0.198954	0.095888	0.131619	0.196618	0.308183	0.082576	0.097803	0.393416	0.240224	0.245432	0.378321	0.336945	0.252206	0.094594	0.069725	0.751894	0.778035	0.073603	0.099509	0.543467	0.446913	0.066708	0.027471	0.405115	0.345482	0.101510	0.082045	0.504341	0.259885	0.112117	0.124094	0.338388	0.343995	0.257122	0.097480	0.409425	0.389467	0.105245	0.091422	0.485424	0.468230	0.052711	0.051364	0.317170	0.169140	0.083811	0.068013	0.524026	0.422193	0.189729	0.453641	0.355640	0.205842
65	0.205111	0.372625	0.215828	0.431127	0.157290	0.070086	0.193790	0.184860	0.070770	0.070097	0.214455	0.119927	0.139651	0.345762	0.396008	0.301005	0.133336	0.152421	0.671247	0.702530	0.094108	0.098685	0.542732	0.381870	0.042821	0.069840	0.133446	0.228328	0.100126	0.130631	0.201089	0.320688	0.082940	0.093761	0.396422	0.202465	0.250773	0.371294	0.335042	0.256186	0.094033	0.079578	0.632280	0.691462	0.067318	0.057442	0.549202	0.448014	0.066551	0.026801	0.413090	0.331517	0.100345	0.095511	0.489768	0.232466	0.087474	0.124431	0.295083	0.341649	0.265568	0.111131	0.404313	0.407017	0.096974	0.086032	0.423215	0.465359	0.052637	0.052700	0.337457	0.153168	0.086625	0.069941	0.591174	0.412132	0.190490	0.463254	0.352361	0.202201
66	0.172701	0.308056	0.228245	0.439685	0.153061	0.072057	0.175541	0.183343	0.065350	0.069605	0.210700	0.119781	0.124814	0.334229	0.385696	0.287655	0.126202	0.139769	0.690359	0.649215	0.095245	0.097467	0.541999	0.381156	0.046930	0.051462	0.102459	0.249665	0.102417	0.127352	0.212863	0.295781	0.073095	0.083627	0.388884	0.173969	0.264712	0.341379	0.334900	0.250772	0.090083	0.084282	0.507021	0.605905	0.053292	0.048709	0.540879	0.448188	0.069678	0.027341	0.416105	0.330775	0.099127	0.115334	0.452118	0.222666	0.093578	0.124702	0.270710	0.393943	0.286482	0.115873	0.404144	0.412514	0.078461	0.077361	0.388802	0.459821	0.055313	0.056309	0.357518	0.157860	0.083037	0.070074	0.634941	0.399421	0.192278	0.469299	0.349106	0.184750
67	0.165774	0.300324	0.248740	0.393579	0.136145	0.070272	0.166872	0.181985	0.060917	0.068200	0.184730	0.128758	0.070967	0.300496	0.384938	0.272945	0.124685	0.131572	0.714557	0.528973	0.094194	0.094670	0.527052	0.377417	0.055084	0.044228	0.099971	0.251226	0.100634	0.131867	0.219249	0.243468	0.068074	0.083493	0.354821	0.178130	0.267537	0.306275	0.337558	0.222434	0.092563	0.084233	0.433398	0.545174	0.051897	0.054570	0.508007	0.437821	0.084252	0.065854	0.417679	0.306147	0.094237	0.167358	0.390468	0.221461	0.113536	0.127115	0.274708	0.442481	0.297387	0.114880	0.403417	0.409230	0.075239	0.074130	0.435624	0.392609	0.079629	0.089341	0.358893	0.182523	0.081272	0.066521	0.569580	0.328080	0.190461	0.466383	0.349533	0.175268
68	0.165306	0.266705	0.248639	0.433311	0.138086	0.078488	0.171769	0.181966	0.064268	0.060924	0.146338	0.159263	0.070390	0.307364	0.356064	0.265217	0.124523	0.128638	0.710218	0.393692	0.094247	0.121643	0.488336	0.376340	0.068356	0.040896	0.106875	0.259916	0.102928	0.130768	0.221200	0.192307	0.066015	0.085210	0.317371	0.305578	0.278534	0.280408	0.343662	0.184294	0.098010	0.084676	0.439031	0.523571	0.051721	0.051191	0.493437	0.392631	0.111126	0.147871	0.400659	0.261545	0.094973	0.194959	0.360462	0.218924	0.126282	0.127115	0.264693	0.443355	0.326330	0.115345	0.406253	0.404803	0.064160	0.058133	0.388450	0.330113	0.131265	0.119911	0.360613	0.184675	0.080606	0.066618	0.535173	0.321428	0.192678	0.461937	0.352117	0.168395
69	0.162433	0.218820	0.242867	0.449285	0.160816	0.103242	0.188638	0.189395	0.072142	0.044812	0.128777	0.196752	0.074609	0.316864	0.324464	0.261470	0.119574	0.121211	0.672864	0.358266	0.079652	0.150885	0.468157	0.353512	0.068660	0.032527	0.110102	0.330295	0.102776	0.139273	0.224147	0.190800	0.065851	0.087687	0.413637	0.487675	0.280471	0.262967	0.340443	0.169909	0.101439	0.081730	0.512951	0.524644	0.077345	0.063475	0.500854	0.330170	0.113473	0.167929	0.395979	0.255200	0.095573	0.198847	0.357368	0.216407	0.117141	0.109320	0.258319	0.443435	0.330253	0.110567	0.415775	0.399764	0.079042	0.062169	0.421308	0.339054	0.136396	0.123832	0.359915	0.187383	0.072199	0.063750	0.509374	0.304618	0.198062	0.461794	0.342173	0.166780
70	0.181082	0.189999	0.304043	0.434322	0.218680	0.118798	0.192150	0.178609	0.081443	0.046070	0.202943	0.221368	0.073203	0.341960	0.278685	0.221293	0.113010	0.118012	0.622717	0.364968	0.064634	0.171648	0.459560	0.266241	0.069696	0.030646	0.135523	0.413280	0.102572	0.142800	0.222608	0.199041	0.064159	0.082283	0.480942	0.533722	0.278257	0.272466	0.326001	0.165960	0.106201	0.083612	0.526472	0.548724	0.087273	0.064859	0.493791	0.290190	0.122874	0.195591	0.335789	0.256399	0.095343	0.226503	0.336372	0.192720	0.118695	0.101266	0.230436	0.438726	0.340429	0.104684	0.366359	0.330650	0.085516	0.064383	0.486458	0.348824	0.141307	0.124921	0.356955	0.181860	0.061175	0.065708	0.494282	0.264084	0.201792	0.458542	0.348830	0.169604
71	0.176808	0.189138	0.401046	0.446549	0.221654	0.125652	0.190518	0.142507	0.084016	0.046687	0.263667	0.242735	0.082016	0.341722	0.272385	0.151908	0.110903	0.118571	0.631013	0.374885	0.080701	0.175411	0.455790	0.145569	0.070830	0.033924	0.224992	0.399159	0.102492	0.142461	0.224164	0.200535	0.048924	0.069466	0.489405	0.541351	0.283411	0.302096	0.295762	0.163596	0.115748	0.092286	0.537076	0.548781	0.090130	0.086348	0.442759	0.282960	0.117426	0.198044	0.329565	0.250242	0.079986	0.235829	0.294494	0.159855	0.115132	0.085252	0.276432	0.455675	0.460334	0.106018	0.300189	0.252445	0.084152	0.062926	0.508279	0.348867	0.143076	0.125326	0.352830	0.174093	0.061697	0.059803	0.462165	0.209366	0.205569	0.455801	0.365346	0.162334
72	0.141618	0.173387	0.432073	0.440705	0.234479	0.126181	0.182485	0.147396	0.083313	0.046009	0.271641	0.261972	0.109010	0.341201	0.253033	0.096474	0.094795	0.105197	0.716468	0.389025	0.100827	0.178961	0.458785	0.104965	0.079974	0.039074	0.274575	0.394924	0.096978	0.147140	0.210874	0.201003	0.043495	0.061912	0.471936	0.545520	0.285677	0.314629	0.243143	0.164505	0.122305	0.101410	0.564807	0.516730	0.100692	0.141275	0.373990	0.286862	0.134031	0.206810	0.304316	0.222812	0.088687	0.237543	0.244316	0.137310	0.117952	0.077891	0.433477	0.431588	0.551004	0.110595	0.297520	0.245216	0.089017	0.064877	0.512801	0.346661	0.143060	0.125983	0.341485	0.159605	0.053153	0.053963	0.459229	0.187131	0.206032	0.453317	0.377556	0.143765
73	0.134517	0.161153	0.431017	0.407960	0.227930	0.131158	0.185263	0.198214	0.078754	0.044491	0.273982	0.263420	0.124414	0.342747	0.220937	0.064946	0.065718	0.081862	0.798136	0.400156	0.123550	0.192755	0.442785	0.107878	0.092040	0.044557	0.288465	0.397288	0.094137	0.139587	0.205846	0.200122	0.059826	0.058950	0.469211	0.559557	0.281713	0.313831	0.195802	0.161042	0.125063	0.106776	0.605510	0.499116	0.104468	0.150300	0.311336	0.288242	0.148168	0.214914	0.309068	0.215957	0.100219	0.237840	0.227387	0.114627	0.119206	0.071116	0.473304	0.423072	0.559628	0.118156	0.300028	0.234036	0.098182	0.073443	0.518905	0.504893	0.143460	0.127361	0.321208	0.149375	0.045059	0.050197	0.369721	0.187591	0.205734	0.439962	0.364767	0.121286
74	0.132154	0.117721	0.416121	0.375947	0.243824	0.131934	0.192284	0.238799	0.078738	0.040611	0.307236	0.265425	0.128647	0.342533	0.190430	0.062646	0.067344	0.068534	0.772966	0.389527	0.128084	0.222979	0.361664	0.110235	0.092336	0.046776	0.337810	0.423296	0.111027	0.149789	0.244704	0.198129	0.075829	0.059089	0.477099	0.623859	0.221212	0.306007	0.181985	0.156588	0.131507	0.107139	0.611352	0.496937	0.105218	0.191942	0.284791	0.278141	0.153853	0.215770	0.311923	0.232792	0.101117	0.263716	0.231890	0.101600	0.129667	0.076713	0.459860	0.439662	0.552529	0.138731	0.343082	0.206225	0.102892	0.082349	0.553586	0.710727	0.161570	0.144597	0.307489	0.157802	0.097650	0.072787	0.286973	0.216594	0.204668	0.415932	0.322902	0.098481
75	0.116045	0.110831	0.398387	0.373361	0.384208	0.140912	0.189374	0.249052	0.078654	0.034010	0.313706	0.264929	0.134690	0.344588	0.168480	0.063748	0.104079	0.073600	0.751643	0.395660	0.133170	0.297272	0.264903	0.108860	0.092968	0.046937	0.369497	0.465958	0.114353	0.189382	0.252081	0.194787	0.077022	0.058409	0.479001	0.676779	0.190223	0.303082	0.174271	0.154022	0.135290	0.106994	0.603254	0.494356	0.104628	0.197391	0.280534	0.277096	0.157311	0.215421	0.304325	0.277031	0.100828	0.279554	0.238027	0.114033	0.131851	0.079952	0.527418	0.429767	0.529222	0.145467	0.379621	0.184001	0.110279	0.092941	0.591177	0.727700	0.175142	0.156225	0.324283	0.172970	0.115855	0.087273	0.283854	0.213857	0.129059	0.210806	0.281762	0.092344
76	0.114642	0.117467	0.386701	0.394701	0.392465	0.140097	0.184319	0.248094	0.094099	0.037179	0.311939	0.272816	0.135071	0.352891	0.156811	0.058774	0.112740	0.064889	0.767195	0.420375	0.132784	0.322755	0.204210	0.101922	0.090148	0.046007	0.371118	0.469244	0.124046	0.248580	0.253833	0.192909	0.077322	0.060683	0.478468	0.732509	0.188912	0.309351	0.149801	0.183425	0.136693	0.107178	0.600931	0.471903	0.104193	0.197670	0.282063	0.280719	0.143498	0.187915	0.316813	0.393270	0.095514	0.281449	0.213728	0.189960	0.137139	0.094959	0.627830	0.462901	0.546181	0.146308	0.382808	0.178960	0.120290	0.102145	0.638325	0.733827	0.179324	0.158115	0.371458	0.188351	0.130053	0.088129	0.268089	0.213191	0.104531	0.146676	0.260979	0.092309
77	0.117677	0.210824	0.389643	0.353514	0.393831	0.141552	0.204530	0.282567	0.104120	0.038591	0.352212	0.320821	0.135309	0.353846	0.140621	0.057976	0.115985	0.073859	0.797056	0.470038	0.135206	0.333930	0.182618	0.100314	0.086390	0.052648	0.382661	0.471381	0.125900	0.255619	0.256710	0.189199	0.075023	0.058268	0.482489	0.769495	0.189343	0.303271	0.131097	0.261627	0.135122	0.102874	0.619657	0.437367	0.102864	0.200493	0.280522	0.279300	0.151423	0.155310	0.315919	0.423848	0.099180	0.281348	0.163510	0.249046	0.118571	0.087515	0.660229	0.505854	0.549992	0.144926	0.380520	0.150119	0.123945	0.105398	0.610722	0.755244	0.209532	0.163722	0.398184	0.188516	0.138446	0.090197	0.263461	0.231636	0.101712	0.109932	0.262740	0.094957
78	0.125281	0.294352	0.391246	0.323026	0.396069	0.137435	0.263603	0.321828	0.103283	0.041156	0.402688	0.430747	0.134978	0.352398	0.119731	0.048800	0.143489	0.091776	0.825321	0.500440	0.144211	0.334147	0.183427	0.095689	0.080039	0.053859	0.381308	0.468648	0.125107	0.256604	0.253654	0.156628	0.075817	0.053828	0.497715	0.760765	0.191309	0.267289	0.129297	0.316505	0.148813	0.092250	0.639681	0.391504	0.102373	0.201237	0.309069	0.292593	0.158988	0.132937	0.315368	0.387366	0.095388	0.276927	0.163786	0.267439	0.112203	0.084135	0.673960	0.506123	0.537684	0.140269	0.380150	0.109234	0.126533	0.109561	0.625389	0.796261	0.211260	0.163368	0.405399	0.171317	0.146143	0.088200	0.272835	0.243343	0.099000	0.072151	0.274045	0.095581
79	0.123908	0.368656	0.352539	0.296554	0.390113	0.119006	0.292130	0.323188	0.098206	0.042310	0.406018	0.487285	0.132663	0.331184	0.113749	0.045539	0.151360	0.091272	0.825085	0.508750	0.151569	0.332999	0.178746	0.071081	0.088478	0.055560	0.402273	0.445696	0.119708	0.261042	0.246046	0.144110	0.075837	0.053956	0.452128	0.673256	0.174984	0.280630	0.153963	0.331446	0.176215	0.085366	0.631996	0.348708	0.102225	0.201756	0.311242	0.295185	0.162879	0.121978	0.270176	0.385242	0.093889	0.272122	0.159200	0.268434	0.114914	0.095332	0.679996	0.501852	0.542030	0.147228	0.380761	0.101685	0.117838	0.107657	0.618461	0.843471	0.187776	0.139390	0.410183	0.167862	0.146385	0.090014	0.303616	0.219017	0.100917	0.066614	0.285525	0.094638
80	0.140467	0.421304	0.230220	0.248020	0.363174	0.101080	0.297094	0.320009	0.091356	0.044063	0.424411	0.487165	0.149746	0.306779	0.109915	0.045620	0.150838	0.096187	0.797062	0.509677	0.156464	0.332498	0.169992	0.060731	0.090767	0.055002	0.393385	0.419648	0.117822	0.261183	0.233901	0.146141	0.076488	0.051543	0.376481	0.596412	0.169306	0.290940	0.194814	0.331616	0.196521	0.085708	0.616272	0.340111	0.098772	0.200847	0.309987	0.295827	0.182588	0.134284	0.281286	0.403792	0.094062	0.267629	0.139413	0.276163	0.107346	0.101817	0.684271	0.495840	0.530858	0.154808	0.382471	0.103781	0.114592	0.106770	0.568224	0.862340	0.179831	0.128178	0.410533	0.174891	0.152634	0.092720	0.328648	0.207183	0.098181	0.071745	0.289458	0.089790
81	0.140891	0.421666	0.162856	0.210941	0.364961	0.092176	0.296674	0.322744	0.087194	0.047246	0.401558	0.487642	0.165937	0.298073	0.106328	0.048108	0.151131	0.106101	0.784762	0.564449	0.157998	0.332949	0.156711	0.078017	0.090981	0.053176	0.343227	0.460553	0.119786	0.273144	0.224364	0.145273	0.079101	0.052530	0.316231	0.590813	0.141937	0.289635	0.241311	0.336675	0.203940	0.086950	0.583521	0.336925	0.098244	0.200116	0.307504	0.296332	0.186197	0.140106	0.285943	0.454403	0.097147	0.248078	0.127710	0.292854	0.106931	0.110592	0.621224	0.479455	0.520660	0.164253	0.372380	0.106972	0.130370	0.119644	0.561268	0.869880	0.203784	0.131311	0.407793	0.173382	0.153935	0.092096	0.340423	0.232366	0.083473	0.070638	0.283407	0.078893
82	0.140944	0.423213	0.145054	0.226625	0.363719	0.090639	0.300904	0.320373	0.091935	0.054081	0.386326	0.489709	0.162797	0.300622	0.097857	0.070274	0.151644	0.110623	0.790671	0.670380	0.157650	0.324010	0.156025	0.167960	0.077373	0.046828	0.367130	0.514033	0.119806	0.288859	0.230664	0.155932	0.087890	0.055661	0.301469	0.586846	0.129533	0.285908	0.270797	0.345520	0.200336	0.086248	0.505168	0.328064	0.091229	0.200909	0.294014	0.293757	0.187636	0.139403	0.309129	0.458910	0.094129	0.222527	0.141624	0.310377	0.136827	0.134338	0.563653	0.507189	0.521978	0.166915	0.350431	0.090926	0.136580	0.128404	0.584313	0.874538	0.242124	0.133781	0.407621	0.172796	0.129703	0.073999	0.344846	0.286382	0.074376	0.069233	0.254516	0.071695
83	0.140872	0.426239	0.169360	0.277426	0.360909	0.080970	0.292654	0.287845	0.094466	0.053347	0.412419	0.487679	0.164567	0.280793	0.078162	0.095435	0.152328	0.115419	0.784154	0.693153	0.155101	0.311498	0.155640	0.225421	0.095334	0.053287	0.359802	0.514782	0.119905	0.290042	0.271676	0.156448	0.086631	0.055727	0.298788	0.655508	0.125920	0.270752	0.276207	0.360730	0.224473	0.083164	0.479160	0.293050	0.074617	0.200353	0.284353	0.282145	0.177906	0.137288	0.329292	0.505324	0.096573	0.229567	0.156738	0.324906	0.159892	0.150130	0.563272	0.484688	0.465647	0.161037	0.351692	0.077699	0.130753	0.128339	0.592678	0.886443	0.272909	0.133587	0.407164	0.172863	0.121265	0.068392	0.374065	0.337043	0.066233	0.076715	0.214485	0.068569
84	0.142970	0.427938	0.201210	0.268323	0.353064	0.084182	0.286939	0.247529	0.097585	0.054817	0.420073	0.487068	0.164259	0.269563	0.075048	0.102915	0.157741	0.119982	0.745762	0.680877	0.154405	0.307677	0.151861	0.268247	0.099137	0.056389	0.339675	0.549412	0.119862	0.290022	0.292636	0.151306	0.095569	0.061278	0.279855	0.704193	0.122593	0.257479	0.329186	0.384681	0.238622	0.077921	0.468720	0.241147	0.072551	0.199279	0.272955	0.262287	0.177787	0.142128	0.349469	0.680362	0.093687	0.208739	0.159463	0.329954	0.175413	0.165831	0.552717	0.480456	0.320524	0.153025	0.340715	0.077055	0.134300	0.127642	0.556535	0.734370	0.284225	0.133804	0.394632	0.172666	0.113305	0.076065	0.450636	0.352470	0.070053	0.092422	0.184054	0.067462
85	0.155547	0.436872	0.194130	0.230797	0.203765	0.085772	0.284936	0.228887	0.101460	0.055918	0.411375	0.484228	0.150931	0.268771	0.100726	0.102938	0.162538	0.121731	0.644374	0.672882	0.148323	0.312679	0.150740	0.281914	0.112458	0.069760	0.491048	0.590019	0.120090	0.290032	0.292656	0.148777	0.092505	0.062773	0.303988	0.659881	0.105005	0.204103	0.385820	0.406138	0.248240	0.066240	0.431305	0.198130	0.058862	0.172844	0.264383	0.244743	0.169776	0.143438	0.466385	0.794943	0.099365	0.198655	0.160033	0.329850	0.170627	0.163806	0.448108	0.447505	0.252337	0.151399	0.336541	0.085627	0.128180	0.118951	0.532990	0.683203	0.310214	0.138124	0.342162	0.169078	0.110795	0.080087	0.492075	0.340607	0.095371	0.143687	0.162537	0.066247
86	0.156244	0.404490	0.180701	0.215586	0.207940	0.087376	0.284986	0.223679	0.099473	0.056900	0.418249	0.509533	0.133605	0.268105	0.108854	0.102943	0.162116	0.121261	0.518087	0.686590	0.134721	0.312201	0.144480	0.281753	0.119344	0.071080	0.520266	0.589997	0.123448	0.283197	0.287513	0.148975	0.092408	0.062334	0.305326	0.611984	0.104325	0.203871	0.412937	0.418570	0.254893	0.057720	0.369519	0.184122	0.046873	0.150984	0.266097	0.236885	0.161880	0.141010	0.585609	0.885958	0.094194	0.194504	0.161436	0.328960	0.170418	0.163749	0.375224	0.385290	0.246273	0.133711	0.311921	0.116717	0.120568	0.110984	0.472540	0.684255	0.328736	0.124460	0.338718	0.165840	0.106084	0.083688	0.494951	0.333065	0.099321	0.146935	0.160615	0.063152
87	0.156685	0.348691	0.183736	0.242626	0.200618	0.083885	0.268397	0.179901	0.082676	0.064503	0.418779	0.573123	0.126947	0.269393	0.106510	0.107235	0.155483	0.122007	0.492876	0.724160	0.120659	0.305676	0.137361	0.292912	0.118357	0.070632	0.527969	0.598906	0.102373	0.275410	0.251620	0.151934	0.093867	0.065822	0.348414	0.577699	0.102075	0.203989	0.426314	0.423617	0.251646	0.057979	0.350127	0.190157	0.046037	0.123230	0.271053	0.243437	0.167411	0.140908	0.616623	0.893990	0.079652	0.195071	0.165607	0.328565	0.173778	0.163883	0.368384	0.372226	0.247323	0.115703	0.240865	0.123681	0.115587	0.108587	0.454387	0.671658	0.356266	0.117751	0.290369	0.155812	0.111722	0.081254	0.427654	0.346375	0.098298	0.148561	0.151785	0.086982
88	0.135952	0.267364	0.182672	0.268590	0.194503	0.072755	0.207083	0.090434	0.075574	0.064752	0.371147	0.624159	0.122134	0.271716	0.106646	0.134775	0.133726	0.116100	0.501700	0.733565	0.112274	0.274213	0.136545	0.310161	0.119726	0.071630	0.575488	0.596412	0.087504	0.266000	0.236282	0.152830	0.104657	0.091626	0.408404	0.570470	0.103792	0.202548	0.430039	0.425014	0.250954	0.058526	0.349283	0.319299	0.046614	0.087334	0.274967	0.250764	0.173401	0.132921	0.615552	0.941915	0.076645	0.175676	0.164390	0.328013	0.186428	0.167539	0.397744	0.463106	0.215860	0.111523	0.176824	0.128056	0.112981	0.105625	0.440943	0.629675	0.351739	0.121468	0.200106	0.150894	0.103076	0.074599	0.406874	0.405550	0.101573	0.149710	0.153522	0.137435
89	0.101114	0.138483	0.198932	0.277317	0.189715	0.068564	0.138971	0.066081	0.076833	0.065211	0.394267	0.571762	0.121198	0.263181	0.107881	0.159259	0.134346	0.116684	0.474032	0.709336	0.104103	0.200632	0.136473	0.322223	0.111143	0.071153	0.611420	0.621044	0.073631	0.198645	0.238025	0.152160	0.106608	0.092738	0.392725	0.573144	0.105309	0.195118	0.430586	0.419670	0.250449	0.059169	0.342132	0.475866	0.052205	0.108488	0.276141	0.239718	0.156989	0.103407	0.606845	0.924050	0.075341	0.132877	0.160754	0.322206	0.186843	0.160651	0.401855	0.572304	0.164235	0.109669	0.170795	0.147363	0.109910	0.102946	0.389367	0.540875	0.341879	0.143802	0.142577	0.148355	0.104051	0.083813	0.467583	0.554625	0.104938	0.151513	0.147958	0.153555
90	0.104594	0.137020	0.247806	0.278906	0.185357	0.068943	0.120751	0.067435	0.080864	0.066556	0.407342	0.570304	0.120858	0.257308	0.107528	0.161020	0.129235	0.107485	0.407187	0.673439	0.104248	0.168085	0.136789	0.324582	0.110355	0.071690	0.620984	0.623776	0.062817	0.168873	0.231743	0.151908	0.109800	0.092419	0.378081	0.572823	0.104856	0.176944	0.430103	0.390087	0.255358	0.066318	0.307839	0.543056	0.052622	0.106634	0.274086	0.217681	0.172415	0.119489	0.623850	0.960582	0.074456	0.129757	0.153726	0.289334	0.187216	0.154391	0.469561	0.602537	0.151693	0.118278	0.171777	0.164030	0.110031	0.106875	0.393951	0.496980	0.350243	0.179568	0.110494	0.140385	0.126576	0.106566	0.493877	0.648907	0.109634	0.163443	0.127836	0.153918
91	0.102770	0.133276	0.259665	0.265193	0.178229	0.068520	0.120885	0.056087	0.101110	0.070502	0.377532	0.603468	0.121138	0.256874	0.106218	0.171553	0.102406	0.099964	0.332960	0.657407	0.099871	0.180721	0.134737	0.326433	0.115944	0.082088	0.615440	0.580625	0.069965	0.167424	0.228285	0.153259	0.120365	0.090981	0.389404	0.567508	0.098012	0.175097	0.432303	0.334630	0.247906	0.068512	0.269199	0.549795	0.052498	0.106778	0.237880	0.199107	0.194915	0.151197	0.652898	1.094434	0.071669	0.163034	0.146619	0.232214	0.184153	0.141230	0.485676	0.644011	0.147096	0.143423	0.172109	0.170792	0.095139	0.099372	0.393185	0.490714	0.356515	0.187925	0.095488	0.128228	0.158365	0.120643	0.476317	0.656105	0.109915	0.172027	0.099388	0.169460
92	0.102173	0.122677	0.246977	0.210303	0.162314	0.067716	0.107759	0.087145	0.105290	0.067140	0.376565	0.600484	0.121455	0.255022	0.105907	0.203711	0.104337	0.105922	0.303165	0.661714	0.085239	0.195828	0.138531	0.329008	0.114442	0.085998	0.598099	0.547076	0.080791	0.171211	0.230121	0.151115	0.115633	0.089248	0.390073	0.551343	0.087672	0.172073	0.436041	0.303021	0.230113	0.072250	0.266259	0.552846	0.051959	0.108809	0.158109	0.196511	0.195581	0.157448	0.800770	1.140827	0.082632	0.290709	0.144466	0.201148	0.159897	0.124008	0.502668	0.753384	0.103710	0.171288	0.168377	0.168513	0.080061	0.088473	0.376887	0.491806	0.348987	0.206973	0.093407	0.121843	0.172979	0.124308	0.406358	0.752521	0.108083	0.181362	0.091313	0.187296
93	0.100595	0.114266	0.222007	0.208727	0.160803	0.067954	0.076422	0.140777	0.110666	0.064896	0.462388	0.598388	0.119799	0.254075	0.110830	0.236195	0.106190	0.102258	0.298627	0.658724	0.073350	0.203839	0.143644	0.329322	0.097754	0.082103	0.598309	0.550475	0.087310	0.176403	0.232967	0.148383	0.114961	0.089462	0.397575	0.536559	0.047183	0.094471	0.423773	0.296749	0.210005	0.074816	0.287906	0.576315	0.055184	0.110213	0.121541	0.206430	0.192752	0.148932	0.958874	1.059148	0.096558	0.377078	0.144612	0.204352	0.137701	0.124648	0.600443	0.798116	0.105139	0.186232	0.161615	0.164855	0.077772	0.083916	0.351316	0.402266	0.334780	0.213951	0.094897	0.120531	0.180003	0.136700	0.363708	0.768732	0.107707	0.183766	0.090645	0.197946
94	0.081213	0.066193	0.225201	0.220059	0.159780	0.062498	0.112799	0.144480	0.114969	0.065211	0.506239	0.600659	0.095589	0.179969	0.119033	0.260384	0.105098	0.091584	0.273878	0.586517	0.064607	0.212087	0.141103	0.334111	0.093190	0.076149	0.531879	0.430047	0.098962	0.199676	0.238832	0.142267	0.110221	0.096143	0.397370	0.398346	0.050653	0.094533	0.400090	0.293520	0.196603	0.075711	0.310171	0.612786	0.055926	0.110164	0.119423	0.207306	0.216120	0.148180	1.003958	0.967070	0.102511	0.398051	0.145288	0.203143	0.145456	0.134410	0.597458	0.795329	0.105802	0.184423	0.158799	0.163587	0.076429	0.083185	0.349410	0.356074	0.308547	0.215378	0.096114	0.120551	0.192036	0.151800	0.357927	0.770227	0.105344	0.184380	0.091421	0.204152
95	0.076189	0.058039	0.232306	0.212041	0.138668	0.035174	0.147332	0.155967	0.144966	0.068418	0.525943	0.654472	0.086444	0.149328	0.124431	0.268724	0.104997	0.088229	0.267249	0.476318	0.063643	0.206484	0.139555	0.337063	0.088800	0.073392	0.461522	0.395577	0.103319	0.187867	0.238937	0.129102	0.100594	0.093448	0.422830	0.537794	0.058283	0.101991	0.366061	0.282518	0.195672	0.088548	0.306877	0.632073	0.054520	0.109033	0.121084	0.207376	0.237154	0.149036	0.978958	0.997942	0.112043	0.422105	0.142752	0.180288	0.141352	0.128062	0.592154	0.785498	0.092893	0.206643	0.135351	0.165214	0.085407	0.082733	0.326298	0.407898	0.307907	0.217058	0.097668	0.119513	0.189118	0.151510	0.372665	0.763589	0.101870	0.184599	0.105745	0.204330
96	0.061151	0.051407	0.250819	0.176572	0.071156	0.040614	0.155531	0.176739	0.145632	0.068500	0.542067	0.735570	0.085197	0.142955	0.124550	0.262952	0.108837	0.084577	0.280032	0.476806	0.071620	0.206928	0.161154	0.312633	0.103083	0.085513	0.475554	0.383205	0.103695	0.175166	0.208209	0.108699	0.104886	0.103040	0.470389	0.711023	0.060751	0.105401	0.359847	0.261425	0.168141	0.092963	0.309358	0.638384	0.048267	0.102753	0.121179	0.210570	0.227431	0.152632	1.001742	1.076011	0.118038	0.440914	0.132273	0.151332	0.152192	0.133299	0.596304	0.772507	0.113746	0.233660	0.112524	0.169578	0.093596	0.085191	0.304886	0.393805	0.329645	0.214451	0.147923	0.114209	0.192061	0.151675	0.421477	0.750492	0.099049	0.177702	0.121344	0.206328
97	0.058585	0.049232	0.281245	0.132299	0.072868	0.057015	0.200526	0.198122	0.147531	0.065492	0.549227	0.761102	0.082189	0.128013	0.126989	0.257284	0.106600	0.081620	0.287661	0.498946	0.078407	0.204298	0.191662	0.284726	0.101655	0.081836	0.453507	0.385616	0.103958	0.173966	0.161374	0.099092	0.107689	0.106255	0.529035	0.760322	0.067236	0.119026	0.333431	0.225023	0.132538	0.088933	0.317459	0.643231	0.047888	0.099876	0.115747	0.217190	0.212140	0.157240	1.171546	1.182042	0.114905	0.443122	0.111222	0.119443	0.143548	0.132338	0.570772	0.747618	0.120714	0.235350	0.115680	0.172554	0.099395	0.085112	0.316308	0.409301	0.302758	0.206517	0.204530	0.103266	0.191975	0.147882	0.363311	0.663352	0.075602	0.137053	0.124041	0.207101
98	0.060348	0.049997	0.270039	0.112359	0.076402	0.061030	0.230365	0.205548	0.161312	0.061988	0.647825	0.709179	0.082108	0.128102	0.118051	0.256708	0.103307	0.080727	0.310025	0.489406	0.078429	0.200499	0.199670	0.249207	0.101051	0.081753	0.380440	0.380386	0.105295	0.185045	0.163370	0.125505	0.103083	0.088331	0.543736	0.752123	0.070864	0.124209	0.256096	0.177680	0.117582	0.092898	0.318674	0.655891	0.047625	0.097054	0.120054	0.218830	0.214378	0.159568	1.222735	1.232525	0.113762	0.441513	0.104028	0.105761	0.132092	0.125828	0.568713	0.679127	0.144765	0.239730	0.112025	0.159638	0.101925	0.085422	0.310705	0.419099	0.263536	0.202593	0.204442	0.083894	0.175662	0.133678	0.354880	0.540069	0.064802	0.131809	0.123680	0.206874
99	0.054937	0.046809	0.237436	0.106014	0.112332	0.062572	0.244237	0.205421	0.161593	0.062220	0.763900	0.643408	0.082315	0.127357	0.099221	0.256897	0.104861	0.081009	0.374044	0.453589	0.074947	0.188049	0.195505	0.238456	0.103667	0.086824	0.337709	0.343081	0.102758	0.187328	0.172564	0.170378	0.099522	0.071959	0.567539	0.748575	0.070617	0.118586	0.188256	0.140281	0.104172	0.096734	0.319016	0.679323	0.050752	0.097296	0.112818	0.221941	0.184577	0.125159	1.219456	1.138989	0.109135	0.438229	0.102276	0.111791	0.134768	0.131471	0.525577	0.617478	0.159036	0.244483	0.103211	0.144380	0.122818	0.101280	0.307600	0.441288	0.252802	0.202087	0.227783	0.071595	0.141810	0.116892	0.369644	0.514508	0.063244	0.131601	0.122542	0.198752
100	0.056464	0.046191	0.234471	0.109740	0.112003	0.067255	0.245948	0.204599	0.161240	0.059680	0.799179	0.644130	0.081751	0.123233	0.100528	0.257611	0.107425	0.078571	0.489051	0.437980	0.071946	0.185187	0.189839	0.237196	0.109575	0.104281	0.338060	0.371869	0.097121	0.186755	0.167601	0.203771	0.097004	0.073023	0.570594	0.758940	0.082327	0.123353	0.141851	0.122423	0.115583	0.099820	0.325142	0.698518	0.050608	0.096541	0.103292	0.222395	0.182377	0.107413	1.159725	1.102492	0.106406	0.437780	0.104443	0.117639	0.130532	0.134321	0.483300	0.604970	0.201968	0.247753	0.101785	0.143073	0.124770	0.100499	0.276411	0.443887	0.252384	0.191316	0.247847	0.069258	0.123348	0.107117	0.384516	0.448053	0.057980	0.131073	0.120778	0.168838
101	0.055879	0.046220	0.237183	0.127781	0.112471	0.070341	0.245511	0.203706	0.169298	0.059716	0.820476	0.607689	0.080331	0.120226	0.102887	0.253034	0.112009	0.083619	0.519199	0.420898	0.069753	0.186069	0.185044	0.219884	0.100210	0.096393	0.356052	0.423729	0.098202	0.186602	0.169760	0.219669	0.084572	0.073163	0.557783	0.770453	0.095544	0.129598	0.157375	0.120495	0.122438	0.102355	0.331343	0.664239	0.049040	0.089783	0.097019	0.209716	0.198827	0.108263	1.075014	1.076577	0.106468	0.440537	0.099521	0.118782	0.132658	0.145621	0.474220	0.457151	0.268705	0.248303	0.100143	0.187664	0.126426	0.096476	0.257644	0.433340	0.248517	0.156081	0.256896	0.074180	0.105980	0.084965	0.400255	0.531572	0.051898	0.129736	0.118977	0.149178
