	304_At_T2_sh_ND_01.c3d	304_At_T2_sh_ND_01.c3d	304_At_T2_sh_ND_01.c3d	304_At_T2_sh_ND_01.c3d	304_At_T2_sh_ND_01.c3d	304_At_T2_sh_ND_01.c3d	304_At_T2_sh_ND_01.c3d	304_At_T2_sh_ND_01.c3d	304_At_T2_sh_ND_02.c3d	304_At_T2_sh_ND_02.c3d	304_At_T2_sh_ND_02.c3d	304_At_T2_sh_ND_02.c3d	304_At_T2_sh_ND_02.c3d	304_At_T2_sh_ND_02.c3d	304_At_T2_sh_ND_02.c3d	304_At_T2_sh_ND_02.c3d	304_At_T2_sh_ND_03.c3d	304_At_T2_sh_ND_03.c3d	304_At_T2_sh_ND_03.c3d	304_At_T2_sh_ND_03.c3d	304_At_T2_sh_ND_03.c3d	304_At_T2_sh_ND_03.c3d	304_At_T2_sh_ND_03.c3d	304_At_T2_sh_ND_03.c3d	304_At_T2_sh_ND_04.c3d	304_At_T2_sh_ND_04.c3d	304_At_T2_sh_ND_04.c3d	304_At_T2_sh_ND_04.c3d	304_At_T2_sh_ND_04.c3d	304_At_T2_sh_ND_04.c3d	304_At_T2_sh_ND_04.c3d	304_At_T2_sh_ND_04.c3d	304_At_T2_sh_ND_05.c3d	304_At_T2_sh_ND_05.c3d	304_At_T2_sh_ND_05.c3d	304_At_T2_sh_ND_05.c3d	304_At_T2_sh_ND_05.c3d	304_At_T2_sh_ND_05.c3d	304_At_T2_sh_ND_05.c3d	304_At_T2_sh_ND_05.c3d	304_At_T2_sh_ND_07.c3d	304_At_T2_sh_ND_07.c3d	304_At_T2_sh_ND_07.c3d	304_At_T2_sh_ND_07.c3d	304_At_T2_sh_ND_07.c3d	304_At_T2_sh_ND_07.c3d	304_At_T2_sh_ND_07.c3d	304_At_T2_sh_ND_07.c3d	304_At_T2_sh_ND_08.c3d	304_At_T2_sh_ND_08.c3d	304_At_T2_sh_ND_08.c3d	304_At_T2_sh_ND_08.c3d	304_At_T2_sh_ND_08.c3d	304_At_T2_sh_ND_08.c3d	304_At_T2_sh_ND_08.c3d	304_At_T2_sh_ND_08.c3d	304_At_T2_sh_ND_09.c3d	304_At_T2_sh_ND_09.c3d	304_At_T2_sh_ND_09.c3d	304_At_T2_sh_ND_09.c3d	304_At_T2_sh_ND_09.c3d	304_At_T2_sh_ND_09.c3d	304_At_T2_sh_ND_09.c3d	304_At_T2_sh_ND_09.c3d	304_At_T2_sh_ND_10.c3d	304_At_T2_sh_ND_10.c3d	304_At_T2_sh_ND_10.c3d	304_At_T2_sh_ND_10.c3d	304_At_T2_sh_ND_10.c3d	304_At_T2_sh_ND_10.c3d	304_At_T2_sh_ND_10.c3d	304_At_T2_sh_ND_10.c3d
	Biceps femoris_lat	Semitendinosus_lat	Vastus lateralis_lat	Vastus medialis_lat	Biceps femoris_med	Semitendinosus_med	Vastus lateralis_med	Vastus medialis_med	Biceps femoris_lat	Semitendinosus_lat	Vastus lateralis_lat	Vastus medialis_lat	Biceps femoris_med	Semitendinosus_med	Vastus lateralis_med	Vastus medialis_med	Biceps femoris_lat	Semitendinosus_lat	Vastus lateralis_lat	Vastus medialis_lat	Biceps femoris_med	Semitendinosus_med	Vastus lateralis_med	Vastus medialis_med	Biceps femoris_lat	Semitendinosus_lat	Vastus lateralis_lat	Vastus medialis_lat	Biceps femoris_med	Semitendinosus_med	Vastus lateralis_med	Vastus medialis_med	Biceps femoris_lat	Semitendinosus_lat	Vastus lateralis_lat	Vastus medialis_lat	Biceps femoris_med	Semitendinosus_med	Vastus lateralis_med	Vastus medialis_med	Biceps femoris_lat	Semitendinosus_lat	Vastus lateralis_lat	Vastus medialis_lat	Biceps femoris_med	Semitendinosus_med	Vastus lateralis_med	Vastus medialis_med	Biceps femoris_lat	Semitendinosus_lat	Vastus lateralis_lat	Vastus medialis_lat	Biceps femoris_med	Semitendinosus_med	Vastus lateralis_med	Vastus medialis_med	Biceps femoris_lat	Semitendinosus_lat	Vastus lateralis_lat	Vastus medialis_lat	Biceps femoris_med	Semitendinosus_med	Vastus lateralis_med	Vastus medialis_med	Biceps femoris_lat	Semitendinosus_lat	Vastus lateralis_lat	Vastus medialis_lat	Biceps femoris_med	Semitendinosus_med	Vastus lateralis_med	Vastus medialis_med
	P2D	P2D	P2D	P2D	P2D	P2D	P2D	P2D	P2D	P2D	P2D	P2D	P2D	P2D	P2D	P2D	P2D	P2D	P2D	P2D	P2D	P2D	P2D	P2D	P2D	P2D	P2D	P2D	P2D	P2D	P2D	P2D	P2D	P2D	P2D	P2D	P2D	P2D	P2D	P2D	P2D	P2D	P2D	P2D	P2D	P2D	P2D	P2D	P2D	P2D	P2D	P2D	P2D	P2D	P2D	P2D	P2D	P2D	P2D	P2D	P2D	P2D	P2D	P2D	P2D	P2D	P2D	P2D	P2D	P2D	P2D	P2D
	EMG_lat	EMG_lat	EMG_lat	EMG_lat	EMG_med	EMG_med	EMG_med	EMG_med	EMG_lat	EMG_lat	EMG_lat	EMG_lat	EMG_med	EMG_med	EMG_med	EMG_med	EMG_lat	EMG_lat	EMG_lat	EMG_lat	EMG_med	EMG_med	EMG_med	EMG_med	EMG_lat	EMG_lat	EMG_lat	EMG_lat	EMG_med	EMG_med	EMG_med	EMG_med	EMG_lat	EMG_lat	EMG_lat	EMG_lat	EMG_med	EMG_med	EMG_med	EMG_med	EMG_lat	EMG_lat	EMG_lat	EMG_lat	EMG_med	EMG_med	EMG_med	EMG_med	EMG_lat	EMG_lat	EMG_lat	EMG_lat	EMG_med	EMG_med	EMG_med	EMG_med	EMG_lat	EMG_lat	EMG_lat	EMG_lat	EMG_med	EMG_med	EMG_med	EMG_med	EMG_lat	EMG_lat	EMG_lat	EMG_lat	EMG_med	EMG_med	EMG_med	EMG_med
ITEM	Y	Y	Y	Y	Y	Y	Y	Y	Y	Y	Y	Y	Y	Y	Y	Y	Y	Y	Y	Y	Y	Y	Y	Y	Y	Y	Y	Y	Y	Y	Y	Y	Y	Y	Y	Y	Y	Y	Y	Y	Y	Y	Y	Y	Y	Y	Y	Y	Y	Y	Y	Y	Y	Y	Y	Y	Y	Y	Y	Y	Y	Y	Y	Y	Y	Y	Y	Y	Y	Y	Y	Y
1	0.155221	0.186440	0.156148	0.351911	0.205986	0.211377	0.157868	0.175988	0.229672	0.353898	0.167326	0.251802	0.329242	0.429805	0.095746	0.452995	0.144371	0.343661	0.089147	0.317510	0.094767	0.108583	0.183018	0.470170	0.163347	0.197798	0.159461	0.269760	0.558160	0.497081	0.188398	0.373172	0.264390	0.706667	0.068064	0.178550	0.369849	0.395022	0.117658	0.398723	0.311485	0.682643	0.192701	0.526024	0.380181	0.397154	0.204308	0.596063	0.092299	0.158278	0.164817	0.234721	0.177523	0.117322	0.261428	0.615557	0.420167	0.406833	0.130867	0.145418	0.149717	0.140397	0.087672	0.357284	0.220647	0.692455	0.073975	0.254699	0.156465	0.197459	0.169793	0.361346
2	0.150220	0.203467	0.148129	0.436216	0.198630	0.199972	0.148511	0.193184	0.156773	0.321164	0.164690	0.250734	0.358583	0.501016	0.109258	0.443118	0.141918	0.372613	0.091269	0.318941	0.097047	0.108444	0.184576	0.413547	0.218562	0.379972	0.157789	0.271031	0.571747	0.501754	0.190331	0.371436	0.266554	0.736243	0.068365	0.193637	0.361176	0.375835	0.140909	0.406678	0.267092	0.606854	0.184977	0.524303	0.380669	0.391993	0.201184	0.639613	0.066152	0.157763	0.137308	0.194577	0.171952	0.106532	0.273180	0.684168	0.419902	0.406471	0.130030	0.139948	0.149251	0.146299	0.101457	0.342738	0.209322	0.626970	0.067650	0.263716	0.188217	0.232402	0.170737	0.328654
3	0.152944	0.205126	0.159713	0.482494	0.179444	0.142250	0.148567	0.212046	0.105469	0.288479	0.163966	0.252592	0.375415	0.500628	0.110598	0.446656	0.140467	0.377065	0.076035	0.345879	0.096709	0.105610	0.192221	0.406281	0.248407	0.408011	0.163916	0.284168	0.576430	0.504517	0.194098	0.368049	0.274127	0.745690	0.063906	0.194695	0.358347	0.391566	0.154401	0.417127	0.263303	0.565896	0.180563	0.517672	0.336940	0.364541	0.190628	0.651607	0.066012	0.154576	0.114253	0.189697	0.162260	0.113258	0.282808	0.703919	0.416034	0.397596	0.130575	0.188766	0.145591	0.144737	0.109228	0.260911	0.183991	0.479154	0.061016	0.261982	0.201316	0.239145	0.158877	0.327383
4	0.154990	0.205110	0.212127	0.480332	0.091592	0.104258	0.152243	0.310384	0.093784	0.256100	0.161324	0.259287	0.370827	0.545928	0.110708	0.391337	0.140755	0.381382	0.083183	0.379122	0.095945	0.107886	0.189011	0.399392	0.267963	0.402519	0.165746	0.343248	0.592795	0.510422	0.194767	0.380835	0.266693	0.712071	0.062185	0.214781	0.354400	0.392284	0.148285	0.416342	0.226182	0.370068	0.179256	0.518497	0.330804	0.354506	0.176381	0.634088	0.057415	0.134284	0.111631	0.184872	0.163181	0.118203	0.283763	0.705026	0.415665	0.393800	0.124677	0.211232	0.133814	0.134904	0.111982	0.219108	0.172648	0.455684	0.075302	0.210463	0.187671	0.226244	0.159393	0.336270
5	0.151629	0.203376	0.230293	0.495218	0.108145	0.193089	0.147766	0.335001	0.077598	0.212020	0.152988	0.292763	0.414058	0.598248	0.117577	0.301582	0.151371	0.389792	0.106255	0.500178	0.093433	0.117688	0.182217	0.398310	0.276131	0.396675	0.159358	0.371259	0.578211	0.484131	0.196136	0.434864	0.260999	0.696820	0.062248	0.243819	0.344750	0.384758	0.137196	0.479125	0.192797	0.245339	0.178483	0.513087	0.306645	0.325626	0.173342	0.594820	0.054872	0.131508	0.108954	0.170454	0.092540	0.106873	0.278484	0.704127	0.412377	0.386644	0.102003	0.208466	0.108362	0.115747	0.127365	0.222728	0.146642	0.326874	0.103081	0.211132	0.188939	0.255154	0.164336	0.335214
6	0.149490	0.211639	0.230467	0.484647	0.130751	0.245094	0.133302	0.407887	0.066910	0.210187	0.163305	0.293250	0.442045	0.603164	0.127040	0.299238	0.154723	0.390175	0.123697	0.505508	0.094134	0.117224	0.199230	0.341964	0.275068	0.459590	0.161451	0.382755	0.545025	0.441015	0.198440	0.483372	0.258938	0.695301	0.061800	0.248846	0.320938	0.355987	0.139605	0.534705	0.195093	0.238714	0.176885	0.313015	0.248538	0.325788	0.172928	0.632007	0.055394	0.144803	0.105243	0.139627	0.080398	0.104895	0.265842	0.699068	0.398669	0.361789	0.083596	0.226167	0.065549	0.107778	0.132260	0.241963	0.110077	0.202933	0.119611	0.188819	0.283727	0.363958	0.172433	0.328426
7	0.139939	0.272416	0.230675	0.439630	0.138262	0.250735	0.119246	0.452560	0.061688	0.204737	0.150822	0.390016	0.436440	0.609169	0.126439	0.347734	0.153617	0.400412	0.125574	0.505409	0.095808	0.117523	0.227399	0.233535	0.279558	0.507364	0.183089	0.366248	0.503099	0.417536	0.191906	0.451412	0.257954	0.680559	0.062999	0.234041	0.325339	0.342982	0.160321	0.546570	0.229399	0.284127	0.156630	0.291264	0.219623	0.302355	0.176633	0.592468	0.051634	0.149659	0.093401	0.177781	0.081269	0.112769	0.258382	0.697653	0.351036	0.324509	0.101645	0.290759	0.045051	0.129506	0.127770	0.258174	0.098335	0.141458	0.121798	0.182390	0.311293	0.428646	0.194013	0.326128
8	0.169372	0.380707	0.231666	0.440647	0.138739	0.250222	0.140971	0.443097	0.059225	0.199463	0.150673	0.400955	0.443988	0.589830	0.128251	0.542632	0.155743	0.357947	0.140153	0.497410	0.094773	0.110695	0.245948	0.256774	0.269840	0.531331	0.184349	0.362997	0.476780	0.416427	0.178167	0.392341	0.246129	0.618229	0.061078	0.226309	0.275637	0.305069	0.174683	0.539248	0.257648	0.313770	0.121861	0.229160	0.077197	0.201297	0.173323	0.558572	0.057035	0.144530	0.085370	0.189051	0.088042	0.117674	0.264337	0.776708	0.334307	0.338288	0.102960	0.323806	0.044109	0.139526	0.125444	0.256413	0.071221	0.108578	0.123620	0.185559	0.317824	0.437644	0.217755	0.323443
9	0.164595	0.383016	0.221003	0.443160	0.138780	0.248344	0.146560	0.444842	0.060339	0.200414	0.158888	0.415956	0.404752	0.589446	0.135572	0.557408	0.123609	0.276262	0.154840	0.493881	0.095498	0.119085	0.258352	0.265529	0.252584	0.536343	0.174299	0.345571	0.465935	0.372681	0.220855	0.550668	0.195351	0.514142	0.058916	0.209002	0.266879	0.311202	0.173285	0.508919	0.256345	0.313335	0.116336	0.204320	0.052271	0.232534	0.152559	0.535284	0.054123	0.131809	0.087477	0.194236	0.095058	0.119148	0.263705	0.812806	0.231836	0.238108	0.097726	0.332173	0.069389	0.149759	0.123998	0.265959	0.063651	0.110371	0.127245	0.241044	0.318046	0.443093	0.224348	0.280734
10	0.164248	0.398891	0.210024	0.441266	0.140050	0.263167	0.160797	0.453347	0.062153	0.175795	0.182118	0.405181	0.387802	0.558909	0.139509	0.545641	0.124843	0.265554	0.153405	0.490433	0.094999	0.123942	0.278758	0.297929	0.239700	0.499579	0.175867	0.341970	0.334999	0.276292	0.250579	0.725318	0.144407	0.454685	0.063806	0.201188	0.271580	0.297315	0.179484	0.507339	0.247830	0.304406	0.121279	0.261143	0.046853	0.257933	0.132620	0.482292	0.047191	0.147208	0.088216	0.187725	0.103167	0.119271	0.266441	0.791416	0.113189	0.162333	0.096803	0.336019	0.102273	0.176694	0.122228	0.245888	0.063814	0.115865	0.136199	0.241575	0.318234	0.444060	0.220008	0.230794
11	0.151090	0.399869	0.209419	0.433200	0.150494	0.303177	0.209487	0.487263	0.064996	0.128056	0.181195	0.427142	0.383699	0.463731	0.114724	0.555408	0.136506	0.237981	0.179050	0.472414	0.093521	0.125513	0.288679	0.307443	0.181273	0.407577	0.193693	0.325859	0.262909	0.262709	0.255255	0.799231	0.146187	0.446131	0.077281	0.194819	0.282981	0.287237	0.183896	0.618774	0.236754	0.298181	0.144124	0.274672	0.047351	0.259208	0.122207	0.447563	0.043204	0.149820	0.082427	0.185310	0.105171	0.119360	0.273211	0.776771	0.094172	0.163320	0.128524	0.367213	0.115701	0.189987	0.123093	0.250331	0.061026	0.111912	0.135218	0.249095	0.318109	0.440811	0.206110	0.229107
12	0.147962	0.390548	0.210915	0.372139	0.157886	0.311337	0.237713	0.493131	0.063286	0.113508	0.196838	0.436377	0.360896	0.433318	0.116252	0.585085	0.143257	0.241469	0.189280	0.452159	0.094035	0.137079	0.279210	0.312365	0.154800	0.431653	0.199292	0.316136	0.255931	0.236930	0.248226	0.796391	0.138233	0.402161	0.103987	0.180478	0.304858	0.292900	0.176192	0.611889	0.230132	0.303696	0.154085	0.278183	0.042363	0.254429	0.132364	0.359244	0.047051	0.161611	0.076380	0.287603	0.105853	0.119584	0.267289	0.800184	0.103151	0.173356	0.143382	0.369277	0.131044	0.191305	0.138251	0.249580	0.057835	0.109125	0.128210	0.236396	0.314553	0.439317	0.187468	0.267997
13	0.144201	0.388374	0.231665	0.329738	0.162014	0.317406	0.254508	0.514599	0.045410	0.093889	0.194936	0.460430	0.353507	0.402533	0.144233	0.598227	0.139028	0.223502	0.189835	0.334236	0.098747	0.136958	0.265152	0.370216	0.137386	0.450350	0.198006	0.200744	0.234675	0.200074	0.242695	0.815589	0.115214	0.316442	0.152338	0.182231	0.316572	0.277571	0.162917	0.603777	0.223271	0.273965	0.133759	0.275061	0.063162	0.246676	0.131871	0.361879	0.051331	0.162979	0.075417	0.352257	0.106457	0.117999	0.254176	0.762111	0.114359	0.177125	0.144808	0.333973	0.232622	0.251528	0.153136	0.249721	0.067167	0.111658	0.105158	0.209322	0.309136	0.425755	0.179076	0.272370
14	0.142057	0.388153	0.246353	0.349719	0.164566	0.333495	0.257850	0.513150	0.050669	0.105156	0.190258	0.494993	0.323287	0.298454	0.173864	0.578371	0.130342	0.231316	0.224334	0.223768	0.100785	0.135387	0.269226	0.407626	0.132175	0.432377	0.180337	0.177404	0.200138	0.174556	0.256758	0.851150	0.103782	0.257187	0.163994	0.159307	0.311373	0.263165	0.154322	0.591532	0.227611	0.284651	0.134655	0.256831	0.064546	0.244171	0.127221	0.370887	0.051656	0.160417	0.072498	0.360605	0.108964	0.122371	0.242701	0.678341	0.118802	0.177790	0.160745	0.337656	0.258170	0.259954	0.154223	0.246082	0.068450	0.108654	0.083734	0.205825	0.297447	0.409876	0.178520	0.264550
15	0.135210	0.376120	0.243177	0.338756	0.171515	0.342398	0.273005	0.510006	0.050278	0.088109	0.185276	0.500634	0.227289	0.220807	0.177827	0.561955	0.130422	0.216001	0.246324	0.214162	0.105175	0.136176	0.288584	0.412001	0.124335	0.361245	0.179043	0.101916	0.176268	0.192046	0.261102	0.869360	0.103215	0.255074	0.166545	0.128045	0.298063	0.264410	0.153011	0.585989	0.218546	0.272326	0.140546	0.252000	0.063367	0.238263	0.127639	0.268160	0.050287	0.148937	0.074858	0.403802	0.112969	0.133533	0.227885	0.604712	0.118869	0.183369	0.165272	0.341550	0.260253	0.257681	0.155361	0.229247	0.070529	0.115903	0.084008	0.226822	0.293117	0.408154	0.173030	0.244874
16	0.131882	0.368941	0.244318	0.313379	0.178202	0.340862	0.299183	0.487179	0.050185	0.091147	0.185317	0.428662	0.200901	0.207602	0.180291	0.559106	0.122950	0.189083	0.249923	0.208042	0.106284	0.137472	0.313428	0.437810	0.115717	0.303655	0.163721	0.112189	0.125423	0.175753	0.258027	0.869243	0.109713	0.253359	0.167107	0.239936	0.278299	0.254398	0.149859	0.520007	0.177859	0.228088	0.138664	0.258621	0.070575	0.206966	0.124165	0.198814	0.050260	0.149712	0.084681	0.438720	0.110415	0.135242	0.218042	0.587926	0.132186	0.201769	0.164193	0.325940	0.260202	0.256843	0.143489	0.232148	0.076948	0.121456	0.086684	0.238586	0.295199	0.404062	0.168056	0.238485
17	0.120685	0.323631	0.254838	0.326357	0.171451	0.318272	0.306019	0.443840	0.053862	0.102978	0.187584	0.423451	0.177972	0.191917	0.191038	0.452251	0.094839	0.184880	0.246576	0.158175	0.112015	0.152332	0.315630	0.449762	0.113583	0.256868	0.162238	0.117008	0.106499	0.173757	0.256062	0.851847	0.098247	0.248633	0.215414	0.254361	0.260518	0.255570	0.145786	0.476231	0.129750	0.193723	0.146300	0.259831	0.079665	0.189640	0.105336	0.206336	0.051016	0.149525	0.080418	0.458204	0.104678	0.128980	0.218458	0.590161	0.140465	0.219446	0.157900	0.279292	0.260424	0.255839	0.137666	0.210126	0.084018	0.124659	0.087074	0.183854	0.265553	0.353939	0.169945	0.236193
18	0.060788	0.161253	0.279455	0.334799	0.150302	0.272425	0.307473	0.423143	0.053299	0.102755	0.178108	0.395695	0.147597	0.175514	0.194085	0.319926	0.091284	0.155845	0.260396	0.102712	0.116138	0.156596	0.311193	0.447666	0.117810	0.245058	0.163857	0.129769	0.113437	0.177139	0.254014	0.818248	0.088497	0.244717	0.289130	0.276384	0.251982	0.256321	0.123172	0.450330	0.133073	0.202705	0.154117	0.261435	0.082074	0.178644	0.116155	0.204540	0.054780	0.150528	0.070873	0.457170	0.098382	0.127380	0.221047	0.590244	0.132662	0.196752	0.184689	0.271343	0.260604	0.247544	0.145276	0.177648	0.085535	0.117949	0.069644	0.172815	0.180259	0.238601	0.161810	0.231269
19	0.068653	0.150490	0.285607	0.312314	0.138820	0.262686	0.306913	0.336951	0.056137	0.098416	0.139413	0.431652	0.138236	0.152806	0.192092	0.316929	0.095349	0.161741	0.253258	0.104086	0.114888	0.156165	0.296635	0.452989	0.137569	0.246518	0.169283	0.130691	0.122628	0.183277	0.250415	0.807419	0.089655	0.237831	0.320961	0.311334	0.232596	0.220311	0.121580	0.447619	0.136736	0.208990	0.149349	0.216088	0.082533	0.107185	0.123612	0.200682	0.073113	0.144828	0.067238	0.457181	0.097521	0.122569	0.220947	0.588315	0.131276	0.189176	0.211745	0.265222	0.262094	0.242442	0.146202	0.177424	0.083064	0.108471	0.070324	0.179802	0.155844	0.166774	0.126757	0.233924
20	0.080594	0.116119	0.285541	0.310319	0.140924	0.275709	0.296046	0.332651	0.068953	0.109504	0.147601	0.434195	0.124218	0.153773	0.190317	0.317716	0.089986	0.164777	0.242764	0.109798	0.114088	0.155858	0.276447	0.433675	0.131430	0.218598	0.141179	0.141249	0.134201	0.191176	0.249716	0.805524	0.098226	0.241903	0.333425	0.403101	0.227382	0.205877	0.123599	0.433037	0.135340	0.201102	0.127078	0.228180	0.082129	0.080808	0.135061	0.160731	0.092216	0.142290	0.065559	0.456278	0.096653	0.110784	0.197153	0.553577	0.130934	0.180504	0.206062	0.254727	0.262411	0.243412	0.145225	0.175149	0.077731	0.113541	0.084629	0.179441	0.152430	0.160088	0.097742	0.248442
21	0.082902	0.101222	0.283476	0.301983	0.149023	0.289880	0.287224	0.344850	0.077197	0.113080	0.127346	0.433989	0.078604	0.119104	0.192503	0.289792	0.104310	0.176853	0.240628	0.082587	0.114514	0.158198	0.265651	0.415595	0.119268	0.165600	0.137045	0.137366	0.135969	0.187609	0.217901	0.752504	0.092815	0.179723	0.332295	0.452221	0.216279	0.203883	0.112528	0.361608	0.140534	0.222806	0.118239	0.224338	0.081692	0.106279	0.134907	0.168700	0.102558	0.135946	0.069881	0.413448	0.089183	0.103448	0.160889	0.418350	0.127323	0.173244	0.185262	0.217095	0.255428	0.228048	0.151500	0.190163	0.071063	0.119456	0.090593	0.184742	0.152670	0.143498	0.094803	0.251577
22	0.081335	0.099011	0.282392	0.277188	0.153538	0.292642	0.289460	0.341700	0.082202	0.117759	0.134114	0.419588	0.082555	0.186980	0.190875	0.215164	0.126248	0.177786	0.208720	0.072639	0.116269	0.154044	0.252368	0.403320	0.115675	0.168009	0.136225	0.134676	0.136420	0.188121	0.155114	0.596174	0.092176	0.132920	0.326359	0.457603	0.202413	0.201452	0.115727	0.151469	0.137065	0.238480	0.130587	0.272868	0.078608	0.119190	0.123529	0.198647	0.104842	0.180012	0.070565	0.345316	0.081557	0.101801	0.149767	0.323026	0.113949	0.164423	0.177168	0.224616	0.246540	0.232986	0.159363	0.183665	0.079630	0.174576	0.099669	0.233429	0.150817	0.138320	0.093160	0.251389
23	0.081037	0.103268	0.256065	0.246872	0.150787	0.270222	0.266217	0.285843	0.080338	0.121175	0.142147	0.355197	0.141555	0.411506	0.167006	0.212414	0.126126	0.160363	0.167248	0.081062	0.115784	0.154357	0.232732	0.367282	0.117820	0.178203	0.125104	0.163969	0.134314	0.185267	0.139440	0.414467	0.091521	0.128398	0.307607	0.461566	0.171076	0.214988	0.110460	0.153338	0.150052	0.243215	0.142672	0.290483	0.070677	0.124950	0.127041	0.181335	0.147547	0.346141	0.072479	0.328708	0.071988	0.101585	0.139714	0.313573	0.106062	0.163943	0.177283	0.225644	0.247770	0.269809	0.151867	0.174448	0.082835	0.181234	0.094746	0.223590	0.149529	0.126804	0.094053	0.223581
24	0.081082	0.116899	0.191624	0.214621	0.140867	0.246846	0.233388	0.273140	0.087556	0.167067	0.131405	0.332950	0.185334	0.509450	0.142794	0.218742	0.143255	0.200998	0.141915	0.100153	0.109291	0.146312	0.218317	0.360697	0.128524	0.180712	0.084181	0.168992	0.133653	0.225616	0.134712	0.384114	0.090042	0.126118	0.301991	0.478899	0.156382	0.284740	0.105902	0.153206	0.158121	0.250347	0.150294	0.256807	0.086049	0.140045	0.128987	0.170621	0.168846	0.364339	0.090962	0.307880	0.070671	0.102358	0.126449	0.237421	0.096152	0.168563	0.169536	0.210935	0.176356	0.226621	0.125705	0.179201	0.073767	0.173853	0.101023	0.204953	0.139177	0.149667	0.113143	0.203396
25	0.084618	0.120356	0.170525	0.187193	0.134522	0.242868	0.211790	0.282345	0.089905	0.167365	0.121518	0.331396	0.190209	0.524353	0.135865	0.227470	0.188368	0.239277	0.136467	0.104217	0.099607	0.134239	0.214848	0.337245	0.141444	0.266344	0.087350	0.164676	0.141706	0.276294	0.130825	0.358969	0.089280	0.137180	0.305044	0.495828	0.161190	0.300855	0.104473	0.150453	0.160813	0.245655	0.164299	0.274257	0.116372	0.176925	0.131464	0.201249	0.172088	0.364767	0.114156	0.236379	0.069041	0.101437	0.124741	0.151304	0.099583	0.184684	0.169367	0.202706	0.101126	0.200438	0.112481	0.251529	0.065184	0.170231	0.105319	0.205650	0.125025	0.176325	0.135448	0.224609
26	0.118441	0.148430	0.169357	0.196609	0.124043	0.230274	0.202107	0.289462	0.087422	0.163557	0.116974	0.317888	0.219269	0.582201	0.121695	0.242577	0.189363	0.240032	0.108280	0.104019	0.094047	0.133683	0.214865	0.261271	0.145018	0.347484	0.088504	0.165522	0.147104	0.296249	0.098748	0.258094	0.082880	0.134757	0.307498	0.472337	0.160774	0.287135	0.104067	0.251846	0.159348	0.244322	0.175384	0.289711	0.118205	0.172530	0.129848	0.215433	0.172508	0.365461	0.133590	0.161193	0.068375	0.099867	0.113984	0.149857	0.080279	0.165524	0.174209	0.211537	0.096275	0.205118	0.107034	0.258929	0.063235	0.169717	0.116130	0.229843	0.103059	0.209249	0.139330	0.279308
27	0.167296	0.207248	0.151294	0.178054	0.109154	0.210978	0.195549	0.275663	0.088223	0.169303	0.114373	0.302526	0.241383	0.607199	0.114476	0.221265	0.189931	0.243088	0.117981	0.143025	0.087952	0.142427	0.200531	0.230538	0.138094	0.363362	0.083454	0.178434	0.154321	0.302220	0.067253	0.184723	0.078063	0.131040	0.277898	0.476850	0.163129	0.284473	0.102422	0.295326	0.156746	0.235981	0.166756	0.319065	0.115355	0.174346	0.125538	0.248701	0.168525	0.369337	0.136513	0.185207	0.060175	0.088855	0.102234	0.144298	0.066247	0.135640	0.169364	0.196567	0.101440	0.209253	0.106818	0.250113	0.061663	0.176204	0.122577	0.225927	0.104692	0.228356	0.139455	0.280361
28	0.194338	0.241520	0.085661	0.184391	0.096779	0.205002	0.149215	0.272366	0.086007	0.177077	0.112577	0.261166	0.262159	0.620339	0.100315	0.204222	0.180897	0.228026	0.135167	0.148340	0.094351	0.224818	0.158157	0.216181	0.125243	0.378230	0.066086	0.183713	0.154472	0.288861	0.070940	0.252227	0.076077	0.130758	0.201243	0.468589	0.161832	0.287236	0.102891	0.292189	0.156487	0.229439	0.190351	0.315751	0.115566	0.196433	0.106760	0.257745	0.163232	0.366515	0.163668	0.182600	0.054532	0.085850	0.100103	0.142381	0.068440	0.138388	0.132853	0.175877	0.105721	0.213212	0.104866	0.249423	0.066070	0.186978	0.118688	0.203770	0.111596	0.228187	0.136692	0.286153
29	0.191323	0.246302	0.057456	0.187719	0.092322	0.210417	0.110290	0.267667	0.072707	0.175868	0.088801	0.247916	0.275121	0.622141	0.090464	0.236365	0.173657	0.219532	0.140818	0.154409	0.121394	0.303105	0.105945	0.155512	0.134687	0.410296	0.071629	0.180535	0.150849	0.282448	0.075573	0.259876	0.075160	0.130423	0.143354	0.450631	0.158451	0.284151	0.097355	0.315069	0.174281	0.243360	0.240416	0.328516	0.119291	0.216652	0.092986	0.259452	0.154513	0.361439	0.180815	0.184182	0.068786	0.097322	0.100499	0.134791	0.066214	0.145927	0.104939	0.184825	0.105748	0.214942	0.094521	0.249129	0.077920	0.195037	0.117064	0.208039	0.107578	0.255841	0.135243	0.277147
30	0.185686	0.253057	0.056071	0.262026	0.099621	0.215573	0.103882	0.271085	0.078121	0.195285	0.086167	0.236376	0.279227	0.618627	0.101779	0.258288	0.158232	0.208337	0.144025	0.228569	0.130098	0.329716	0.104149	0.161086	0.139112	0.417805	0.074702	0.193318	0.144829	0.291055	0.075369	0.276571	0.062143	0.111687	0.105230	0.371476	0.148374	0.282775	0.106349	0.375337	0.192216	0.233244	0.286424	0.345270	0.136278	0.229412	0.077088	0.261132	0.149996	0.364000	0.189276	0.251540	0.083316	0.098807	0.097770	0.130982	0.077726	0.159086	0.105282	0.188786	0.107151	0.229197	0.089767	0.246762	0.079046	0.162419	0.150927	0.159542	0.105464	0.291680	0.143947	0.277994
31	0.185170	0.252264	0.059872	0.274453	0.102820	0.214469	0.111778	0.277812	0.080483	0.201752	0.078996	0.208778	0.280852	0.616475	0.092058	0.259503	0.161431	0.212955	0.158378	0.241121	0.132925	0.331292	0.095653	0.159483	0.138829	0.408308	0.099706	0.175519	0.137791	0.289515	0.075979	0.279465	0.058615	0.107383	0.109774	0.311918	0.132804	0.285141	0.142539	0.464280	0.181252	0.196852	0.302815	0.327069	0.159479	0.229717	0.076617	0.238843	0.153836	0.363392	0.194616	0.285854	0.093285	0.103493	0.092982	0.129860	0.083814	0.169163	0.106270	0.181669	0.099885	0.232512	0.092438	0.242736	0.070629	0.140492	0.213224	0.235705	0.104334	0.303088	0.154272	0.305388
32	0.190733	0.255209	0.060599	0.270169	0.100405	0.203473	0.125789	0.313351	0.079668	0.198756	0.069121	0.206511	0.274142	0.573500	0.080460	0.255989	0.165151	0.200824	0.185060	0.263396	0.135548	0.331614	0.096884	0.148520	0.144319	0.405870	0.202959	0.175639	0.127084	0.285630	0.072214	0.279517	0.055124	0.112781	0.124426	0.312650	0.116015	0.288388	0.176261	0.494729	0.164280	0.168478	0.299852	0.327885	0.173560	0.225149	0.069172	0.233339	0.128778	0.231470	0.194795	0.286237	0.100763	0.110505	0.089825	0.128537	0.084843	0.170015	0.105786	0.161024	0.092532	0.236783	0.092334	0.234185	0.072878	0.142037	0.223566	0.249372	0.107857	0.303119	0.163344	0.380996
33	0.196939	0.256321	0.082993	0.268174	0.089241	0.179069	0.138307	0.323359	0.077363	0.176845	0.069934	0.249149	0.236519	0.420210	0.073411	0.251760	0.099437	0.119683	0.196782	0.379712	0.136039	0.334668	0.096016	0.158356	0.136888	0.390436	0.251527	0.166002	0.117795	0.282290	0.072535	0.280433	0.054117	0.174395	0.152297	0.331469	0.101193	0.288346	0.178743	0.490187	0.151636	0.157634	0.331546	0.335292	0.173819	0.227815	0.066506	0.235593	0.090980	0.151572	0.188878	0.277357	0.103010	0.111823	0.089388	0.125881	0.084539	0.173120	0.096266	0.158238	0.091126	0.226054	0.083168	0.223788	0.082429	0.145970	0.224375	0.281769	0.113434	0.303335	0.165937	0.407475
34	0.205817	0.251622	0.119069	0.284548	0.078954	0.166000	0.136334	0.323071	0.077552	0.176534	0.072764	0.276585	0.217507	0.379783	0.077783	0.264466	0.092988	0.127262	0.207111	0.395954	0.135343	0.338287	0.077133	0.197112	0.137533	0.328094	0.284643	0.204296	0.112571	0.281950	0.079850	0.284743	0.053053	0.194363	0.164534	0.321107	0.099440	0.253363	0.195646	0.490096	0.150823	0.163862	0.358210	0.318542	0.175127	0.247770	0.060331	0.229924	0.083159	0.148355	0.172073	0.270401	0.102605	0.111733	0.099296	0.126790	0.082093	0.166347	0.087130	0.170824	0.084501	0.178201	0.080085	0.224792	0.109382	0.176103	0.217342	0.366680	0.113877	0.303623	0.169328	0.401152
35	0.215787	0.252162	0.134641	0.331131	0.068001	0.142223	0.128710	0.327220	0.080525	0.172590	0.078423	0.273119	0.216721	0.345226	0.104016	0.249458	0.089592	0.122280	0.195625	0.387374	0.133605	0.349327	0.060045	0.205910	0.146814	0.268799	0.302589	0.194507	0.109576	0.280535	0.097700	0.306962	0.046211	0.186624	0.172247	0.314119	0.096551	0.181196	0.228876	0.498175	0.153769	0.166061	0.377307	0.382095	0.175974	0.278278	0.077679	0.195400	0.080996	0.139858	0.166373	0.273697	0.102534	0.112023	0.100516	0.125670	0.072722	0.135058	0.100524	0.188737	0.084903	0.167745	0.079839	0.228993	0.133420	0.206620	0.216710	0.515758	0.120244	0.303431	0.175875	0.403358
36	0.210572	0.238668	0.133436	0.360480	0.061894	0.129318	0.125983	0.331961	0.079669	0.168790	0.111554	0.275388	0.196684	0.270825	0.188723	0.244633	0.082392	0.114224	0.199580	0.390098	0.133138	0.367536	0.055420	0.235514	0.156867	0.266385	0.331904	0.203394	0.108975	0.271357	0.112870	0.315791	0.086299	0.208803	0.206355	0.289343	0.101412	0.135729	0.239746	0.503976	0.167071	0.178550	0.380902	0.363510	0.178699	0.284657	0.113252	0.189293	0.080908	0.124584	0.219214	0.263362	0.106027	0.114795	0.101290	0.126214	0.076915	0.142938	0.129298	0.264119	0.109325	0.176517	0.084435	0.162421	0.140818	0.200621	0.239221	0.530739	0.139471	0.290465	0.163668	0.409245
37	0.183390	0.190829	0.133838	0.380107	0.064264	0.128923	0.125613	0.309703	0.084027	0.168256	0.231594	0.323175	0.171714	0.231482	0.292223	0.248862	0.084333	0.116425	0.212813	0.389393	0.141631	0.385778	0.059828	0.264823	0.151917	0.224924	0.344152	0.196264	0.099880	0.207672	0.118385	0.315233	0.163226	0.322799	0.222233	0.269463	0.104226	0.133957	0.241487	0.446652	0.183503	0.194542	0.368174	0.362818	0.179369	0.283392	0.159627	0.162302	0.083584	0.123205	0.300055	0.340277	0.120357	0.125357	0.101968	0.107353	0.081545	0.146784	0.187998	0.278942	0.169290	0.192644	0.098113	0.131517	0.136687	0.184268	0.308971	0.539857	0.147338	0.268194	0.153365	0.390461
38	0.154728	0.147727	0.138219	0.369927	0.069535	0.123954	0.125566	0.271513	0.091650	0.167703	0.261966	0.390944	0.142270	0.208446	0.361501	0.246511	0.087195	0.118789	0.210773	0.364291	0.153299	0.396914	0.069085	0.269644	0.142335	0.154646	0.392380	0.197672	0.093219	0.171366	0.117222	0.316406	0.211110	0.346381	0.225448	0.261376	0.096956	0.131873	0.240336	0.435519	0.175704	0.181368	0.344149	0.343801	0.176596	0.267761	0.169896	0.160702	0.093502	0.133689	0.344448	0.354317	0.140376	0.130623	0.105339	0.094242	0.078832	0.144399	0.207249	0.291737	0.184962	0.195577	0.101104	0.131428	0.133178	0.177140	0.344670	0.542666	0.139075	0.264092	0.153636	0.389445
39	0.165088	0.143720	0.171229	0.377177	0.075162	0.123652	0.125509	0.269146	0.099917	0.156360	0.272834	0.434645	0.130243	0.226596	0.365889	0.236550	0.080067	0.103810	0.209376	0.342811	0.168505	0.407621	0.076147	0.268884	0.150913	0.136388	0.425398	0.190315	0.084504	0.136350	0.115644	0.316477	0.220717	0.358939	0.228513	0.253061	0.094793	0.130851	0.246651	0.441221	0.150587	0.152419	0.339825	0.384366	0.171714	0.252726	0.182649	0.182671	0.111106	0.150762	0.352258	0.431349	0.154657	0.132627	0.112129	0.092602	0.076600	0.147993	0.211116	0.288845	0.213101	0.257694	0.128223	0.142011	0.157985	0.196753	0.319520	0.534270	0.132961	0.256802	0.158590	0.388293
40	0.178199	0.128847	0.243506	0.328777	0.079926	0.132361	0.126253	0.266289	0.115462	0.154510	0.275380	0.573292	0.132327	0.231037	0.396732	0.222093	0.073941	0.094232	0.188739	0.319600	0.187121	0.415320	0.079118	0.263307	0.172944	0.149074	0.410193	0.190336	0.075354	0.126799	0.110303	0.233367	0.222585	0.382443	0.237891	0.276858	0.093857	0.145075	0.244548	0.420909	0.142388	0.148461	0.356032	0.441088	0.155587	0.240498	0.186342	0.184576	0.121735	0.157194	0.372952	0.455259	0.158447	0.136444	0.112040	0.092185	0.076701	0.135482	0.235187	0.339938	0.252503	0.325116	0.169584	0.156060	0.187431	0.222013	0.300983	0.527065	0.137500	0.254661	0.163603	0.383418
41	0.190775	0.136899	0.263491	0.313780	0.083780	0.133341	0.128264	0.262152	0.132664	0.160858	0.313241	0.602812	0.146797	0.228756	0.455101	0.264424	0.074633	0.089825	0.168008	0.266840	0.192820	0.374500	0.079228	0.260560	0.190908	0.151759	0.372563	0.180042	0.060078	0.124454	0.104144	0.222851	0.232613	0.403010	0.300768	0.312114	0.100401	0.155654	0.242732	0.355377	0.137414	0.152959	0.363675	0.437922	0.135159	0.235061	0.187798	0.191658	0.120435	0.158119	0.457456	0.462452	0.153680	0.132845	0.104245	0.093772	0.074949	0.123584	0.236263	0.513608	0.260830	0.338861	0.190489	0.159906	0.201080	0.234214	0.296962	0.513851	0.183002	0.235032	0.159599	0.379034
42	0.205749	0.149314	0.294189	0.358432	0.079034	0.113204	0.135138	0.258104	0.134775	0.141889	0.339047	0.588229	0.158798	0.225522	0.480134	0.310685	0.086666	0.079605	0.165489	0.181877	0.188861	0.318275	0.079062	0.255186	0.195834	0.147103	0.341882	0.161351	0.060011	0.100222	0.105277	0.201000	0.235754	0.404725	0.350859	0.346139	0.104732	0.153376	0.233476	0.261277	0.138539	0.155680	0.339052	0.443714	0.137291	0.240279	0.202257	0.214536	0.117847	0.155724	0.513873	0.464029	0.148619	0.131582	0.109557	0.092119	0.074561	0.119533	0.236769	0.561194	0.333925	0.352471	0.190199	0.163704	0.199587	0.230224	0.297764	0.483420	0.189383	0.214685	0.154857	0.371508
43	0.234864	0.164937	0.315358	0.389854	0.072580	0.098648	0.135572	0.261525	0.133545	0.144603	0.345359	0.573838	0.191711	0.251411	0.485447	0.308236	0.092219	0.081989	0.159507	0.180798	0.183718	0.297747	0.077822	0.239724	0.189758	0.133828	0.330082	0.130540	0.060087	0.086966	0.117980	0.194178	0.238057	0.385592	0.397164	0.427811	0.107935	0.151802	0.214297	0.241139	0.137758	0.147037	0.309457	0.442076	0.133567	0.229657	0.218857	0.214035	0.125734	0.163835	0.531107	0.468194	0.141468	0.129080	0.117227	0.121589	0.073630	0.111584	0.241925	0.564245	0.346189	0.348975	0.196305	0.168442	0.183606	0.191918	0.296769	0.281176	0.191668	0.210571	0.147147	0.297485
44	0.253441	0.172272	0.310638	0.385651	0.082500	0.126753	0.135241	0.219979	0.138277	0.156994	0.361767	0.574109	0.187255	0.233593	0.486187	0.298572	0.094638	0.103319	0.153285	0.178310	0.182535	0.336919	0.074935	0.240287	0.174634	0.109867	0.296246	0.179072	0.060170	0.085069	0.145310	0.202359	0.252831	0.375744	0.398165	0.696038	0.111231	0.164625	0.212268	0.242555	0.136785	0.153868	0.279711	0.384741	0.170405	0.164219	0.229104	0.212098	0.144797	0.195623	0.531684	0.464514	0.135708	0.124485	0.130361	0.170155	0.073765	0.111149	0.246896	0.567149	0.346514	0.353050	0.230225	0.169554	0.175803	0.180968	0.287828	0.215000	0.187624	0.212549	0.142661	0.214592
45	0.253501	0.169570	0.305163	0.356351	0.102268	0.163824	0.144864	0.162468	0.146636	0.167398	0.371532	0.577804	0.173055	0.205685	0.477392	0.295737	0.096384	0.132968	0.106344	0.161889	0.181505	0.372501	0.070315	0.235072	0.174638	0.107811	0.276108	0.203373	0.059455	0.087738	0.177703	0.202550	0.302784	0.384565	0.448049	0.740831	0.137426	0.211769	0.188396	0.235139	0.117086	0.155145	0.284438	0.397582	0.167141	0.110506	0.221525	0.210602	0.180325	0.246222	0.516984	0.455226	0.130571	0.134589	0.143324	0.182780	0.074049	0.112694	0.251088	0.564246	0.363592	0.385388	0.268705	0.168322	0.174708	0.182623	0.219911	0.211702	0.186302	0.214291	0.168500	0.232123
46	0.246257	0.168180	0.336679	0.329316	0.114831	0.174756	0.156965	0.140037	0.155872	0.174842	0.319770	0.559508	0.198531	0.224934	0.440451	0.294214	0.092695	0.148124	0.090641	0.167816	0.182228	0.396625	0.072778	0.279666	0.175227	0.108002	0.246985	0.208395	0.062358	0.090743	0.210749	0.203041	0.344588	0.382558	0.523237	0.794361	0.160492	0.240770	0.154468	0.219144	0.084818	0.138353	0.291196	0.402476	0.166897	0.104987	0.201350	0.199047	0.222541	0.285950	0.475568	0.416027	0.129229	0.142144	0.148559	0.188529	0.066804	0.097391	0.243360	0.531603	0.414263	0.433469	0.281468	0.161299	0.178159	0.181883	0.117939	0.192586	0.187098	0.219701	0.178518	0.310862
47	0.241371	0.167916	0.415546	0.322533	0.118540	0.175192	0.156933	0.130540	0.170952	0.184555	0.292121	0.512334	0.263130	0.249447	0.370605	0.292830	0.090304	0.172162	0.087249	0.172312	0.182861	0.403404	0.072681	0.293606	0.173412	0.108848	0.139876	0.203892	0.073173	0.138729	0.218153	0.180291	0.331893	0.294325	0.549939	0.868625	0.178563	0.248899	0.152264	0.245702	0.057954	0.127052	0.286249	0.400956	0.185345	0.129475	0.169812	0.181448	0.257021	0.296006	0.435523	0.415114	0.131952	0.142864	0.142737	0.211139	0.065885	0.093582	0.207395	0.522455	0.491847	0.485293	0.281471	0.153716	0.169414	0.167485	0.086532	0.185567	0.218369	0.280761	0.174818	0.303272
48	0.240336	0.175439	0.459685	0.329704	0.120618	0.175563	0.159448	0.142390	0.181178	0.193207	0.281093	0.479337	0.329098	0.259700	0.332106	0.277681	0.115771	0.226563	0.081867	0.175883	0.181795	0.389470	0.073215	0.321032	0.155521	0.107884	0.088860	0.214740	0.084881	0.172326	0.211126	0.139576	0.307278	0.272852	0.567276	0.897911	0.176950	0.252834	0.151713	0.328180	0.059657	0.129490	0.245173	0.332320	0.208317	0.137909	0.166808	0.176391	0.324033	0.365452	0.418582	0.347123	0.136544	0.144945	0.149986	0.216819	0.069939	0.080428	0.194183	0.522513	0.548767	0.511444	0.278076	0.164170	0.149721	0.146667	0.123213	0.178241	0.329871	0.423592	0.172430	0.291477
49	0.234135	0.189326	0.456300	0.322127	0.123978	0.176686	0.161447	0.185629	0.183594	0.206278	0.277098	0.300490	0.380375	0.252199	0.323265	0.252675	0.133273	0.257366	0.081931	0.180325	0.179168	0.369573	0.080055	0.388085	0.129284	0.094302	0.129602	0.340402	0.091328	0.177332	0.223828	0.137557	0.299596	0.273849	0.570127	0.904072	0.213382	0.302426	0.155117	0.361531	0.059985	0.123972	0.202399	0.245258	0.210280	0.143680	0.152646	0.141703	0.317539	0.360235	0.408045	0.233522	0.134810	0.141216	0.164863	0.238656	0.072081	0.065655	0.190685	0.520777	0.561542	0.536921	0.277650	0.175766	0.153668	0.200445	0.174422	0.218509	0.476033	0.497135	0.172486	0.272132
50	0.248989	0.243502	0.435847	0.327921	0.127331	0.176197	0.171909	0.192346	0.181625	0.204212	0.234719	0.214445	0.398886	0.291667	0.259459	0.247675	0.137058	0.314706	0.081115	0.132330	0.170494	0.353254	0.076857	0.393367	0.154423	0.098089	0.194382	0.417118	0.091680	0.177856	0.239460	0.157113	0.302848	0.264566	0.566679	0.900476	0.275363	0.324503	0.142666	0.355666	0.056811	0.117055	0.176340	0.227732	0.208823	0.145774	0.156600	0.141061	0.315735	0.355662	0.325943	0.219130	0.124407	0.133414	0.173984	0.292784	0.061870	0.056054	0.168345	0.457445	0.648002	0.570929	0.270392	0.176078	0.167320	0.218449	0.211399	0.222700	0.597908	0.518453	0.173069	0.264997
51	0.366555	0.357689	0.424140	0.347052	0.128812	0.172585	0.182271	0.190416	0.178441	0.207369	0.193444	0.214127	0.393678	0.290785	0.150869	0.166175	0.138415	0.322690	0.106376	0.171902	0.157867	0.345961	0.119692	0.419736	0.206394	0.122978	0.237636	0.546703	0.086460	0.180042	0.245932	0.172679	0.305138	0.241803	0.533463	0.898463	0.286999	0.319274	0.142226	0.354049	0.058574	0.113379	0.152797	0.213328	0.206638	0.145966	0.162956	0.097547	0.315945	0.355134	0.198252	0.257166	0.105295	0.127696	0.184844	0.369173	0.056659	0.055023	0.169124	0.289740	0.653123	0.538696	0.248846	0.162590	0.170479	0.217631	0.221698	0.271702	0.626622	0.560050	0.167285	0.264636
52	0.509458	0.469270	0.408344	0.318709	0.133374	0.168017	0.184664	0.192036	0.178656	0.215857	0.186794	0.216720	0.405582	0.280905	0.111373	0.103242	0.152949	0.335163	0.113656	0.301828	0.140464	0.334824	0.140535	0.421678	0.239322	0.145038	0.256898	0.619306	0.080622	0.181655	0.249936	0.171971	0.311739	0.238395	0.500473	0.893953	0.287478	0.313825	0.124818	0.346654	0.061266	0.115923	0.143927	0.211735	0.197989	0.140541	0.145544	0.067780	0.313165	0.352096	0.129452	0.265965	0.099215	0.127240	0.189239	0.417834	0.056503	0.057601	0.168227	0.235091	0.650004	0.522518	0.229265	0.159378	0.174702	0.220996	0.223144	0.333409	0.842412	0.712749	0.159854	0.266103
53	0.656006	0.532156	0.421786	0.281034	0.133434	0.164389	0.187122	0.244675	0.179677	0.219465	0.161963	0.218331	0.421702	0.288082	0.106934	0.095767	0.153139	0.329633	0.124555	0.316605	0.127430	0.320536	0.143261	0.440129	0.261515	0.175343	0.261271	0.665517	0.078049	0.181633	0.252567	0.170005	0.317643	0.234612	0.456780	0.852424	0.288209	0.310768	0.102894	0.336746	0.084530	0.114929	0.137215	0.174939	0.195949	0.145028	0.133893	0.065926	0.305730	0.339508	0.105308	0.264257	0.103309	0.119244	0.187766	0.443802	0.056828	0.062312	0.161375	0.239890	0.621972	0.506183	0.226016	0.143837	0.174257	0.219482	0.233767	0.339856	0.911751	0.740560	0.155977	0.268141
54	0.648873	0.531332	0.452454	0.284606	0.130015	0.160760	0.190312	0.349501	0.186509	0.249584	0.134844	0.207135	0.458384	0.298309	0.097824	0.099549	0.154740	0.332355	0.135023	0.343386	0.120540	0.317883	0.206307	0.477088	0.277453	0.206082	0.304623	0.700969	0.077179	0.179750	0.255439	0.166325	0.312465	0.236211	0.450609	0.650144	0.287983	0.310938	0.106309	0.346802	0.102006	0.126277	0.121028	0.132188	0.137724	0.146264	0.133678	0.071544	0.290466	0.310052	0.138489	0.392959	0.104846	0.103843	0.187476	0.447698	0.056992	0.064755	0.156646	0.215994	0.607538	0.504893	0.219161	0.138426	0.175115	0.235963	0.263877	0.370700	0.923325	0.747606	0.156378	0.274312
55	0.660822	0.588983	0.460614	0.276196	0.129417	0.159220	0.185949	0.381919	0.185772	0.246566	0.126793	0.224392	0.457932	0.293723	0.090748	0.118498	0.159234	0.323245	0.150962	0.377742	0.139590	0.317411	0.290772	0.497131	0.280223	0.212467	0.348523	0.699831	0.077678	0.179796	0.252260	0.166005	0.269954	0.223234	0.398121	0.578729	0.286703	0.308217	0.106324	0.353271	0.172527	0.174291	0.109672	0.103375	0.160591	0.164086	0.141741	0.085407	0.259591	0.268776	0.193265	0.475499	0.103193	0.094902	0.184919	0.445803	0.055798	0.062927	0.136662	0.202948	0.612637	0.506128	0.189407	0.129718	0.192487	0.285881	0.278181	0.360073	0.956541	0.758596	0.156038	0.281607
56	0.722718	0.664012	0.441462	0.267597	0.126706	0.148521	0.186681	0.383198	0.175272	0.236787	0.160893	0.272844	0.436239	0.276576	0.092461	0.108806	0.150702	0.300362	0.185066	0.377266	0.203250	0.306781	0.322757	0.524649	0.306330	0.249626	0.362720	0.700606	0.077646	0.178978	0.240863	0.159649	0.199999	0.203014	0.265463	0.500625	0.272799	0.278359	0.106308	0.357008	0.249411	0.267442	0.118135	0.104620	0.234054	0.232837	0.141452	0.093141	0.214614	0.253533	0.198336	0.481051	0.103888	0.094231	0.180038	0.440285	0.057925	0.060172	0.129747	0.202885	0.608061	0.489383	0.131843	0.130194	0.210880	0.314390	0.276842	0.351759	0.956949	0.760054	0.145566	0.317022
57	0.829776	0.716421	0.380383	0.262187	0.116411	0.119475	0.192947	0.389917	0.170098	0.228924	0.201577	0.424611	0.399666	0.268768	0.092311	0.106545	0.119143	0.259768	0.197455	0.377662	0.234713	0.261518	0.329480	0.528466	0.343230	0.279140	0.361814	0.682098	0.078342	0.176669	0.223162	0.152672	0.172496	0.202864	0.182180	0.352712	0.260847	0.256119	0.097923	0.354106	0.274882	0.303501	0.192820	0.155458	0.320884	0.299800	0.137362	0.116328	0.059474	0.107915	0.200359	0.502196	0.103952	0.091376	0.169952	0.433042	0.068422	0.070101	0.148568	0.191099	0.579174	0.445885	0.093113	0.132454	0.203187	0.284249	0.261501	0.352046	0.957054	0.765564	0.127324	0.303518
58	0.851264	0.728902	0.337331	0.253781	0.141871	0.169920	0.202780	0.402401	0.174862	0.215301	0.229004	0.429829	0.326883	0.266281	0.090984	0.102642	0.111615	0.232817	0.198546	0.382206	0.258399	0.208232	0.335876	0.542398	0.379075	0.331173	0.340739	0.622154	0.085480	0.182808	0.198424	0.152036	0.164754	0.199752	0.107406	0.265584	0.251456	0.248244	0.087730	0.301876	0.279865	0.320156	0.274734	0.231822	0.405168	0.315187	0.136730	0.135002	0.050142	0.055164	0.256524	0.512607	0.115123	0.099435	0.160410	0.435552	0.077629	0.085689	0.185283	0.182668	0.519451	0.386175	0.093358	0.137764	0.176441	0.248014	0.228413	0.464862	0.956404	0.765792	0.134532	0.294761
59	0.859382	0.733408	0.334688	0.249426	0.233691	0.293217	0.219729	0.403202	0.171689	0.208848	0.230858	0.442322	0.301881	0.260369	0.088717	0.101386	0.102666	0.190689	0.188416	0.362358	0.271182	0.158477	0.352884	0.513847	0.379027	0.354243	0.349959	0.596824	0.083484	0.162969	0.177537	0.149508	0.165041	0.177779	0.106472	0.249228	0.258067	0.238376	0.084932	0.225815	0.281615	0.327704	0.330756	0.321275	0.513047	0.441878	0.135524	0.140774	0.042058	0.050334	0.307049	0.512196	0.175117	0.171332	0.156140	0.431591	0.092205	0.110831	0.275922	0.214768	0.433853	0.328129	0.091576	0.141234	0.168429	0.250645	0.297499	0.491692	0.936178	0.718104	0.147174	0.298675
60	0.854107	0.718550	0.319611	0.238295	0.368179	0.425889	0.224492	0.401129	0.176526	0.207074	0.257974	0.455010	0.274885	0.225241	0.086563	0.097436	0.075950	0.172509	0.186064	0.307452	0.276595	0.141670	0.375111	0.512642	0.358043	0.356031	0.421837	0.717622	0.077587	0.120686	0.175637	0.152336	0.156660	0.153990	0.205828	0.376799	0.221584	0.154703	0.071848	0.180777	0.280374	0.331589	0.352743	0.373841	0.624895	0.480061	0.127051	0.140956	0.038622	0.052381	0.312462	0.493970	0.240326	0.231164	0.155540	0.422094	0.112008	0.143470	0.374108	0.262045	0.406785	0.304613	0.089022	0.130441	0.162607	0.249275	0.373030	0.446175	0.887377	0.655946	0.157956	0.308872
61	0.809554	0.668414	0.322114	0.251244	0.543809	0.536260	0.230415	0.380275	0.178101	0.194694	0.272742	0.470313	0.264581	0.269158	0.072797	0.096723	0.064379	0.161216	0.204551	0.319051	0.277211	0.141602	0.393008	0.483793	0.366874	0.446856	0.461758	0.738330	0.077688	0.120628	0.163392	0.161666	0.140199	0.148216	0.346537	0.435566	0.210679	0.142044	0.068020	0.180547	0.279182	0.336226	0.515841	0.521926	0.634916	0.479859	0.116831	0.143944	0.038474	0.052230	0.348582	0.482012	0.288374	0.252246	0.143867	0.421515	0.140804	0.180431	0.381856	0.249425	0.245943	0.163787	0.090975	0.122021	0.162271	0.249249	0.381953	0.464263	0.802037	0.617349	0.158625	0.317826
62	0.727416	0.590595	0.319252	0.324035	0.594334	0.543329	0.221760	0.373772	0.176200	0.184739	0.271733	0.475082	0.244738	0.343756	0.054631	0.092597	0.070163	0.156370	0.199434	0.309560	0.280479	0.141600	0.396255	0.442996	0.354899	0.436897	0.458472	0.733277	0.078790	0.125622	0.132833	0.151039	0.170302	0.334993	0.594256	0.456639	0.245334	0.212328	0.057234	0.189831	0.278183	0.332849	0.587354	0.593448	0.639145	0.478956	0.103907	0.143935	0.053097	0.054594	0.394280	0.496610	0.329375	0.253869	0.128140	0.401535	0.153665	0.194474	0.402378	0.227230	0.133249	0.206326	0.090136	0.117082	0.161182	0.239653	0.411130	0.469165	0.752776	0.611558	0.156552	0.324981
63	0.597936	0.530570	0.309367	0.529226	0.617929	0.603410	0.212297	0.372070	0.166105	0.132078	0.268340	0.478239	0.130921	0.329471	0.044127	0.092862	0.069381	0.137670	0.197637	0.259757	0.295572	0.134756	0.394399	0.419307	0.356518	0.429793	0.484196	0.768433	0.093490	0.151711	0.115992	0.115481	0.181934	0.405580	0.735930	0.781529	0.253841	0.231612	0.050049	0.208949	0.284862	0.326198	0.598650	0.625432	0.641214	0.482667	0.087025	0.142393	0.064126	0.060931	0.434656	0.450068	0.345975	0.255605	0.113010	0.357696	0.154075	0.193288	0.459589	0.226480	0.129219	0.254307	0.091284	0.124104	0.143787	0.188216	0.515898	0.486169	0.639497	0.467086	0.152388	0.324682
64	0.607137	0.532209	0.335918	0.754454	0.679750	0.678108	0.209916	0.371876	0.161966	0.123490	0.262150	0.462051	0.093244	0.326281	0.057259	0.117717	0.079146	0.138561	0.207567	0.253510	0.321369	0.124808	0.379897	0.405038	0.350543	0.421294	0.555356	0.768805	0.096835	0.156109	0.105625	0.109694	0.172433	0.413954	0.753580	0.810713	0.252718	0.255571	0.046027	0.202340	0.252393	0.322085	0.600167	0.696754	0.641338	0.484824	0.075526	0.136222	0.070802	0.077941	0.417033	0.362883	0.376967	0.261116	0.088247	0.279381	0.158025	0.194787	0.542265	0.240695	0.126750	0.261616	0.091358	0.127031	0.099894	0.112319	0.552861	0.485705	0.354970	0.299513	0.148653	0.322051
65	0.593158	0.470667	0.430503	0.848724	0.686124	0.696185	0.214917	0.357864	0.160673	0.127384	0.244713	0.439823	0.085400	0.325085	0.067551	0.168232	0.091151	0.136721	0.180096	0.298280	0.351467	0.115024	0.375705	0.402869	0.326019	0.401639	0.598992	0.767991	0.096466	0.173409	0.101654	0.095048	0.167815	0.411813	0.806755	0.923134	0.421512	0.420028	0.049086	0.179867	0.180779	0.262063	0.597636	0.723770	0.629513	0.472295	0.101911	0.148993	0.071102	0.088295	0.474297	0.364880	0.389233	0.269065	0.068064	0.209582	0.180782	0.217034	0.582340	0.295163	0.126290	0.299332	0.092631	0.119073	0.066806	0.078151	0.551201	0.477418	0.313509	0.275282	0.142812	0.319989
66	0.519686	0.357758	0.505539	1.065949	0.720801	0.728923	0.215244	0.274444	0.156215	0.137706	0.241385	0.273488	0.085329	0.312665	0.069452	0.193047	0.097474	0.127254	0.194630	0.362432	0.380867	0.106280	0.372276	0.375501	0.296669	0.376917	0.615561	0.768124	0.096287	0.187968	0.093441	0.096816	0.174431	0.411155	1.021854	0.995184	0.484676	0.448184	0.054582	0.165927	0.161988	0.252445	0.578856	0.716188	0.598956	0.430450	0.132668	0.187297	0.070293	0.089545	0.525569	0.313357	0.388395	0.281648	0.065601	0.168393	0.225991	0.263804	0.582108	0.297745	0.106942	0.294059	0.094022	0.118289	0.068275	0.077688	0.569905	0.411620	0.183215	0.234555	0.140345	0.312840
67	0.320934	0.232022	0.506301	1.215562	0.770786	0.745142	0.218377	0.167485	0.158557	0.152866	0.224314	0.281421	0.085192	0.294088	0.070368	0.197744	0.094727	0.110448	0.206127	0.366749	0.388672	0.095861	0.326651	0.330165	0.253281	0.336786	0.612820	0.767286	0.098821	0.211420	0.093130	0.097020	0.181263	0.411116	1.234620	1.008663	0.485476	0.465378	0.054265	0.170911	0.153573	0.242263	0.543733	0.692652	0.534809	0.389142	0.141645	0.184969	0.083088	0.100800	0.518142	0.358974	0.389524	0.324646	0.070346	0.161218	0.245387	0.287591	0.575632	0.297266	0.090100	0.295108	0.085659	0.137125	0.087580	0.066371	0.628871	0.586992	0.125187	0.229695	0.138727	0.313013
68	0.256762	0.177739	0.545794	1.273383	0.783981	0.747904	0.221391	0.138591	0.166903	0.156442	0.232686	0.268790	0.081836	0.289176	0.088589	0.202323	0.095829	0.098067	0.205551	0.372795	0.375617	0.094945	0.264137	0.301706	0.224697	0.318526	0.585319	0.692424	0.120395	0.247846	0.098792	0.097544	0.219985	0.422894	1.283782	1.062442	0.503490	0.496054	0.055000	0.178984	0.150165	0.236630	0.515758	0.660940	0.500627	0.352243	0.145003	0.175522	0.098899	0.114040	0.486129	0.395948	0.418167	0.421300	0.080137	0.154667	0.268496	0.328424	0.581096	0.298462	0.090181	0.297298	0.073639	0.154915	0.106958	0.062858	0.666355	0.728538	0.141866	0.244183	0.133320	0.247405
69	0.228522	0.131111	0.637910	1.280272	0.787830	0.747340	0.212493	0.130439	0.175159	0.166648	0.218474	0.257453	0.074561	0.285852	0.108525	0.236136	0.097634	0.101415	0.179057	0.328367	0.348233	0.078826	0.233071	0.257244	0.219095	0.266587	0.653487	0.582362	0.126971	0.267391	0.101500	0.101238	0.256744	0.447447	1.284724	1.079017	0.527685	0.507369	0.061235	0.176904	0.151370	0.231775	0.494461	0.637681	0.283006	0.173158	0.145660	0.174918	0.105982	0.120094	0.482330	0.413244	0.443256	0.468598	0.104327	0.135686	0.296883	0.370912	0.570476	0.306321	0.089693	0.298097	0.065578	0.160624	0.128900	0.080841	0.670511	0.791544	0.172890	0.267097	0.121477	0.232192
70	0.228438	0.113087	0.712940	1.286834	0.789035	0.740917	0.195619	0.088455	0.185808	0.172358	0.198336	0.249127	0.076253	0.302078	0.116211	0.263222	0.097617	0.090821	0.182372	0.317983	0.330245	0.081305	0.228830	0.248193	0.228538	0.160487	0.718119	0.551838	0.170696	0.336919	0.104093	0.134234	0.266427	0.454341	1.278272	1.048237	0.527269	0.508420	0.069898	0.168683	0.151253	0.225154	0.317104	0.508282	0.161277	0.147137	0.143810	0.175115	0.106841	0.120247	0.467899	0.429094	0.463080	0.485136	0.126208	0.109497	0.402643	0.418487	0.560134	0.291015	0.090394	0.299777	0.065842	0.150579	0.138271	0.089759	0.693959	0.813903	0.193238	0.283531	0.110032	0.241141
71	0.233453	0.110170	0.731619	1.288896	0.774083	0.710044	0.172251	0.087828	0.182815	0.169402	0.191926	0.239624	0.081979	0.265814	0.122877	0.267651	0.087802	0.092812	0.204264	0.324672	0.313235	0.085911	0.212470	0.212592	0.238534	0.169364	0.721414	0.456491	0.210734	0.410969	0.108891	0.153653	0.266521	0.449908	1.252061	1.015661	0.525193	0.508584	0.070989	0.167725	0.132457	0.220989	0.198400	0.449865	0.128524	0.145840	0.142160	0.172873	0.105099	0.120026	0.440263	0.414960	0.457481	0.480059	0.132558	0.093955	0.459331	0.473407	0.576497	0.308033	0.089982	0.299895	0.074111	0.141459	0.137521	0.093916	0.694341	0.799205	0.199209	0.289941	0.092545	0.255260
72	0.219497	0.126836	0.732255	1.272079	0.737140	0.653860	0.165703	0.108381	0.179467	0.164756	0.184682	0.295453	0.081549	0.215851	0.131853	0.270911	0.079107	0.098511	0.206330	0.476310	0.303853	0.088096	0.182843	0.193725	0.255945	0.177426	0.670244	0.430328	0.227400	0.415399	0.123801	0.155979	0.258514	0.337818	1.156410	1.005284	0.510001	0.498853	0.079914	0.187630	0.107431	0.207458	0.182615	0.392970	0.112207	0.140867	0.148405	0.174793	0.099934	0.116579	0.405685	0.419390	0.438192	0.476140	0.135537	0.096123	0.558093	0.577719	0.559318	0.351391	0.088701	0.294591	0.074221	0.152962	0.142149	0.114312	0.665863	0.810192	0.200690	0.280018	0.086635	0.264444
73	0.178805	0.134810	0.718598	1.210889	0.633481	0.555880	0.158736	0.127758	0.182039	0.159662	0.183365	0.320923	0.077685	0.248128	0.139900	0.269642	0.080952	0.117469	0.265837	0.483100	0.300117	0.101452	0.149724	0.196561	0.259711	0.171303	0.671897	0.443467	0.251081	0.415789	0.140979	0.149929	0.262828	0.242351	1.068390	0.790020	0.503436	0.490262	0.105554	0.207812	0.083154	0.186241	0.187505	0.242735	0.104105	0.117185	0.156316	0.184198	0.093721	0.106391	0.412686	0.431989	0.409033	0.468736	0.136073	0.092979	0.573993	0.605041	0.513624	0.350549	0.077822	0.254813	0.073986	0.154666	0.149545	0.136075	0.663055	0.813199	0.212069	0.293211	0.088477	0.266808
74	0.125889	0.122574	0.685115	1.086900	0.547705	0.519765	0.155919	0.142589	0.181401	0.168705	0.182421	0.332240	0.083129	0.255529	0.137435	0.245837	0.097017	0.133035	0.301507	0.457567	0.299749	0.147601	0.125330	0.208032	0.246731	0.185357	0.675328	0.482630	0.271038	0.420469	0.149791	0.155176	0.278163	0.224574	1.062438	0.780034	0.522546	0.516282	0.125699	0.287682	0.063389	0.159090	0.190472	0.157676	0.103830	0.109896	0.150703	0.182913	0.092408	0.095314	0.357905	0.429620	0.403419	0.503198	0.143657	0.091399	0.611582	0.627191	0.438081	0.358528	0.048374	0.185389	0.070440	0.151592	0.152568	0.137444	0.662278	0.815397	0.262075	0.307450	0.089780	0.266229
75	0.114529	0.121072	0.628349	1.011345	0.521603	0.500451	0.157674	0.146917	0.215176	0.214089	0.146528	0.401154	0.086634	0.257425	0.134573	0.215006	0.121841	0.151457	0.292552	0.478165	0.295924	0.153531	0.146450	0.201258	0.241921	0.212124	0.689744	0.508520	0.313051	0.420153	0.149806	0.159619	0.291679	0.223239	1.060576	0.648208	0.539783	0.507450	0.167501	0.291562	0.044033	0.131820	0.201882	0.174336	0.102339	0.103908	0.124886	0.141737	0.092741	0.093359	0.252413	0.452872	0.393643	0.522932	0.160178	0.093092	0.615708	0.623234	0.413926	0.356108	0.041849	0.179248	0.071320	0.147151	0.145814	0.134228	0.606796	0.757747	0.264797	0.312079	0.107069	0.281462
76	0.120978	0.121130	0.570049	0.805416	0.425714	0.350425	0.158352	0.147124	0.273006	0.214266	0.166173	0.455894	0.090559	0.260782	0.136052	0.200772	0.123509	0.151003	0.328143	0.489830	0.285453	0.221413	0.167270	0.209201	0.245745	0.225166	0.699312	0.542447	0.363677	0.455397	0.164112	0.161135	0.292601	0.223497	0.959248	0.527656	0.384915	0.376810	0.176896	0.295796	0.048344	0.122980	0.211247	0.169745	0.092131	0.103202	0.119242	0.086393	0.083270	0.087678	0.215293	0.420641	0.401479	0.522669	0.167652	0.138844	0.603044	0.606555	0.433408	0.355955	0.027338	0.122430	0.071584	0.145325	0.131554	0.132074	0.506129	0.499967	0.279696	0.355836	0.130964	0.281912
77	0.129666	0.117950	0.568125	0.543858	0.405997	0.304379	0.154306	0.149723	0.402904	0.350607	0.184849	0.474812	0.095115	0.267227	0.136839	0.204885	0.122545	0.144332	0.436331	0.493922	0.260845	0.256273	0.168659	0.250538	0.258200	0.232393	0.650306	0.510901	0.436241	0.483762	0.178198	0.163023	0.293043	0.223506	0.737991	0.507811	0.358832	0.365883	0.209647	0.296228	0.054027	0.123053	0.220350	0.186424	0.076313	0.098759	0.124647	0.079402	0.066381	0.080881	0.212991	0.429945	0.374598	0.528400	0.169102	0.169515	0.594517	0.592344	0.462759	0.369242	0.025690	0.136524	0.070405	0.159377	0.110110	0.124008	0.480524	0.408938	0.287087	0.381463	0.134469	0.284931
78	0.145636	0.117830	0.541182	0.409762	0.375929	0.231993	0.148119	0.157259	0.405336	0.349992	0.179512	0.509848	0.114939	0.284731	0.120693	0.195358	0.134230	0.170177	0.501085	0.532897	0.213555	0.258668	0.178661	0.253305	0.236888	0.212753	0.526466	0.375519	0.439203	0.481508	0.183235	0.161810	0.270573	0.202380	0.649848	0.398862	0.356279	0.342340	0.275492	0.309301	0.061689	0.131511	0.219008	0.182727	0.070172	0.092013	0.121830	0.078114	0.065678	0.079088	0.216203	0.464787	0.374038	0.543172	0.168470	0.166198	0.584672	0.575115	0.446487	0.366144	0.036249	0.143725	0.068403	0.158262	0.093804	0.116669	0.490377	0.319296	0.288631	0.382920	0.134578	0.284535
79	0.156430	0.119482	0.444832	0.579338	0.259210	0.144226	0.141632	0.167302	0.400027	0.346331	0.179188	0.510729	0.143095	0.300802	0.112122	0.154034	0.168013	0.260361	0.510280	0.554867	0.150240	0.257508	0.190825	0.282232	0.223840	0.208815	0.502779	0.384742	0.449843	0.474311	0.185753	0.158789	0.238188	0.157761	0.723100	0.359597	0.338195	0.352275	0.297317	0.318470	0.078457	0.146144	0.237957	0.177715	0.054831	0.064882	0.122222	0.076204	0.064662	0.085506	0.208576	0.473731	0.516422	0.608290	0.168467	0.170506	0.566834	0.551582	0.397487	0.341086	0.051744	0.186130	0.078267	0.143402	0.098764	0.127068	0.371919	0.315876	0.295434	0.380840	0.137550	0.278196
80	0.152932	0.119679	0.319899	0.583632	0.175847	0.132908	0.136800	0.184322	0.400302	0.346692	0.274229	0.556204	0.189164	0.291470	0.133011	0.123505	0.205627	0.319818	0.496370	0.460101	0.126725	0.257561	0.207842	0.297941	0.194713	0.205385	0.568631	0.389249	0.450853	0.462948	0.186895	0.157589	0.227330	0.120651	0.847036	0.378659	0.319982	0.402744	0.300112	0.318673	0.081555	0.147362	0.249040	0.189780	0.046230	0.059202	0.121987	0.074644	0.070390	0.091546	0.199631	0.537036	0.550928	0.586141	0.165507	0.179519	0.497351	0.527044	0.341684	0.321632	0.055044	0.190688	0.091437	0.131192	0.101346	0.127365	0.306163	0.326341	0.293746	0.366812	0.139940	0.267620
81	0.144135	0.120301	0.271498	0.597432	0.162175	0.169098	0.132089	0.197317	0.400779	0.348616	0.339796	0.587750	0.258423	0.268575	0.150469	0.117495	0.207528	0.317816	0.478160	0.416375	0.115751	0.257171	0.255554	0.297761	0.174157	0.211601	0.561588	0.397495	0.448847	0.444138	0.186710	0.177072	0.237253	0.121770	0.929971	0.406836	0.329843	0.445856	0.302853	0.321463	0.080762	0.144705	0.242207	0.191873	0.044023	0.058989	0.117197	0.074022	0.066228	0.092902	0.217513	0.558388	0.529319	0.531471	0.157884	0.182360	0.418904	0.433876	0.318276	0.300279	0.062410	0.195500	0.094688	0.131271	0.082019	0.102154	0.332230	0.318060	0.280282	0.340049	0.136956	0.234431
82	0.144746	0.101025	0.325439	0.617460	0.152675	0.184511	0.125987	0.201958	0.399609	0.349865	0.432539	0.638710	0.289101	0.241821	0.168619	0.125922	0.199092	0.320382	0.443145	0.384405	0.112278	0.258284	0.307918	0.296850	0.174995	0.210565	0.492096	0.408430	0.444563	0.424639	0.183012	0.214538	0.249055	0.160119	0.953182	0.396447	0.312717	0.448648	0.313088	0.322432	0.080449	0.140053	0.235456	0.205406	0.043812	0.059050	0.106375	0.065673	0.069356	0.102428	0.196426	0.563682	0.504437	0.494750	0.141706	0.182816	0.320382	0.321489	0.321737	0.282931	0.064024	0.196798	0.088850	0.136978	0.075604	0.098354	0.374942	0.391031	0.269167	0.319946	0.144963	0.240166
83	0.142301	0.063230	0.378638	0.606450	0.142196	0.183966	0.116549	0.195474	0.401790	0.345814	0.482831	0.670789	0.313899	0.263433	0.162046	0.155820	0.224748	0.356112	0.433452	0.339775	0.122486	0.265135	0.330127	0.300562	0.167771	0.179501	0.466124	0.404365	0.429499	0.340910	0.175029	0.228985	0.277496	0.211252	0.956453	0.377596	0.310157	0.457677	0.317366	0.318544	0.079378	0.136378	0.233640	0.206395	0.044348	0.058896	0.096969	0.051257	0.072093	0.108337	0.183826	0.548977	0.494877	0.489973	0.128272	0.187328	0.282815	0.264113	0.323201	0.303353	0.066618	0.198316	0.084251	0.125495	0.080065	0.111541	0.366542	0.434346	0.267560	0.314526	0.173449	0.232316
84	0.141253	0.105701	0.381445	0.610874	0.140728	0.183613	0.105408	0.186699	0.383718	0.313280	0.497903	0.650390	0.372537	0.333638	0.163876	0.178435	0.265276	0.494106	0.425720	0.302929	0.137383	0.272766	0.336583	0.303720	0.162883	0.159914	0.445567	0.394499	0.428071	0.308054	0.164073	0.234974	0.335037	0.262167	0.948355	0.345417	0.284077	0.460643	0.317252	0.283402	0.076469	0.123607	0.221540	0.187689	0.041909	0.055124	0.098566	0.054669	0.078863	0.122411	0.184361	0.537112	0.494884	0.482615	0.120731	0.193302	0.194988	0.215205	0.347265	0.269864	0.069790	0.199531	0.080124	0.118582	0.087564	0.123431	0.368326	0.411029	0.267125	0.298650	0.221959	0.247120
85	0.145570	0.182559	0.401621	0.627523	0.140342	0.183457	0.097031	0.172903	0.330266	0.297848	0.604169	0.632814	0.440352	0.372852	0.167359	0.187056	0.267341	0.499511	0.350414	0.297528	0.142962	0.272572	0.333729	0.303785	0.147700	0.142086	0.431474	0.395783	0.411124	0.300881	0.149098	0.233371	0.340609	0.297204	0.910668	0.363179	0.240955	0.435565	0.306907	0.223799	0.073399	0.111987	0.212532	0.191503	0.043213	0.063588	0.097681	0.053275	0.096145	0.149735	0.227043	0.530713	0.492468	0.468575	0.117283	0.191955	0.163274	0.202660	0.371934	0.261775	0.072242	0.199566	0.077496	0.120214	0.092034	0.128303	0.368936	0.419179	0.227668	0.276158	0.270489	0.249098
86	0.144880	0.192218	0.434308	0.613657	0.140221	0.181577	0.109366	0.170664	0.150392	0.112521	0.712446	0.617239	0.449698	0.372794	0.168672	0.200104	0.269062	0.505006	0.194861	0.246471	0.144778	0.260681	0.324674	0.277557	0.122230	0.136639	0.429717	0.435336	0.406627	0.296980	0.135433	0.227350	0.443193	0.421524	0.808701	0.373774	0.195280	0.420140	0.303248	0.233902	0.071713	0.105218	0.263929	0.222125	0.047319	0.068217	0.084941	0.052244	0.106384	0.159634	0.238824	0.489622	0.486200	0.456179	0.122775	0.192042	0.155960	0.203293	0.354722	0.337183	0.072777	0.201327	0.076814	0.123512	0.091828	0.128857	0.317484	0.400793	0.198439	0.272138	0.292644	0.241307
87	0.135431	0.199030	0.440295	0.609281	0.140053	0.182469	0.141824	0.250288	0.132895	0.121841	0.755623	0.581774	0.447173	0.367252	0.171055	0.197304	0.256747	0.486512	0.103414	0.155712	0.153369	0.243398	0.317319	0.253177	0.091669	0.135258	0.428123	0.448143	0.372259	0.282489	0.132246	0.223179	0.538935	0.479304	0.734432	0.372520	0.190250	0.421684	0.318996	0.229381	0.070827	0.096621	0.296964	0.286925	0.044823	0.059221	0.081105	0.093870	0.105703	0.158005	0.234264	0.451462	0.467147	0.432531	0.134905	0.224387	0.155526	0.200952	0.313138	0.350711	0.073366	0.194039	0.075520	0.126966	0.083230	0.122281	0.347531	0.455443	0.185965	0.242389	0.289212	0.232916
88	0.167878	0.220338	0.420914	0.599147	0.140035	0.187030	0.163270	0.260521	0.151160	0.144910	0.759113	0.585921	0.440050	0.355980	0.176493	0.193888	0.229694	0.441081	0.123044	0.150010	0.148440	0.234344	0.307352	0.255766	0.080739	0.133972	0.344205	0.436442	0.354950	0.262358	0.121479	0.223054	0.539264	0.484866	0.733148	0.399335	0.189619	0.421761	0.288760	0.224167	0.080678	0.104435	0.275998	0.289736	0.043817	0.054576	0.086237	0.103238	0.110392	0.156619	0.239266	0.410098	0.445948	0.419448	0.147350	0.256778	0.144309	0.175640	0.310176	0.350193	0.074169	0.178998	0.074495	0.115311	0.069339	0.106517	0.476994	0.474010	0.166132	0.166623	0.283319	0.231111
89	0.154794	0.252396	0.419965	0.423578	0.142051	0.195590	0.183244	0.294134	0.153868	0.147825	0.773461	0.567967	0.429420	0.340156	0.179618	0.188872	0.216091	0.432965	0.212157	0.235344	0.130794	0.160599	0.309363	0.250517	0.082015	0.115523	0.245589	0.487135	0.212455	0.133880	0.091912	0.222422	0.631581	0.597891	0.672079	0.526511	0.174283	0.400237	0.241362	0.190458	0.100273	0.151901	0.256661	0.274688	0.053694	0.065972	0.090669	0.104981	0.139326	0.173930	0.296431	0.356015	0.432021	0.419012	0.173836	0.231406	0.113159	0.125529	0.315818	0.351795	0.071024	0.174529	0.078340	0.099919	0.067317	0.103035	0.476498	0.474141	0.163516	0.164313	0.284891	0.227836
90	0.175008	0.288926	0.414870	0.399694	0.151296	0.227417	0.192438	0.342925	0.151817	0.143610	0.815342	0.526384	0.407998	0.327941	0.158484	0.193850	0.220076	0.435978	0.310632	0.275115	0.124925	0.124100	0.317511	0.224839	0.086939	0.104736	0.231062	0.512103	0.184248	0.105758	0.075394	0.225948	0.791252	0.729970	0.527761	0.616178	0.137832	0.353281	0.220623	0.182403	0.102851	0.164379	0.251509	0.271623	0.071142	0.091854	0.103442	0.113163	0.148130	0.184912	0.334414	0.290981	0.431673	0.419416	0.188672	0.249583	0.087128	0.089996	0.316360	0.528540	0.061799	0.127447	0.078330	0.111191	0.062609	0.100954	0.506517	0.497241	0.183149	0.212020	0.289269	0.223112
91	0.193234	0.314187	0.443055	0.440407	0.148675	0.238070	0.191181	0.372941	0.159224	0.154466	0.828411	0.435517	0.365553	0.322704	0.133116	0.192320	0.203557	0.430721	0.326352	0.323250	0.133676	0.122731	0.322911	0.218681	0.102012	0.108750	0.220194	0.485121	0.172908	0.098421	0.073968	0.230745	0.821026	0.748419	0.403656	0.606778	0.089831	0.280196	0.218976	0.183573	0.111718	0.190060	0.248031	0.263766	0.075223	0.096788	0.113998	0.120497	0.150851	0.188016	0.338491	0.407998	0.400436	0.371992	0.189036	0.263574	0.066574	0.069286	0.313756	0.576107	0.059250	0.106050	0.087484	0.115192	0.057495	0.092576	0.619787	0.438363	0.247186	0.261032	0.292505	0.214951
92	0.196775	0.325332	0.468611	0.787342	0.134606	0.229215	0.196160	0.371641	0.185579	0.186787	0.818088	0.365198	0.347557	0.320830	0.120157	0.184237	0.131322	0.281921	0.354842	0.434326	0.149335	0.124504	0.328041	0.192757	0.121091	0.123056	0.206227	0.480368	0.141421	0.090017	0.081850	0.233846	0.833328	0.749318	0.489914	0.620605	0.046794	0.234364	0.211409	0.179747	0.118243	0.213345	0.239311	0.267552	0.075673	0.098708	0.116449	0.141047	0.150610	0.186082	0.425242	0.465738	0.157499	0.251837	0.204972	0.260130	0.066870	0.071369	0.308807	0.572996	0.052499	0.089990	0.100415	0.122412	0.045367	0.073340	0.638373	0.471722	0.270941	0.271852	0.295533	0.214305
93	0.197242	0.327733	0.498190	0.813856	0.124144	0.205588	0.214230	0.366776	0.208992	0.200810	0.816299	0.350855	0.308902	0.259366	0.127624	0.131403	0.106986	0.203522	0.420238	0.530036	0.168563	0.127269	0.318493	0.183510	0.121216	0.124354	0.201625	0.446963	0.139548	0.084736	0.087120	0.231788	0.836620	0.744254	0.560427	0.714910	0.039306	0.236339	0.199115	0.176981	0.118986	0.215784	0.235645	0.267801	0.075160	0.101572	0.149269	0.156610	0.160565	0.187295	0.498886	0.536658	0.100638	0.241672	0.246420	0.257851	0.076316	0.073472	0.285456	0.598565	0.048731	0.085891	0.109091	0.114119	0.038078	0.065003	0.663857	0.490460	0.271601	0.276107	0.300762	0.208930
94	0.202358	0.316499	0.564861	0.810727	0.108032	0.180443	0.247504	0.365004	0.211660	0.201847	0.798919	0.363446	0.184322	0.145553	0.122494	0.124263	0.097249	0.195899	0.440547	0.587433	0.189728	0.129853	0.273750	0.184969	0.120942	0.121483	0.232093	0.449604	0.127268	0.066473	0.090089	0.196278	0.822058	0.731718	0.565531	0.712033	0.061657	0.215846	0.185228	0.149449	0.118223	0.215397	0.236767	0.269936	0.081933	0.114609	0.177026	0.158195	0.157227	0.174120	0.493326	0.593465	0.099093	0.233841	0.272575	0.256445	0.078124	0.066275	0.236214	0.607249	0.052710	0.088855	0.109837	0.117330	0.037503	0.065326	0.714607	0.489109	0.383816	0.395021	0.296541	0.177466
95	0.250884	0.307297	0.560719	0.820437	0.099478	0.175486	0.278077	0.363756	0.207108	0.200596	0.780405	0.378969	0.053105	0.098670	0.115676	0.106315	0.093126	0.176890	0.474285	0.600693	0.204830	0.120382	0.222224	0.185364	0.127263	0.122763	0.273184	0.454522	0.110276	0.063613	0.089479	0.146847	0.821743	0.721978	0.567592	0.700502	0.121038	0.190240	0.177155	0.142408	0.116165	0.214368	0.192213	0.218841	0.105708	0.142291	0.179094	0.160162	0.146920	0.154806	0.504328	0.602015	0.101122	0.232195	0.275480	0.256029	0.080512	0.064441	0.195577	0.590843	0.055419	0.090587	0.122880	0.117885	0.078299	0.118058	0.723679	0.478023	0.391655	0.404389	0.277776	0.141177
96	0.350441	0.339925	0.570194	0.890783	0.097544	0.175658	0.290754	0.367284	0.198877	0.191679	0.777808	0.384274	0.043931	0.096407	0.118314	0.096617	0.088413	0.148726	0.509467	0.606489	0.213576	0.093608	0.195101	0.179718	0.133195	0.128933	0.273548	0.442551	0.098096	0.060161	0.102650	0.115431	0.771164	0.658320	0.604513	0.694905	0.151644	0.198147	0.170946	0.099880	0.109680	0.211495	0.164548	0.128730	0.128469	0.173937	0.180733	0.154794	0.160254	0.175998	0.517436	0.597169	0.099935	0.226708	0.275781	0.251983	0.081997	0.064531	0.206947	0.551364	0.052749	0.090012	0.161839	0.115897	0.124942	0.172600	0.653109	0.428425	0.392217	0.404001	0.235242	0.099899
97	0.371017	0.347818	0.668904	0.938009	0.098212	0.175912	0.294436	0.381481	0.192682	0.186420	0.780179	0.365543	0.065246	0.086980	0.118146	0.126974	0.090917	0.144725	0.530927	0.607842	0.215862	0.069341	0.190708	0.175970	0.162048	0.161516	0.273555	0.443562	0.026040	0.053173	0.131448	0.107299	0.705880	0.618331	0.693223	0.712507	0.159362	0.195261	0.129740	0.076502	0.089436	0.196826	0.162478	0.117063	0.176801	0.210046	0.178723	0.136708	0.190262	0.194380	0.517311	0.600463	0.096308	0.224071	0.276081	0.245379	0.089253	0.071442	0.214638	0.544987	0.051741	0.084882	0.198099	0.110804	0.130969	0.177298	0.625379	0.581368	0.400709	0.408334	0.189586	0.081308
98	0.353081	0.337530	0.779162	0.944491	0.098571	0.177931	0.292086	0.390323	0.191615	0.184790	0.742358	0.336311	0.066776	0.062333	0.105906	0.132195	0.089344	0.123853	0.491405	0.651374	0.225008	0.066287	0.204123	0.178833	0.198846	0.198510	0.276482	0.406875	0.040596	0.058549	0.145742	0.106951	0.710522	0.621291	0.722387	0.706050	0.160813	0.220599	0.081686	0.075725	0.069743	0.169862	0.168175	0.119969	0.200363	0.229682	0.180555	0.137370	0.172961	0.180189	0.497385	0.623733	0.087831	0.214783	0.275814	0.244336	0.130436	0.091005	0.198843	0.563982	0.052497	0.085746	0.210245	0.105930	0.142109	0.192483	0.592112	0.558948	0.399707	0.408837	0.167746	0.099654
99	0.361219	0.317836	0.815367	0.945878	0.104342	0.184501	0.282379	0.357277	0.191552	0.184477	0.670130	0.318622	0.069586	0.047309	0.093013	0.130920	0.100385	0.107765	0.608616	0.701239	0.229742	0.064851	0.212895	0.193148	0.216260	0.203314	0.409452	0.477067	0.051372	0.063397	0.148398	0.106883	0.645778	0.526239	0.712262	0.614215	0.263844	0.313247	0.059297	0.073279	0.067838	0.170429	0.178699	0.120693	0.281304	0.233282	0.180438	0.138130	0.193135	0.186218	0.444545	0.650371	0.071456	0.178869	0.272194	0.242782	0.131463	0.109068	0.192021	0.591056	0.052728	0.078443	0.213526	0.106157	0.152967	0.205732	0.470393	0.547000	0.397672	0.423502	0.170991	0.131855
100	0.357565	0.290723	0.815166	0.946510	0.120035	0.196954	0.268924	0.329177	0.183613	0.174260	0.616489	0.332554	0.084489	0.045549	0.092318	0.125579	0.103582	0.097924	0.746587	0.646646	0.227424	0.058960	0.214450	0.199142	0.208347	0.193885	0.595884	0.650766	0.056564	0.068636	0.148509	0.105602	0.433026	0.310609	0.692314	0.508827	0.271979	0.337439	0.053388	0.067316	0.057175	0.132626	0.179140	0.111615	0.365693	0.342892	0.175467	0.131604	0.191374	0.175148	0.435393	0.598158	0.050860	0.134271	0.261989	0.196189	0.137656	0.108728	0.198766	0.422095	0.052784	0.072213	0.212638	0.103364	0.160862	0.210093	0.480743	0.540286	0.397487	0.425871	0.175836	0.151111
101	0.397247	0.285549	0.813831	1.001009	0.149313	0.224924	0.258897	0.314507	0.152970	0.149636	0.605674	0.322650	0.096122	0.070950	0.088904	0.123237	0.127265	0.128341	0.753167	0.610818	0.228687	0.064191	0.209339	0.195593	0.204775	0.200784	0.634374	0.718489	0.061613	0.075725	0.148626	0.102854	0.371069	0.257527	0.661504	0.513264	0.318796	0.374692	0.054476	0.059780	0.047780	0.093974	0.179145	0.099690	0.487682	0.401871	0.170883	0.118627	0.190911	0.173185	0.368488	0.515890	0.048852	0.132476	0.246958	0.169511	0.134188	0.105828	0.207860	0.391473	0.052165	0.072241	0.210420	0.079821	0.167525	0.212984	0.587941	0.522478	0.395484	0.464266	0.172493	0.158259
