	304_At_T1_sh_ND_01.c3d	304_At_T1_sh_ND_01.c3d	304_At_T1_sh_ND_01.c3d	304_At_T1_sh_ND_01.c3d	304_At_T1_sh_ND_01.c3d	304_At_T1_sh_ND_01.c3d	304_At_T1_sh_ND_01.c3d	304_At_T1_sh_ND_01.c3d	304_At_T1_sh_ND_02.c3d	304_At_T1_sh_ND_02.c3d	304_At_T1_sh_ND_02.c3d	304_At_T1_sh_ND_02.c3d	304_At_T1_sh_ND_02.c3d	304_At_T1_sh_ND_02.c3d	304_At_T1_sh_ND_02.c3d	304_At_T1_sh_ND_02.c3d	304_At_T1_sh_ND_03.c3d	304_At_T1_sh_ND_03.c3d	304_At_T1_sh_ND_03.c3d	304_At_T1_sh_ND_03.c3d	304_At_T1_sh_ND_03.c3d	304_At_T1_sh_ND_03.c3d	304_At_T1_sh_ND_03.c3d	304_At_T1_sh_ND_03.c3d	304_At_T1_sh_ND_04.c3d	304_At_T1_sh_ND_04.c3d	304_At_T1_sh_ND_04.c3d	304_At_T1_sh_ND_04.c3d	304_At_T1_sh_ND_04.c3d	304_At_T1_sh_ND_04.c3d	304_At_T1_sh_ND_04.c3d	304_At_T1_sh_ND_04.c3d	304_At_T1_sh_ND_05.c3d	304_At_T1_sh_ND_05.c3d	304_At_T1_sh_ND_05.c3d	304_At_T1_sh_ND_05.c3d	304_At_T1_sh_ND_05.c3d	304_At_T1_sh_ND_05.c3d	304_At_T1_sh_ND_05.c3d	304_At_T1_sh_ND_05.c3d	304_At_T1_sh_ND_06.c3d	304_At_T1_sh_ND_06.c3d	304_At_T1_sh_ND_06.c3d	304_At_T1_sh_ND_06.c3d	304_At_T1_sh_ND_06.c3d	304_At_T1_sh_ND_06.c3d	304_At_T1_sh_ND_06.c3d	304_At_T1_sh_ND_06.c3d	304_At_T1_sh_ND_07.c3d	304_At_T1_sh_ND_07.c3d	304_At_T1_sh_ND_07.c3d	304_At_T1_sh_ND_07.c3d	304_At_T1_sh_ND_07.c3d	304_At_T1_sh_ND_07.c3d	304_At_T1_sh_ND_07.c3d	304_At_T1_sh_ND_07.c3d	304_At_T1_sh_ND_08.c3d	304_At_T1_sh_ND_08.c3d	304_At_T1_sh_ND_08.c3d	304_At_T1_sh_ND_08.c3d	304_At_T1_sh_ND_08.c3d	304_At_T1_sh_ND_08.c3d	304_At_T1_sh_ND_08.c3d	304_At_T1_sh_ND_08.c3d	304_At_T1_sh_ND_09.c3d	304_At_T1_sh_ND_09.c3d	304_At_T1_sh_ND_09.c3d	304_At_T1_sh_ND_09.c3d	304_At_T1_sh_ND_09.c3d	304_At_T1_sh_ND_09.c3d	304_At_T1_sh_ND_09.c3d	304_At_T1_sh_ND_09.c3d	304_At_T1_sh_ND_10.c3d	304_At_T1_sh_ND_10.c3d	304_At_T1_sh_ND_10.c3d	304_At_T1_sh_ND_10.c3d	304_At_T1_sh_ND_10.c3d	304_At_T1_sh_ND_10.c3d	304_At_T1_sh_ND_10.c3d	304_At_T1_sh_ND_10.c3d
	Biceps femoris_lat	Semitendinosus_lat	Vastus lateralis_lat	Vastus medialis_lat	Biceps femoris_med	Semitendinosus_med	Vastus lateralis_med	Vastus medialis_med	Biceps femoris_lat	Semitendinosus_lat	Vastus lateralis_lat	Vastus medialis_lat	Biceps femoris_med	Semitendinosus_med	Vastus lateralis_med	Vastus medialis_med	Biceps femoris_lat	Semitendinosus_lat	Vastus lateralis_lat	Vastus medialis_lat	Biceps femoris_med	Semitendinosus_med	Vastus lateralis_med	Vastus medialis_med	Biceps femoris_lat	Semitendinosus_lat	Vastus lateralis_lat	Vastus medialis_lat	Biceps femoris_med	Semitendinosus_med	Vastus lateralis_med	Vastus medialis_med	Biceps femoris_lat	Semitendinosus_lat	Vastus lateralis_lat	Vastus medialis_lat	Biceps femoris_med	Semitendinosus_med	Vastus lateralis_med	Vastus medialis_med	Biceps femoris_lat	Semitendinosus_lat	Vastus lateralis_lat	Vastus medialis_lat	Biceps femoris_med	Semitendinosus_med	Vastus lateralis_med	Vastus medialis_med	Biceps femoris_lat	Semitendinosus_lat	Vastus lateralis_lat	Vastus medialis_lat	Biceps femoris_med	Semitendinosus_med	Vastus lateralis_med	Vastus medialis_med	Biceps femoris_lat	Semitendinosus_lat	Vastus lateralis_lat	Vastus medialis_lat	Biceps femoris_med	Semitendinosus_med	Vastus lateralis_med	Vastus medialis_med	Biceps femoris_lat	Semitendinosus_lat	Vastus lateralis_lat	Vastus medialis_lat	Biceps femoris_med	Semitendinosus_med	Vastus lateralis_med	Vastus medialis_med	Biceps femoris_lat	Semitendinosus_lat	Vastus lateralis_lat	Vastus medialis_lat	Biceps femoris_med	Semitendinosus_med	Vastus lateralis_med	Vastus medialis_med
	P2D	P2D	P2D	P2D	P2D	P2D	P2D	P2D	P2D	P2D	P2D	P2D	P2D	P2D	P2D	P2D	P2D	P2D	P2D	P2D	P2D	P2D	P2D	P2D	P2D	P2D	P2D	P2D	P2D	P2D	P2D	P2D	P2D	P2D	P2D	P2D	P2D	P2D	P2D	P2D	P2D	P2D	P2D	P2D	P2D	P2D	P2D	P2D	P2D	P2D	P2D	P2D	P2D	P2D	P2D	P2D	P2D	P2D	P2D	P2D	P2D	P2D	P2D	P2D	P2D	P2D	P2D	P2D	P2D	P2D	P2D	P2D	P2D	P2D	P2D	P2D	P2D	P2D	P2D	P2D
	EMG_lat	EMG_lat	EMG_lat	EMG_lat	EMG_med	EMG_med	EMG_med	EMG_med	EMG_lat	EMG_lat	EMG_lat	EMG_lat	EMG_med	EMG_med	EMG_med	EMG_med	EMG_lat	EMG_lat	EMG_lat	EMG_lat	EMG_med	EMG_med	EMG_med	EMG_med	EMG_lat	EMG_lat	EMG_lat	EMG_lat	EMG_med	EMG_med	EMG_med	EMG_med	EMG_lat	EMG_lat	EMG_lat	EMG_lat	EMG_med	EMG_med	EMG_med	EMG_med	EMG_lat	EMG_lat	EMG_lat	EMG_lat	EMG_med	EMG_med	EMG_med	EMG_med	EMG_lat	EMG_lat	EMG_lat	EMG_lat	EMG_med	EMG_med	EMG_med	EMG_med	EMG_lat	EMG_lat	EMG_lat	EMG_lat	EMG_med	EMG_med	EMG_med	EMG_med	EMG_lat	EMG_lat	EMG_lat	EMG_lat	EMG_med	EMG_med	EMG_med	EMG_med	EMG_lat	EMG_lat	EMG_lat	EMG_lat	EMG_med	EMG_med	EMG_med	EMG_med
ITEM	Y	Y	Y	Y	Y	Y	Y	Y	Y	Y	Y	Y	Y	Y	Y	Y	Y	Y	Y	Y	Y	Y	Y	Y	Y	Y	Y	Y	Y	Y	Y	Y	Y	Y	Y	Y	Y	Y	Y	Y	Y	Y	Y	Y	Y	Y	Y	Y	Y	Y	Y	Y	Y	Y	Y	Y	Y	Y	Y	Y	Y	Y	Y	Y	Y	Y	Y	Y	Y	Y	Y	Y	Y	Y	Y	Y	Y	Y	Y	Y
1	0.146272	0.126144	0.086068	0.090677	0.141340	0.679685	0.083758	0.139303	0.172857	0.320592	0.140109	0.355477	0.342296	0.193414	0.247483	0.174947	0.276761	0.073080	0.243761	0.358384	0.102654	0.032830	0.159139	0.179338	0.180671	0.457715	0.136973	0.116762	0.174810	0.178964	0.156990	0.118157	0.293377	0.285232	0.085540	0.129622	0.228485	0.092808	0.207817	0.136628	0.318798	0.450973	0.240181	0.290468	0.103968	0.111783	0.229845	0.220242	0.249606	0.497316	0.237560	0.274277	0.091708	0.484089	0.114363	0.164901	0.084417	0.242980	0.139355	0.196888	0.200979	0.128470	0.259486	0.210668	0.244110	0.293330	0.235511	0.281786	0.472692	0.325196	0.295240	0.291794	0.144597	0.161285	0.082421	0.115096	0.394597	0.053958	0.162261	0.107163
2	0.160904	0.086432	0.094937	0.090749	0.128980	0.700102	0.109434	0.157908	0.172047	0.322041	0.139530	0.355582	0.416353	0.204397	0.249913	0.175797	0.276409	0.073201	0.212217	0.351764	0.092048	0.042145	0.156646	0.141006	0.174860	0.544331	0.129838	0.123016	0.189118	0.271564	0.143612	0.119411	0.301165	0.407950	0.084892	0.129852	0.255100	0.117898	0.207839	0.135482	0.272718	0.394567	0.233611	0.265762	0.119913	0.116376	0.244375	0.232781	0.236306	0.492197	0.243309	0.274318	0.107594	0.498133	0.109956	0.165737	0.083184	0.362965	0.140054	0.190611	0.201267	0.123393	0.255444	0.210755	0.230682	0.283784	0.230758	0.231399	0.476364	0.316167	0.293267	0.312604	0.160969	0.164469	0.088887	0.115100	0.382987	0.053680	0.160287	0.110129
3	0.165437	0.075339	0.104287	0.091044	0.155182	0.667624	0.113324	0.166210	0.171962	0.334693	0.133640	0.355745	0.421343	0.212806	0.256863	0.187558	0.259560	0.072772	0.204347	0.357341	0.084167	0.058381	0.161984	0.113987	0.174823	0.593950	0.130511	0.124350	0.190394	0.316431	0.125914	0.184897	0.299326	0.596010	0.084503	0.130013	0.234122	0.218829	0.199912	0.135488	0.254119	0.383575	0.214359	0.250121	0.146953	0.117993	0.244373	0.237755	0.194639	0.391250	0.238426	0.265340	0.110865	0.515596	0.116852	0.165296	0.083177	0.376876	0.148807	0.194270	0.211491	0.104460	0.258938	0.219239	0.222497	0.256656	0.201247	0.218845	0.439254	0.286893	0.254830	0.329433	0.162364	0.171766	0.113609	0.115582	0.366028	0.054965	0.160350	0.101509
4	0.173487	0.084398	0.112395	0.096359	0.196524	0.644696	0.139361	0.171517	0.177642	0.343620	0.141346	0.358730	0.423554	0.215210	0.258660	0.211998	0.274397	0.071867	0.239153	0.368005	0.093854	0.079532	0.140298	0.111284	0.201937	0.576168	0.128598	0.131780	0.190856	0.323631	0.125061	0.215385	0.297009	0.607377	0.083247	0.127370	0.242915	0.324176	0.152837	0.137120	0.254998	0.389770	0.197782	0.249036	0.183314	0.134510	0.240611	0.240764	0.180404	0.320228	0.187768	0.262291	0.131568	0.522728	0.134246	0.161973	0.083664	0.404310	0.164422	0.195601	0.216713	0.063353	0.255814	0.240818	0.247869	0.242830	0.198000	0.241117	0.391166	0.271200	0.216069	0.337618	0.161419	0.171872	0.124636	0.116162	0.234045	0.056706	0.160477	0.094592
5	0.183261	0.119489	0.129590	0.095681	0.210257	0.570537	0.139631	0.172060	0.200044	0.376181	0.161116	0.378687	0.431534	0.224567	0.273839	0.218983	0.275169	0.070030	0.232346	0.370376	0.084728	0.127497	0.125149	0.138142	0.210549	0.527142	0.131970	0.133103	0.184082	0.338105	0.109648	0.216102	0.285986	0.603257	0.106619	0.105811	0.346454	0.366103	0.128788	0.160182	0.238201	0.387257	0.216275	0.258805	0.200266	0.146397	0.241218	0.242014	0.174905	0.318171	0.184209	0.253650	0.140464	0.616109	0.138176	0.136843	0.079920	0.419839	0.166414	0.194828	0.231794	0.045429	0.259411	0.260007	0.249139	0.230514	0.202796	0.250538	0.341951	0.271419	0.203911	0.340189	0.160899	0.173802	0.125764	0.121769	0.138098	0.058110	0.165133	0.110160
6	0.187022	0.120995	0.131835	0.098500	0.209902	0.422005	0.142176	0.186741	0.223419	0.370791	0.179910	0.385807	0.443284	0.233914	0.294533	0.238807	0.264311	0.065801	0.214058	0.355721	0.078710	0.140856	0.115085	0.162921	0.178030	0.531167	0.131610	0.156419	0.182379	0.338896	0.153355	0.230665	0.235539	0.602650	0.112783	0.115292	0.379964	0.366494	0.134265	0.209151	0.238601	0.371171	0.221578	0.274491	0.207664	0.174964	0.240115	0.241712	0.151571	0.324677	0.185685	0.228722	0.177924	0.643679	0.169158	0.160540	0.074485	0.475569	0.168574	0.185613	0.229455	0.045910	0.262521	0.261673	0.233632	0.224140	0.211383	0.220286	0.353732	0.255565	0.205159	0.371456	0.147997	0.165159	0.127649	0.139192	0.147460	0.057155	0.163299	0.134729
7	0.187607	0.118038	0.134838	0.097477	0.223731	0.350374	0.141349	0.204225	0.222458	0.362130	0.189878	0.352496	0.457575	0.234774	0.319329	0.278621	0.259244	0.056664	0.240780	0.302580	0.104759	0.147864	0.109682	0.176391	0.163711	0.519949	0.130926	0.172217	0.213597	0.377357	0.200637	0.231192	0.222044	0.600589	0.112246	0.133421	0.385964	0.370074	0.157118	0.236106	0.270943	0.330389	0.227970	0.270887	0.210038	0.242874	0.224530	0.242066	0.121417	0.314430	0.178916	0.220274	0.205819	0.615694	0.167384	0.175021	0.081832	0.498657	0.185052	0.170376	0.244903	0.045512	0.246122	0.286732	0.220027	0.218175	0.213015	0.193605	0.369325	0.224118	0.252136	0.397287	0.137336	0.156053	0.126250	0.168510	0.163673	0.050990	0.169423	0.149231
8	0.214863	0.112907	0.137344	0.092799	0.227668	0.347037	0.141251	0.213352	0.234963	0.356542	0.189408	0.346996	0.476930	0.236025	0.345665	0.285284	0.262585	0.060085	0.278564	0.241816	0.173966	0.152429	0.117492	0.211078	0.165597	0.531509	0.112200	0.174289	0.273195	0.396714	0.200830	0.258912	0.210813	0.604653	0.110788	0.124381	0.391546	0.435168	0.203486	0.238975	0.269333	0.299671	0.236114	0.258870	0.212185	0.252010	0.198219	0.244200	0.118365	0.303206	0.151102	0.244678	0.212058	0.553370	0.166442	0.171348	0.067297	0.506313	0.173290	0.168420	0.266489	0.045417	0.287962	0.332545	0.218544	0.205787	0.190552	0.192944	0.342216	0.216319	0.281189	0.402553	0.157215	0.151445	0.146099	0.207410	0.191125	0.046479	0.216647	0.177731
9	0.201635	0.109887	0.135075	0.091210	0.225951	0.332236	0.141231	0.218385	0.245573	0.353474	0.189510	0.346021	0.468771	0.237592	0.397878	0.296257	0.254750	0.062119	0.312952	0.238902	0.207633	0.205381	0.128594	0.224463	0.168647	0.471866	0.127238	0.200805	0.293480	0.401106	0.201306	0.275111	0.158666	0.604448	0.135222	0.123090	0.396498	0.518634	0.220204	0.229862	0.302875	0.280691	0.220885	0.269716	0.238370	0.253094	0.227330	0.250731	0.132254	0.304916	0.226489	0.276956	0.206872	0.523034	0.168992	0.158900	0.059649	0.505877	0.172306	0.152479	0.268530	0.049101	0.301873	0.338243	0.218552	0.205623	0.184044	0.197140	0.336722	0.201377	0.276399	0.395004	0.167761	0.152938	0.165694	0.222027	0.264736	0.043970	0.229112	0.245095
10	0.208274	0.115538	0.135894	0.100572	0.224291	0.308054	0.147345	0.218076	0.242717	0.354358	0.181510	0.316001	0.466471	0.231557	0.423317	0.316791	0.284518	0.060752	0.333285	0.300641	0.210926	0.243631	0.214046	0.236785	0.184099	0.393295	0.200811	0.223046	0.300118	0.407061	0.208530	0.274845	0.139646	0.586824	0.141643	0.122664	0.405597	0.546408	0.227215	0.224408	0.315555	0.200905	0.203245	0.269933	0.267768	0.253449	0.256102	0.248072	0.156268	0.296861	0.236949	0.292339	0.207530	0.477647	0.167994	0.155081	0.082348	0.479843	0.178172	0.155845	0.234157	0.058770	0.275083	0.322598	0.208246	0.185361	0.159982	0.219556	0.312734	0.151994	0.277302	0.363387	0.167723	0.149948	0.169893	0.221562	0.298424	0.044852	0.227931	0.255795
11	0.210650	0.161390	0.148141	0.153999	0.222986	0.291124	0.148538	0.202525	0.242758	0.337248	0.171211	0.273359	0.478083	0.186265	0.408827	0.339091	0.321788	0.061549	0.332691	0.336573	0.227996	0.279124	0.220133	0.295793	0.214022	0.322631	0.199990	0.254653	0.350183	0.398304	0.206907	0.297694	0.107746	0.548719	0.143640	0.133847	0.410106	0.552954	0.228597	0.223118	0.310463	0.201344	0.192246	0.265055	0.280375	0.254022	0.270837	0.236446	0.158828	0.203455	0.231612	0.284257	0.195018	0.460574	0.172117	0.152864	0.107732	0.398678	0.181871	0.183068	0.234843	0.063152	0.258426	0.321388	0.201050	0.208074	0.159791	0.234747	0.303274	0.117001	0.295489	0.328048	0.196398	0.135173	0.170345	0.230886	0.295612	0.046877	0.228576	0.257379
12	0.239021	0.162124	0.202037	0.192094	0.230581	0.200555	0.144491	0.195958	0.254103	0.329687	0.167226	0.267402	0.463342	0.148366	0.421934	0.357589	0.316468	0.062944	0.335719	0.328365	0.263490	0.279822	0.255723	0.355617	0.201934	0.291664	0.200439	0.258507	0.346422	0.342020	0.200421	0.307769	0.108689	0.211402	0.170142	0.188046	0.404854	0.556938	0.232904	0.219663	0.310590	0.209729	0.190129	0.242877	0.282187	0.252354	0.282261	0.236092	0.174911	0.126369	0.248124	0.289067	0.195853	0.448043	0.177704	0.169762	0.125549	0.352874	0.182556	0.178479	0.246403	0.063099	0.257879	0.318259	0.195655	0.202654	0.154400	0.238900	0.298689	0.113210	0.323909	0.317269	0.213613	0.134224	0.168381	0.242372	0.306898	0.047053	0.229149	0.278326
13	0.239161	0.164177	0.211855	0.196499	0.222403	0.168157	0.219594	0.238282	0.262251	0.326473	0.164999	0.269418	0.383232	0.144873	0.499168	0.374956	0.306623	0.072764	0.337365	0.373748	0.292757	0.285272	0.331107	0.381594	0.276610	0.286026	0.198695	0.304675	0.343093	0.309866	0.200975	0.266178	0.112802	0.128131	0.173431	0.256684	0.382157	0.552621	0.240832	0.220213	0.296637	0.212126	0.198043	0.215139	0.279632	0.244796	0.286014	0.227819	0.190534	0.123779	0.256014	0.302749	0.189246	0.440267	0.168148	0.171886	0.128331	0.329242	0.169249	0.172285	0.235753	0.061274	0.275631	0.325475	0.180646	0.209012	0.145444	0.235854	0.299744	0.102439	0.351065	0.327815	0.203595	0.134239	0.177433	0.244058	0.353942	0.047904	0.250641	0.317627
14	0.235205	0.154514	0.210310	0.197942	0.204537	0.170820	0.279900	0.247285	0.264224	0.294388	0.162886	0.273882	0.374373	0.124015	0.602283	0.382077	0.313314	0.111226	0.316533	0.439472	0.295271	0.285191	0.379697	0.381093	0.306368	0.283847	0.211213	0.377989	0.342067	0.318203	0.231670	0.249500	0.133202	0.113967	0.171917	0.327002	0.378129	0.518597	0.242885	0.225901	0.290780	0.202774	0.250981	0.209254	0.278798	0.232521	0.286258	0.201406	0.196810	0.121821	0.257475	0.310867	0.183225	0.301146	0.165062	0.164350	0.129554	0.315140	0.157571	0.197191	0.251054	0.057427	0.321535	0.340295	0.139790	0.202767	0.154339	0.218484	0.310313	0.077371	0.382742	0.328026	0.209418	0.131741	0.163243	0.243210	0.399587	0.048313	0.295180	0.365034
15	0.237690	0.155628	0.283612	0.239289	0.159364	0.165705	0.280766	0.251482	0.271004	0.215088	0.150238	0.285242	0.377358	0.120417	0.671333	0.366515	0.330577	0.116907	0.323629	0.485256	0.295345	0.269403	0.383284	0.367969	0.317846	0.333850	0.233553	0.411701	0.344100	0.332034	0.272543	0.248777	0.178722	0.114870	0.163207	0.336886	0.372465	0.459329	0.239436	0.227703	0.293754	0.196069	0.262044	0.198142	0.269687	0.231818	0.276810	0.183200	0.198684	0.112285	0.257265	0.312927	0.137393	0.218391	0.154822	0.167752	0.157198	0.270394	0.160422	0.247543	0.268201	0.055354	0.360392	0.344586	0.130534	0.205028	0.151980	0.211604	0.316929	0.065061	0.396566	0.317224	0.213998	0.127449	0.152446	0.244406	0.426502	0.049286	0.319340	0.401624
16	0.283353	0.162711	0.338836	0.353386	0.193510	0.161412	0.320301	0.262072	0.280423	0.133950	0.125072	0.292006	0.381804	0.111006	0.690865	0.346334	0.336741	0.118146	0.369605	0.500636	0.294851	0.279177	0.385867	0.367639	0.312463	0.484395	0.238936	0.402008	0.352210	0.336283	0.283525	0.242319	0.196493	0.128744	0.223809	0.331993	0.259851	0.429695	0.235017	0.215854	0.288004	0.191321	0.261627	0.160718	0.253502	0.229023	0.273871	0.178013	0.201083	0.082191	0.257347	0.315625	0.151433	0.151491	0.206359	0.211353	0.198329	0.186432	0.156324	0.297740	0.255344	0.057202	0.380117	0.334849	0.185440	0.218940	0.136162	0.233202	0.312387	0.065516	0.401297	0.303189	0.216154	0.115740	0.163523	0.243280	0.435113	0.049124	0.331763	0.416141
17	0.319074	0.165932	0.408168	0.427317	0.199310	0.154588	0.374503	0.266065	0.300480	0.093188	0.090916	0.324128	0.369094	0.085230	0.697127	0.340270	0.331181	0.125379	0.411737	0.502358	0.276539	0.280823	0.403865	0.384236	0.312551	0.645754	0.204112	0.393642	0.331345	0.292708	0.271482	0.240167	0.197806	0.159253	0.268983	0.332204	0.210564	0.430588	0.241034	0.172862	0.245137	0.182746	0.259469	0.135750	0.230631	0.216302	0.274558	0.173800	0.199233	0.072808	0.256962	0.319960	0.174896	0.154238	0.222076	0.255491	0.227209	0.159083	0.135305	0.301104	0.258603	0.059617	0.378998	0.333994	0.205116	0.250493	0.140213	0.244035	0.308128	0.063945	0.409838	0.289207	0.222961	0.099673	0.174663	0.236440	0.437139	0.047572	0.340694	0.417747
18	0.350395	0.165919	0.457195	0.493769	0.191703	0.152347	0.400077	0.260501	0.294984	0.089970	0.077907	0.332179	0.356032	0.076823	0.690222	0.311235	0.310837	0.122117	0.408699	0.503755	0.267708	0.279693	0.403603	0.425708	0.297203	0.677978	0.162068	0.386645	0.268485	0.279006	0.271775	0.208823	0.189916	0.218813	0.266959	0.345420	0.207647	0.428368	0.226962	0.139618	0.225571	0.181705	0.250621	0.138870	0.236702	0.209874	0.278230	0.170781	0.198663	0.072665	0.272181	0.306454	0.174474	0.170826	0.219962	0.272258	0.233881	0.229078	0.133075	0.313328	0.254327	0.064493	0.377557	0.301064	0.210170	0.273381	0.136366	0.249606	0.309341	0.069542	0.415573	0.278714	0.228381	0.098659	0.183099	0.227221	0.434014	0.050668	0.338151	0.411690
19	0.360642	0.165889	0.462062	0.503713	0.192948	0.144051	0.401131	0.257149	0.271281	0.097183	0.080045	0.327126	0.347978	0.074447	0.670297	0.288977	0.307749	0.120687	0.383983	0.486957	0.284087	0.242931	0.390840	0.439871	0.283290	0.789566	0.180613	0.377242	0.259587	0.263586	0.272686	0.202760	0.208256	0.240191	0.274303	0.383460	0.211697	0.360493	0.174862	0.137649	0.221500	0.181160	0.242769	0.132448	0.298678	0.155245	0.303364	0.192820	0.185188	0.085787	0.229284	0.246282	0.172702	0.174478	0.219357	0.271323	0.263130	0.382922	0.155789	0.354522	0.237375	0.068529	0.353531	0.242862	0.259857	0.289243	0.151908	0.289959	0.306596	0.073492	0.413987	0.276987	0.219284	0.098167	0.183455	0.207661	0.429181	0.063155	0.332765	0.409179
20	0.365850	0.123329	0.467643	0.527821	0.198117	0.117661	0.398693	0.266985	0.267140	0.089795	0.086182	0.330916	0.317391	0.079063	0.635902	0.285439	0.280499	0.127745	0.376913	0.448518	0.282701	0.269846	0.359012	0.427629	0.250149	0.874231	0.191961	0.372732	0.237170	0.282269	0.268426	0.218538	0.251563	0.289501	0.277846	0.414674	0.217573	0.233849	0.156250	0.135392	0.152633	0.162935	0.227751	0.144844	0.379524	0.070702	0.369807	0.273458	0.149219	0.114810	0.205182	0.184297	0.173397	0.171094	0.209360	0.271036	0.313859	0.402344	0.205396	0.377214	0.235075	0.077235	0.328152	0.213060	0.284296	0.299630	0.173440	0.340021	0.290852	0.075953	0.410295	0.250049	0.204692	0.096582	0.164666	0.182922	0.424943	0.072362	0.316844	0.416253
21	0.413288	0.132479	0.457681	0.621119	0.198359	0.101802	0.396421	0.268232	0.267403	0.088448	0.120515	0.324305	0.322715	0.105350	0.609724	0.270390	0.255870	0.180766	0.379258	0.458126	0.287202	0.249061	0.355442	0.396854	0.169383	0.915279	0.200559	0.314724	0.172980	0.282462	0.269583	0.201565	0.254847	0.303259	0.268539	0.414566	0.179888	0.184676	0.155656	0.128207	0.136621	0.140500	0.223636	0.153145	0.422642	0.037005	0.403956	0.399692	0.145346	0.152678	0.206673	0.174667	0.170374	0.159867	0.205182	0.264157	0.319237	0.423684	0.225994	0.381717	0.240938	0.093136	0.328324	0.211598	0.294104	0.320622	0.187353	0.362754	0.261131	0.079397	0.389859	0.214782	0.199987	0.092298	0.150626	0.176873	0.408356	0.069595	0.290413	0.406026
22	0.463210	0.130297	0.519048	0.719749	0.188125	0.099861	0.394387	0.262192	0.263060	0.087830	0.155786	0.336428	0.359138	0.138723	0.618908	0.286112	0.270365	0.236029	0.374622	0.461059	0.264180	0.278925	0.313084	0.373724	0.157005	0.917152	0.190420	0.241441	0.167690	0.336773	0.269182	0.189843	0.260664	0.305809	0.273454	0.386648	0.167151	0.182228	0.154878	0.117322	0.135626	0.154009	0.223482	0.149886	0.406463	0.034694	0.400558	0.451771	0.123717	0.213139	0.189177	0.169258	0.160955	0.143195	0.211010	0.266381	0.317719	0.430541	0.227289	0.380367	0.240263	0.117520	0.335554	0.212696	0.294097	0.347243	0.191434	0.370817	0.220192	0.085701	0.362262	0.222470	0.193784	0.150754	0.150508	0.170850	0.361031	0.069906	0.289162	0.375820
23	0.510309	0.117577	0.578993	0.767624	0.186608	0.092043	0.368264	0.224961	0.321976	0.091138	0.159412	0.386895	0.389369	0.171268	0.630469	0.302675	0.250025	0.318854	0.369735	0.404016	0.238548	0.266588	0.212179	0.370661	0.209816	0.888351	0.158893	0.233464	0.179782	0.350825	0.271690	0.194264	0.267292	0.312984	0.275638	0.326595	0.186303	0.171925	0.147974	0.118387	0.131794	0.179149	0.222769	0.143687	0.389392	0.031956	0.396782	0.451177	0.096210	0.260909	0.167719	0.143407	0.163077	0.134982	0.214706	0.267457	0.322319	0.475865	0.228883	0.377640	0.230068	0.120553	0.350709	0.213292	0.296010	0.340079	0.193435	0.371453	0.183346	0.093531	0.358533	0.230488	0.157091	0.208103	0.150220	0.148752	0.339487	0.074343	0.289274	0.371356
24	0.525443	0.111285	0.576859	0.769824	0.170521	0.090345	0.307509	0.198381	0.376048	0.099216	0.186588	0.443019	0.376991	0.184277	0.604685	0.299852	0.237175	0.332632	0.371408	0.333844	0.243444	0.264282	0.158754	0.376055	0.220859	0.777344	0.156448	0.232683	0.202101	0.336857	0.250147	0.208898	0.244325	0.313562	0.283720	0.298854	0.192887	0.172050	0.141260	0.120595	0.128919	0.186668	0.182219	0.148933	0.398139	0.042261	0.386932	0.454337	0.084396	0.268009	0.166118	0.135608	0.163950	0.129681	0.198570	0.243982	0.318622	0.503262	0.243147	0.354380	0.242028	0.122351	0.346973	0.210882	0.298704	0.404199	0.195543	0.369485	0.176130	0.092537	0.359985	0.232253	0.162638	0.231668	0.154821	0.128887	0.337899	0.105443	0.288725	0.365891
25	0.507967	0.175130	0.544834	0.728905	0.189471	0.096954	0.296025	0.198744	0.378988	0.089850	0.246129	0.482720	0.366389	0.204769	0.525485	0.285115	0.228587	0.380783	0.360877	0.282308	0.249286	0.266589	0.170393	0.375515	0.286054	0.654525	0.188055	0.247620	0.212853	0.314340	0.204935	0.218505	0.218507	0.391331	0.261941	0.295911	0.264324	0.236070	0.146165	0.110262	0.151208	0.190837	0.140629	0.192440	0.441921	0.073956	0.373130	0.490866	0.155613	0.306245	0.166235	0.161854	0.109821	0.129462	0.142803	0.189772	0.302983	0.505935	0.269484	0.325563	0.222882	0.156519	0.309454	0.187804	0.311698	0.432259	0.214744	0.377318	0.173697	0.092110	0.351854	0.230747	0.164821	0.248438	0.162620	0.122155	0.322566	0.124282	0.287519	0.346789
26	0.476599	0.214971	0.505217	0.695481	0.177699	0.105101	0.276429	0.185454	0.353361	0.112293	0.266871	0.483044	0.382502	0.213132	0.407459	0.277693	0.210036	0.391895	0.298501	0.263924	0.248523	0.253744	0.152307	0.366373	0.322243	0.616136	0.216558	0.266022	0.197719	0.304204	0.154602	0.214971	0.216318	0.454822	0.188194	0.290065	0.329257	0.275032	0.154187	0.104688	0.284653	0.195091	0.193801	0.332428	0.467661	0.094613	0.384627	0.539801	0.204872	0.318674	0.166998	0.189964	0.061167	0.117859	0.118984	0.127883	0.283636	0.507692	0.278497	0.308222	0.188998	0.161528	0.263839	0.152860	0.357912	0.448551	0.231831	0.407135	0.173745	0.092426	0.327122	0.231321	0.159434	0.271336	0.185766	0.129704	0.261824	0.124323	0.252471	0.306191
27	0.456085	0.215058	0.479770	0.665143	0.153568	0.116447	0.190078	0.149904	0.318866	0.174734	0.271363	0.449886	0.390200	0.316079	0.346764	0.282476	0.205367	0.389477	0.193233	0.264322	0.241126	0.258520	0.114128	0.312139	0.318510	0.466163	0.213285	0.272277	0.190938	0.295149	0.138414	0.215218	0.217765	0.464595	0.185590	0.278008	0.343737	0.292989	0.153896	0.088255	0.367777	0.202444	0.273609	0.477098	0.482948	0.154275	0.417769	0.579508	0.219231	0.333470	0.214241	0.207418	0.055884	0.091176	0.105130	0.091554	0.270905	0.499125	0.279233	0.320748	0.196921	0.178468	0.220555	0.133960	0.378508	0.455268	0.237350	0.424585	0.172841	0.116221	0.309394	0.224094	0.168885	0.342240	0.182916	0.166209	0.195191	0.152932	0.200860	0.244068
28	0.483575	0.238188	0.498947	0.682274	0.186833	0.140472	0.118285	0.144211	0.310364	0.245315	0.271976	0.433343	0.389100	0.344792	0.330437	0.291462	0.205208	0.412032	0.150949	0.257997	0.190055	0.263806	0.115043	0.237965	0.317687	0.284236	0.211384	0.273763	0.196736	0.290585	0.138768	0.216762	0.211931	0.457042	0.191599	0.238055	0.361050	0.293672	0.135769	0.076948	0.379124	0.222822	0.312984	0.508025	0.491721	0.169297	0.450053	0.600896	0.233159	0.357102	0.255857	0.208965	0.053164	0.096008	0.105631	0.088777	0.263068	0.410897	0.290605	0.286192	0.191730	0.203374	0.202608	0.200396	0.380817	0.447045	0.276778	0.456291	0.157428	0.215698	0.270278	0.218169	0.169959	0.367162	0.173654	0.225948	0.142506	0.186836	0.165041	0.186531
29	0.488772	0.255208	0.496400	0.678387	0.215526	0.141231	0.110418	0.163438	0.315175	0.256635	0.282084	0.444486	0.388956	0.344290	0.315934	0.293488	0.208109	0.422146	0.149310	0.255215	0.178120	0.226941	0.113190	0.230962	0.317058	0.220389	0.200411	0.271090	0.210551	0.288983	0.133381	0.211684	0.176255	0.517552	0.233748	0.229518	0.358488	0.293296	0.128812	0.070887	0.391631	0.233360	0.320090	0.505739	0.496780	0.183444	0.463814	0.608297	0.283249	0.374285	0.266218	0.210185	0.070731	0.100116	0.106222	0.083257	0.190702	0.342620	0.266147	0.233739	0.190217	0.203313	0.216503	0.253613	0.382655	0.449875	0.290283	0.457029	0.153953	0.304565	0.227570	0.212005	0.160012	0.379719	0.164059	0.273684	0.127135	0.189357	0.140381	0.162885
30	0.441081	0.260662	0.505947	0.598107	0.221517	0.140579	0.127160	0.155520	0.321994	0.261194	0.314468	0.459049	0.378117	0.344996	0.309811	0.293783	0.220389	0.419575	0.124289	0.258255	0.192708	0.185668	0.125389	0.218564	0.288057	0.213171	0.202866	0.263414	0.223547	0.300499	0.116223	0.184443	0.192549	0.651764	0.241640	0.223235	0.366282	0.376657	0.136667	0.067023	0.442039	0.237710	0.339658	0.519168	0.500569	0.239660	0.464049	0.610066	0.310765	0.368518	0.261829	0.237652	0.163279	0.111622	0.130530	0.095216	0.148191	0.317184	0.241430	0.190161	0.198989	0.202472	0.209275	0.257568	0.366563	0.442997	0.286324	0.433671	0.154215	0.348521	0.208442	0.202029	0.163484	0.389926	0.160164	0.274715	0.123592	0.203004	0.121476	0.159775
31	0.387850	0.265959	0.475933	0.472524	0.225237	0.137996	0.168329	0.152143	0.323500	0.264727	0.318149	0.457921	0.376429	0.354913	0.310132	0.294327	0.214134	0.399575	0.120627	0.219973	0.152705	0.180071	0.124266	0.192502	0.338895	0.209367	0.248297	0.300121	0.223523	0.387798	0.139752	0.180664	0.197146	0.688629	0.236011	0.215365	0.361183	0.395191	0.146839	0.078294	0.490472	0.232224	0.371952	0.576434	0.491305	0.337113	0.460276	0.608567	0.325693	0.355743	0.301719	0.279213	0.277489	0.110848	0.159543	0.211241	0.161485	0.312249	0.238468	0.193793	0.214316	0.209935	0.207391	0.287967	0.376568	0.433054	0.299098	0.426120	0.136197	0.392730	0.187925	0.192753	0.217164	0.393340	0.162708	0.283600	0.124357	0.231068	0.120444	0.158718
32	0.316243	0.266234	0.389039	0.376617	0.226433	0.135924	0.175055	0.152960	0.323104	0.285193	0.300506	0.455116	0.375095	0.352076	0.306656	0.293194	0.190743	0.373629	0.135046	0.203141	0.151937	0.169676	0.126176	0.156469	0.424208	0.217905	0.345236	0.313852	0.223472	0.442397	0.174701	0.196806	0.224470	0.692470	0.250619	0.241639	0.367261	0.390741	0.172427	0.098271	0.521982	0.216438	0.416071	0.642105	0.445424	0.347918	0.435354	0.597682	0.335544	0.329063	0.335642	0.303176	0.304772	0.145552	0.235842	0.263242	0.187280	0.264471	0.272387	0.226752	0.221783	0.204799	0.201463	0.351900	0.395274	0.397340	0.324315	0.435254	0.128735	0.397057	0.172946	0.187039	0.253823	0.393425	0.175557	0.334246	0.120485	0.238364	0.112635	0.138605
33	0.290523	0.271766	0.343899	0.349684	0.226386	0.136868	0.174664	0.152797	0.303334	0.331099	0.303961	0.424692	0.344368	0.342101	0.282427	0.271057	0.244031	0.315941	0.264375	0.238309	0.160383	0.187457	0.137038	0.136354	0.398369	0.221603	0.349315	0.295525	0.219764	0.466536	0.172619	0.197940	0.231637	0.692353	0.260071	0.268743	0.383437	0.383598	0.189668	0.113097	0.531399	0.189688	0.444008	0.688271	0.378126	0.348722	0.379420	0.552227	0.339258	0.288854	0.347889	0.310395	0.326585	0.165595	0.250954	0.266025	0.191779	0.179842	0.282880	0.234598	0.233272	0.203843	0.192493	0.407049	0.416413	0.368879	0.353090	0.455645	0.129416	0.395756	0.165286	0.186135	0.265869	0.383498	0.188331	0.390308	0.104181	0.279691	0.085011	0.097771
34	0.288379	0.248556	0.335819	0.348996	0.225556	0.135061	0.176437	0.148028	0.205851	0.357805	0.333729	0.378983	0.278882	0.327983	0.248983	0.211598	0.349988	0.280680	0.421863	0.369940	0.145155	0.185620	0.130942	0.121859	0.404969	0.188886	0.332285	0.270875	0.206991	0.487781	0.168843	0.190667	0.234163	0.669773	0.263828	0.275575	0.375751	0.382510	0.191556	0.111243	0.532282	0.168945	0.462171	0.711404	0.346627	0.349884	0.344657	0.466511	0.368069	0.282111	0.350902	0.311230	0.338019	0.212356	0.252971	0.270872	0.261221	0.118995	0.335790	0.284996	0.230137	0.201535	0.177174	0.425779	0.422653	0.364014	0.375536	0.467787	0.131407	0.399256	0.163923	0.184851	0.269018	0.357095	0.206131	0.430081	0.094345	0.298891	0.072136	0.057131
35	0.288911	0.190677	0.337328	0.338994	0.209769	0.123138	0.172251	0.145888	0.144837	0.362551	0.333131	0.320524	0.225089	0.313106	0.224682	0.158891	0.393621	0.215047	0.484292	0.453259	0.159555	0.203213	0.114178	0.121592	0.406234	0.187815	0.327087	0.294627	0.221757	0.545205	0.213295	0.253994	0.355423	0.602935	0.339141	0.454865	0.369245	0.380777	0.205550	0.109992	0.534665	0.169200	0.477359	0.712765	0.350687	0.350846	0.331249	0.429817	0.430016	0.245378	0.392652	0.457713	0.344197	0.216371	0.252357	0.279477	0.419333	0.108737	0.452064	0.460762	0.218894	0.206000	0.178409	0.422584	0.423073	0.285691	0.374043	0.470327	0.132112	0.404898	0.165120	0.169040	0.270956	0.339965	0.225725	0.445626	0.102213	0.299256	0.066415	0.052207
36	0.277728	0.190801	0.310200	0.317096	0.187383	0.110490	0.163148	0.135625	0.139426	0.358379	0.318648	0.272598	0.219862	0.305359	0.208547	0.137308	0.397887	0.210986	0.540539	0.486311	0.189061	0.205408	0.116353	0.172406	0.410116	0.172721	0.353050	0.313166	0.240841	0.593359	0.273361	0.331633	0.669293	0.577425	0.451970	0.737082	0.322212	0.344426	0.221396	0.120346	0.516623	0.168829	0.466388	0.686447	0.351164	0.350719	0.341539	0.428211	0.495852	0.222981	0.428141	0.690533	0.348914	0.216239	0.252819	0.286857	0.495125	0.106085	0.555547	0.534682	0.225611	0.219834	0.174161	0.420774	0.397854	0.259986	0.358349	0.453023	0.126824	0.405164	0.165536	0.128115	0.266521	0.327351	0.221235	0.446015	0.108532	0.297395	0.065979	0.060525
37	0.243044	0.168751	0.263077	0.285274	0.192391	0.107277	0.163798	0.134792	0.140885	0.344755	0.308631	0.258702	0.187751	0.298356	0.192077	0.139331	0.398882	0.217898	0.581015	0.507897	0.235867	0.189271	0.189948	0.202911	0.413075	0.137295	0.437607	0.310906	0.257097	0.602216	0.287796	0.356692	0.823805	0.567637	0.551027	0.833972	0.270779	0.316795	0.219485	0.132685	0.505647	0.166821	0.453288	0.635006	0.319812	0.349607	0.345638	0.413711	0.528565	0.204583	0.418441	0.738430	0.403533	0.209550	0.263937	0.340183	0.506749	0.108140	0.563190	0.536518	0.225336	0.276368	0.162100	0.419726	0.346178	0.230255	0.360455	0.420609	0.127450	0.404268	0.157739	0.103646	0.268281	0.321379	0.277723	0.473466	0.109289	0.286260	0.065596	0.059045
38	0.303518	0.154236	0.281725	0.355927	0.184172	0.065800	0.176953	0.149876	0.178505	0.299211	0.332583	0.297190	0.138137	0.276591	0.172133	0.133966	0.403088	0.154412	0.590149	0.513919	0.249482	0.184721	0.259747	0.212073	0.414143	0.129992	0.451437	0.303248	0.259553	0.612662	0.300725	0.352504	0.839541	0.521164	0.559617	0.829701	0.270583	0.302198	0.218425	0.136859	0.564186	0.143079	0.532485	0.654765	0.259543	0.351893	0.352634	0.359993	0.536626	0.166601	0.384956	0.741477	0.430967	0.207164	0.347929	0.404609	0.575239	0.112643	0.634578	0.590977	0.219395	0.272424	0.159636	0.417839	0.357108	0.199049	0.375905	0.460325	0.126588	0.406832	0.151361	0.096519	0.336617	0.262596	0.356876	0.607843	0.097370	0.285005	0.064803	0.052897
39	0.414171	0.151828	0.363655	0.482653	0.221747	0.052040	0.267138	0.239314	0.299633	0.277761	0.362958	0.429192	0.141382	0.245111	0.138753	0.112999	0.402198	0.146988	0.604983	0.514336	0.244798	0.184328	0.288840	0.228498	0.318048	0.127617	0.422138	0.274070	0.239113	0.612310	0.300597	0.358509	0.977413	0.316359	0.591425	0.898031	0.260238	0.309217	0.218511	0.136934	0.639920	0.111859	0.576848	0.767853	0.218170	0.343935	0.341538	0.280533	0.557808	0.108085	0.370537	0.774097	0.402852	0.204776	0.410975	0.424925	0.622586	0.112717	0.725452	0.678495	0.228125	0.291259	0.157750	0.394711	0.482002	0.175270	0.417899	0.543147	0.122568	0.406702	0.145211	0.095709	0.401761	0.190624	0.418548	0.716804	0.095277	0.294696	0.069731	0.059752
40	0.472021	0.192287	0.523473	0.580035	0.372133	0.068508	0.310050	0.465345	0.402341	0.267864	0.370423	0.498242	0.153669	0.312447	0.113749	0.098606	0.437312	0.148716	0.643893	0.534884	0.231770	0.172679	0.290230	0.226363	0.207574	0.116428	0.352411	0.273104	0.243354	0.586460	0.300981	0.372608	1.064487	0.156564	0.704056	1.031783	0.256700	0.323715	0.223243	0.137766	0.647245	0.094595	0.610686	0.814188	0.192597	0.327081	0.294299	0.195780	0.565177	0.082824	0.379482	0.824477	0.334509	0.206510	0.411308	0.382948	0.645333	0.108820	0.779414	0.731511	0.242203	0.333442	0.131310	0.361726	0.608234	0.139401	0.462583	0.639968	0.121695	0.408350	0.134121	0.093712	0.437891	0.172080	0.500190	0.750102	0.092584	0.276338	0.073525	0.073226
41	0.487426	0.195053	0.618306	0.596110	0.488577	0.083129	0.361935	0.570481	0.444993	0.275736	0.427531	0.527700	0.176238	0.352027	0.112683	0.096491	0.508158	0.129335	0.703933	0.607953	0.247471	0.159708	0.315057	0.237998	0.196744	0.105471	0.347792	0.259969	0.265718	0.530393	0.308904	0.371253	1.084535	0.146081	0.757699	1.110307	0.236514	0.220118	0.223572	0.168326	0.609785	0.105708	0.621718	0.789797	0.177899	0.325273	0.248806	0.134158	0.568566	0.093511	0.362135	0.864448	0.315675	0.175988	0.370173	0.355857	0.651242	0.100234	0.787212	0.738678	0.265421	0.367491	0.166032	0.389566	0.637253	0.135053	0.464957	0.663330	0.121298	0.405707	0.108802	0.079929	0.443810	0.143842	0.561183	0.747567	0.092022	0.267496	0.086883	0.083559
42	0.497797	0.191844	0.626671	0.649901	0.502513	0.083489	0.432694	0.578278	0.448679	0.266624	0.446345	0.551128	0.172951	0.349044	0.106099	0.106778	0.550169	0.114165	0.781716	0.705769	0.280334	0.124746	0.348233	0.305092	0.176680	0.089321	0.348575	0.256507	0.290689	0.432723	0.344995	0.371209	1.087800	0.168309	0.772738	1.127746	0.242658	0.183029	0.235813	0.217244	0.591216	0.124043	0.601012	0.765920	0.162595	0.327391	0.228533	0.110703	0.568681	0.098331	0.319144	0.878706	0.289807	0.161326	0.371128	0.354069	0.648239	0.092305	0.778575	0.733644	0.306383	0.419547	0.242518	0.401291	0.641212	0.137565	0.449942	0.648804	0.124256	0.380159	0.080007	0.053211	0.435154	0.126545	0.567266	0.749467	0.082466	0.266999	0.102912	0.085532
43	0.546711	0.188057	0.651804	0.801781	0.602310	0.090914	0.451527	0.617087	0.454841	0.226369	0.447042	0.555948	0.177541	0.405683	0.116259	0.154875	0.532506	0.118475	0.780256	0.742420	0.313984	0.115516	0.381168	0.384753	0.175910	0.107053	0.349061	0.211719	0.290031	0.412554	0.372626	0.387552	1.088230	0.175247	0.778818	1.128631	0.235650	0.184221	0.242002	0.255460	0.685416	0.133822	0.607995	0.757827	0.150437	0.258141	0.232438	0.105819	0.574051	0.094033	0.301907	0.877899	0.283256	0.096495	0.374229	0.348995	0.642265	0.087362	0.765121	0.728405	0.329397	0.457253	0.270009	0.359482	0.715710	0.136209	0.429482	0.695509	0.122410	0.295738	0.069530	0.029981	0.409732	0.120804	0.619161	0.745516	0.087552	0.253503	0.104487	0.121340
44	0.655753	0.187731	0.701025	0.922514	0.694838	0.093218	0.575533	0.721463	0.452061	0.159672	0.430434	0.575066	0.219110	0.483035	0.253958	0.227322	0.467834	0.122204	0.734110	0.695472	0.325240	0.110562	0.399559	0.426835	0.172378	0.111440	0.308713	0.202140	0.295528	0.369267	0.387191	0.396993	1.071612	0.175029	0.758675	1.096948	0.221669	0.197445	0.235979	0.261918	0.792866	0.133194	0.644545	0.765644	0.149996	0.165984	0.243715	0.145029	0.564105	0.098036	0.297090	0.877948	0.275629	0.093188	0.372923	0.343864	0.570784	0.074319	0.718190	0.660744	0.318085	0.471092	0.271344	0.291122	0.775879	0.130548	0.472096	0.758729	0.110497	0.284887	0.070589	0.025916	0.405445	0.120452	0.653382	0.747164	0.147976	0.252229	0.129777	0.179455
45	0.708136	0.189397	0.778088	0.957680	0.715125	0.096611	0.626639	0.792352	0.452257	0.125096	0.406736	0.582933	0.227007	0.541342	0.329269	0.267352	0.436062	0.122944	0.703819	0.650341	0.318987	0.083739	0.402491	0.427495	0.164988	0.101994	0.234849	0.203968	0.272925	0.276203	0.363519	0.353016	0.938992	0.171320	0.705959	0.942432	0.227985	0.217198	0.235335	0.267462	0.836244	0.130173	0.711470	0.774985	0.189932	0.153794	0.283765	0.187443	0.520932	0.095394	0.299472	0.842022	0.266421	0.094897	0.374799	0.336573	0.476753	0.068792	0.640058	0.562930	0.311167	0.473086	0.264229	0.254102	0.790823	0.115023	0.523543	0.795161	0.119540	0.240435	0.081791	0.037435	0.454002	0.114024	0.671047	0.766087	0.235013	0.250049	0.190320	0.224887
46	0.716980	0.190940	0.849803	0.950254	0.718302	0.098699	0.629940	0.801975	0.456486	0.125571	0.392456	0.594695	0.230199	0.556286	0.333465	0.270211	0.434369	0.101050	0.651557	0.640555	0.297978	0.068355	0.396787	0.408231	0.154899	0.103926	0.226501	0.230984	0.256656	0.181419	0.324170	0.284642	0.765619	0.168977	0.622899	0.820530	0.233483	0.247192	0.219524	0.302623	0.846580	0.126580	0.746848	0.779914	0.248054	0.167809	0.318320	0.218617	0.431673	0.096216	0.286887	0.650351	0.163347	0.101769	0.365291	0.279612	0.454811	0.072198	0.631287	0.576123	0.320395	0.472922	0.259513	0.267014	0.794022	0.095679	0.554698	0.805429	0.122104	0.240970	0.100779	0.103646	0.535106	0.100377	0.694332	0.805025	0.259853	0.207317	0.271659	0.242740
47	0.687334	0.180087	0.864288	0.924187	0.717443	0.097688	0.630092	0.802032	0.461753	0.125812	0.391328	0.627265	0.235515	0.555915	0.336376	0.286044	0.434585	0.087579	0.630032	0.627748	0.270008	0.068040	0.371614	0.402973	0.155660	0.146130	0.248392	0.227785	0.242871	0.164141	0.311230	0.265202	0.745888	0.168705	0.581144	0.813737	0.227388	0.256717	0.214102	0.339039	0.829086	0.125112	0.765928	0.768726	0.285872	0.198780	0.340726	0.266273	0.365509	0.095195	0.297948	0.548451	0.080446	0.100721	0.277061	0.182205	0.416265	0.070010	0.625103	0.591473	0.338974	0.465622	0.287555	0.273447	0.794237	0.080204	0.570402	0.806770	0.143067	0.241188	0.124804	0.197201	0.579449	0.095033	0.716654	0.845078	0.259752	0.191384	0.302566	0.243984
48	0.628546	0.156026	0.837779	0.876382	0.715022	0.093342	0.631608	0.799256	0.512404	0.123307	0.381259	0.658303	0.250178	0.556781	0.340956	0.324154	0.431311	0.085893	0.619255	0.624037	0.279992	0.066692	0.323434	0.405078	0.152544	0.163591	0.243808	0.225083	0.242806	0.142814	0.307168	0.272864	0.589138	0.166546	0.567021	0.758384	0.223528	0.255695	0.233319	0.362104	0.777991	0.129348	0.720302	0.712998	0.292355	0.240761	0.335092	0.313892	0.351262	0.093089	0.299888	0.543109	0.087407	0.092156	0.158538	0.123277	0.346490	0.074260	0.603499	0.525267	0.348227	0.421670	0.320700	0.273876	0.788939	0.079506	0.570705	0.798347	0.210623	0.238917	0.158775	0.271961	0.594250	0.102381	0.735995	0.866434	0.267901	0.190946	0.308471	0.250703
49	0.576728	0.089996	0.741304	0.814026	0.702922	0.091776	0.607240	0.784391	0.510733	0.113935	0.356506	0.632668	0.266117	0.552154	0.345725	0.350624	0.424954	0.076654	0.608324	0.619733	0.274609	0.064630	0.316587	0.399257	0.155607	0.163290	0.279007	0.255863	0.239069	0.141314	0.308848	0.263944	0.356760	0.161123	0.437587	0.576721	0.217985	0.251089	0.246442	0.372865	0.712554	0.143860	0.652813	0.615051	0.289366	0.261514	0.316804	0.319244	0.285086	0.090243	0.295125	0.504725	0.104749	0.084880	0.125011	0.106835	0.288617	0.079445	0.514390	0.424360	0.348290	0.423793	0.340276	0.279049	0.756500	0.078055	0.545410	0.739393	0.279071	0.224377	0.228988	0.324720	0.578518	0.118025	0.713866	0.824223	0.282310	0.192381	0.309077	0.255809
50	0.555369	0.073476	0.640478	0.780481	0.643761	0.086772	0.581141	0.692289	0.456990	0.114426	0.376618	0.557614	0.261716	0.532907	0.383610	0.361179	0.363594	0.069800	0.566728	0.587848	0.273086	0.067504	0.300671	0.399138	0.134386	0.164677	0.287404	0.277217	0.212626	0.151195	0.306811	0.246726	0.216127	0.125164	0.287908	0.355132	0.207343	0.239253	0.252688	0.375790	0.658037	0.165585	0.621335	0.484185	0.317986	0.258560	0.316331	0.334961	0.222891	0.089268	0.292835	0.420368	0.108527	0.074867	0.130527	0.099705	0.246614	0.078290	0.496868	0.375690	0.344191	0.414687	0.355038	0.279911	0.663380	0.073012	0.490062	0.661752	0.302861	0.262521	0.293996	0.354374	0.527994	0.123729	0.685030	0.704756	0.297725	0.192991	0.320540	0.255861
51	0.546895	0.063247	0.620657	0.759639	0.544541	0.064014	0.550797	0.581516	0.385016	0.096810	0.363911	0.509508	0.250454	0.500361	0.420029	0.362568	0.252792	0.071809	0.482239	0.494721	0.251057	0.069218	0.271753	0.377417	0.139672	0.154510	0.285917	0.277743	0.178094	0.173987	0.273190	0.238622	0.153903	0.077110	0.202945	0.223661	0.221458	0.214941	0.250393	0.375026	0.650601	0.220921	0.593821	0.463741	0.394225	0.253075	0.302376	0.383711	0.183347	0.081472	0.302170	0.295849	0.106827	0.067731	0.105318	0.100708	0.235189	0.071759	0.532579	0.389799	0.335991	0.378256	0.357913	0.282115	0.561373	0.070924	0.456498	0.572719	0.304709	0.286284	0.359023	0.359010	0.483944	0.124271	0.636468	0.620387	0.309490	0.187050	0.347196	0.255481
52	0.505430	0.062871	0.603324	0.621019	0.526584	0.064536	0.480720	0.561846	0.378274	0.076512	0.311934	0.514112	0.244749	0.462596	0.430363	0.361295	0.150922	0.066950	0.340349	0.347431	0.213211	0.073806	0.212267	0.308276	0.178768	0.153620	0.276160	0.329544	0.136641	0.174465	0.213627	0.223177	0.142893	0.048087	0.154458	0.193191	0.301570	0.208739	0.244517	0.361122	0.651742	0.293145	0.593901	0.436595	0.449448	0.252422	0.308405	0.435929	0.164278	0.074215	0.313715	0.195905	0.106054	0.061308	0.097162	0.100307	0.252514	0.068098	0.559699	0.416001	0.324251	0.372759	0.350249	0.249575	0.543170	0.066411	0.452018	0.555602	0.307004	0.289856	0.365960	0.361632	0.468503	0.121261	0.573339	0.607629	0.314578	0.172134	0.372851	0.255533
53	0.372798	0.063030	0.551373	0.395573	0.443827	0.057660	0.468666	0.537860	0.397088	0.074557	0.309004	0.553547	0.232509	0.452587	0.435894	0.360670	0.096665	0.064005	0.241803	0.228990	0.171229	0.109356	0.154941	0.210277	0.212694	0.153856	0.329157	0.338661	0.121621	0.192715	0.159970	0.184610	0.144556	0.037041	0.140998	0.192139	0.402361	0.201530	0.221979	0.334004	0.583280	0.299458	0.599930	0.369349	0.489727	0.253440	0.328697	0.479478	0.141250	0.072790	0.313116	0.181596	0.112091	0.059279	0.100708	0.097797	0.262701	0.068868	0.581210	0.432924	0.293764	0.310395	0.301751	0.201396	0.496012	0.059553	0.449750	0.529350	0.315827	0.292645	0.371466	0.387873	0.470854	0.122502	0.543249	0.628537	0.324631	0.171021	0.400046	0.266191
54	0.211066	0.057571	0.446544	0.233470	0.241417	0.042015	0.336305	0.412679	0.421355	0.067597	0.309943	0.543890	0.229833	0.441944	0.439733	0.352285	0.112185	0.059049	0.172115	0.188760	0.155087	0.114622	0.119098	0.148222	0.222050	0.147942	0.326641	0.302999	0.100700	0.197821	0.114973	0.140911	0.138691	0.037430	0.136486	0.185073	0.419360	0.190137	0.191325	0.302742	0.417599	0.334990	0.561647	0.266488	0.514305	0.252869	0.351656	0.501664	0.124793	0.071028	0.313897	0.194185	0.115167	0.056018	0.093289	0.092029	0.263422	0.072862	0.576999	0.432482	0.259299	0.247160	0.265939	0.185546	0.346653	0.061093	0.437682	0.413599	0.346882	0.290855	0.422412	0.435959	0.473809	0.122779	0.521426	0.628707	0.330990	0.159700	0.402526	0.289870
55	0.123708	0.049329	0.271648	0.219708	0.126588	0.053779	0.155233	0.201201	0.422358	0.057542	0.324621	0.525529	0.206630	0.345997	0.418870	0.323269	0.164342	0.056218	0.157739	0.171074	0.200044	0.139851	0.115358	0.136282	0.222081	0.096866	0.334055	0.299495	0.107864	0.199607	0.104909	0.117975	0.122200	0.038139	0.138347	0.169425	0.441591	0.178040	0.187271	0.295368	0.252209	0.390449	0.477741	0.160207	0.523285	0.258214	0.361139	0.507919	0.125680	0.064651	0.290154	0.193872	0.121926	0.042194	0.090132	0.083067	0.257965	0.073191	0.550065	0.402334	0.276289	0.199649	0.264222	0.187914	0.236591	0.074528	0.360570	0.282868	0.392342	0.289956	0.501850	0.483674	0.475184	0.123304	0.456231	0.608467	0.333354	0.159727	0.399948	0.313562
56	0.110166	0.045713	0.129807	0.206109	0.094746	0.079764	0.116231	0.110928	0.425566	0.053425	0.339188	0.534310	0.178115	0.233862	0.330952	0.273205	0.172793	0.068878	0.168022	0.129362	0.208352	0.178558	0.102094	0.134657	0.217712	0.076008	0.380860	0.300889	0.113378	0.195836	0.119515	0.123735	0.111665	0.048885	0.142834	0.149977	0.524029	0.192632	0.187344	0.291355	0.136809	0.405444	0.394572	0.133418	0.525673	0.255657	0.359377	0.506726	0.117801	0.063507	0.230789	0.193549	0.119480	0.056249	0.091443	0.070024	0.237612	0.069183	0.514929	0.337458	0.283241	0.187729	0.264282	0.181746	0.195828	0.123919	0.288101	0.215047	0.424392	0.290088	0.549494	0.518551	0.450529	0.125781	0.423561	0.562319	0.328453	0.154481	0.399914	0.309447
57	0.117515	0.044841	0.157538	0.195316	0.092848	0.104475	0.116836	0.112304	0.429733	0.047001	0.339945	0.535437	0.173203	0.129254	0.300466	0.253992	0.220816	0.094308	0.238176	0.157984	0.219001	0.187815	0.042205	0.113957	0.205841	0.077693	0.368444	0.285824	0.108777	0.182887	0.129261	0.145546	0.114413	0.071558	0.166371	0.160236	0.524721	0.258787	0.185400	0.254049	0.167404	0.415391	0.343260	0.212507	0.523278	0.255404	0.347207	0.494302	0.114683	0.063750	0.186779	0.183832	0.125615	0.067459	0.092740	0.056282	0.200186	0.062486	0.439337	0.278639	0.278334	0.184285	0.259720	0.156693	0.192517	0.151316	0.277100	0.206019	0.444382	0.287534	0.574576	0.538252	0.368829	0.127209	0.382240	0.491042	0.296010	0.109483	0.388762	0.282218
58	0.121560	0.029697	0.174112	0.213659	0.085619	0.106703	0.103026	0.113391	0.408818	0.048273	0.343138	0.517263	0.172320	0.233366	0.299977	0.249589	0.249319	0.113224	0.299713	0.232493	0.212677	0.197822	0.055833	0.081559	0.274613	0.080438	0.366751	0.279865	0.101378	0.174617	0.112259	0.136663	0.125172	0.072215	0.249092	0.261091	0.526747	0.253925	0.166293	0.196866	0.270622	0.426718	0.325397	0.384191	0.507494	0.256554	0.313418	0.480432	0.115395	0.062679	0.173488	0.179222	0.139802	0.062043	0.089484	0.051367	0.158064	0.056027	0.379838	0.258455	0.264211	0.184872	0.238326	0.142289	0.192769	0.206138	0.353112	0.240852	0.449675	0.276208	0.584995	0.544050	0.245454	0.127237	0.326118	0.402540	0.237770	0.091377	0.355088	0.250096
59	0.122297	0.023865	0.173756	0.225997	0.078724	0.115389	0.076864	0.114439	0.349842	0.050519	0.345826	0.489872	0.156171	0.405991	0.293170	0.211579	0.259303	0.120233	0.320999	0.254861	0.224363	0.295086	0.077242	0.079866	0.290667	0.084709	0.368068	0.270940	0.100764	0.230482	0.110788	0.126832	0.131136	0.072953	0.273292	0.274927	0.523980	0.258269	0.130514	0.140250	0.344539	0.430219	0.332741	0.478787	0.484452	0.243005	0.279213	0.468671	0.115923	0.062418	0.194164	0.183710	0.151053	0.062116	0.081188	0.050587	0.159163	0.049547	0.382983	0.284576	0.265303	0.185973	0.208696	0.145688	0.206051	0.206654	0.393041	0.299731	0.447396	0.245293	0.587154	0.544289	0.171035	0.121400	0.258756	0.325152	0.223732	0.085131	0.298441	0.240495
60	0.116659	0.027383	0.180390	0.222185	0.079433	0.133672	0.102020	0.107762	0.308358	0.050154	0.316801	0.465953	0.124821	0.410425	0.289109	0.146946	0.275353	0.131082	0.326868	0.257549	0.229119	0.343392	0.089868	0.078871	0.267933	0.106267	0.345029	0.190088	0.112232	0.253834	0.116058	0.142280	0.146416	0.077098	0.288649	0.281978	0.518097	0.311083	0.103524	0.105277	0.369407	0.428210	0.336749	0.493915	0.470937	0.212594	0.255560	0.441222	0.110076	0.062336	0.189350	0.194385	0.149329	0.061809	0.071377	0.051327	0.196230	0.051215	0.334649	0.323054	0.275790	0.183822	0.186577	0.147223	0.208818	0.214341	0.396228	0.315814	0.445880	0.212402	0.585669	0.539702	0.155391	0.114206	0.198076	0.303158	0.220575	0.083192	0.275576	0.241786
61	0.126648	0.027474	0.182176	0.222675	0.086668	0.133391	0.129315	0.100896	0.288664	0.048795	0.258530	0.463343	0.092846	0.425122	0.270572	0.092029	0.303991	0.133319	0.326604	0.258595	0.223034	0.355298	0.092264	0.076668	0.239630	0.157975	0.282483	0.165138	0.120393	0.264235	0.133845	0.163392	0.207538	0.075702	0.363953	0.330887	0.519325	0.321537	0.088883	0.095410	0.373971	0.411695	0.335771	0.509328	0.482172	0.163565	0.255225	0.430862	0.135097	0.058624	0.188184	0.294256	0.146723	0.060838	0.079451	0.051773	0.202147	0.056831	0.277396	0.304944	0.283134	0.176883	0.158249	0.158714	0.202027	0.223299	0.405565	0.316218	0.442586	0.213008	0.581424	0.517604	0.168975	0.108023	0.174354	0.339846	0.208293	0.082850	0.271954	0.233680
62	0.135749	0.028145	0.182243	0.223837	0.128699	0.136320	0.130938	0.099699	0.301244	0.050251	0.240390	0.447641	0.099515	0.425008	0.189338	0.070746	0.319679	0.133470	0.363385	0.279171	0.215607	0.354285	0.094390	0.085195	0.240223	0.184088	0.274089	0.153947	0.123217	0.273460	0.131454	0.171272	0.239616	0.077658	0.422113	0.396688	0.513052	0.339468	0.083381	0.094938	0.393775	0.369055	0.396711	0.582011	0.509655	0.140065	0.277715	0.453742	0.197630	0.052201	0.167720	0.385655	0.178677	0.064534	0.148706	0.091608	0.182607	0.054423	0.215667	0.274113	0.308207	0.164559	0.147437	0.155416	0.215647	0.230106	0.408403	0.329969	0.421794	0.211232	0.575438	0.482857	0.193766	0.096337	0.227646	0.388860	0.192513	0.079086	0.270500	0.231564
63	0.130702	0.042216	0.194193	0.242477	0.135248	0.137730	0.151334	0.097650	0.317806	0.050200	0.286489	0.433751	0.097493	0.428210	0.177626	0.087775	0.326495	0.129754	0.389615	0.317850	0.221197	0.346979	0.105976	0.093905	0.239463	0.204253	0.226925	0.144769	0.117798	0.254343	0.124028	0.171690	0.243314	0.087094	0.445779	0.425355	0.467401	0.348009	0.089336	0.091093	0.395895	0.330516	0.392767	0.659614	0.508719	0.141072	0.291173	0.443339	0.219577	0.042770	0.164672	0.387630	0.235988	0.070773	0.208125	0.180231	0.184316	0.049399	0.180245	0.276748	0.312893	0.139305	0.144373	0.146560	0.260754	0.234193	0.420071	0.378984	0.376374	0.210232	0.554183	0.447677	0.206718	0.089414	0.343763	0.392292	0.171413	0.076150	0.251454	0.232791
64	0.142465	0.043903	0.191539	0.267437	0.173740	0.138226	0.167336	0.090685	0.334549	0.059749	0.340388	0.475567	0.093336	0.483701	0.180555	0.118620	0.321272	0.131562	0.407652	0.342878	0.211037	0.339646	0.134491	0.099447	0.243910	0.208704	0.140403	0.125572	0.116039	0.251404	0.124085	0.171756	0.243344	0.093235	0.448795	0.430859	0.379250	0.387481	0.090576	0.081106	0.395414	0.330112	0.378230	0.680552	0.456696	0.149166	0.281795	0.397755	0.225077	0.034009	0.165464	0.422931	0.239789	0.076082	0.214464	0.217782	0.209029	0.043470	0.191231	0.307474	0.298054	0.115742	0.145356	0.144631	0.306931	0.234904	0.448039	0.435493	0.348931	0.177256	0.527171	0.419501	0.200822	0.090609	0.437773	0.354952	0.161124	0.073114	0.211471	0.233018
65	0.150208	0.044166	0.202891	0.297448	0.207850	0.134176	0.180447	0.083578	0.362749	0.074091	0.378605	0.517808	0.099836	0.540835	0.193514	0.127759	0.305088	0.131039	0.418198	0.345056	0.166252	0.333906	0.146653	0.102176	0.249990	0.213374	0.131889	0.129713	0.112312	0.249993	0.136317	0.171473	0.243834	0.092164	0.445988	0.430898	0.361825	0.396262	0.082544	0.072819	0.420179	0.263023	0.384124	0.688625	0.407902	0.156985	0.266657	0.343270	0.265219	0.032798	0.178240	0.515887	0.259990	0.068988	0.224893	0.221913	0.217177	0.039884	0.230879	0.328193	0.329467	0.113887	0.149397	0.138591	0.298968	0.233890	0.498152	0.449853	0.343591	0.111777	0.479391	0.411506	0.191960	0.093062	0.450806	0.326218	0.172079	0.071813	0.160410	0.228033
66	0.165914	0.050001	0.223664	0.294049	0.215922	0.121858	0.192338	0.075832	0.383688	0.081416	0.473827	0.537719	0.120735	0.562871	0.209588	0.126442	0.304399	0.123731	0.423649	0.349552	0.161381	0.318494	0.146730	0.102761	0.161670	0.275491	0.130366	0.126807	0.122102	0.250266	0.122810	0.162508	0.281381	0.077522	0.443873	0.464576	0.318144	0.409395	0.067135	0.062143	0.467120	0.230910	0.365003	0.737775	0.365421	0.160577	0.240708	0.298424	0.342117	0.029927	0.241884	0.600662	0.285715	0.061680	0.265120	0.264978	0.217948	0.041377	0.231822	0.336396	0.313204	0.115243	0.150072	0.134574	0.300873	0.231024	0.515379	0.434859	0.343276	0.081636	0.466186	0.411761	0.187007	0.091737	0.481931	0.319002	0.164470	0.071118	0.081695	0.206118
67	0.163931	0.055523	0.210869	0.270333	0.297878	0.097975	0.194735	0.068155	0.378048	0.089094	0.561808	0.516520	0.121044	0.570938	0.211340	0.124010	0.274901	0.102815	0.377857	0.351050	0.131303	0.319265	0.158997	0.103303	0.153132	0.321729	0.102727	0.126544	0.127107	0.248559	0.117262	0.134896	0.374287	0.080586	0.449033	0.499225	0.152598	0.399965	0.062244	0.048005	0.479510	0.220604	0.361687	0.755877	0.342048	0.147209	0.218858	0.282250	0.372089	0.032682	0.260971	0.629538	0.283585	0.072026	0.293480	0.320396	0.221544	0.043386	0.225029	0.337079	0.316731	0.118054	0.147713	0.140075	0.340545	0.206430	0.502191	0.434920	0.340159	0.062471	0.465551	0.396876	0.189230	0.089475	0.496041	0.319149	0.155985	0.076380	0.069770	0.164411
68	0.176788	0.055766	0.216733	0.276925	0.495689	0.092258	0.230505	0.064633	0.365361	0.090476	0.562934	0.487481	0.116460	0.572452	0.220564	0.125375	0.252276	0.090586	0.343000	0.317459	0.125608	0.288211	0.175955	0.106268	0.152794	0.329438	0.097854	0.134755	0.124987	0.246414	0.117103	0.130402	0.468824	0.092637	0.521549	0.502587	0.140672	0.342736	0.061967	0.039070	0.451545	0.195636	0.403290	0.715506	0.331815	0.128800	0.217940	0.281370	0.374959	0.040305	0.277812	0.632613	0.281536	0.086267	0.318677	0.336404	0.228144	0.041663	0.242884	0.348882	0.330055	0.117043	0.151158	0.148421	0.427995	0.165850	0.476673	0.494440	0.324624	0.059987	0.437781	0.352074	0.189637	0.087494	0.503936	0.317219	0.152193	0.076993	0.066770	0.115231
69	0.216374	0.063094	0.337135	0.295554	0.620229	0.090006	0.269073	0.073944	0.356042	0.092466	0.616228	0.472953	0.115960	0.565509	0.238036	0.132346	0.250097	0.080836	0.342081	0.314408	0.112079	0.193171	0.185162	0.107543	0.153420	0.310082	0.103861	0.139089	0.125071	0.170435	0.115176	0.124467	0.480120	0.099208	0.552808	0.500697	0.125637	0.339584	0.058982	0.037742	0.403904	0.171284	0.407202	0.678785	0.325987	0.125881	0.215898	0.282776	0.380572	0.042095	0.265264	0.644989	0.281608	0.091608	0.335719	0.336277	0.211755	0.040043	0.276017	0.342446	0.321597	0.115893	0.157537	0.149269	0.477337	0.136500	0.394782	0.509538	0.274338	0.059899	0.347984	0.286125	0.195912	0.096063	0.548824	0.317873	0.152433	0.078738	0.068022	0.084323
70	0.291935	0.069258	0.410944	0.378767	0.683827	0.082136	0.292876	0.093950	0.365871	0.097425	0.657296	0.471265	0.118510	0.469818	0.278302	0.133809	0.230565	0.063109	0.347756	0.318141	0.094296	0.134110	0.186869	0.118567	0.152393	0.311467	0.124802	0.176298	0.106174	0.126638	0.112953	0.101942	0.487599	0.112165	0.537691	0.497542	0.136804	0.334749	0.106434	0.038816	0.460575	0.159395	0.408325	0.716909	0.325400	0.124366	0.215376	0.282809	0.386100	0.041846	0.257294	0.664552	0.279076	0.092258	0.332901	0.335904	0.197237	0.035506	0.287818	0.321648	0.304639	0.115367	0.150950	0.148172	0.479041	0.134199	0.366223	0.484902	0.220720	0.058969	0.255177	0.213596	0.275884	0.103528	0.570289	0.348923	0.152234	0.075934	0.075058	0.081458
71	0.300701	0.075305	0.417794	0.401641	0.735421	0.118857	0.335236	0.263216	0.376874	0.097655	0.679700	0.487171	0.117795	0.424046	0.281194	0.132629	0.197699	0.054433	0.389192	0.340740	0.096979	0.100149	0.196719	0.116109	0.177025	0.316224	0.167265	0.191078	0.099358	0.092847	0.093620	0.064821	0.518631	0.115317	0.560909	0.508783	0.158304	0.287283	0.157709	0.048009	0.528545	0.154964	0.434311	0.757811	0.322445	0.120050	0.211639	0.282199	0.382974	0.042723	0.242732	0.665320	0.254510	0.089033	0.303384	0.325144	0.187058	0.032093	0.287341	0.320835	0.293089	0.125635	0.127980	0.136899	0.495363	0.120208	0.359703	0.498657	0.166283	0.054482	0.186753	0.150968	0.362999	0.101965	0.572151	0.386856	0.165059	0.072326	0.081985	0.082980
72	0.316471	0.098647	0.443212	0.413510	0.730608	0.129852	0.431957	0.372878	0.407479	0.096197	0.711682	0.516150	0.117503	0.418037	0.286799	0.131257	0.178666	0.065497	0.389643	0.326135	0.090433	0.106801	0.198336	0.117616	0.166281	0.312947	0.241951	0.185536	0.097372	0.091006	0.102630	0.050935	0.552939	0.139840	0.596874	0.525580	0.157887	0.275131	0.175618	0.052711	0.565125	0.151596	0.442046	0.740869	0.315510	0.116878	0.207710	0.276090	0.356607	0.045627	0.258640	0.610000	0.203090	0.084143	0.268210	0.283796	0.206409	0.032135	0.299769	0.317330	0.301603	0.114571	0.123733	0.122237	0.546225	0.103837	0.352069	0.523525	0.131147	0.050830	0.137459	0.120496	0.391381	0.095471	0.568781	0.374158	0.197021	0.073890	0.089122	0.078064
73	0.352244	0.114067	0.468557	0.448254	0.733111	0.129792	0.571787	0.447896	0.452710	0.096446	0.754829	0.522777	0.118572	0.405555	0.292010	0.133427	0.166529	0.072522	0.381517	0.285820	0.082150	0.114566	0.188411	0.121974	0.149982	0.290819	0.270149	0.166921	0.096479	0.094476	0.154485	0.083356	0.584982	0.246468	0.599179	0.534872	0.159018	0.263821	0.178017	0.052224	0.597104	0.151777	0.410847	0.670396	0.302797	0.116577	0.206075	0.264031	0.337379	0.049674	0.270326	0.597628	0.201979	0.079113	0.272469	0.261161	0.183877	0.046614	0.315869	0.297984	0.304673	0.100753	0.131638	0.118601	0.568121	0.091157	0.356692	0.515548	0.125321	0.050421	0.122338	0.116561	0.389588	0.096720	0.558904	0.326191	0.216095	0.094521	0.086180	0.070350
74	0.370372	0.166277	0.518185	0.476676	0.731560	0.129187	0.600633	0.454460	0.453515	0.094509	0.760817	0.485157	0.129575	0.406026	0.280411	0.129517	0.188102	0.083357	0.362679	0.272002	0.097613	0.118859	0.168518	0.119631	0.148976	0.252569	0.331713	0.168891	0.095834	0.084292	0.154343	0.089617	0.604775	0.258851	0.603239	0.538736	0.171615	0.252493	0.191908	0.056253	0.632288	0.144329	0.416922	0.620077	0.270224	0.116482	0.200214	0.224146	0.339299	0.048930	0.277673	0.582130	0.180340	0.073480	0.276572	0.259783	0.173197	0.064713	0.289899	0.288232	0.310252	0.127411	0.135630	0.124442	0.549017	0.083589	0.341060	0.471346	0.124632	0.049790	0.109933	0.116231	0.430025	0.097653	0.550742	0.291501	0.225965	0.099880	0.085005	0.060487
75	0.382545	0.263534	0.592957	0.497219	0.727908	0.129251	0.654235	0.527982	0.413588	0.087418	0.743735	0.424359	0.141033	0.373400	0.266161	0.106875	0.191342	0.088002	0.351099	0.309084	0.165588	0.116343	0.164397	0.119263	0.128111	0.168591	0.374956	0.164549	0.100836	0.082768	0.179499	0.104026	0.606852	0.269777	0.607783	0.523347	0.167596	0.184249	0.214110	0.056889	0.640164	0.125535	0.412588	0.615906	0.204113	0.116404	0.151281	0.175898	0.320840	0.047590	0.285335	0.512117	0.147680	0.072740	0.246354	0.209516	0.175169	0.067367	0.284380	0.284582	0.317922	0.173295	0.158515	0.127453	0.524827	0.082807	0.296225	0.430356	0.123028	0.055814	0.111113	0.117015	0.476035	0.096988	0.582105	0.310207	0.250591	0.106688	0.085842	0.051462
76	0.405536	0.273420	0.632730	0.507355	0.748350	0.137260	0.788261	0.646348	0.426519	0.076496	0.728951	0.401654	0.138485	0.270476	0.258244	0.082567	0.178665	0.087628	0.354103	0.320058	0.209697	0.111079	0.171941	0.121432	0.128256	0.155016	0.389422	0.168330	0.093801	0.082845	0.225652	0.131563	0.556944	0.268242	0.588338	0.443948	0.164937	0.173028	0.227814	0.068899	0.616274	0.096839	0.413212	0.581623	0.140766	0.108537	0.131881	0.162399	0.237250	0.047526	0.241332	0.401562	0.156653	0.061212	0.211655	0.109169	0.185195	0.066353	0.307098	0.291644	0.284143	0.194196	0.181737	0.137871	0.519901	0.079597	0.202474	0.423121	0.124142	0.071434	0.111593	0.118021	0.479780	0.100183	0.568313	0.333251	0.306022	0.106683	0.085358	0.047890
77	0.405160	0.278920	0.642094	0.499214	0.749671	0.150054	0.882261	0.716856	0.532292	0.070000	0.710500	0.472981	0.121128	0.187980	0.233691	0.078175	0.167629	0.090031	0.356671	0.297612	0.230576	0.105348	0.173021	0.119518	0.127966	0.137776	0.391322	0.172722	0.085444	0.084213	0.243825	0.155965	0.503461	0.270666	0.517654	0.454908	0.164188	0.157385	0.229541	0.078874	0.587495	0.063654	0.415379	0.513771	0.130890	0.100137	0.133546	0.160829	0.192399	0.049632	0.208969	0.334048	0.159164	0.039469	0.171103	0.070153	0.264762	0.067360	0.366938	0.370006	0.275737	0.195482	0.197355	0.141940	0.509738	0.063564	0.171072	0.425073	0.129438	0.081358	0.113215	0.118043	0.503509	0.112488	0.567946	0.342282	0.376110	0.106319	0.084174	0.047018
78	0.391468	0.280186	0.602540	0.488301	0.656387	0.157056	0.930777	0.745101	0.593006	0.062691	0.796107	0.511591	0.121345	0.152914	0.229941	0.082264	0.213876	0.094920	0.350175	0.306591	0.272863	0.098151	0.159019	0.111959	0.128537	0.111348	0.387177	0.135961	0.085915	0.084811	0.252951	0.162089	0.493766	0.284162	0.482236	0.502104	0.160583	0.145343	0.233830	0.079489	0.580280	0.051580	0.381535	0.503028	0.121259	0.065479	0.130227	0.145553	0.196963	0.048845	0.185379	0.351924	0.162731	0.025936	0.144511	0.077588	0.302859	0.067956	0.332470	0.407643	0.262187	0.197272	0.203663	0.136620	0.473146	0.049016	0.187313	0.409068	0.130891	0.102940	0.119407	0.116850	0.513196	0.122101	0.538366	0.357951	0.372610	0.106524	0.081181	0.048064
79	0.347467	0.284290	0.594486	0.490201	0.521290	0.158774	0.944700	0.749431	0.610168	0.079707	0.860714	0.514003	0.122713	0.159139	0.226986	0.093779	0.237798	0.095970	0.337512	0.332052	0.301761	0.098943	0.182980	0.127382	0.174339	0.081703	0.367650	0.132040	0.087653	0.084015	0.252984	0.175297	0.532730	0.292204	0.483406	0.514862	0.160923	0.169750	0.246781	0.079222	0.587536	0.059513	0.378783	0.492724	0.105644	0.043119	0.133222	0.115292	0.188370	0.045251	0.186136	0.347808	0.165213	0.024309	0.152004	0.087599	0.294597	0.068206	0.305315	0.391697	0.241782	0.199677	0.201752	0.127446	0.389657	0.044593	0.183964	0.346365	0.129044	0.107881	0.134510	0.114637	0.512275	0.124553	0.536160	0.366389	0.373490	0.105522	0.082553	0.050107
80	0.358767	0.286579	0.661847	0.541981	0.462985	0.150266	0.941032	0.748369	0.615223	0.098379	0.843014	0.513103	0.125452	0.159575	0.215681	0.095730	0.250761	0.097982	0.374417	0.331437	0.323130	0.099024	0.201012	0.149892	0.188074	0.079551	0.313884	0.143894	0.095652	0.083065	0.255152	0.208526	0.505654	0.297587	0.447766	0.482830	0.160180	0.170219	0.249017	0.080549	0.642475	0.066949	0.483616	0.519200	0.095563	0.026026	0.143032	0.081633	0.173688	0.045616	0.202568	0.320272	0.182638	0.027764	0.183087	0.111783	0.345198	0.074210	0.316565	0.444053	0.241985	0.208632	0.195319	0.120847	0.349203	0.050519	0.189202	0.342737	0.128662	0.110403	0.140534	0.111708	0.530086	0.121210	0.555136	0.396005	0.377358	0.102377	0.082650	0.049810
81	0.380894	0.292072	0.685571	0.552424	0.313025	0.122809	0.928110	0.721574	0.612046	0.100266	0.829714	0.507733	0.122809	0.160388	0.176779	0.088777	0.259560	0.110535	0.400767	0.303698	0.391647	0.097474	0.218886	0.158315	0.190374	0.083819	0.314587	0.132102	0.095732	0.061663	0.278710	0.218398	0.468395	0.295595	0.374438	0.432318	0.139181	0.203911	0.231281	0.094038	0.787524	0.072346	0.625344	0.709722	0.095177	0.022302	0.178432	0.078959	0.163699	0.048416	0.239961	0.250628	0.216201	0.048886	0.194692	0.114961	0.405277	0.075117	0.352228	0.556658	0.243055	0.263228	0.180235	0.115554	0.344679	0.055189	0.226533	0.346079	0.134291	0.111911	0.137413	0.108419	0.633968	0.116944	0.592174	0.408084	0.421187	0.099749	0.082546	0.048031
82	0.344177	0.333473	0.679149	0.522938	0.309037	0.106252	0.892029	0.668760	0.609128	0.106784	0.832213	0.499154	0.127699	0.149974	0.141035	0.104480	0.272072	0.110204	0.371182	0.313813	0.433170	0.082199	0.221420	0.149977	0.207257	0.087103	0.240956	0.132251	0.095366	0.032892	0.296550	0.217805	0.430072	0.241375	0.352764	0.409507	0.112194	0.220978	0.200320	0.106181	0.874794	0.082824	0.714144	0.787905	0.114616	0.024662	0.186606	0.098606	0.161089	0.046738	0.251169	0.216194	0.220009	0.058270	0.182103	0.119901	0.461920	0.073017	0.402840	0.626973	0.244161	0.276657	0.179040	0.114267	0.300424	0.058917	0.236200	0.317713	0.131032	0.112760	0.135454	0.101887	0.708103	0.115579	0.688832	0.426559	0.446142	0.093912	0.077711	0.044844
83	0.349808	0.360536	0.648504	0.513577	0.298279	0.105697	0.821680	0.617594	0.606333	0.117960	0.852807	0.486912	0.129932	0.145264	0.135720	0.118354	0.384416	0.102766	0.397781	0.469441	0.433980	0.062725	0.222192	0.146104	0.221736	0.081726	0.179978	0.134895	0.123166	0.026168	0.281940	0.221947	0.402089	0.222647	0.359755	0.412465	0.100662	0.226265	0.193388	0.111203	0.861457	0.100453	0.713734	0.791724	0.135638	0.025246	0.189014	0.112984	0.171455	0.046300	0.295912	0.235202	0.230868	0.066623	0.157769	0.127615	0.481658	0.060046	0.428072	0.629360	0.231723	0.339484	0.175958	0.112803	0.227762	0.057318	0.298456	0.340671	0.123914	0.114206	0.131032	0.090486	0.696163	0.115112	0.759889	0.482800	0.450768	0.091414	0.075261	0.040634
84	0.349899	0.306723	0.580439	0.510676	0.298925	0.110681	0.776058	0.611385	0.627375	0.122263	0.851793	0.491127	0.146769	0.145222	0.113884	0.119773	0.488434	0.092585	0.420210	0.564924	0.430692	0.051214	0.223366	0.149568	0.225331	0.066944	0.182312	0.143818	0.126051	0.026086	0.280907	0.236879	0.404473	0.210016	0.347390	0.416108	0.090178	0.213584	0.211357	0.116083	0.889026	0.117293	0.702819	0.823612	0.136974	0.025017	0.197192	0.115523	0.188122	0.048597	0.351274	0.272377	0.362313	0.076349	0.153046	0.126726	0.479629	0.051489	0.430340	0.622906	0.202115	0.347511	0.174915	0.109381	0.256733	0.056912	0.343395	0.383435	0.155939	0.116948	0.122750	0.077897	0.713571	0.110658	0.773151	0.494531	0.447444	0.091240	0.087783	0.036618
85	0.322081	0.284801	0.523933	0.497818	0.292643	0.152001	0.756045	0.575005	0.648952	0.121688	0.863126	0.496815	0.164095	0.147846	0.117106	0.131418	0.524908	0.089563	0.422327	0.567622	0.404775	0.054254	0.236126	0.159769	0.243656	0.052267	0.232556	0.157076	0.126416	0.027273	0.257427	0.234396	0.436832	0.210480	0.341783	0.431345	0.069616	0.214588	0.205786	0.117719	0.916670	0.118842	0.698606	0.858332	0.154398	0.025551	0.209806	0.112431	0.204034	0.049017	0.360796	0.281034	0.403213	0.083867	0.162627	0.126293	0.482104	0.050838	0.421822	0.633033	0.170068	0.340085	0.177117	0.101571	0.267466	0.066036	0.344101	0.390594	0.169715	0.119444	0.113643	0.064245	0.729967	0.107758	0.776608	0.530240	0.437521	0.081225	0.087970	0.034002
86	0.325757	0.283628	0.506796	0.499454	0.245164	0.288635	0.625169	0.444673	0.654686	0.119153	0.862140	0.499319	0.168738	0.147842	0.164545	0.153250	0.539232	0.092627	0.473009	0.570883	0.393885	0.093513	0.243968	0.175665	0.264267	0.049263	0.291109	0.221346	0.123049	0.030533	0.229178	0.219322	0.420517	0.209899	0.342490	0.393710	0.069637	0.218431	0.182965	0.117433	0.913753	0.137596	0.705333	0.897410	0.174257	0.024860	0.222674	0.113269	0.206068	0.048672	0.365441	0.281353	0.414996	0.095832	0.183014	0.122006	0.459484	0.054381	0.374972	0.636720	0.148641	0.319022	0.163093	0.085376	0.285702	0.074746	0.378639	0.392294	0.169757	0.119594	0.114397	0.050615	0.819261	0.118580	0.771164	0.571372	0.430504	0.058637	0.087249	0.033107
87	0.333759	0.280847	0.513004	0.535327	0.167048	0.350003	0.468103	0.301072	0.639860	0.118496	0.820614	0.449616	0.180422	0.149684	0.186396	0.164773	0.565446	0.091897	0.482891	0.634332	0.371285	0.149543	0.331112	0.198449	0.229742	0.049585	0.323593	0.242126	0.128747	0.031770	0.212446	0.205965	0.416544	0.183705	0.336571	0.408339	0.069950	0.213115	0.167830	0.108612	0.916348	0.165300	0.765732	0.931867	0.177822	0.029061	0.243546	0.122726	0.241832	0.046251	0.423491	0.310358	0.413593	0.096862	0.214613	0.128186	0.432014	0.055308	0.353374	0.584825	0.129131	0.305207	0.130416	0.061057	0.312196	0.075214	0.419660	0.401264	0.167122	0.117564	0.118128	0.045503	0.869020	0.117238	0.775971	0.564456	0.422603	0.044518	0.093460	0.036122
88	0.328257	0.276072	0.471645	0.518489	0.147257	0.355996	0.333971	0.202178	0.582285	0.118411	0.737239	0.362337	0.191396	0.146177	0.197475	0.168419	0.594786	0.083629	0.521910	0.708297	0.362005	0.170234	0.388140	0.208990	0.237798	0.046953	0.317241	0.282157	0.136794	0.031676	0.205072	0.208932	0.430683	0.163926	0.346649	0.467689	0.069430	0.195257	0.168027	0.103500	0.916978	0.177066	0.837184	0.959314	0.177005	0.034115	0.266537	0.131172	0.283521	0.036966	0.507052	0.400259	0.413178	0.097857	0.230427	0.129999	0.446797	0.057033	0.356942	0.567183	0.128858	0.304375	0.099509	0.074437	0.337506	0.075233	0.499182	0.413332	0.167031	0.116371	0.125527	0.045886	0.885921	0.108615	0.776915	0.559980	0.408962	0.034223	0.109274	0.039146
89	0.299076	0.271320	0.388455	0.427027	0.162145	0.362079	0.233871	0.171492	0.563012	0.117883	0.633984	0.376712	0.189714	0.137960	0.196217	0.166799	0.641115	0.082439	0.623490	0.762321	0.342642	0.174085	0.376784	0.193982	0.291455	0.031228	0.302727	0.396486	0.140082	0.031307	0.204281	0.192722	0.460928	0.143211	0.328448	0.469208	0.071190	0.186486	0.161570	0.106047	0.932755	0.175245	0.873144	0.971722	0.177456	0.038880	0.270442	0.132206	0.307744	0.038382	0.550720	0.436884	0.403405	0.099020	0.219719	0.114931	0.459755	0.050559	0.359333	0.551349	0.138992	0.298881	0.120050	0.100955	0.341593	0.075009	0.536539	0.396122	0.167004	0.112992	0.134948	0.044464	0.878610	0.114954	0.778135	0.554344	0.332170	0.033625	0.118260	0.040758
90	0.267347	0.270788	0.315276	0.390298	0.176023	0.372810	0.199810	0.175966	0.627682	0.110441	0.580917	0.422824	0.187758	0.120828	0.193676	0.162896	0.690892	0.083809	0.687689	0.799477	0.295299	0.176073	0.375357	0.187758	0.320662	0.037976	0.302635	0.430663	0.136479	0.032130	0.195756	0.156988	0.445266	0.143402	0.298498	0.456838	0.072368	0.165219	0.140873	0.109431	0.916628	0.173058	0.851321	0.953336	0.181951	0.062904	0.269583	0.132921	0.308298	0.047596	0.555469	0.437300	0.389257	0.093198	0.211134	0.113138	0.395261	0.047163	0.376794	0.461223	0.147449	0.305946	0.196570	0.130219	0.342944	0.069748	0.540993	0.372385	0.166481	0.109703	0.143459	0.040798	0.942002	0.124317	0.776923	0.553993	0.288090	0.037250	0.123526	0.042251
91	0.327452	0.232896	0.343652	0.388042	0.172700	0.428114	0.198446	0.180265	0.646304	0.097291	0.575034	0.429762	0.187037	0.127098	0.194425	0.158736	0.696464	0.078366	0.699150	0.803351	0.261905	0.176259	0.386193	0.209889	0.318508	0.044864	0.314218	0.433039	0.135855	0.038980	0.154168	0.148529	0.462050	0.108965	0.317022	0.476390	0.068306	0.164900	0.136697	0.109095	0.790244	0.170701	0.794031	0.819347	0.186352	0.065426	0.281306	0.144778	0.313323	0.049847	0.539301	0.437941	0.386215	0.091054	0.211419	0.104171	0.330318	0.050678	0.411127	0.346907	0.145289	0.304736	0.256574	0.142582	0.344598	0.064197	0.564542	0.359823	0.163275	0.107319	0.144387	0.039784	0.965163	0.124043	0.762056	0.538296	0.280961	0.037082	0.123012	0.042110
92	0.335858	0.146517	0.353490	0.355408	0.169617	0.458385	0.196856	0.175516	0.672374	0.105123	0.564002	0.469243	0.190042	0.129048	0.197988	0.158677	0.709943	0.089013	0.710780	0.819598	0.224882	0.175902	0.403522	0.227743	0.326192	0.043283	0.296716	0.440274	0.135364	0.051775	0.110365	0.143952	0.503003	0.078360	0.350321	0.502051	0.077361	0.116256	0.136833	0.096747	0.592322	0.166747	0.673022	0.636082	0.189616	0.065833	0.306533	0.159657	0.318370	0.050353	0.528823	0.457090	0.372712	0.086174	0.214562	0.088038	0.274670	0.048362	0.420876	0.311383	0.139750	0.271204	0.268786	0.143628	0.347678	0.060656	0.553136	0.354835	0.161470	0.086173	0.141156	0.039317	0.937917	0.123300	0.728316	0.521638	0.278853	0.038629	0.126400	0.040855
93	0.303449	0.126383	0.338714	0.309387	0.169759	0.488971	0.184752	0.166845	0.766628	0.102316	0.544749	0.570605	0.206573	0.129562	0.202062	0.159868	0.663562	0.090380	0.691324	0.775462	0.229565	0.174126	0.421126	0.232554	0.309665	0.043067	0.275003	0.442510	0.147225	0.056234	0.099458	0.116451	0.490249	0.051699	0.362748	0.503859	0.083001	0.082581	0.137000	0.078004	0.512216	0.157908	0.618683	0.597609	0.194658	0.065652	0.310182	0.159982	0.313684	0.049207	0.503119	0.467271	0.206868	0.078145	0.211836	0.089812	0.268120	0.048254	0.421752	0.310287	0.149110	0.258884	0.279889	0.152712	0.350772	0.058613	0.554946	0.338091	0.161445	0.077840	0.128363	0.039220	0.837278	0.121534	0.658950	0.491300	0.267899	0.057540	0.127949	0.040535
94	0.303383	0.122793	0.330340	0.330960	0.167375	0.499624	0.175902	0.159690	0.841860	0.092642	0.517692	0.668262	0.232088	0.119796	0.206967	0.146300	0.599414	0.093708	0.729016	0.745208	0.225539	0.174148	0.422188	0.233242	0.304938	0.042009	0.180425	0.458566	0.140105	0.060222	0.107829	0.083260	0.492099	0.057837	0.454341	0.524265	0.087673	0.097153	0.129260	0.066424	0.480154	0.144114	0.614107	0.598810	0.192198	0.066683	0.285007	0.151976	0.305172	0.044359	0.465602	0.458440	0.118502	0.068136	0.205270	0.097886	0.264181	0.047976	0.419738	0.302030	0.172417	0.171280	0.299151	0.166986	0.313498	0.060094	0.541626	0.270161	0.161113	0.074355	0.117339	0.038155	0.783886	0.117298	0.546641	0.418526	0.198530	0.062224	0.128677	0.041944
95	0.316866	0.114028	0.360253	0.360484	0.146906	0.499874	0.168959	0.153676	0.816889	0.100610	0.490589	0.690510	0.244892	0.126479	0.209968	0.146378	0.590801	0.097412	0.791728	0.737840	0.232134	0.168105	0.416589	0.244027	0.334582	0.041927	0.169247	0.479051	0.135679	0.065406	0.097132	0.087452	0.523704	0.067624	0.568309	0.575072	0.087044	0.163397	0.109604	0.056757	0.414122	0.137250	0.665451	0.649108	0.178805	0.066219	0.284035	0.155975	0.309747	0.044211	0.445907	0.476195	0.076460	0.050854	0.184369	0.109881	0.264056	0.046317	0.438168	0.247332	0.169304	0.136302	0.302326	0.175754	0.310543	0.057730	0.595490	0.278110	0.154988	0.081835	0.119569	0.035954	0.773377	0.115704	0.497128	0.355820	0.150563	0.061640	0.129390	0.048963
96	0.353491	0.111916	0.431192	0.327604	0.133997	0.454701	0.161791	0.145082	0.818027	0.104267	0.481279	0.695638	0.236862	0.123745	0.212213	0.139295	0.580990	0.094827	0.792408	0.732083	0.234006	0.149292	0.402465	0.235914	0.331644	0.052862	0.195718	0.439394	0.149453	0.082996	0.080956	0.100241	0.527598	0.088413	0.655566	0.566898	0.083371	0.181063	0.092244	0.049020	0.434893	0.131091	0.707455	0.655237	0.166152	0.066128	0.289486	0.173418	0.312509	0.045214	0.445386	0.478089	0.155240	0.051352	0.146710	0.100143	0.250149	0.040148	0.446471	0.203094	0.161120	0.134230	0.308189	0.179509	0.413359	0.041842	0.669875	0.347407	0.146684	0.083716	0.124376	0.035610	0.759328	0.115137	0.489367	0.336872	0.134219	0.060708	0.122686	0.054276
97	0.359018	0.115173	0.455580	0.286630	0.133778	0.382360	0.151049	0.134151	0.854645	0.104313	0.524975	0.761922	0.252987	0.120502	0.193905	0.116227	0.554042	0.092550	0.821818	0.671532	0.226174	0.080953	0.308677	0.219526	0.321269	0.054244	0.199487	0.351113	0.146985	0.095430	0.078810	0.091013	0.478294	0.105785	0.659151	0.484929	0.089513	0.199538	0.092806	0.047240	0.466667	0.100557	0.729008	0.614536	0.179162	0.073850	0.296698	0.192371	0.316150	0.049125	0.420219	0.474591	0.208294	0.063673	0.108756	0.088247	0.274154	0.039222	0.459603	0.222667	0.156237	0.133643	0.323160	0.180469	0.460726	0.033357	0.670786	0.342675	0.138020	0.082722	0.125541	0.037145	0.666282	0.109780	0.459011	0.235763	0.126039	0.060444	0.111003	0.055356
98	0.359048	0.121028	0.427429	0.286028	0.127137	0.381092	0.147352	0.118714	0.880299	0.103808	0.572586	0.828857	0.250557	0.119806	0.159423	0.092046	0.494392	0.092338	0.832873	0.585522	0.196598	0.052062	0.274756	0.215820	0.296311	0.063871	0.192395	0.356489	0.175454	0.128581	0.078017	0.085234	0.428560	0.107907	0.648254	0.467836	0.093376	0.247673	0.096896	0.046498	0.478170	0.057009	0.715507	0.564037	0.186776	0.085637	0.302925	0.202138	0.274077	0.050009	0.336591	0.406184	0.227867	0.066638	0.095456	0.084509	0.267603	0.056581	0.461454	0.229036	0.154686	0.134411	0.327821	0.180152	0.451832	0.056735	0.636938	0.324916	0.115884	0.080771	0.126043	0.037955	0.520476	0.101965	0.335303	0.144671	0.117650	0.061420	0.107194	0.055370
99	0.356218	0.122193	0.424842	0.276410	0.122630	0.374546	0.158147	0.105601	0.896370	0.103521	0.573706	0.839525	0.240132	0.121108	0.138189	0.080084	0.421397	0.091426	0.746315	0.495598	0.198404	0.047738	0.278778	0.231094	0.302073	0.072281	0.211230	0.359060	0.205242	0.160029	0.077347	0.094845	0.438847	0.111409	0.723967	0.541635	0.093995	0.270247	0.094341	0.040984	0.464760	0.042332	0.644190	0.550568	0.184140	0.092623	0.301772	0.203305	0.230632	0.055317	0.241593	0.321223	0.244027	0.061836	0.096560	0.084594	0.268174	0.068321	0.469585	0.229608	0.152217	0.136936	0.327107	0.174143	0.489528	0.075519	0.608406	0.339395	0.049289	0.096534	0.126061	0.036740	0.474909	0.101625	0.266265	0.188275	0.115973	0.061103	0.108128	0.054672
100	0.329891	0.119008	0.379762	0.277825	0.088613	0.381550	0.176940	0.095447	0.863774	0.097703	0.583936	0.817735	0.235365	0.120210	0.144891	0.078383	0.340808	0.088404	0.682389	0.446637	0.189129	0.054258	0.256297	0.222105	0.289468	0.073093	0.241202	0.351922	0.208019	0.167601	0.082016	0.102396	0.507722	0.114335	0.759041	0.644385	0.091551	0.277911	0.094561	0.032176	0.454889	0.039600	0.624512	0.566276	0.182934	0.092180	0.283851	0.197021	0.228323	0.052890	0.211170	0.303477	0.250430	0.059905	0.093037	0.084072	0.275782	0.067163	0.461056	0.208147	0.157277	0.149793	0.320208	0.159141	0.576919	0.080011	0.611410	0.386832	0.045071	0.104594	0.120479	0.032244	0.476321	0.090412	0.252959	0.295730	0.112935	0.064273	0.099091	0.052294
101	0.338504	0.114018	0.386235	0.275950	0.088134	0.336010	0.188852	0.080436	0.821815	0.088852	0.601389	0.809908	0.234798	0.117557	0.143479	0.077868	0.356277	0.073650	0.692088	0.459352	0.166506	0.062836	0.224054	0.197540	0.319048	0.073443	0.357932	0.349741	0.209764	0.169482	0.082309	0.103859	0.489199	0.131462	0.770939	0.654012	0.089864	0.278992	0.094997	0.016698	0.475897	0.041709	0.607786	0.578359	0.183183	0.099960	0.265659	0.195514	0.226083	0.044586	0.220087	0.306069	0.252917	0.061483	0.082056	0.082830	0.361620	0.066228	0.367293	0.207881	0.147825	0.149718	0.280817	0.146331	0.584311	0.082716	0.606283	0.389442	0.046646	0.108393	0.116373	0.026284	0.468434	0.065600	0.250859	0.350986	0.108158	0.066451	0.080388	0.048579
