	305_At_T2_sh_ND_01.c3d	305_At_T2_sh_ND_01.c3d	305_At_T2_sh_ND_01.c3d	305_At_T2_sh_ND_01.c3d	305_At_T2_sh_ND_01.c3d	305_At_T2_sh_ND_01.c3d	305_At_T2_sh_ND_01.c3d	305_At_T2_sh_ND_01.c3d	305_At_T2_sh_ND_02.c3d	305_At_T2_sh_ND_02.c3d	305_At_T2_sh_ND_02.c3d	305_At_T2_sh_ND_02.c3d	305_At_T2_sh_ND_02.c3d	305_At_T2_sh_ND_02.c3d	305_At_T2_sh_ND_02.c3d	305_At_T2_sh_ND_02.c3d	305_At_T2_sh_ND_03.c3d	305_At_T2_sh_ND_03.c3d	305_At_T2_sh_ND_03.c3d	305_At_T2_sh_ND_03.c3d	305_At_T2_sh_ND_03.c3d	305_At_T2_sh_ND_03.c3d	305_At_T2_sh_ND_03.c3d	305_At_T2_sh_ND_03.c3d	305_At_T2_sh_ND_04.c3d	305_At_T2_sh_ND_04.c3d	305_At_T2_sh_ND_04.c3d	305_At_T2_sh_ND_04.c3d	305_At_T2_sh_ND_04.c3d	305_At_T2_sh_ND_04.c3d	305_At_T2_sh_ND_04.c3d	305_At_T2_sh_ND_04.c3d	305_At_T2_sh_ND_05.c3d	305_At_T2_sh_ND_05.c3d	305_At_T2_sh_ND_05.c3d	305_At_T2_sh_ND_05.c3d	305_At_T2_sh_ND_05.c3d	305_At_T2_sh_ND_05.c3d	305_At_T2_sh_ND_05.c3d	305_At_T2_sh_ND_05.c3d	305_At_T2_sh_ND_06.c3d	305_At_T2_sh_ND_06.c3d	305_At_T2_sh_ND_06.c3d	305_At_T2_sh_ND_06.c3d	305_At_T2_sh_ND_06.c3d	305_At_T2_sh_ND_06.c3d	305_At_T2_sh_ND_06.c3d	305_At_T2_sh_ND_06.c3d	305_At_T2_sh_ND_07.c3d	305_At_T2_sh_ND_07.c3d	305_At_T2_sh_ND_07.c3d	305_At_T2_sh_ND_07.c3d	305_At_T2_sh_ND_07.c3d	305_At_T2_sh_ND_07.c3d	305_At_T2_sh_ND_07.c3d	305_At_T2_sh_ND_07.c3d	305_At_T2_sh_ND_08.c3d	305_At_T2_sh_ND_08.c3d	305_At_T2_sh_ND_08.c3d	305_At_T2_sh_ND_08.c3d	305_At_T2_sh_ND_08.c3d	305_At_T2_sh_ND_08.c3d	305_At_T2_sh_ND_08.c3d	305_At_T2_sh_ND_08.c3d	305_At_T2_sh_ND_09.c3d	305_At_T2_sh_ND_09.c3d	305_At_T2_sh_ND_09.c3d	305_At_T2_sh_ND_09.c3d	305_At_T2_sh_ND_09.c3d	305_At_T2_sh_ND_09.c3d	305_At_T2_sh_ND_09.c3d	305_At_T2_sh_ND_09.c3d	305_At_T2_sh_ND_10.c3d	305_At_T2_sh_ND_10.c3d	305_At_T2_sh_ND_10.c3d	305_At_T2_sh_ND_10.c3d	305_At_T2_sh_ND_10.c3d	305_At_T2_sh_ND_10.c3d	305_At_T2_sh_ND_10.c3d	305_At_T2_sh_ND_10.c3d
	Biceps femoris_lat	Semitendinosus_lat	Vastus lateralis_lat	Vastus medialis_lat	Biceps femoris_med	Semitendinosus_med	Vastus lateralis_med	Vastus medialis_med	Biceps femoris_lat	Semitendinosus_lat	Vastus lateralis_lat	Vastus medialis_lat	Biceps femoris_med	Semitendinosus_med	Vastus lateralis_med	Vastus medialis_med	Biceps femoris_lat	Semitendinosus_lat	Vastus lateralis_lat	Vastus medialis_lat	Biceps femoris_med	Semitendinosus_med	Vastus lateralis_med	Vastus medialis_med	Biceps femoris_lat	Semitendinosus_lat	Vastus lateralis_lat	Vastus medialis_lat	Biceps femoris_med	Semitendinosus_med	Vastus lateralis_med	Vastus medialis_med	Biceps femoris_lat	Semitendinosus_lat	Vastus lateralis_lat	Vastus medialis_lat	Biceps femoris_med	Semitendinosus_med	Vastus lateralis_med	Vastus medialis_med	Biceps femoris_lat	Semitendinosus_lat	Vastus lateralis_lat	Vastus medialis_lat	Biceps femoris_med	Semitendinosus_med	Vastus lateralis_med	Vastus medialis_med	Biceps femoris_lat	Semitendinosus_lat	Vastus lateralis_lat	Vastus medialis_lat	Biceps femoris_med	Semitendinosus_med	Vastus lateralis_med	Vastus medialis_med	Biceps femoris_lat	Semitendinosus_lat	Vastus lateralis_lat	Vastus medialis_lat	Biceps femoris_med	Semitendinosus_med	Vastus lateralis_med	Vastus medialis_med	Biceps femoris_lat	Semitendinosus_lat	Vastus lateralis_lat	Vastus medialis_lat	Biceps femoris_med	Semitendinosus_med	Vastus lateralis_med	Vastus medialis_med	Biceps femoris_lat	Semitendinosus_lat	Vastus lateralis_lat	Vastus medialis_lat	Biceps femoris_med	Semitendinosus_med	Vastus lateralis_med	Vastus medialis_med
	P2D	P2D	P2D	P2D	P2D	P2D	P2D	P2D	P2D	P2D	P2D	P2D	P2D	P2D	P2D	P2D	P2D	P2D	P2D	P2D	P2D	P2D	P2D	P2D	P2D	P2D	P2D	P2D	P2D	P2D	P2D	P2D	P2D	P2D	P2D	P2D	P2D	P2D	P2D	P2D	P2D	P2D	P2D	P2D	P2D	P2D	P2D	P2D	P2D	P2D	P2D	P2D	P2D	P2D	P2D	P2D	P2D	P2D	P2D	P2D	P2D	P2D	P2D	P2D	P2D	P2D	P2D	P2D	P2D	P2D	P2D	P2D	P2D	P2D	P2D	P2D	P2D	P2D	P2D	P2D
	EMG_lat	EMG_lat	EMG_lat	EMG_lat	EMG_med	EMG_med	EMG_med	EMG_med	EMG_lat	EMG_lat	EMG_lat	EMG_lat	EMG_med	EMG_med	EMG_med	EMG_med	EMG_lat	EMG_lat	EMG_lat	EMG_lat	EMG_med	EMG_med	EMG_med	EMG_med	EMG_lat	EMG_lat	EMG_lat	EMG_lat	EMG_med	EMG_med	EMG_med	EMG_med	EMG_lat	EMG_lat	EMG_lat	EMG_lat	EMG_med	EMG_med	EMG_med	EMG_med	EMG_lat	EMG_lat	EMG_lat	EMG_lat	EMG_med	EMG_med	EMG_med	EMG_med	EMG_lat	EMG_lat	EMG_lat	EMG_lat	EMG_med	EMG_med	EMG_med	EMG_med	EMG_lat	EMG_lat	EMG_lat	EMG_lat	EMG_med	EMG_med	EMG_med	EMG_med	EMG_lat	EMG_lat	EMG_lat	EMG_lat	EMG_med	EMG_med	EMG_med	EMG_med	EMG_lat	EMG_lat	EMG_lat	EMG_lat	EMG_med	EMG_med	EMG_med	EMG_med
ITEM	Y	Y	Y	Y	Y	Y	Y	Y	Y	Y	Y	Y	Y	Y	Y	Y	Y	Y	Y	Y	Y	Y	Y	Y	Y	Y	Y	Y	Y	Y	Y	Y	Y	Y	Y	Y	Y	Y	Y	Y	Y	Y	Y	Y	Y	Y	Y	Y	Y	Y	Y	Y	Y	Y	Y	Y	Y	Y	Y	Y	Y	Y	Y	Y	Y	Y	Y	Y	Y	Y	Y	Y	Y	Y	Y	Y	Y	Y	Y	Y
1	0.790781	0.597826	0.360275	0.554405	0.055683	0.044860	0.473249	0.199823	0.257153	0.420757	0.179740	0.279876	0.099912	0.134916	0.233116	0.090091	0.060784	0.090383	0.510804	0.272261	0.112595	0.133567	0.349683	0.167664	0.106256	0.274917	0.275910	0.227627	0.069293	0.111596	0.243233	0.098742	0.126354	0.157366	0.359170	0.189731	0.102133	0.225459	0.293544	0.162391	0.078280	0.055075	0.282555	0.379103	0.104911	0.084153	0.491916	0.336523	0.110890	0.314696	0.282040	0.254004	0.080663	0.110038	0.308819	0.333243	0.209197	0.175826	0.383937	0.141875	0.091725	0.129363	0.605476	0.141479	0.083414	0.073413	0.464865	0.291048	0.125203	0.136869	0.277688	0.182035	0.076429	0.090904	0.515008	0.354928	0.093908	0.146245	0.339936	0.109545
2	0.788723	0.601555	0.412838	0.580238	0.053176	0.044491	0.471318	0.235644	0.252108	0.397040	0.214917	0.270474	0.093807	0.101318	0.242798	0.094071	0.060064	0.081248	0.457396	0.360377	0.109648	0.132307	0.341721	0.165201	0.081706	0.274019	0.281952	0.234609	0.073181	0.108865	0.245231	0.096310	0.126700	0.151969	0.384437	0.186685	0.106757	0.240527	0.301530	0.170989	0.068840	0.054896	0.290266	0.409756	0.112571	0.100387	0.567636	0.335679	0.106721	0.299542	0.275087	0.336574	0.084542	0.110198	0.318772	0.329770	0.212577	0.173500	0.409206	0.133868	0.085672	0.119925	0.628723	0.158923	0.091884	0.070837	0.559813	0.292517	0.115414	0.129035	0.254300	0.188284	0.079926	0.096681	0.539599	0.368196	0.077482	0.145949	0.326549	0.108898
3	0.789434	0.607303	0.439918	0.588247	0.052606	0.043259	0.472636	0.273535	0.249504	0.390303	0.233768	0.246833	0.092887	0.090572	0.248279	0.094329	0.061693	0.077747	0.443024	0.394171	0.110436	0.138156	0.309719	0.164114	0.080414	0.253574	0.289254	0.233479	0.072148	0.100030	0.246156	0.084799	0.124738	0.148537	0.417960	0.191916	0.108918	0.255882	0.322122	0.164108	0.063637	0.059966	0.299051	0.424478	0.128813	0.116536	0.613151	0.324913	0.103175	0.282249	0.251225	0.404976	0.083024	0.109057	0.307746	0.332970	0.212146	0.177516	0.430390	0.132649	0.080187	0.108244	0.632685	0.165007	0.101371	0.073537	0.610877	0.290742	0.097912	0.118571	0.238061	0.189575	0.084130	0.100797	0.550144	0.363102	0.064284	0.136637	0.281711	0.110874
4	0.790199	0.614275	0.441332	0.591749	0.052541	0.042335	0.478222	0.275941	0.223560	0.369474	0.232526	0.231846	0.086686	0.090255	0.245351	0.096751	0.063751	0.076264	0.456769	0.395701	0.111678	0.138880	0.257425	0.160405	0.069346	0.171468	0.295872	0.240709	0.071430	0.090717	0.258218	0.087791	0.123181	0.146532	0.433529	0.187671	0.111500	0.261979	0.343000	0.151853	0.063912	0.067366	0.292293	0.426083	0.139234	0.122659	0.608158	0.258671	0.101115	0.262097	0.227016	0.424114	0.083904	0.124802	0.286657	0.330406	0.205373	0.177819	0.439679	0.232422	0.078087	0.103353	0.633974	0.162248	0.103392	0.074986	0.622237	0.295239	0.089486	0.117988	0.239211	0.179964	0.086539	0.102307	0.536115	0.342290	0.046159	0.091193	0.323923	0.116806
5	0.784189	0.622259	0.437206	0.588936	0.051561	0.039560	0.452072	0.272449	0.137653	0.252989	0.221097	0.235463	0.065364	0.076066	0.210872	0.112667	0.068440	0.079478	0.450107	0.397298	0.104387	0.132258	0.201014	0.139963	0.060032	0.136839	0.301184	0.300483	0.071990	0.080841	0.263493	0.091394	0.121007	0.144926	0.442575	0.176589	0.110578	0.259628	0.358293	0.147492	0.070410	0.073828	0.290065	0.421996	0.136579	0.120255	0.604848	0.188257	0.105268	0.245098	0.218917	0.425252	0.083524	0.126197	0.271419	0.319999	0.202862	0.178027	0.438572	0.313503	0.078174	0.100131	0.640483	0.162151	0.101486	0.076050	0.619835	0.322529	0.094758	0.123220	0.241480	0.160314	0.087966	0.101918	0.508797	0.322565	0.042868	0.056022	0.399101	0.115987
6	0.760493	0.626456	0.435747	0.524794	0.051289	0.040022	0.424963	0.272747	0.106099	0.159720	0.219522	0.238005	0.048970	0.053931	0.205576	0.120357	0.075315	0.084091	0.423593	0.402049	0.085520	0.110621	0.162854	0.114497	0.058056	0.136157	0.302268	0.351305	0.072010	0.066242	0.268542	0.095598	0.120037	0.143085	0.439266	0.176408	0.105555	0.250607	0.363695	0.147486	0.069697	0.074116	0.290363	0.410418	0.133563	0.120116	0.643141	0.186536	0.112130	0.231702	0.217940	0.426044	0.086372	0.125430	0.272339	0.308599	0.195738	0.166211	0.445636	0.319803	0.077325	0.097189	0.644332	0.175096	0.097845	0.078076	0.645178	0.354334	0.088554	0.116636	0.231706	0.155069	0.087690	0.101156	0.478803	0.309030	0.042876	0.055255	0.407276	0.093740
7	0.714807	0.628811	0.417987	0.436609	0.051576	0.040011	0.401210	0.273002	0.106119	0.145507	0.233573	0.240304	0.034651	0.039814	0.216339	0.120016	0.078977	0.090611	0.377239	0.406299	0.064560	0.081858	0.170235	0.110807	0.062974	0.136209	0.300982	0.371495	0.073324	0.058077	0.303949	0.105712	0.123695	0.145999	0.408992	0.202949	0.099794	0.247778	0.352389	0.156223	0.067135	0.071864	0.285003	0.393766	0.127487	0.117353	0.693066	0.193452	0.119020	0.219046	0.196304	0.436187	0.087791	0.126202	0.272661	0.304077	0.149039	0.149671	0.448826	0.331530	0.076001	0.096520	0.645639	0.180894	0.094503	0.078799	0.686809	0.368967	0.083091	0.108177	0.207377	0.157812	0.088739	0.103376	0.444783	0.305049	0.042816	0.055275	0.415623	0.084078
8	0.666499	0.630090	0.392963	0.410575	0.051633	0.039959	0.382100	0.273281	0.099325	0.138685	0.252666	0.252521	0.037324	0.048293	0.233499	0.127436	0.077400	0.093569	0.313882	0.417102	0.064429	0.099360	0.167837	0.131141	0.069775	0.138115	0.302233	0.372679	0.074552	0.059510	0.325419	0.116550	0.131574	0.154463	0.358005	0.246268	0.100590	0.241034	0.328006	0.158787	0.065705	0.069558	0.270441	0.391698	0.126105	0.117549	0.722760	0.187258	0.129482	0.212133	0.141981	0.452614	0.088854	0.132666	0.407141	0.312276	0.126355	0.138959	0.443776	0.354184	0.075937	0.096747	0.631705	0.181419	0.092905	0.080201	0.727179	0.387012	0.079867	0.097393	0.235692	0.153434	0.090132	0.107021	0.435540	0.316961	0.046475	0.068111	0.418340	0.132416
9	0.634255	0.608143	0.371071	0.412690	0.050386	0.039031	0.397346	0.275291	0.096910	0.131529	0.277143	0.260879	0.054144	0.058867	0.336890	0.143002	0.077056	0.094277	0.258215	0.438082	0.066677	0.103295	0.167359	0.164108	0.073413	0.141073	0.304570	0.371323	0.075686	0.060406	0.307892	0.128079	0.139905	0.161949	0.317829	0.254874	0.099877	0.212023	0.325229	0.160047	0.065216	0.069726	0.244239	0.386801	0.126714	0.118528	0.725932	0.174607	0.132606	0.202143	0.127653	0.459418	0.093946	0.142809	0.608698	0.308548	0.104912	0.118953	0.419332	0.370245	0.077470	0.096048	0.560673	0.180796	0.093248	0.086905	0.758057	0.412117	0.074273	0.086017	0.277721	0.162855	0.088701	0.109655	0.459603	0.341579	0.066516	0.097088	0.424678	0.172770
10	0.430577	0.500433	0.345830	0.425074	0.051553	0.041329	0.402526	0.277107	0.100352	0.133751	0.292422	0.240916	0.076757	0.063651	0.400743	0.159405	0.076795	0.094458	0.241041	0.459652	0.066293	0.105564	0.206253	0.180353	0.085035	0.143270	0.310121	0.373836	0.080092	0.061417	0.298352	0.132083	0.146487	0.167930	0.311103	0.251941	0.091733	0.180142	0.379146	0.166054	0.067695	0.073972	0.293831	0.381628	0.127712	0.118288	0.707883	0.179774	0.127403	0.183389	0.151738	0.461443	0.098500	0.144737	0.645615	0.271060	0.073413	0.114942	0.393343	0.383500	0.078561	0.094516	0.508771	0.182377	0.095446	0.098496	0.767023	0.426349	0.071067	0.077427	0.390799	0.226131	0.084348	0.109673	0.513181	0.365774	0.076673	0.101063	0.437120	0.180939
11	0.288962	0.344731	0.351973	0.456799	0.049830	0.041466	0.382634	0.270482	0.099628	0.125588	0.291670	0.202235	0.083127	0.065846	0.404467	0.172527	0.076139	0.094434	0.243538	0.470962	0.065184	0.107194	0.208379	0.179757	0.098476	0.139413	0.321861	0.373291	0.082831	0.065431	0.319745	0.134442	0.152655	0.174950	0.311340	0.248903	0.085108	0.165294	0.403018	0.166253	0.069160	0.077936	0.343937	0.381082	0.122696	0.117298	0.703530	0.195051	0.123369	0.167019	0.153683	0.464109	0.104393	0.141936	0.639640	0.223166	0.070116	0.114027	0.386359	0.395770	0.076249	0.089774	0.503198	0.179642	0.103322	0.113789	0.758467	0.426300	0.074193	0.079077	0.468477	0.254398	0.083928	0.109750	0.571664	0.374879	0.076821	0.103270	0.438090	0.181175
12	0.205874	0.242350	0.361487	0.476096	0.041459	0.039107	0.349728	0.257348	0.090208	0.108676	0.291665	0.187642	0.083669	0.071362	0.412678	0.174188	0.076137	0.093936	0.242933	0.474561	0.066906	0.109471	0.223379	0.180436	0.101517	0.130741	0.320956	0.367070	0.084090	0.066132	0.346273	0.130006	0.154485	0.177688	0.308620	0.237545	0.075988	0.161375	0.403360	0.155267	0.068738	0.078270	0.355643	0.388057	0.112746	0.110559	0.710611	0.194804	0.122443	0.155014	0.166135	0.470296	0.117990	0.146533	0.675010	0.190344	0.070106	0.108771	0.382641	0.407952	0.060700	0.075272	0.485416	0.172534	0.123052	0.133369	0.742830	0.426097	0.087976	0.089846	0.471195	0.253096	0.083476	0.107045	0.584724	0.374480	0.077013	0.103733	0.430883	0.190136
13	0.188897	0.222845	0.364391	0.466775	0.042019	0.039655	0.304126	0.240105	0.074200	0.087222	0.289780	0.194509	0.083560	0.078388	0.427517	0.172089	0.076446	0.093725	0.246440	0.473267	0.069855	0.109583	0.310923	0.193784	0.100624	0.120485	0.288364	0.359540	0.078180	0.060347	0.385141	0.133834	0.142093	0.167233	0.311340	0.232771	0.072087	0.160637	0.425300	0.130095	0.069069	0.079156	0.355191	0.404542	0.107565	0.108503	0.707922	0.190851	0.125910	0.140708	0.187374	0.472553	0.117874	0.147008	0.712761	0.192256	0.069994	0.103184	0.353511	0.417113	0.039773	0.054245	0.387856	0.173277	0.152528	0.151661	0.733298	0.422911	0.091919	0.091954	0.482566	0.260339	0.078879	0.099893	0.567194	0.369822	0.076152	0.103013	0.423988	0.213400
14	0.162263	0.222616	0.358164	0.428414	0.046260	0.039703	0.277681	0.235377	0.060690	0.068887	0.274686	0.207374	0.083782	0.080426	0.425962	0.167349	0.078099	0.091990	0.248733	0.463353	0.069761	0.099624	0.337469	0.196970	0.099503	0.113892	0.254262	0.354748	0.066933	0.052650	0.389681	0.139599	0.130171	0.155625	0.332286	0.244230	0.071814	0.158898	0.427895	0.127536	0.068868	0.078900	0.353311	0.373426	0.107518	0.108050	0.676047	0.190731	0.128898	0.126665	0.214994	0.468443	0.122600	0.158355	0.722871	0.208763	0.067492	0.093372	0.279629	0.421098	0.036055	0.044385	0.258890	0.167721	0.192146	0.164853	0.731636	0.422553	0.091775	0.091471	0.513677	0.277020	0.074552	0.092621	0.546302	0.351459	0.074593	0.102472	0.424703	0.237199
15	0.155766	0.218443	0.316493	0.366932	0.050003	0.039739	0.319296	0.252494	0.059261	0.063707	0.244806	0.243291	0.084795	0.102089	0.460508	0.174996	0.077289	0.087321	0.325978	0.452927	0.069131	0.098841	0.349046	0.219587	0.100632	0.112674	0.246664	0.350328	0.057270	0.048848	0.402754	0.142272	0.124950	0.148747	0.355147	0.260083	0.065525	0.144150	0.426675	0.132762	0.068275	0.077254	0.349532	0.327649	0.105223	0.101309	0.607014	0.186967	0.126207	0.115681	0.237014	0.467458	0.134317	0.172153	0.727967	0.235094	0.057148	0.074995	0.225069	0.420000	0.035861	0.039923	0.227937	0.146299	0.238131	0.174804	0.729883	0.443857	0.090785	0.091000	0.539200	0.304872	0.071935	0.087050	0.538010	0.331369	0.079832	0.105757	0.424699	0.250863
16	0.155815	0.209959	0.242359	0.315386	0.050573	0.040113	0.430738	0.277164	0.059457	0.063098	0.226750	0.272120	0.085552	0.118032	0.531529	0.189442	0.076716	0.082290	0.423632	0.469346	0.073033	0.105809	0.431877	0.265858	0.105380	0.117051	0.258864	0.347550	0.054897	0.048263	0.424267	0.142135	0.121596	0.145444	0.342345	0.276597	0.062198	0.118163	0.418849	0.149325	0.068185	0.073459	0.341031	0.315009	0.092119	0.092248	0.548118	0.184921	0.123031	0.111319	0.244316	0.445305	0.146838	0.181505	0.743612	0.244230	0.044900	0.056089	0.181869	0.422620	0.038609	0.041436	0.254437	0.145330	0.269847	0.178971	0.698561	0.474903	0.091386	0.095958	0.552459	0.347626	0.067029	0.078682	0.532997	0.325507	0.096377	0.117815	0.423489	0.264665
17	0.157893	0.196655	0.187005	0.305453	0.051960	0.043445	0.471783	0.264393	0.060351	0.063991	0.224183	0.290640	0.087483	0.123570	0.576588	0.206222	0.080310	0.079683	0.468531	0.501845	0.078659	0.108717	0.504843	0.304327	0.118598	0.124075	0.263002	0.346468	0.053674	0.047594	0.417811	0.155622	0.121550	0.145038	0.300169	0.288153	0.059827	0.098022	0.399024	0.170425	0.066373	0.066805	0.335178	0.355467	0.066952	0.076052	0.522594	0.187360	0.122136	0.111302	0.245771	0.376699	0.150912	0.174112	0.754188	0.251839	0.037451	0.045235	0.141862	0.415741	0.041475	0.043918	0.254072	0.149705	0.290551	0.178297	0.628463	0.506065	0.101685	0.107980	0.560799	0.387121	0.056707	0.066436	0.524041	0.350190	0.107934	0.130448	0.424711	0.278514
18	0.153479	0.174465	0.296784	0.300733	0.061603	0.054873	0.474785	0.223766	0.061428	0.063719	0.229396	0.282054	0.091825	0.125446	0.579881	0.232672	0.089353	0.079808	0.483032	0.512749	0.079872	0.114228	0.536625	0.309383	0.135358	0.128511	0.280121	0.318467	0.052754	0.047052	0.420238	0.175778	0.121656	0.144979	0.271608	0.292427	0.062445	0.093746	0.385487	0.182076	0.063530	0.059306	0.352848	0.413149	0.059076	0.076139	0.516508	0.181717	0.122233	0.111159	0.258342	0.317883	0.150585	0.173200	0.755011	0.249984	0.035843	0.043923	0.137056	0.371049	0.044056	0.047387	0.253546	0.148075	0.306247	0.176995	0.550854	0.535691	0.114428	0.117115	0.567713	0.412336	0.048870	0.058011	0.514696	0.382918	0.114474	0.137471	0.431690	0.284663
19	0.135910	0.141468	0.384007	0.295396	0.077977	0.068708	0.482615	0.220749	0.054081	0.056979	0.244649	0.284915	0.091827	0.132230	0.576140	0.269603	0.100568	0.087394	0.477579	0.510157	0.075575	0.106172	0.540387	0.298757	0.162144	0.134065	0.310034	0.254714	0.054045	0.047962	0.401811	0.178436	0.120857	0.144867	0.258958	0.300642	0.071062	0.094941	0.376032	0.185492	0.060389	0.055656	0.378444	0.454518	0.056066	0.077389	0.474858	0.174956	0.119233	0.107442	0.292239	0.311788	0.149785	0.173721	0.747143	0.247556	0.033216	0.040890	0.122819	0.382705	0.044987	0.047354	0.259719	0.130480	0.319356	0.181346	0.496711	0.547051	0.117806	0.115218	0.567003	0.426162	0.044365	0.052914	0.515330	0.400033	0.120619	0.140932	0.402348	0.285625
20	0.125888	0.115224	0.402254	0.293668	0.096327	0.084868	0.526719	0.223828	0.050748	0.055485	0.247578	0.286243	0.089102	0.133642	0.571371	0.276440	0.096243	0.082509	0.482660	0.500383	0.063548	0.089989	0.542822	0.286618	0.179948	0.140712	0.320721	0.203016	0.054247	0.046764	0.378127	0.175506	0.120663	0.144941	0.252642	0.310316	0.074414	0.096091	0.374835	0.183082	0.077720	0.075409	0.396611	0.478174	0.047326	0.073399	0.395476	0.161325	0.112596	0.096929	0.319507	0.313871	0.149449	0.172675	0.742881	0.247660	0.029645	0.037773	0.150016	0.402065	0.044229	0.044289	0.256118	0.115193	0.322554	0.196309	0.485357	0.542483	0.120836	0.112981	0.566550	0.430109	0.041064	0.049811	0.515084	0.406220	0.125579	0.142901	0.325015	0.285477
21	0.119245	0.096437	0.404016	0.295832	0.106092	0.099264	0.558318	0.223696	0.054537	0.064762	0.323152	0.297637	0.080021	0.129960	0.521642	0.272768	0.095826	0.078686	0.496686	0.504273	0.064434	0.087564	0.537330	0.268495	0.179590	0.137851	0.324828	0.195889	0.056348	0.047054	0.379461	0.163162	0.118190	0.141228	0.246867	0.305835	0.073566	0.095648	0.374627	0.177637	0.100681	0.099210	0.410518	0.485555	0.045729	0.074123	0.330311	0.150584	0.110814	0.087086	0.336800	0.311218	0.148070	0.166272	0.646141	0.233429	0.027495	0.035626	0.214345	0.386638	0.044180	0.044232	0.253111	0.110672	0.375085	0.222234	0.476517	0.522387	0.124064	0.113244	0.564848	0.429918	0.044337	0.050464	0.513312	0.407872	0.127100	0.143207	0.297163	0.285986
22	0.109521	0.083881	0.431174	0.298724	0.106746	0.101934	0.566728	0.223720	0.057807	0.079265	0.411517	0.290255	0.062090	0.130031	0.464981	0.265381	0.098651	0.080893	0.539319	0.529225	0.065562	0.086178	0.524508	0.266597	0.198302	0.135400	0.346644	0.199590	0.054952	0.046736	0.383517	0.156835	0.110518	0.132713	0.242065	0.271208	0.070211	0.093808	0.370230	0.177659	0.113057	0.114514	0.427583	0.485637	0.045271	0.073745	0.317301	0.140576	0.109159	0.073747	0.338244	0.292156	0.144366	0.156856	0.488495	0.229871	0.028076	0.035655	0.244202	0.362731	0.041271	0.045260	0.252463	0.112797	0.476269	0.244979	0.430851	0.491164	0.125180	0.113581	0.548584	0.430186	0.043292	0.047441	0.511607	0.407816	0.127291	0.143261	0.279520	0.286137
23	0.095141	0.067942	0.475865	0.315963	0.107991	0.102092	0.567634	0.227480	0.065581	0.100594	0.438751	0.301126	0.051547	0.129119	0.454734	0.255289	0.105820	0.085066	0.581506	0.557303	0.064881	0.083281	0.525035	0.271859	0.202968	0.128791	0.371306	0.196552	0.048440	0.040148	0.371449	0.148647	0.100105	0.124037	0.243176	0.246342	0.069564	0.093809	0.316453	0.174402	0.118975	0.119565	0.417737	0.485904	0.043638	0.075636	0.316497	0.150794	0.095639	0.063551	0.344551	0.263115	0.138425	0.147109	0.461184	0.225300	0.031536	0.035836	0.246844	0.346768	0.038935	0.046284	0.260710	0.117012	0.511502	0.249196	0.366067	0.451622	0.125314	0.113617	0.523391	0.428598	0.037379	0.038322	0.511704	0.399520	0.126836	0.140407	0.251412	0.271875
24	0.088081	0.060089	0.486877	0.326573	0.107319	0.101273	0.556923	0.234190	0.078882	0.122031	0.440434	0.324207	0.050733	0.126016	0.436391	0.252632	0.119334	0.092397	0.609005	0.575192	0.058400	0.080045	0.501988	0.275522	0.197318	0.115838	0.384935	0.192802	0.046429	0.039923	0.359303	0.149056	0.092751	0.119315	0.242732	0.242410	0.069767	0.093912	0.239752	0.173015	0.121143	0.118161	0.366870	0.495224	0.044409	0.081492	0.308948	0.153252	0.101626	0.079145	0.352818	0.241851	0.128299	0.140605	0.445883	0.218386	0.030192	0.035630	0.249383	0.339746	0.039162	0.046890	0.261946	0.168227	0.512748	0.249286	0.299633	0.413278	0.124121	0.112397	0.471280	0.405851	0.032462	0.028416	0.500351	0.376155	0.120229	0.122904	0.244498	0.244459
25	0.085403	0.060531	0.484163	0.316055	0.103912	0.098028	0.548068	0.239096	0.090274	0.131726	0.459511	0.364694	0.050725	0.121868	0.412543	0.257733	0.126981	0.095037	0.623591	0.583892	0.057105	0.079452	0.462985	0.269376	0.192376	0.107539	0.409939	0.188919	0.044118	0.048470	0.334161	0.160734	0.085760	0.112106	0.237410	0.242730	0.069171	0.093590	0.232979	0.186091	0.122165	0.117230	0.336128	0.547985	0.043979	0.081251	0.275695	0.141746	0.130967	0.096329	0.370526	0.213732	0.119679	0.144304	0.374923	0.212333	0.027861	0.038171	0.266652	0.340944	0.036877	0.045071	0.259320	0.223112	0.516107	0.252021	0.246355	0.386529	0.122116	0.110503	0.359468	0.381955	0.032072	0.024261	0.458486	0.351352	0.114036	0.118238	0.222461	0.235864
26	0.073890	0.060817	0.478374	0.305829	0.103660	0.097837	0.548340	0.239572	0.093018	0.132769	0.518853	0.404022	0.050848	0.127714	0.408030	0.278641	0.129344	0.095952	0.624977	0.586147	0.056358	0.080186	0.459497	0.262716	0.194951	0.115899	0.428806	0.175359	0.043954	0.052126	0.293096	0.178867	0.070041	0.093736	0.260692	0.250363	0.067898	0.095186	0.204798	0.267584	0.122225	0.116840	0.370690	0.659622	0.044011	0.080168	0.264605	0.141469	0.140006	0.100689	0.395993	0.184470	0.119541	0.150553	0.308230	0.218431	0.028290	0.045286	0.285904	0.348865	0.034240	0.043437	0.257340	0.238122	0.524582	0.266083	0.223905	0.383096	0.112530	0.116034	0.332219	0.381188	0.030803	0.024776	0.377595	0.341919	0.115371	0.120952	0.211270	0.236560
27	0.075196	0.061077	0.478301	0.310082	0.104680	0.099224	0.544289	0.237456	0.093970	0.132905	0.581130	0.408794	0.052176	0.135893	0.372162	0.316893	0.131336	0.099442	0.625562	0.575336	0.052526	0.098065	0.421746	0.230085	0.205284	0.123262	0.431663	0.199928	0.044041	0.052953	0.290558	0.196182	0.053600	0.074360	0.290742	0.267104	0.070415	0.098956	0.183444	0.337400	0.122774	0.116979	0.431463	0.728583	0.044896	0.084403	0.278850	0.143371	0.139363	0.101452	0.398246	0.170653	0.108849	0.145018	0.282140	0.245704	0.033302	0.054336	0.303455	0.355784	0.034436	0.043590	0.254021	0.233232	0.536564	0.291763	0.219967	0.397417	0.106981	0.171553	0.319752	0.381334	0.036352	0.033061	0.330558	0.341769	0.118332	0.135769	0.212217	0.233182
28	0.078730	0.067184	0.478130	0.316040	0.105238	0.098999	0.529422	0.242154	0.094835	0.133387	0.629911	0.400053	0.049360	0.127899	0.261117	0.371499	0.134857	0.105908	0.594270	0.580597	0.046228	0.096522	0.315622	0.169391	0.209857	0.122936	0.430212	0.254380	0.044666	0.053134	0.262722	0.203748	0.056046	0.070591	0.273907	0.348107	0.073942	0.101066	0.185562	0.362524	0.126718	0.120690	0.462183	0.747230	0.044619	0.085196	0.340396	0.148446	0.132627	0.100849	0.387077	0.171697	0.093644	0.191974	0.256398	0.299166	0.042829	0.059856	0.307430	0.352281	0.035706	0.043957	0.233636	0.231405	0.536398	0.301314	0.220209	0.417335	0.108287	0.197430	0.269561	0.370904	0.044363	0.045016	0.326071	0.337625	0.123616	0.174314	0.203132	0.216513
29	0.084870	0.072825	0.487535	0.316572	0.103898	0.098658	0.521404	0.244998	0.095305	0.133324	0.660469	0.385861	0.047885	0.130580	0.143961	0.415890	0.138177	0.115065	0.520175	0.580602	0.042856	0.096219	0.219198	0.122804	0.211205	0.118928	0.424350	0.279841	0.044481	0.058861	0.231775	0.198205	0.062308	0.072040	0.232837	0.484161	0.078740	0.097350	0.190715	0.356510	0.130601	0.124664	0.461964	0.747217	0.044619	0.082451	0.362095	0.163945	0.128857	0.100390	0.371532	0.222227	0.073941	0.214225	0.219189	0.340865	0.051629	0.061633	0.312014	0.351848	0.033044	0.041865	0.199340	0.231574	0.528257	0.294250	0.224699	0.429801	0.108497	0.200040	0.206503	0.354240	0.044357	0.046604	0.316550	0.336011	0.128729	0.196241	0.179139	0.192211
30	0.084685	0.073724	0.492304	0.339388	0.102489	0.099437	0.510933	0.231653	0.095014	0.132312	0.667309	0.371754	0.042956	0.151644	0.130396	0.426236	0.138448	0.126085	0.466207	0.569922	0.036504	0.088193	0.148583	0.136942	0.206729	0.111369	0.427058	0.287039	0.044698	0.067301	0.230295	0.191230	0.076945	0.072870	0.216233	0.601121	0.080792	0.089825	0.192065	0.347007	0.132781	0.128935	0.471236	0.745502	0.043702	0.080355	0.373234	0.244148	0.128433	0.100373	0.403190	0.266743	0.076360	0.218487	0.214322	0.352440	0.054287	0.061421	0.336218	0.343143	0.030937	0.038492	0.214330	0.230688	0.513588	0.294772	0.233284	0.427699	0.118101	0.251082	0.156478	0.348032	0.045948	0.046245	0.279809	0.334397	0.131724	0.204830	0.171540	0.173163
31	0.080477	0.070436	0.491155	0.354502	0.104403	0.119021	0.422162	0.202204	0.092595	0.132570	0.664334	0.376998	0.043233	0.147370	0.178254	0.413928	0.132181	0.129169	0.444300	0.559123	0.037002	0.088806	0.119282	0.166155	0.210324	0.104843	0.439842	0.293330	0.045709	0.067777	0.212074	0.246908	0.078826	0.074583	0.225120	0.628030	0.079682	0.079238	0.193051	0.348713	0.133103	0.132738	0.487718	0.751132	0.042664	0.079145	0.375957	0.363454	0.129327	0.100594	0.431364	0.289316	0.101082	0.275796	0.216084	0.354995	0.054681	0.059422	0.380527	0.322907	0.026915	0.032455	0.209026	0.236649	0.499297	0.304491	0.239028	0.401890	0.146152	0.368030	0.139253	0.358458	0.047314	0.046071	0.236496	0.319235	0.127215	0.202184	0.172148	0.153302
32	0.063371	0.073681	0.446912	0.349600	0.116007	0.267479	0.361224	0.184943	0.101568	0.145160	0.660385	0.385722	0.043563	0.143426	0.227809	0.407689	0.118455	0.120223	0.465271	0.555348	0.044480	0.096900	0.116968	0.176405	0.223048	0.098946	0.422136	0.288709	0.047529	0.076294	0.204150	0.278247	0.086208	0.087860	0.253909	0.624817	0.069492	0.064779	0.201809	0.362972	0.130346	0.133093	0.488436	0.769177	0.060189	0.092680	0.416691	0.407914	0.129922	0.100609	0.433635	0.295684	0.110334	0.293578	0.230051	0.353824	0.054341	0.058074	0.395566	0.283913	0.030231	0.031630	0.191697	0.256484	0.505554	0.318304	0.240400	0.367323	0.141576	0.380050	0.141420	0.372739	0.052152	0.045704	0.190183	0.283840	0.116870	0.213260	0.166823	0.127362
33	0.064560	0.083460	0.364974	0.348516	0.127780	0.425646	0.350513	0.182344	0.112908	0.159705	0.659697	0.389489	0.042316	0.142611	0.245920	0.405945	0.112155	0.116863	0.471798	0.558663	0.044770	0.109881	0.116869	0.182255	0.234088	0.089416	0.414482	0.289438	0.059264	0.113114	0.196272	0.282652	0.115488	0.105909	0.286492	0.649440	0.064038	0.057754	0.213984	0.384171	0.126981	0.128875	0.480012	0.791099	0.085980	0.123153	0.503289	0.410283	0.129723	0.101121	0.429754	0.291463	0.110679	0.294117	0.251127	0.353423	0.053984	0.057502	0.390551	0.236300	0.041501	0.040256	0.236018	0.258832	0.497754	0.325798	0.246738	0.317390	0.133176	0.380953	0.143784	0.374840	0.053019	0.048650	0.165828	0.269233	0.114395	0.237912	0.149617	0.113058
34	0.065584	0.090092	0.347231	0.348610	0.122975	0.471411	0.336896	0.164991	0.114615	0.163111	0.604776	0.374120	0.038969	0.144394	0.294483	0.408270	0.109461	0.122218	0.459049	0.549693	0.054030	0.161408	0.123166	0.179434	0.242720	0.123609	0.502756	0.288957	0.076207	0.149046	0.178531	0.283357	0.149892	0.118554	0.306975	0.709510	0.062065	0.055309	0.233840	0.406291	0.111773	0.115938	0.466624	0.808080	0.097088	0.138303	0.576180	0.416839	0.129120	0.103446	0.435919	0.289934	0.113494	0.294499	0.287657	0.355573	0.055336	0.058094	0.370872	0.217170	0.053259	0.053168	0.377435	0.260646	0.487349	0.328740	0.251259	0.271713	0.128269	0.380533	0.144774	0.379304	0.063002	0.055708	0.159578	0.304343	0.110782	0.240671	0.121977	0.124092
35	0.066260	0.092745	0.360525	0.348388	0.115400	0.475346	0.265183	0.156088	0.111927	0.156462	0.549857	0.372737	0.048467	0.146417	0.315307	0.408277	0.108084	0.165927	0.411544	0.525388	0.056838	0.180823	0.109774	0.169033	0.264035	0.154858	0.608484	0.315777	0.080418	0.152418	0.172310	0.283055	0.167697	0.127372	0.312791	0.773139	0.060865	0.054720	0.253265	0.418386	0.095227	0.099052	0.444192	0.815796	0.101873	0.139523	0.602510	0.445136	0.127430	0.105674	0.442444	0.296652	0.120149	0.294355	0.401055	0.375507	0.062668	0.065194	0.374635	0.218257	0.053865	0.053433	0.449389	0.260408	0.485421	0.331241	0.251591	0.260832	0.128901	0.380852	0.150352	0.383366	0.076600	0.061006	0.186584	0.334498	0.104612	0.239038	0.091778	0.186310
36	0.072091	0.094014	0.348692	0.350083	0.147029	0.597767	0.171704	0.155319	0.103964	0.139682	0.541756	0.360682	0.050373	0.148153	0.321144	0.408310	0.101751	0.180634	0.340864	0.497504	0.057027	0.182667	0.097446	0.171869	0.275085	0.168635	0.656933	0.322667	0.084642	0.163602	0.178556	0.282989	0.187398	0.140524	0.311545	0.813590	0.063819	0.058665	0.255707	0.418852	0.082597	0.085647	0.428836	0.817459	0.102266	0.139450	0.593448	0.480985	0.121143	0.111197	0.437024	0.320601	0.122922	0.293681	0.414576	0.414081	0.069744	0.074157	0.406545	0.225809	0.059380	0.054127	0.454339	0.269352	0.504774	0.333511	0.255118	0.261090	0.133493	0.382595	0.165310	0.383111	0.085045	0.061635	0.196781	0.364962	0.102712	0.238531	0.086434	0.246956
37	0.079554	0.092812	0.289527	0.337947	0.197039	0.778209	0.117200	0.163566	0.094475	0.128241	0.549727	0.335828	0.053158	0.149792	0.395657	0.406539	0.098674	0.177676	0.277220	0.482056	0.060484	0.212798	0.118936	0.191270	0.290076	0.173643	0.642488	0.322699	0.092193	0.169951	0.186180	0.283354	0.238108	0.161252	0.318075	0.835591	0.069696	0.064098	0.241246	0.419229	0.073327	0.081644	0.430748	0.826527	0.104169	0.143133	0.590994	0.516669	0.118418	0.117260	0.450343	0.352653	0.121037	0.292250	0.427750	0.442699	0.068974	0.075654	0.438034	0.231647	0.063118	0.055883	0.465287	0.257170	0.466288	0.325334	0.270878	0.261142	0.133705	0.382827	0.175801	0.391131	0.099701	0.061415	0.215971	0.378198	0.102366	0.239239	0.086079	0.270057
38	0.079309	0.093079	0.251151	0.324764	0.199602	0.790998	0.098869	0.184969	0.085203	0.133207	0.530333	0.279654	0.053610	0.144584	0.498613	0.396953	0.141095	0.217244	0.239805	0.477909	0.061673	0.218436	0.132019	0.211819	0.289998	0.173938	0.634675	0.319517	0.092339	0.168260	0.225831	0.296868	0.273542	0.168817	0.318778	0.846263	0.070467	0.064426	0.238351	0.420717	0.071468	0.084439	0.471462	0.841002	0.109209	0.149253	0.595605	0.549806	0.119606	0.112840	0.444302	0.382524	0.119542	0.290891	0.466113	0.455937	0.069006	0.075769	0.454754	0.216996	0.063495	0.056096	0.498548	0.219562	0.375109	0.315136	0.289365	0.262323	0.135360	0.383621	0.178840	0.416739	0.102679	0.069811	0.260163	0.377635	0.102320	0.239832	0.090411	0.273393
39	0.079096	0.092926	0.257863	0.305575	0.213475	0.796116	0.128387	0.236471	0.085035	0.136210	0.492468	0.253273	0.055446	0.124796	0.531212	0.392246	0.164095	0.280444	0.234851	0.475354	0.064912	0.210462	0.134170	0.223053	0.290785	0.170299	0.627245	0.318182	0.092136	0.167524	0.249288	0.293578	0.319740	0.169165	0.319393	0.849267	0.071335	0.060758	0.225853	0.400382	0.076469	0.088652	0.504937	0.802509	0.115500	0.152009	0.597801	0.572268	0.101911	0.094663	0.427881	0.403884	0.121783	0.291714	0.492773	0.457151	0.068684	0.072896	0.465627	0.240950	0.063293	0.057291	0.509494	0.198141	0.352825	0.314095	0.292971	0.262646	0.140375	0.385325	0.180169	0.457249	0.109734	0.096111	0.267901	0.375212	0.101725	0.241774	0.103769	0.274523
40	0.078915	0.093453	0.266705	0.278387	0.228715	0.800850	0.167233	0.295575	0.097473	0.150749	0.584025	0.302548	0.062593	0.116393	0.533515	0.399229	0.162845	0.285881	0.237051	0.485130	0.070947	0.211879	0.138415	0.225437	0.292935	0.163565	0.622301	0.312610	0.091764	0.167311	0.248233	0.283351	0.351927	0.167555	0.320186	0.847871	0.071157	0.055686	0.216887	0.333627	0.085621	0.095848	0.477803	0.743197	0.123539	0.150758	0.597208	0.582764	0.066473	0.080641	0.408565	0.411191	0.121460	0.280511	0.497105	0.438258	0.067974	0.068061	0.462830	0.395467	0.063049	0.057099	0.512135	0.199011	0.352261	0.316278	0.272951	0.270388	0.144731	0.384922	0.183100	0.497875	0.121276	0.126699	0.258647	0.373048	0.100716	0.246259	0.111048	0.283279
41	0.076491	0.095768	0.275307	0.259222	0.231987	0.801407	0.232479	0.338188	0.109693	0.180693	0.661112	0.348744	0.065205	0.110092	0.529418	0.413936	0.160217	0.291316	0.348496	0.488245	0.073514	0.212870	0.149482	0.217781	0.288463	0.161758	0.632796	0.301803	0.092306	0.168020	0.257591	0.280159	0.370617	0.199195	0.289896	0.848983	0.066559	0.045435	0.232383	0.289431	0.101408	0.108673	0.449288	0.775995	0.127072	0.149280	0.570368	0.585214	0.059628	0.081148	0.386797	0.409842	0.118425	0.237887	0.494805	0.390388	0.064004	0.063900	0.454701	0.471094	0.062304	0.056759	0.510033	0.214242	0.353821	0.320827	0.273726	0.315243	0.145956	0.367880	0.183430	0.525208	0.157732	0.153854	0.255637	0.382568	0.098170	0.244964	0.108766	0.301350
42	0.077466	0.100170	0.303169	0.254312	0.231845	0.801169	0.275182	0.373637	0.116260	0.195168	0.658929	0.381784	0.063430	0.074184	0.523865	0.447485	0.157033	0.302646	0.441641	0.495216	0.074133	0.212950	0.153394	0.199050	0.287763	0.167652	0.636827	0.366071	0.094871	0.165929	0.269651	0.286466	0.470797	0.255413	0.277601	0.837757	0.062565	0.041560	0.232820	0.283490	0.111208	0.117017	0.437261	0.797381	0.126664	0.147279	0.537638	0.583643	0.059644	0.085272	0.388044	0.407774	0.117362	0.220644	0.482051	0.356082	0.058540	0.068278	0.456075	0.525618	0.062374	0.056226	0.503155	0.230144	0.353510	0.310809	0.323677	0.343709	0.145819	0.348799	0.183681	0.540112	0.213062	0.172085	0.272441	0.420509	0.094271	0.238567	0.111781	0.327799
43	0.079654	0.107592	0.380062	0.257458	0.231375	0.801137	0.291189	0.388336	0.135931	0.211792	0.667697	0.386591	0.070684	0.068525	0.510652	0.466906	0.155346	0.316669	0.503850	0.527062	0.071565	0.211447	0.154662	0.209890	0.285622	0.172809	0.636584	0.471399	0.098012	0.164562	0.270076	0.290190	0.515634	0.280562	0.278116	0.779756	0.063713	0.042607	0.228588	0.287194	0.112252	0.119199	0.455905	0.794206	0.126516	0.144669	0.527075	0.572876	0.059893	0.087950	0.386925	0.401672	0.102232	0.200256	0.477553	0.343873	0.060392	0.078165	0.468293	0.560400	0.061788	0.055773	0.506392	0.243031	0.355267	0.290057	0.356982	0.395296	0.146503	0.347260	0.184746	0.544401	0.223103	0.172584	0.316515	0.470295	0.087262	0.214919	0.112627	0.354023
44	0.084885	0.114854	0.447189	0.240030	0.231438	0.801171	0.293279	0.389090	0.151177	0.217253	0.722343	0.386627	0.074026	0.070124	0.489923	0.475935	0.160051	0.324642	0.505430	0.561030	0.071050	0.210908	0.155819	0.257775	0.283394	0.175280	0.641450	0.530911	0.097524	0.163831	0.271539	0.273687	0.525157	0.289554	0.279105	0.684893	0.065349	0.055251	0.232174	0.279266	0.107988	0.114404	0.486340	0.773191	0.126483	0.144822	0.523465	0.513628	0.059680	0.088767	0.378658	0.371800	0.075097	0.105517	0.475153	0.340371	0.071858	0.091780	0.464590	0.562352	0.062103	0.056999	0.540852	0.256290	0.383468	0.280116	0.360260	0.566426	0.142117	0.329674	0.183552	0.531275	0.222942	0.172333	0.390655	0.486737	0.081275	0.190478	0.110994	0.370147
45	0.095185	0.122646	0.475262	0.191267	0.231176	0.801117	0.296032	0.393776	0.144491	0.207602	0.766668	0.397761	0.075463	0.072371	0.485318	0.475836	0.188936	0.337103	0.519827	0.600609	0.073198	0.190670	0.158684	0.328409	0.271894	0.179652	0.662466	0.563681	0.094754	0.157042	0.289303	0.295445	0.539572	0.302748	0.273903	0.651612	0.067625	0.073293	0.246185	0.261467	0.107242	0.111627	0.481098	0.732937	0.123917	0.142635	0.512559	0.454954	0.059963	0.088522	0.331986	0.340323	0.069795	0.095734	0.463897	0.342835	0.083361	0.106252	0.456429	0.567645	0.060494	0.056407	0.554019	0.244743	0.413376	0.279123	0.375339	0.750839	0.110667	0.200010	0.177676	0.496241	0.223590	0.174844	0.460172	0.486478	0.078983	0.180654	0.108819	0.374621
46	0.099845	0.124552	0.476932	0.180528	0.230209	0.799826	0.296458	0.394460	0.136959	0.197202	0.773776	0.430476	0.076658	0.063197	0.458370	0.472588	0.225673	0.348902	0.620545	0.626815	0.079910	0.152598	0.156811	0.388072	0.246002	0.184095	0.685658	0.583745	0.085474	0.124890	0.310734	0.309133	0.564674	0.318193	0.262046	0.704723	0.066627	0.073828	0.270970	0.255490	0.107124	0.111427	0.470056	0.693581	0.107678	0.121117	0.449715	0.448534	0.064945	0.088220	0.319312	0.321203	0.068789	0.096424	0.453479	0.379153	0.089161	0.114730	0.475281	0.586208	0.054447	0.051735	0.542693	0.251278	0.415360	0.271195	0.388647	0.843478	0.087878	0.101293	0.147309	0.456546	0.223586	0.178257	0.463489	0.485214	0.074034	0.175820	0.106893	0.376084
47	0.101523	0.122501	0.479628	0.199697	0.225791	0.774887	0.307289	0.402610	0.141342	0.197953	0.774035	0.466111	0.071353	0.058433	0.442538	0.474479	0.231494	0.348442	0.701545	0.621765	0.109079	0.166796	0.161076	0.433975	0.240248	0.175588	0.673084	0.592734	0.078630	0.094961	0.327247	0.310577	0.574191	0.324865	0.289822	0.749901	0.065408	0.074053	0.280197	0.277735	0.111580	0.110649	0.470609	0.665856	0.094019	0.097296	0.346595	0.515354	0.095465	0.087883	0.322840	0.321495	0.063168	0.096041	0.408229	0.467486	0.091371	0.117364	0.487574	0.621348	0.050168	0.037872	0.463158	0.264338	0.423864	0.275852	0.404376	0.886431	0.087190	0.091747	0.125091	0.431686	0.225154	0.187067	0.475924	0.481590	0.073914	0.162647	0.105774	0.376653
48	0.108721	0.122961	0.499978	0.201258	0.216720	0.698914	0.328869	0.435330	0.168965	0.219557	0.775833	0.484965	0.069403	0.054928	0.441208	0.517635	0.237309	0.342035	0.725058	0.624330	0.137041	0.205428	0.306600	0.477288	0.213240	0.142717	0.601197	0.588663	0.081560	0.091651	0.328405	0.313510	0.574832	0.325891	0.278774	0.726374	0.065836	0.075530	0.265215	0.311464	0.116831	0.110939	0.486091	0.640007	0.089467	0.096146	0.225847	0.608946	0.139780	0.087673	0.304897	0.322082	0.048113	0.099459	0.314512	0.529850	0.090100	0.115850	0.471456	0.653283	0.051608	0.035144	0.387918	0.269446	0.442176	0.289306	0.464557	0.896002	0.086351	0.085589	0.129379	0.422692	0.228543	0.194790	0.484442	0.469287	0.067190	0.107465	0.105492	0.376081
49	0.116395	0.124699	0.532686	0.207863	0.213462	0.655441	0.351576	0.486865	0.202326	0.246033	0.769941	0.503329	0.070360	0.061843	0.384391	0.602851	0.257111	0.355547	0.729206	0.662793	0.145557	0.189223	0.365795	0.473395	0.181600	0.118033	0.485785	0.578914	0.074137	0.067946	0.319496	0.314274	0.571554	0.324054	0.264082	0.670198	0.067139	0.077132	0.284528	0.353320	0.117318	0.110885	0.501672	0.638524	0.093134	0.104759	0.188258	0.652229	0.168227	0.097478	0.257984	0.328328	0.059951	0.109901	0.319007	0.548971	0.086392	0.120554	0.445914	0.657726	0.051051	0.040624	0.377287	0.259946	0.461300	0.306150	0.497276	0.900785	0.083368	0.083762	0.144303	0.426336	0.227726	0.195850	0.531385	0.445674	0.061105	0.083511	0.104567	0.371950
50	0.115069	0.123091	0.575855	0.224964	0.211813	0.652249	0.366325	0.544561	0.227463	0.258971	0.764550	0.515064	0.082223	0.087227	0.241330	0.697900	0.293169	0.389140	0.754996	0.694785	0.144914	0.188438	0.369631	0.508727	0.144254	0.101632	0.458501	0.578744	0.065793	0.054131	0.305494	0.316169	0.568650	0.321342	0.267886	0.616447	0.064910	0.074470	0.291657	0.390998	0.118305	0.110611	0.637408	0.644938	0.102864	0.107606	0.255199	0.651294	0.173842	0.131217	0.234412	0.361692	0.083449	0.119633	0.300107	0.534727	0.109559	0.155343	0.450643	0.669393	0.067813	0.046008	0.368037	0.256734	0.475272	0.313666	0.503408	0.925215	0.070892	0.073677	0.142819	0.452961	0.223532	0.195657	0.591947	0.431486	0.063483	0.084845	0.103692	0.349372
51	0.108175	0.120345	0.613238	0.275205	0.192534	0.581834	0.378724	0.588498	0.234302	0.258179	0.765939	0.514366	0.103281	0.109936	0.261950	0.749991	0.304785	0.400630	0.794837	0.710559	0.142595	0.189859	0.425201	0.556593	0.135855	0.100762	0.457607	0.589078	0.067814	0.058275	0.270573	0.346056	0.553333	0.312012	0.264053	0.594685	0.064561	0.075289	0.311301	0.405693	0.117325	0.113876	0.729455	0.615770	0.105939	0.100082	0.297853	0.631859	0.280376	0.195506	0.234719	0.418981	0.103242	0.124841	0.237196	0.525516	0.129983	0.184401	0.439583	0.730008	0.094808	0.047941	0.337382	0.271278	0.468626	0.305382	0.506645	0.984614	0.067928	0.071087	0.145733	0.491080	0.220362	0.195248	0.619176	0.410109	0.064065	0.084804	0.100764	0.310340
52	0.105659	0.119738	0.622453	0.274243	0.133168	0.260019	0.389851	0.610946	0.234518	0.257998	0.737463	0.497602	0.127511	0.131450	0.387536	0.738602	0.302563	0.367587	0.804843	0.725499	0.159830	0.197997	0.487580	0.602963	0.135359	0.106153	0.451723	0.652745	0.073424	0.067786	0.291540	0.391423	0.534801	0.306255	0.268166	0.614597	0.065741	0.078996	0.388817	0.407415	0.114588	0.118265	0.703984	0.574692	0.111522	0.099690	0.298832	0.604830	0.338525	0.223270	0.212390	0.517530	0.110812	0.123510	0.195468	0.530768	0.134905	0.195086	0.418410	0.762371	0.125301	0.047789	0.344578	0.286885	0.438729	0.293339	0.543948	1.088510	0.066611	0.068958	0.177405	0.505486	0.215792	0.198370	0.624488	0.394630	0.063701	0.083491	0.111222	0.296529
53	0.105531	0.119546	0.622561	0.273053	0.122239	0.137502	0.395514	0.619265	0.228087	0.243358	0.613690	0.465296	0.144906	0.143018	0.429928	0.701873	0.305888	0.365162	0.803456	0.723425	0.196306	0.225306	0.522758	0.648297	0.125187	0.117577	0.592606	0.796481	0.090404	0.087345	0.320266	0.451375	0.514316	0.308239	0.283165	0.647051	0.065721	0.081383	0.462700	0.411619	0.110245	0.121151	0.697958	0.536609	0.107107	0.100224	0.298398	0.589159	0.353739	0.233501	0.263350	0.602485	0.115934	0.124072	0.189394	0.550400	0.135503	0.198781	0.402317	0.716267	0.129394	0.050441	0.351482	0.312929	0.424958	0.288824	0.647884	1.196472	0.057512	0.062533	0.181971	0.512213	0.215355	0.199354	0.616065	0.403184	0.064761	0.083070	0.112689	0.319655
54	0.105344	0.119213	0.627461	0.312920	0.101614	0.114315	0.392374	0.608765	0.225975	0.229522	0.508043	0.449540	0.146385	0.143914	0.491025	0.661379	0.306737	0.360549	0.768738	0.692549	0.219976	0.244648	0.537449	0.677613	0.116103	0.135303	0.730995	0.940192	0.115679	0.106303	0.318192	0.490147	0.490812	0.314483	0.274821	0.707099	0.064842	0.080974	0.500237	0.435205	0.099088	0.116755	0.706602	0.449935	0.101817	0.106663	0.318389	0.587696	0.361821	0.240459	0.435455	0.628959	0.117699	0.126719	0.211189	0.560971	0.135809	0.200812	0.406612	0.645432	0.145422	0.057346	0.352023	0.340724	0.421735	0.294834	0.771596	1.276730	0.048942	0.071641	0.181197	0.522859	0.213840	0.190372	0.638338	0.419668	0.067266	0.079625	0.112989	0.359347
55	0.109664	0.119763	0.638397	0.366946	0.053779	0.065952	0.381149	0.580954	0.230388	0.227004	0.497718	0.520937	0.148725	0.152944	0.516956	0.638530	0.307602	0.349727	0.722160	0.663790	0.225709	0.247427	0.540682	0.677425	0.156551	0.159837	0.831609	1.073633	0.128759	0.112144	0.310150	0.508175	0.488430	0.308707	0.272533	0.743224	0.063900	0.080721	0.504031	0.473806	0.080473	0.106813	0.700998	0.364677	0.107654	0.130320	0.329242	0.607233	0.368668	0.245350	0.599645	0.633872	0.127401	0.137872	0.269402	0.560576	0.136319	0.199138	0.408155	0.637602	0.166844	0.066248	0.369027	0.352506	0.425816	0.309717	0.851900	1.331223	0.051335	0.090743	0.180734	0.507737	0.208477	0.172943	0.664602	0.443969	0.068068	0.059232	0.112897	0.387994
56	0.113325	0.118177	0.642843	0.400123	0.024100	0.049937	0.351164	0.553936	0.227167	0.225656	0.467283	0.567240	0.159425	0.172657	0.529838	0.640337	0.310764	0.335060	0.689106	0.630328	0.227146	0.248734	0.539075	0.650983	0.194219	0.181943	0.848149	1.121869	0.130045	0.112283	0.324171	0.501535	0.419847	0.277584	0.278777	0.733236	0.056283	0.080383	0.503316	0.505225	0.089186	0.111315	0.708548	0.358107	0.118172	0.158040	0.364456	0.629836	0.375129	0.246863	0.709771	0.636118	0.146295	0.158225	0.309501	0.561118	0.135910	0.195897	0.413063	0.640287	0.169980	0.066801	0.375741	0.349104	0.434935	0.321164	0.890738	1.362207	0.053953	0.094436	0.205087	0.488265	0.191887	0.150647	0.665594	0.470476	0.073618	0.056046	0.116756	0.390467
57	0.111961	0.113204	0.638621	0.410132	0.020722	0.049896	0.311812	0.548586	0.226117	0.227953	0.361838	0.587019	0.171427	0.195575	0.589783	0.672502	0.312562	0.328752	0.692151	0.604899	0.224456	0.248806	0.536988	0.622265	0.228596	0.210096	0.837011	1.120114	0.133925	0.112711	0.342546	0.480796	0.350059	0.256953	0.279789	0.737979	0.050796	0.077802	0.506722	0.526859	0.091683	0.112980	0.711806	0.351892	0.131733	0.178899	0.443406	0.644074	0.379072	0.246374	0.720169	0.639240	0.157893	0.170035	0.331981	0.566985	0.131029	0.190871	0.412147	0.684055	0.169596	0.067131	0.321495	0.336575	0.434830	0.325713	0.897928	1.366671	0.058972	0.095956	0.209626	0.479180	0.127860	0.126244	0.661451	0.471741	0.086744	0.068071	0.113490	0.371519
58	0.115031	0.112792	0.599889	0.417874	0.023119	0.050453	0.298428	0.588269	0.230525	0.230670	0.295181	0.570442	0.179552	0.215017	0.680592	0.712747	0.301893	0.319584	0.672476	0.568380	0.216955	0.245703	0.538191	0.587266	0.241754	0.224701	0.815285	1.101164	0.137081	0.112773	0.325768	0.472611	0.343379	0.259343	0.283833	0.744624	0.045315	0.066389	0.511570	0.541348	0.091572	0.113497	0.697225	0.354245	0.136530	0.183814	0.455497	0.648808	0.379160	0.248042	0.727533	0.638449	0.163417	0.171137	0.340948	0.575347	0.124520	0.183367	0.420767	0.725622	0.169192	0.068059	0.288462	0.329883	0.430371	0.327782	0.879651	1.363134	0.073741	0.101569	0.223517	0.490070	0.095703	0.122342	0.644040	0.444205	0.093131	0.090824	0.112359	0.344980
59	0.117135	0.114506	0.569454	0.418287	0.027297	0.051081	0.300083	0.611364	0.230670	0.230140	0.354660	0.547714	0.188441	0.231123	0.716623	0.745342	0.275433	0.305949	0.580076	0.533145	0.198616	0.214060	0.514860	0.547651	0.241106	0.223137	0.792480	1.087731	0.141756	0.115059	0.357106	0.481179	0.329406	0.250681	0.292148	0.743285	0.047306	0.073395	0.503874	0.550206	0.092772	0.114892	0.696001	0.375421	0.137615	0.183934	0.456164	0.656349	0.379677	0.256218	0.746480	0.637006	0.164377	0.172378	0.341963	0.550794	0.118620	0.176423	0.433654	0.755090	0.169242	0.069135	0.287826	0.324168	0.416121	0.327842	0.877741	1.334210	0.078282	0.102858	0.272515	0.514385	0.099759	0.124932	0.609177	0.429495	0.091572	0.097222	0.111653	0.323560
60	0.112000	0.108893	0.564966	0.429319	0.033805	0.053227	0.295577	0.626838	0.223988	0.221769	0.385321	0.525668	0.196922	0.240217	0.718517	0.741048	0.269164	0.304495	0.484175	0.529261	0.186843	0.178357	0.431632	0.533248	0.242624	0.221186	0.775408	1.090162	0.146056	0.120400	0.415871	0.517456	0.287412	0.228968	0.353340	0.703834	0.048311	0.084254	0.506227	0.533367	0.094833	0.115715	0.696716	0.411052	0.138434	0.182567	0.454018	0.645966	0.385803	0.273420	0.753317	0.645810	0.164329	0.171937	0.330149	0.484472	0.117702	0.174189	0.423360	0.761572	0.167345	0.069034	0.280297	0.311867	0.387248	0.328309	0.887154	1.249160	0.078228	0.105032	0.308024	0.540385	0.102703	0.123106	0.551146	0.434487	0.091362	0.095581	0.118658	0.315017
61	0.109522	0.105731	0.574803	0.450582	0.047724	0.058872	0.298085	0.650073	0.199816	0.198077	0.376170	0.513867	0.200457	0.241098	0.718375	0.682724	0.265306	0.293217	0.444544	0.514061	0.188415	0.180691	0.419912	0.523953	0.239917	0.225461	0.761962	1.139977	0.154364	0.134473	0.434197	0.555164	0.252000	0.208808	0.329480	0.639766	0.049655	0.088766	0.511794	0.502622	0.090554	0.113022	0.688905	0.466607	0.138102	0.178946	0.456679	0.571266	0.395490	0.294715	0.758805	0.679016	0.162739	0.168941	0.332475	0.400927	0.130312	0.179056	0.432516	0.740658	0.166802	0.068771	0.277790	0.315684	0.364194	0.329330	0.883553	1.152300	0.078235	0.108375	0.330884	0.566274	0.106512	0.119844	0.544835	0.436197	0.089586	0.095385	0.157570	0.311900
62	0.103608	0.099823	0.563631	0.460902	0.076916	0.071902	0.344618	0.670478	0.172452	0.183475	0.388866	0.502084	0.196988	0.236176	0.716606	0.586376	0.247956	0.266938	0.461876	0.477626	0.200861	0.204445	0.395804	0.469295	0.246778	0.239948	0.767351	1.231069	0.165547	0.150888	0.435725	0.581039	0.232702	0.200079	0.308722	0.607691	0.049525	0.089359	0.505582	0.468957	0.112920	0.112531	0.684544	0.508266	0.138765	0.176318	0.456952	0.473879	0.400440	0.314054	0.773218	0.744891	0.155982	0.161246	0.323822	0.355703	0.138102	0.180670	0.431966	0.722735	0.165653	0.064702	0.271973	0.326299	0.363136	0.322561	0.878660	1.100736	0.078639	0.109766	0.337326	0.591481	0.104943	0.109364	0.544393	0.437018	0.088476	0.095477	0.220298	0.319588
63	0.097884	0.093439	0.529547	0.459180	0.107848	0.084411	0.465119	0.668325	0.162182	0.189585	0.419823	0.498851	0.186363	0.238305	0.686392	0.494414	0.208669	0.219446	0.458698	0.514861	0.197947	0.200145	0.312858	0.414702	0.251974	0.253357	0.824293	1.344328	0.174093	0.160324	0.438676	0.593100	0.225105	0.197842	0.344893	0.592362	0.046666	0.087305	0.495111	0.432576	0.155235	0.114383	0.623987	0.517394	0.133830	0.174333	0.430878	0.414634	0.393494	0.323081	0.795903	0.801704	0.143431	0.149883	0.318005	0.353236	0.131503	0.162271	0.406998	0.721137	0.158151	0.058117	0.268997	0.321004	0.324793	0.299496	0.865552	1.083908	0.079942	0.110273	0.331222	0.605373	0.101799	0.119760	0.553146	0.434392	0.087657	0.095919	0.264317	0.338156
64	0.099292	0.092700	0.523128	0.453441	0.132414	0.101593	0.508533	0.641404	0.176796	0.206449	0.412703	0.500524	0.168506	0.244925	0.619734	0.460757	0.164208	0.162242	0.407989	0.565066	0.172035	0.190123	0.221118	0.339754	0.260059	0.269184	0.928073	1.435111	0.178341	0.164589	0.452635	0.568826	0.221596	0.195344	0.349151	0.591835	0.042080	0.084963	0.499814	0.410245	0.163985	0.111833	0.454491	0.520899	0.126260	0.171947	0.389197	0.387613	0.389562	0.324572	0.812436	0.844169	0.129608	0.139205	0.317126	0.345942	0.107426	0.121359	0.371804	0.680395	0.144674	0.056212	0.252522	0.301239	0.276327	0.271722	0.832769	1.091229	0.088379	0.115365	0.328473	0.596784	0.102379	0.152035	0.534844	0.415619	0.086904	0.095961	0.269397	0.354103
65	0.099275	0.092746	0.551503	0.427528	0.144365	0.127100	0.501686	0.596352	0.185596	0.213560	0.398812	0.497499	0.161229	0.242727	0.589481	0.455017	0.144153	0.131169	0.387047	0.573296	0.124648	0.198259	0.148585	0.256303	0.282559	0.292446	1.002666	1.478037	0.177632	0.161839	0.451077	0.540401	0.219933	0.194992	0.350086	0.600972	0.040456	0.083055	0.469965	0.398813	0.182637	0.110337	0.389849	0.529162	0.122261	0.181074	0.370795	0.378428	0.389243	0.312273	0.814801	0.872138	0.123091	0.136052	0.314416	0.316594	0.094489	0.093378	0.371343	0.621516	0.117519	0.056647	0.214886	0.285896	0.241478	0.249173	0.818537	1.091725	0.106206	0.128571	0.327928	0.570574	0.104330	0.185673	0.462151	0.395084	0.084946	0.094262	0.278355	0.363897
66	0.100478	0.095091	0.595454	0.417148	0.147212	0.136480	0.518158	0.549648	0.188114	0.214197	0.392540	0.501694	0.188307	0.290214	0.539184	0.455792	0.136461	0.120261	0.438052	0.583249	0.103729	0.188985	0.117272	0.188251	0.310146	0.311203	0.996957	1.455183	0.167159	0.150653	0.442649	0.489954	0.220481	0.194166	0.349792	0.576580	0.037263	0.079609	0.393920	0.398578	0.195563	0.104350	0.383598	0.578768	0.125853	0.197431	0.368964	0.378920	0.309306	0.276260	0.813909	0.866665	0.119891	0.136266	0.312571	0.264056	0.091470	0.087076	0.379390	0.615899	0.114290	0.062976	0.191676	0.258637	0.218147	0.240974	0.816327	1.071383	0.121737	0.137907	0.309983	0.540426	0.106693	0.202590	0.414895	0.382185	0.083657	0.094315	0.312063	0.368226
67	0.101064	0.096524	0.617276	0.415431	0.149255	0.136388	0.541427	0.522909	0.184702	0.209762	0.390627	0.480342	0.209829	0.400080	0.511024	0.456072	0.133829	0.116113	0.527925	0.586175	0.104108	0.219872	0.111303	0.166311	0.321381	0.316554	0.914348	1.384011	0.149578	0.138142	0.446438	0.456851	0.219239	0.188101	0.340084	0.540331	0.041794	0.082277	0.316809	0.384670	0.197184	0.098306	0.339407	0.644235	0.130270	0.201735	0.364976	0.379575	0.267179	0.258291	0.814507	0.812823	0.117212	0.132759	0.288846	0.248763	0.094205	0.090125	0.376583	0.633194	0.103625	0.079096	0.187704	0.207613	0.212755	0.242981	0.810869	1.007365	0.129601	0.141597	0.302307	0.508460	0.104312	0.214027	0.397634	0.381123	0.084309	0.095708	0.348118	0.365510
68	0.103065	0.098782	0.619397	0.397602	0.162775	0.150950	0.547774	0.521191	0.170683	0.196824	0.413952	0.427699	0.205417	0.409911	0.501321	0.444994	0.132536	0.115758	0.589614	0.575714	0.118621	0.282284	0.109129	0.157579	0.313465	0.311437	0.801598	1.273953	0.140850	0.135795	0.446399	0.434727	0.209587	0.175672	0.356736	0.484905	0.047746	0.084229	0.276677	0.342334	0.200086	0.095472	0.330299	0.752349	0.126573	0.198286	0.342355	0.361389	0.253145	0.249829	0.786609	0.756274	0.105563	0.119741	0.230913	0.248887	0.107297	0.090502	0.382115	0.627187	0.076273	0.097786	0.156009	0.156907	0.214274	0.243476	0.768385	0.883995	0.129934	0.135436	0.301813	0.452505	0.101667	0.227914	0.394784	0.373775	0.085449	0.094425	0.376806	0.350030
69	0.100890	0.099170	0.607536	0.361858	0.181718	0.174219	0.545558	0.547817	0.159537	0.183540	0.445134	0.402507	0.200290	0.405053	0.432579	0.396651	0.130696	0.118605	0.591561	0.564325	0.146834	0.335878	0.101049	0.154202	0.292118	0.305629	0.741527	1.164127	0.139879	0.138102	0.432338	0.433045	0.201178	0.166538	0.368937	0.407495	0.048341	0.084312	0.273204	0.280211	0.196486	0.082208	0.347379	0.864826	0.117648	0.186893	0.334797	0.319704	0.242078	0.243968	0.700124	0.736121	0.081295	0.091822	0.179876	0.247205	0.118830	0.094164	0.399793	0.589724	0.087080	0.115207	0.100010	0.135721	0.217946	0.243145	0.658124	0.740309	0.126435	0.120217	0.300894	0.418884	0.109050	0.257672	0.344771	0.364050	0.084584	0.094146	0.388955	0.315550
70	0.094491	0.096050	0.596182	0.318179	0.195990	0.195155	0.544407	0.590455	0.150159	0.176508	0.471286	0.391137	0.196391	0.397214	0.268055	0.320501	0.137888	0.124950	0.585090	0.555300	0.171474	0.359056	0.091473	0.151795	0.270466	0.297373	0.741157	1.112103	0.135894	0.141300	0.416506	0.424162	0.190445	0.153399	0.368153	0.399030	0.050179	0.085187	0.268118	0.224244	0.204590	0.075599	0.322430	0.908169	0.103165	0.170779	0.227355	0.284022	0.232315	0.240495	0.557788	0.733230	0.070987	0.064090	0.140389	0.231900	0.143640	0.139558	0.386953	0.533426	0.118581	0.128240	0.079724	0.133492	0.213692	0.236029	0.498606	0.604337	0.123120	0.113554	0.290082	0.415831	0.121215	0.305682	0.279069	0.379171	0.083006	0.093389	0.388842	0.272127
71	0.091860	0.092097	0.566159	0.299188	0.204556	0.212715	0.544262	0.625697	0.145412	0.174791	0.455038	0.390409	0.188268	0.387647	0.125055	0.231006	0.135154	0.122330	0.584983	0.552148	0.171839	0.359367	0.079783	0.136734	0.256779	0.287459	0.741186	1.101483	0.135080	0.144804	0.411712	0.412582	0.164513	0.136706	0.370376	0.387028	0.057009	0.091876	0.254672	0.185312	0.272739	0.079837	0.415696	0.914964	0.090074	0.159684	0.129097	0.269086	0.222195	0.238367	0.455618	0.729607	0.071709	0.044183	0.131845	0.212025	0.183202	0.210324	0.354846	0.478269	0.172626	0.139228	0.077168	0.133576	0.199062	0.219528	0.366903	0.489394	0.120320	0.112549	0.280470	0.415339	0.128261	0.317010	0.274470	0.411612	0.078577	0.093195	0.386852	0.244805
72	0.090358	0.084078	0.545307	0.286675	0.208337	0.224449	0.543952	0.631341	0.145207	0.176165	0.390872	0.379894	0.179553	0.384782	0.112825	0.146624	0.133066	0.119718	0.598423	0.553656	0.170316	0.365770	0.067036	0.116216	0.269901	0.287123	0.743851	1.106948	0.127058	0.142873	0.337803	0.391760	0.132351	0.135285	0.372412	0.361765	0.068066	0.120837	0.237220	0.138810	0.368444	0.079999	0.502934	0.908125	0.088282	0.164871	0.122391	0.256199	0.217803	0.238692	0.451751	0.728551	0.075902	0.046656	0.135178	0.200748	0.199112	0.238914	0.314224	0.430625	0.244080	0.148181	0.071405	0.130786	0.197484	0.203785	0.281435	0.398980	0.112508	0.108208	0.275762	0.403608	0.135669	0.323051	0.365430	0.451681	0.065614	0.087382	0.386654	0.238457
73	0.083814	0.065733	0.552223	0.283134	0.213004	0.229042	0.541638	0.586153	0.145738	0.178808	0.374011	0.374177	0.175730	0.389374	0.120126	0.113941	0.133000	0.120571	0.610454	0.558881	0.177900	0.408131	0.057812	0.101450	0.308925	0.289320	0.745383	1.110535	0.117167	0.135384	0.268545	0.336042	0.113032	0.155624	0.368254	0.338548	0.160994	0.193209	0.205491	0.104250	0.389465	0.134567	0.526069	0.887286	0.088431	0.189640	0.120743	0.225620	0.217653	0.237957	0.431071	0.729056	0.079270	0.051852	0.131476	0.213263	0.202067	0.240420	0.326432	0.363333	0.297384	0.149118	0.073961	0.134785	0.189514	0.274016	0.233743	0.353521	0.106553	0.108301	0.236205	0.375093	0.152902	0.329072	0.516213	0.481986	0.051160	0.065181	0.385670	0.238438
74	0.097276	0.060535	0.569063	0.275850	0.217154	0.230085	0.538403	0.554881	0.146706	0.175490	0.374562	0.368294	0.175853	0.395803	0.118039	0.134812	0.131760	0.120143	0.618302	0.565965	0.181097	0.449151	0.048258	0.123968	0.371379	0.288473	0.748480	1.105735	0.104477	0.119405	0.248682	0.275125	0.108372	0.164278	0.323989	0.328885	0.259070	0.265217	0.158175	0.094835	0.518676	0.245839	0.527254	0.855041	0.087645	0.202231	0.107505	0.189142	0.215421	0.231949	0.399979	0.730086	0.122634	0.077067	0.118021	0.237684	0.199424	0.237976	0.360692	0.324250	0.309260	0.164506	0.075648	0.125989	0.169594	0.346626	0.234592	0.339131	0.107522	0.147454	0.179705	0.339225	0.173108	0.332969	0.643421	0.510507	0.049900	0.046980	0.385692	0.238498
75	0.106444	0.062075	0.572969	0.228817	0.218179	0.229804	0.537900	0.533580	0.138102	0.155639	0.355022	0.397692	0.180382	0.415793	0.128793	0.164927	0.134244	0.116446	0.620683	0.600569	0.180710	0.459934	0.058517	0.133224	0.394884	0.293236	0.760759	1.136964	0.085071	0.098613	0.247792	0.221470	0.107411	0.170237	0.283183	0.333800	0.358428	0.327613	0.146851	0.091980	0.591346	0.275003	0.558587	0.824626	0.084529	0.205460	0.085535	0.157466	0.201556	0.222117	0.384172	0.722137	0.175554	0.115404	0.210913	0.255645	0.190915	0.236945	0.381273	0.342934	0.321744	0.216375	0.078901	0.104469	0.161737	0.353254	0.202980	0.337429	0.109911	0.213840	0.128163	0.296287	0.193546	0.338197	0.727101	0.531411	0.044284	0.046048	0.384810	0.239366
76	0.111629	0.060175	0.563049	0.191435	0.216299	0.228813	0.536659	0.505836	0.115958	0.124847	0.322158	0.544905	0.181033	0.407913	0.141837	0.176048	0.127706	0.110459	0.619363	0.599211	0.180630	0.446067	0.082475	0.154523	0.402694	0.343100	0.797521	1.186889	0.071349	0.083954	0.229009	0.169525	0.111489	0.194325	0.280817	0.329884	0.470876	0.391928	0.134113	0.093127	0.593118	0.274717	0.569211	0.805560	0.089619	0.236570	0.069271	0.134990	0.176859	0.198958	0.356873	0.689805	0.194127	0.143996	0.254254	0.296062	0.194766	0.247739	0.382308	0.395800	0.418685	0.279012	0.084264	0.117163	0.193255	0.452962	0.154300	0.335936	0.110190	0.248555	0.087703	0.242628	0.207546	0.343119	0.756601	0.536717	0.036532	0.039196	0.374264	0.240500
77	0.111534	0.061366	0.561802	0.188892	0.209129	0.226691	0.517250	0.472044	0.092765	0.103493	0.350836	0.616543	0.178025	0.410225	0.152486	0.177742	0.115016	0.106485	0.624064	0.574626	0.180961	0.438969	0.083705	0.184729	0.509184	0.415195	0.806406	1.194455	0.063807	0.074984	0.178999	0.159420	0.105088	0.196979	0.262818	0.370428	0.586964	0.441869	0.099820	0.097508	0.590938	0.274565	0.570723	0.796496	0.092413	0.241995	0.066779	0.123057	0.148737	0.171549	0.330272	0.642698	0.198708	0.173954	0.254911	0.315636	0.198470	0.256267	0.387123	0.450897	0.505912	0.308635	0.104848	0.147137	0.214706	0.558648	0.125940	0.328875	0.116180	0.253184	0.085361	0.178742	0.214314	0.346533	0.753927	0.539702	0.033742	0.033450	0.345227	0.233490
78	0.106875	0.076169	0.533647	0.190162	0.195985	0.223145	0.403702	0.449146	0.097103	0.110142	0.434758	0.629414	0.151403	0.383000	0.163382	0.176302	0.106789	0.102666	0.623957	0.579036	0.180955	0.438460	0.088664	0.191394	0.615508	0.448391	0.819140	1.206136	0.068350	0.074109	0.135197	0.179579	0.105048	0.203124	0.322338	0.427536	0.649538	0.451720	0.065651	0.101138	0.593240	0.274892	0.582169	0.808860	0.090890	0.272895	0.068048	0.121147	0.133079	0.176494	0.371713	0.702163	0.198648	0.178938	0.270226	0.315795	0.202616	0.266198	0.387495	0.480238	0.526711	0.314549	0.108279	0.162371	0.218851	0.572569	0.119951	0.307455	0.128579	0.267943	0.075171	0.137399	0.213272	0.341110	0.742546	0.539645	0.034785	0.031395	0.308402	0.207467
79	0.132175	0.129327	0.455184	0.187436	0.180399	0.219149	0.299555	0.438345	0.116577	0.135252	0.472987	0.625120	0.115073	0.265203	0.169587	0.189874	0.120068	0.108739	0.593125	0.592999	0.168969	0.390342	0.098349	0.198705	0.651498	0.451649	0.812881	1.170064	0.073333	0.074629	0.129282	0.189350	0.112639	0.214143	0.380152	0.456879	0.656818	0.477653	0.063060	0.104609	0.590122	0.274585	0.587559	0.816000	0.079284	0.285908	0.076579	0.121109	0.117330	0.241856	0.495847	0.787782	0.198419	0.179198	0.316710	0.320491	0.212530	0.275014	0.377989	0.480278	0.537532	0.314246	0.108866	0.164282	0.283918	0.581663	0.129699	0.300958	0.141660	0.353759	0.074785	0.121913	0.224977	0.330718	0.736404	0.539747	0.035349	0.031977	0.300014	0.177799
80	0.220131	0.202805	0.353324	0.187485	0.171178	0.209360	0.282652	0.436190	0.135400	0.154925	0.473172	0.616504	0.104606	0.225223	0.204310	0.196977	0.126934	0.114068	0.523658	0.608365	0.165939	0.372084	0.135182	0.202607	0.670669	0.455145	0.793482	1.151536	0.072654	0.074798	0.116495	0.210386	0.125604	0.235971	0.402819	0.470213	0.687722	0.603497	0.062305	0.106701	0.588249	0.274501	0.604010	0.801537	0.073796	0.292448	0.080876	0.118454	0.090822	0.267799	0.627322	0.861059	0.197812	0.178104	0.361616	0.329489	0.214908	0.276362	0.371309	0.482315	0.542049	0.315320	0.109619	0.164939	0.340683	0.598212	0.219359	0.346342	0.137582	0.399557	0.074795	0.134443	0.254018	0.322707	0.744301	0.541049	0.035125	0.070152	0.295855	0.156630
81	0.312028	0.264507	0.295728	0.186615	0.171035	0.208380	0.245480	0.437233	0.147900	0.164838	0.478434	0.599780	0.095293	0.214939	0.246798	0.199822	0.128098	0.113989	0.442362	0.618272	0.130556	0.317310	0.173152	0.205647	0.678064	0.453707	0.787446	1.151885	0.085231	0.083129	0.114259	0.260785	0.135167	0.250720	0.404000	0.491406	0.931106	0.767305	0.090450	0.111668	0.590053	0.279246	0.619766	0.740296	0.096181	0.331533	0.080735	0.110941	0.107147	0.302047	0.725015	0.902767	0.197238	0.177068	0.381388	0.352664	0.211795	0.275367	0.372477	0.516920	0.540252	0.312422	0.111830	0.165445	0.341805	0.607806	0.427650	0.391219	0.128438	0.399110	0.082708	0.177965	0.284341	0.315711	0.762026	0.541805	0.034939	0.096817	0.265346	0.140167
82	0.396646	0.310884	0.268293	0.177046	0.176688	0.219751	0.157336	0.436228	0.151088	0.167221	0.472192	0.580490	0.097235	0.216370	0.261998	0.208788	0.123883	0.105277	0.419379	0.617069	0.126055	0.319753	0.182990	0.212051	0.678182	0.451447	0.798600	1.159996	0.122415	0.098277	0.118932	0.305604	0.147612	0.264120	0.390636	0.508281	1.056874	0.839539	0.107437	0.117385	0.594349	0.290524	0.634334	0.606229	0.117665	0.420214	0.079327	0.100650	0.250632	0.354357	0.745072	0.913582	0.195345	0.177077	0.384656	0.374055	0.206801	0.275577	0.379080	0.576904	0.537441	0.307778	0.111651	0.170866	0.367350	0.613179	0.579672	0.403793	0.129099	0.399989	0.087190	0.219373	0.313826	0.316054	0.792970	0.543271	0.037541	0.098955	0.209399	0.126545
83	0.517044	0.347820	0.254294	0.144075	0.172022	0.213902	0.086827	0.422565	0.151375	0.169961	0.452011	0.583607	0.118422	0.224558	0.263777	0.215199	0.109455	0.080897	0.409809	0.616971	0.136919	0.321733	0.184394	0.224341	0.679375	0.455355	0.838619	1.179094	0.122896	0.100907	0.134497	0.326904	0.170943	0.278613	0.374973	0.517389	1.108246	0.864127	0.148704	0.121536	0.595612	0.292948	0.636385	0.507017	0.122966	0.455872	0.075741	0.091043	0.323980	0.383858	0.749674	0.913301	0.196237	0.182225	0.384749	0.383557	0.207055	0.269496	0.365914	0.644005	0.532238	0.315636	0.117070	0.202405	0.402070	0.613255	0.661611	0.412206	0.130309	0.406112	0.096606	0.236823	0.317636	0.303598	0.803105	0.554282	0.054361	0.127501	0.145321	0.108680
84	0.652047	0.371362	0.247525	0.120310	0.152957	0.200112	0.077826	0.381145	0.155723	0.178462	0.516840	0.605442	0.121400	0.240210	0.259719	0.220634	0.104223	0.068604	0.408373	0.623469	0.157329	0.313417	0.185093	0.248022	0.684469	0.465375	0.878440	1.211849	0.125197	0.108078	0.160802	0.330211	0.179822	0.283915	0.371142	0.518266	1.143269	0.874994	0.180704	0.134092	0.580863	0.290816	0.602186	0.493112	0.128170	0.456906	0.072276	0.082671	0.366728	0.401723	0.772480	0.916255	0.199466	0.188276	0.382309	0.379573	0.185751	0.227706	0.365911	0.684460	0.518967	0.325963	0.120074	0.228202	0.410945	0.612228	0.676956	0.423359	0.130288	0.407680	0.097444	0.239508	0.322228	0.288456	0.802318	0.573150	0.095148	0.238346	0.084500	0.094872
85	0.721606	0.373315	0.246958	0.099698	0.136872	0.202238	0.070678	0.307463	0.179804	0.195862	0.590804	0.620211	0.129674	0.252676	0.256061	0.232158	0.103083	0.078395	0.406465	0.674567	0.193036	0.258221	0.192693	0.288014	0.685853	0.471764	0.928952	1.260131	0.153981	0.123054	0.198400	0.328872	0.176976	0.281098	0.371416	0.521604	1.160739	0.878121	0.201393	0.156699	0.535086	0.290297	0.498486	0.497121	0.137799	0.460193	0.069788	0.073297	0.385321	0.407261	0.778798	0.938619	0.214584	0.193619	0.388596	0.368091	0.168031	0.176800	0.426330	0.703284	0.491842	0.332008	0.122114	0.235359	0.412923	0.616609	0.687212	0.426129	0.130208	0.407288	0.102594	0.241322	0.332994	0.233947	0.801091	0.579992	0.104576	0.259892	0.056489	0.086316
86	0.736576	0.389406	0.235775	0.088582	0.136402	0.262744	0.051084	0.219303	0.212356	0.218158	0.596060	0.624421	0.129066	0.249154	0.261841	0.239438	0.104372	0.103493	0.564650	0.828748	0.201225	0.240179	0.193591	0.331658	0.676409	0.474826	0.975627	1.299422	0.163224	0.127343	0.211409	0.331239	0.173575	0.271670	0.368664	0.543356	1.161536	0.870273	0.202983	0.158017	0.490705	0.285662	0.445647	0.497615	0.150353	0.456949	0.068726	0.068020	0.389980	0.407656	0.777480	0.982134	0.239069	0.200776	0.391585	0.346320	0.163075	0.164510	0.547653	0.705892	0.463704	0.342433	0.120695	0.235175	0.418143	0.626161	0.732333	0.425234	0.130670	0.407238	0.111642	0.240779	0.337271	0.212632	0.800943	0.567082	0.108231	0.262955	0.054232	0.082479
87	0.787630	0.475366	0.209142	0.088211	0.136174	0.288385	0.038507	0.153289	0.230614	0.232188	0.594564	0.622193	0.122807	0.205060	0.271153	0.223328	0.116129	0.135817	0.857792	0.984024	0.206346	0.233517	0.200500	0.352468	0.651042	0.477512	0.996742	1.330032	0.163483	0.126801	0.263334	0.337618	0.169740	0.253159	0.369456	0.565567	1.147188	0.852015	0.208525	0.160857	0.451957	0.223533	0.450453	0.505122	0.163063	0.454833	0.080272	0.060745	0.390374	0.415949	0.778326	1.021124	0.230079	0.195873	0.379305	0.323245	0.162659	0.164202	0.584739	0.712814	0.457015	0.338221	0.119912	0.229841	0.468418	0.636232	0.789771	0.437183	0.131893	0.407381	0.127208	0.239033	0.333902	0.210165	0.780225	0.531265	0.114044	0.266268	0.054538	0.082405
88	0.914766	0.555430	0.154770	0.087334	0.128948	0.297642	0.041929	0.123782	0.234857	0.234457	0.593405	0.577590	0.122102	0.197970	0.273052	0.220209	0.137742	0.155264	0.984456	1.058995	0.216708	0.234769	0.212508	0.345775	0.621915	0.478201	1.004329	1.307525	0.164261	0.127291	0.320004	0.352485	0.167969	0.245956	0.372577	0.571202	1.124614	0.831455	0.233069	0.178371	0.238539	0.132302	0.516576	0.543100	0.169123	0.454878	0.128833	0.058906	0.395245	0.436078	0.801114	1.050024	0.203334	0.186738	0.328733	0.302102	0.161745	0.163607	0.588844	0.721553	0.451375	0.314384	0.128947	0.231717	0.468177	0.627222	0.827230	0.484736	0.132495	0.400206	0.133398	0.242678	0.326044	0.205600	0.705653	0.484360	0.118079	0.270180	0.054985	0.082480
89	1.000112	0.589880	0.099083	0.085475	0.124013	0.298969	0.040810	0.112731	0.233128	0.231866	0.592731	0.434679	0.121450	0.214524	0.271824	0.237330	0.180941	0.169548	0.979615	1.054490	0.217237	0.241165	0.217442	0.338919	0.623278	0.458990	0.994313	1.186303	0.162585	0.128051	0.334437	0.368472	0.167872	0.249148	0.373015	0.571554	1.091197	0.807729	0.267129	0.198008	0.178429	0.122043	0.660099	0.597557	0.169942	0.450995	0.176334	0.058778	0.404942	0.457563	0.824465	1.066643	0.204778	0.209254	0.306328	0.264780	0.163181	0.158617	0.593568	0.713683	0.375277	0.264804	0.148293	0.259961	0.466403	0.585917	0.851036	0.561841	0.130384	0.372229	0.135071	0.264247	0.315035	0.198217	0.592949	0.438006	0.119239	0.270485	0.055237	0.081252
90	1.033708	0.598268	0.062208	0.104401	0.131431	0.317332	0.053708	0.110540	0.231163	0.227804	0.568274	0.362865	0.118564	0.221996	0.270302	0.241862	0.218171	0.186604	1.000015	1.026055	0.215946	0.240495	0.214591	0.336094	0.586532	0.399039	0.922750	1.053642	0.160301	0.129604	0.335117	0.375201	0.168514	0.238959	0.390436	0.567093	1.039847	0.780615	0.296342	0.213667	0.155381	0.123191	0.831688	0.677697	0.166953	0.441077	0.183900	0.059490	0.414745	0.476841	0.825626	1.072512	0.202749	0.221879	0.306422	0.252710	0.163663	0.158498	0.589550	0.687080	0.231769	0.225021	0.138106	0.254011	0.466987	0.552631	0.871149	0.624052	0.130056	0.343449	0.146688	0.288774	0.301734	0.192775	0.483277	0.399525	0.122315	0.270437	0.054305	0.078380
91	1.044799	0.601959	0.058652	0.174247	0.132783	0.320184	0.063416	0.110884	0.224955	0.217099	0.513275	0.353222	0.115709	0.224830	0.273433	0.230935	0.240628	0.195497	1.062935	1.010347	0.214500	0.240389	0.210667	0.332246	0.458565	0.325125	0.813487	0.904827	0.159661	0.138032	0.331638	0.386310	0.185619	0.240713	0.396289	0.544002	0.992480	0.772481	0.303400	0.220454	0.140281	0.124019	0.875555	0.758984	0.167202	0.432279	0.190888	0.078871	0.435301	0.503521	0.826060	1.068368	0.204277	0.221964	0.287677	0.251970	0.177792	0.172176	0.588086	0.659194	0.175888	0.219458	0.143525	0.243164	0.462545	0.545294	0.879483	0.641184	0.128539	0.338122	0.161063	0.296027	0.290291	0.187699	0.435191	0.392688	0.122286	0.270403	0.052246	0.073948
92	1.072010	0.607285	0.094001	0.238095	0.133366	0.321921	0.065198	0.109774	0.215912	0.201569	0.492747	0.341917	0.114614	0.224466	0.279852	0.223459	0.235389	0.194674	1.087908	1.012625	0.211317	0.245844	0.174579	0.334469	0.343901	0.284062	0.713107	0.842126	0.165840	0.151128	0.324033	0.409229	0.197044	0.241571	0.350450	0.499261	0.982664	0.781075	0.317261	0.228292	0.123006	0.123310	0.871722	0.777599	0.167731	0.405736	0.212234	0.115022	0.477975	0.532037	0.820534	1.035763	0.215918	0.252605	0.229822	0.246459	0.180535	0.168973	0.597395	0.645339	0.143928	0.224127	0.189777	0.243781	0.445414	0.435583	0.880210	0.641858	0.120204	0.338095	0.164426	0.298956	0.286009	0.188127	0.432640	0.399159	0.122214	0.270556	0.049001	0.068348
93	1.082924	0.603565	0.143936	0.264123	0.133875	0.351485	0.065825	0.106589	0.209691	0.190945	0.483761	0.317313	0.114101	0.230832	0.253703	0.225071	0.235334	0.209095	1.088800	1.024416	0.212617	0.245298	0.151061	0.333532	0.271320	0.257553	0.684763	0.845767	0.173127	0.159906	0.326270	0.423117	0.195488	0.233664	0.331936	0.478937	0.987096	0.747716	0.316155	0.234851	0.125696	0.126303	0.892834	0.752908	0.167983	0.403368	0.221420	0.121172	0.550582	0.539380	0.771307	0.941322	0.234062	0.308115	0.167545	0.231930	0.174082	0.159284	0.658630	0.646550	0.120587	0.227809	0.243018	0.256861	0.446679	0.338655	0.881049	0.642021	0.094542	0.278458	0.209760	0.296988	0.287359	0.190405	0.438702	0.410988	0.123095	0.271368	0.045364	0.062460
94	1.074396	0.586866	0.155645	0.267236	0.133440	0.358636	0.073043	0.101100	0.208394	0.189670	0.450865	0.317713	0.107359	0.227900	0.234098	0.225071	0.239036	0.228899	1.086179	1.030714	0.208096	0.235981	0.149499	0.330316	0.218651	0.242123	0.685516	0.855323	0.163924	0.160411	0.325886	0.408779	0.187433	0.213348	0.401651	0.479997	0.876253	0.608329	0.317526	0.233825	0.125435	0.122975	0.918202	0.729159	0.158566	0.381379	0.219458	0.126164	0.660136	0.528170	0.674278	0.821797	0.241337	0.356711	0.132205	0.193725	0.173293	0.155674	0.731359	0.610791	0.126681	0.251422	0.249809	0.265959	0.462506	0.332758	0.880478	0.644515	0.069040	0.155843	0.300904	0.290051	0.281597	0.185555	0.473705	0.423352	0.130999	0.286025	0.041644	0.056495
95	1.053048	0.563397	0.177477	0.266174	0.133465	0.356874	0.090007	0.094237	0.210054	0.191176	0.438988	0.320435	0.098199	0.229134	0.231960	0.235268	0.242873	0.241579	1.085138	1.034738	0.198958	0.225042	0.146880	0.321475	0.211635	0.243793	0.693869	0.883497	0.152304	0.162391	0.323386	0.382232	0.177496	0.191831	0.443908	0.471927	0.621721	0.446171	0.317253	0.229180	0.101583	0.096016	0.919606	0.731287	0.145039	0.316221	0.218489	0.138061	0.728761	0.517048	0.553306	0.701595	0.241989	0.357879	0.130006	0.154889	0.172143	0.156415	0.773608	0.558549	0.131711	0.270189	0.288414	0.267451	0.425991	0.315937	0.882971	0.631308	0.067735	0.139585	0.330785	0.269798	0.259023	0.169068	0.513456	0.422968	0.139859	0.295198	0.037645	0.050264
96	1.034041	0.542294	0.202176	0.269470	0.129113	0.358302	0.110841	0.097310	0.222455	0.190408	0.442544	0.299446	0.120126	0.235034	0.233598	0.246147	0.244362	0.250327	1.087803	1.056462	0.156079	0.192749	0.138993	0.293260	0.212756	0.236272	0.720166	0.895145	0.172353	0.174785	0.316895	0.367475	0.169042	0.175181	0.453963	0.469882	0.487103	0.365564	0.315890	0.223946	0.090621	0.095283	0.916939	0.740959	0.134129	0.177864	0.218520	0.149888	0.724054	0.503281	0.441498	0.628301	0.242021	0.355199	0.134554	0.128583	0.164326	0.157974	0.786366	0.472271	0.131574	0.261058	0.301144	0.247426	0.428023	0.329614	0.850459	0.594592	0.062874	0.138621	0.332772	0.236471	0.230016	0.152797	0.522212	0.425604	0.148182	0.295021	0.033635	0.044924
97	0.989619	0.518601	0.203399	0.291077	0.121325	0.355925	0.119988	0.139510	0.221501	0.180791	0.325084	0.250613	0.126042	0.227681	0.233252	0.238416	0.243038	0.253006	1.088729	1.071183	0.101736	0.117966	0.131648	0.232032	0.201589	0.213724	0.755175	0.885793	0.199767	0.178830	0.302243	0.363938	0.152536	0.155161	0.456564	0.482975	0.385268	0.334723	0.294718	0.221108	0.124652	0.133363	0.920149	0.762086	0.133929	0.164189	0.258703	0.149876	0.691681	0.486401	0.435929	0.601520	0.238267	0.351954	0.130770	0.114676	0.153670	0.159618	0.788167	0.389235	0.141001	0.286009	0.302725	0.222467	0.492580	0.353215	0.759099	0.555796	0.060589	0.121243	0.360831	0.213197	0.189287	0.139098	0.488218	0.429677	0.156218	0.296450	0.031560	0.047550
98	0.911152	0.501633	0.205956	0.336190	0.117585	0.365661	0.175684	0.178582	0.199620	0.157102	0.290242	0.228276	0.133399	0.235762	0.228390	0.214354	0.243777	0.250470	1.092755	1.055408	0.114935	0.104321	0.121391	0.173576	0.181196	0.192159	0.785198	0.838327	0.202930	0.171413	0.287449	0.363222	0.143169	0.147097	0.455466	0.502937	0.297980	0.319192	0.279712	0.207596	0.147761	0.161618	0.924702	0.788196	0.132294	0.151009	0.319581	0.155077	0.664872	0.470055	0.411511	0.599573	0.220976	0.348072	0.110331	0.105654	0.143821	0.163379	0.794045	0.325707	0.157391	0.339718	0.319401	0.216137	0.496582	0.362449	0.659589	0.538794	0.062316	0.109764	0.402736	0.209931	0.214037	0.145188	0.469749	0.421519	0.164442	0.291778	0.031754	0.048880
99	0.846076	0.510717	0.208056	0.391559	0.121700	0.371350	0.222900	0.192490	0.166525	0.121799	0.329602	0.224654	0.135844	0.239534	0.301350	0.220300	0.245082	0.242494	1.042475	0.945884	0.124567	0.106285	0.084009	0.169713	0.165398	0.180134	0.792325	0.809869	0.201381	0.169991	0.273367	0.362359	0.150644	0.152606	0.452768	0.519812	0.260461	0.319385	0.276311	0.199424	0.171191	0.178521	0.929853	0.810488	0.121411	0.141749	0.334432	0.183156	0.651194	0.464172	0.363579	0.599602	0.190998	0.343669	0.101974	0.104290	0.133241	0.164768	0.735857	0.341795	0.150150	0.331665	0.331625	0.216039	0.481916	0.367915	0.611303	0.527140	0.062658	0.110051	0.423281	0.214023	0.221868	0.144454	0.469113	0.394168	0.158217	0.224812	0.031313	0.045904
100	0.825019	0.517012	0.221204	0.438995	0.125359	0.367791	0.229961	0.192986	0.142978	0.093477	0.337078	0.232240	0.136448	0.236375	0.490609	0.240540	0.240455	0.225891	0.827639	0.783324	0.157513	0.095051	0.057907	0.188110	0.160792	0.178202	0.814251	0.862262	0.200422	0.172346	0.224101	0.354393	0.152116	0.153294	0.453308	0.508188	0.265186	0.325253	0.277200	0.198732	0.179967	0.186751	0.930825	0.825386	0.101578	0.122314	0.334868	0.219445	0.728936	0.492969	0.354629	0.589625	0.177299	0.339624	0.100577	0.106397	0.130806	0.165410	0.661286	0.394855	0.152000	0.333966	0.331883	0.214855	0.481056	0.366910	0.617441	0.528674	0.066716	0.113035	0.428054	0.220145	0.200684	0.143377	0.470444	0.354957	0.151883	0.185851	0.031238	0.044237
101	0.803806	0.463802	0.266517	0.466923	0.116606	0.319018	0.234931	0.194318	0.138051	0.088295	0.392355	0.299752	0.146131	0.226637	0.526775	0.240268	0.229815	0.212865	0.643603	0.627452	0.194971	0.096985	0.053324	0.197729	0.162985	0.181151	0.818156	0.864303	0.204399	0.174569	0.150638	0.339519	0.152473	0.151628	0.451792	0.483562	0.270362	0.326507	0.264262	0.190592	0.187782	0.195913	0.908809	0.815417	0.090735	0.107628	0.328523	0.250183	0.807671	0.519870	0.359613	0.534297	0.164560	0.331796	0.098495	0.107130	0.130990	0.167356	0.651289	0.400029	0.159872	0.334899	0.327461	0.209098	0.478024	0.353664	0.603359	0.541078	0.071268	0.116210	0.426569	0.224885	0.183480	0.148938	0.478671	0.310516	0.151109	0.188852	0.031791	0.045184
