	305_At_T1_sh_ND_01.c3d	305_At_T1_sh_ND_01.c3d	305_At_T1_sh_ND_01.c3d	305_At_T1_sh_ND_01.c3d	305_At_T1_sh_ND_01.c3d	305_At_T1_sh_ND_01.c3d	305_At_T1_sh_ND_01.c3d	305_At_T1_sh_ND_01.c3d	305_At_T1_sh_ND_02.c3d	305_At_T1_sh_ND_02.c3d	305_At_T1_sh_ND_02.c3d	305_At_T1_sh_ND_02.c3d	305_At_T1_sh_ND_02.c3d	305_At_T1_sh_ND_02.c3d	305_At_T1_sh_ND_02.c3d	305_At_T1_sh_ND_02.c3d	305_At_T1_sh_ND_03.c3d	305_At_T1_sh_ND_03.c3d	305_At_T1_sh_ND_03.c3d	305_At_T1_sh_ND_03.c3d	305_At_T1_sh_ND_03.c3d	305_At_T1_sh_ND_03.c3d	305_At_T1_sh_ND_03.c3d	305_At_T1_sh_ND_03.c3d	305_At_T1_sh_ND_04.c3d	305_At_T1_sh_ND_04.c3d	305_At_T1_sh_ND_04.c3d	305_At_T1_sh_ND_04.c3d	305_At_T1_sh_ND_04.c3d	305_At_T1_sh_ND_04.c3d	305_At_T1_sh_ND_04.c3d	305_At_T1_sh_ND_04.c3d	305_At_T1_sh_ND_05.c3d	305_At_T1_sh_ND_05.c3d	305_At_T1_sh_ND_05.c3d	305_At_T1_sh_ND_05.c3d	305_At_T1_sh_ND_05.c3d	305_At_T1_sh_ND_05.c3d	305_At_T1_sh_ND_05.c3d	305_At_T1_sh_ND_05.c3d	305_At_T1_sh_ND_06.c3d	305_At_T1_sh_ND_06.c3d	305_At_T1_sh_ND_06.c3d	305_At_T1_sh_ND_06.c3d	305_At_T1_sh_ND_06.c3d	305_At_T1_sh_ND_06.c3d	305_At_T1_sh_ND_06.c3d	305_At_T1_sh_ND_06.c3d	305_At_T1_sh_ND_07.c3d	305_At_T1_sh_ND_07.c3d	305_At_T1_sh_ND_07.c3d	305_At_T1_sh_ND_07.c3d	305_At_T1_sh_ND_07.c3d	305_At_T1_sh_ND_07.c3d	305_At_T1_sh_ND_07.c3d	305_At_T1_sh_ND_07.c3d	305_At_T1_sh_ND_08.c3d	305_At_T1_sh_ND_08.c3d	305_At_T1_sh_ND_08.c3d	305_At_T1_sh_ND_08.c3d	305_At_T1_sh_ND_08.c3d	305_At_T1_sh_ND_08.c3d	305_At_T1_sh_ND_08.c3d	305_At_T1_sh_ND_08.c3d	305_At_T1_sh_ND_09.c3d	305_At_T1_sh_ND_09.c3d	305_At_T1_sh_ND_09.c3d	305_At_T1_sh_ND_09.c3d	305_At_T1_sh_ND_09.c3d	305_At_T1_sh_ND_09.c3d	305_At_T1_sh_ND_09.c3d	305_At_T1_sh_ND_09.c3d	305_At_T1_sh_ND_10.c3d	305_At_T1_sh_ND_10.c3d	305_At_T1_sh_ND_10.c3d	305_At_T1_sh_ND_10.c3d	305_At_T1_sh_ND_10.c3d	305_At_T1_sh_ND_10.c3d	305_At_T1_sh_ND_10.c3d	305_At_T1_sh_ND_10.c3d
	Biceps femoris_lat	Semitendinosus_lat	Vastus lateralis_lat	Vastus medialis_lat	Biceps femoris_med	Semitendinosus_med	Vastus lateralis_med	Vastus medialis_med	Biceps femoris_lat	Semitendinosus_lat	Vastus lateralis_lat	Vastus medialis_lat	Biceps femoris_med	Semitendinosus_med	Vastus lateralis_med	Vastus medialis_med	Biceps femoris_lat	Semitendinosus_lat	Vastus lateralis_lat	Vastus medialis_lat	Biceps femoris_med	Semitendinosus_med	Vastus lateralis_med	Vastus medialis_med	Biceps femoris_lat	Semitendinosus_lat	Vastus lateralis_lat	Vastus medialis_lat	Biceps femoris_med	Semitendinosus_med	Vastus lateralis_med	Vastus medialis_med	Biceps femoris_lat	Semitendinosus_lat	Vastus lateralis_lat	Vastus medialis_lat	Biceps femoris_med	Semitendinosus_med	Vastus lateralis_med	Vastus medialis_med	Biceps femoris_lat	Semitendinosus_lat	Vastus lateralis_lat	Vastus medialis_lat	Biceps femoris_med	Semitendinosus_med	Vastus lateralis_med	Vastus medialis_med	Biceps femoris_lat	Semitendinosus_lat	Vastus lateralis_lat	Vastus medialis_lat	Biceps femoris_med	Semitendinosus_med	Vastus lateralis_med	Vastus medialis_med	Biceps femoris_lat	Semitendinosus_lat	Vastus lateralis_lat	Vastus medialis_lat	Biceps femoris_med	Semitendinosus_med	Vastus lateralis_med	Vastus medialis_med	Biceps femoris_lat	Semitendinosus_lat	Vastus lateralis_lat	Vastus medialis_lat	Biceps femoris_med	Semitendinosus_med	Vastus lateralis_med	Vastus medialis_med	Biceps femoris_lat	Semitendinosus_lat	Vastus lateralis_lat	Vastus medialis_lat	Biceps femoris_med	Semitendinosus_med	Vastus lateralis_med	Vastus medialis_med
	P2D	P2D	P2D	P2D	P2D	P2D	P2D	P2D	P2D	P2D	P2D	P2D	P2D	P2D	P2D	P2D	P2D	P2D	P2D	P2D	P2D	P2D	P2D	P2D	P2D	P2D	P2D	P2D	P2D	P2D	P2D	P2D	P2D	P2D	P2D	P2D	P2D	P2D	P2D	P2D	P2D	P2D	P2D	P2D	P2D	P2D	P2D	P2D	P2D	P2D	P2D	P2D	P2D	P2D	P2D	P2D	P2D	P2D	P2D	P2D	P2D	P2D	P2D	P2D	P2D	P2D	P2D	P2D	P2D	P2D	P2D	P2D	P2D	P2D	P2D	P2D	P2D	P2D	P2D	P2D
	EMG_lat	EMG_lat	EMG_lat	EMG_lat	EMG_med	EMG_med	EMG_med	EMG_med	EMG_lat	EMG_lat	EMG_lat	EMG_lat	EMG_med	EMG_med	EMG_med	EMG_med	EMG_lat	EMG_lat	EMG_lat	EMG_lat	EMG_med	EMG_med	EMG_med	EMG_med	EMG_lat	EMG_lat	EMG_lat	EMG_lat	EMG_med	EMG_med	EMG_med	EMG_med	EMG_lat	EMG_lat	EMG_lat	EMG_lat	EMG_med	EMG_med	EMG_med	EMG_med	EMG_lat	EMG_lat	EMG_lat	EMG_lat	EMG_med	EMG_med	EMG_med	EMG_med	EMG_lat	EMG_lat	EMG_lat	EMG_lat	EMG_med	EMG_med	EMG_med	EMG_med	EMG_lat	EMG_lat	EMG_lat	EMG_lat	EMG_med	EMG_med	EMG_med	EMG_med	EMG_lat	EMG_lat	EMG_lat	EMG_lat	EMG_med	EMG_med	EMG_med	EMG_med	EMG_lat	EMG_lat	EMG_lat	EMG_lat	EMG_med	EMG_med	EMG_med	EMG_med
ITEM	Y	Y	Y	Y	Y	Y	Y	Y	Y	Y	Y	Y	Y	Y	Y	Y	Y	Y	Y	Y	Y	Y	Y	Y	Y	Y	Y	Y	Y	Y	Y	Y	Y	Y	Y	Y	Y	Y	Y	Y	Y	Y	Y	Y	Y	Y	Y	Y	Y	Y	Y	Y	Y	Y	Y	Y	Y	Y	Y	Y	Y	Y	Y	Y	Y	Y	Y	Y	Y	Y	Y	Y	Y	Y	Y	Y	Y	Y	Y	Y
1	0.149005	0.177113	0.126242	0.283853	0.054662	0.073185	0.357305	0.247077	0.147351	0.323629	0.140576	0.106307	0.115056	0.132079	0.223510	0.183821	0.022353	0.098452	0.170228	0.135700	0.031897	0.043569	0.232835	0.081343	0.065969	0.132406	0.203512	0.335800	0.030967	0.061223	0.258394	0.207967	0.042589	0.091041	0.324141	0.156567	0.074272	0.079956	0.477329	0.285988	0.098843	0.155500	0.201827	0.126019	0.068827	0.066778	0.145422	0.153447	0.024929	0.077699	0.165485	0.089572	0.094369	0.118625	0.154945	0.275437	0.058211	0.094919	0.283417	0.230268	0.045022	0.049446	0.155656	0.110780	0.091047	0.139098	0.221832	0.332054	0.088062	0.103501	0.215019	0.182200	0.059042	0.111896	0.244623	0.271856	0.046963	0.048035	0.324857	0.133193
2	0.152819	0.182337	0.197714	0.360484	0.055534	0.073001	0.350102	0.262610	0.147788	0.326571	0.134904	0.097209	0.109783	0.135438	0.257819	0.197564	0.023161	0.095873	0.158157	0.149857	0.034763	0.048455	0.236248	0.118982	0.067845	0.131107	0.203998	0.325324	0.032164	0.056602	0.260058	0.235084	0.042946	0.082140	0.335786	0.182833	0.077722	0.086887	0.491393	0.309565	0.086862	0.105078	0.231324	0.157343	0.068040	0.067649	0.141551	0.149776	0.023095	0.077755	0.141231	0.094673	0.098168	0.115158	0.127188	0.283904	0.056730	0.088726	0.262684	0.265320	0.049910	0.053959	0.168589	0.105318	0.110961	0.149701	0.220942	0.369669	0.090826	0.106570	0.214093	0.185870	0.042354	0.048123	0.245229	0.262275	0.043652	0.048190	0.312822	0.105841
3	0.161591	0.192398	0.236935	0.428933	0.056025	0.073880	0.342417	0.263050	0.145214	0.309457	0.139011	0.096361	0.110735	0.136345	0.276314	0.201443	0.025928	0.092259	0.156564	0.150697	0.034802	0.048659	0.236273	0.179047	0.068591	0.127818	0.231293	0.289138	0.035866	0.057719	0.264066	0.235943	0.042375	0.060756	0.341309	0.200487	0.079441	0.090722	0.506493	0.336408	0.082223	0.090377	0.236013	0.211398	0.067703	0.068164	0.130849	0.147344	0.020790	0.072267	0.139437	0.095631	0.098187	0.114766	0.130334	0.284791	0.055445	0.078067	0.250935	0.284138	0.049736	0.053516	0.176080	0.095098	0.118611	0.157169	0.216755	0.394092	0.089610	0.102903	0.213623	0.188411	0.040086	0.042658	0.243698	0.242146	0.042822	0.042020	0.340908	0.105807
4	0.166184	0.197994	0.257192	0.469026	0.056560	0.074910	0.345983	0.259264	0.141771	0.305312	0.180859	0.123518	0.107716	0.128749	0.276198	0.196070	0.027369	0.080964	0.155876	0.142244	0.035355	0.047834	0.237240	0.192721	0.063368	0.108974	0.248456	0.242229	0.040470	0.058279	0.269033	0.240726	0.036850	0.049126	0.337303	0.209690	0.083740	0.098619	0.522046	0.357401	0.082807	0.096151	0.232230	0.226907	0.065201	0.065794	0.135375	0.146237	0.026298	0.060409	0.134978	0.102285	0.094395	0.111921	0.133615	0.268599	0.060493	0.074003	0.258059	0.282180	0.048832	0.052682	0.157131	0.101739	0.120562	0.157269	0.212785	0.390511	0.082412	0.089772	0.207582	0.164546	0.031241	0.043894	0.233828	0.207892	0.048742	0.058327	0.388347	0.162151
5	0.165912	0.198467	0.274263	0.468964	0.056231	0.073333	0.339591	0.247880	0.118866	0.267044	0.181915	0.134832	0.105708	0.123564	0.263080	0.217809	0.026444	0.049645	0.139112	0.126648	0.037908	0.048437	0.234615	0.186654	0.047662	0.079039	0.255909	0.213594	0.037429	0.049508	0.280617	0.245211	0.033581	0.045111	0.334941	0.212318	0.091572	0.111619	0.534872	0.374038	0.084561	0.102008	0.232218	0.221982	0.064917	0.066753	0.140605	0.141658	0.031583	0.059005	0.133853	0.101543	0.083908	0.094669	0.144977	0.246644	0.063276	0.072902	0.272600	0.281835	0.050068	0.052881	0.151670	0.110896	0.119342	0.151147	0.212672	0.370717	0.070671	0.074780	0.205479	0.124158	0.031014	0.043504	0.230814	0.160371	0.063459	0.083480	0.405442	0.235900
6	0.150982	0.182410	0.354130	0.478249	0.054811	0.069817	0.338563	0.238309	0.073672	0.172307	0.192825	0.136250	0.105179	0.123291	0.264169	0.299354	0.024800	0.038407	0.118840	0.135595	0.042725	0.056818	0.222228	0.191993	0.043730	0.066819	0.264766	0.196685	0.037383	0.048759	0.308235	0.241410	0.036216	0.049943	0.335291	0.214690	0.094547	0.113697	0.533870	0.382700	0.085379	0.104681	0.258609	0.220854	0.063779	0.066733	0.133988	0.140458	0.032820	0.061576	0.145772	0.113986	0.078253	0.082443	0.162867	0.246875	0.060633	0.070995	0.314081	0.288857	0.052416	0.056531	0.188124	0.133111	0.118510	0.146920	0.207027	0.346316	0.068638	0.073938	0.202962	0.116898	0.029950	0.043134	0.233795	0.124295	0.071211	0.104971	0.408107	0.284136
7	0.122801	0.148659	0.420056	0.513642	0.054648	0.067598	0.335945	0.267260	0.040834	0.128824	0.187926	0.159148	0.108929	0.127381	0.278554	0.380675	0.034112	0.052404	0.175688	0.184594	0.051049	0.072415	0.213281	0.196988	0.043553	0.063136	0.278151	0.207768	0.037853	0.045794	0.361112	0.243038	0.038791	0.053000	0.326555	0.214693	0.092844	0.111199	0.499057	0.377035	0.079938	0.099562	0.298951	0.232895	0.060895	0.065829	0.144274	0.140450	0.037964	0.064610	0.148309	0.160379	0.079882	0.082446	0.209385	0.278048	0.058239	0.071368	0.380053	0.305670	0.058336	0.065713	0.241505	0.162255	0.116822	0.143324	0.190341	0.323596	0.068865	0.073594	0.182165	0.118839	0.032483	0.041171	0.212784	0.115035	0.073898	0.123265	0.398598	0.296694
8	0.108935	0.136424	0.455902	0.541713	0.055992	0.068097	0.325663	0.298488	0.044508	0.126674	0.174328	0.168791	0.114872	0.126319	0.278347	0.401717	0.047414	0.075535	0.193212	0.232733	0.054304	0.079072	0.215653	0.207441	0.041564	0.062218	0.277064	0.215175	0.039727	0.044278	0.409575	0.249655	0.039315	0.056517	0.302346	0.213438	0.088413	0.109590	0.423884	0.347471	0.071725	0.091383	0.314160	0.253521	0.058206	0.062889	0.215828	0.155321	0.049633	0.071847	0.141272	0.204934	0.085326	0.094153	0.232479	0.331574	0.061927	0.078854	0.417131	0.331223	0.062271	0.074651	0.264631	0.171328	0.116314	0.141828	0.209604	0.334532	0.069306	0.077248	0.161242	0.129914	0.036117	0.041592	0.184999	0.111834	0.074958	0.133351	0.382981	0.294620
9	0.104665	0.134589	0.457217	0.554723	0.056164	0.066852	0.340134	0.309075	0.060899	0.131048	0.160338	0.166686	0.113530	0.115417	0.272327	0.395687	0.055930	0.085516	0.197303	0.242018	0.055357	0.080876	0.226271	0.220742	0.037630	0.055061	0.267536	0.183384	0.040754	0.043843	0.478587	0.283017	0.045017	0.062046	0.286851	0.210526	0.081578	0.107847	0.380312	0.361737	0.066650	0.085499	0.315587	0.261515	0.059447	0.062180	0.277870	0.193419	0.054534	0.073800	0.133608	0.222164	0.086020	0.105372	0.235112	0.355050	0.073817	0.094983	0.432643	0.356223	0.061161	0.074526	0.264875	0.171026	0.118593	0.145055	0.189263	0.359271	0.059842	0.071189	0.161702	0.136165	0.040017	0.043112	0.153505	0.112659	0.074877	0.134630	0.356902	0.296088
10	0.105744	0.135277	0.449160	0.547397	0.055311	0.065236	0.367458	0.300935	0.065206	0.138981	0.159582	0.164337	0.103030	0.099961	0.271045	0.413826	0.060849	0.091723	0.209497	0.247356	0.056019	0.082265	0.204406	0.226678	0.035232	0.047999	0.266098	0.163531	0.049571	0.047929	0.504461	0.348642	0.049979	0.063720	0.287295	0.206795	0.079767	0.111018	0.407423	0.444624	0.074477	0.092557	0.318027	0.262189	0.062784	0.065472	0.307163	0.217432	0.055135	0.071669	0.135283	0.223566	0.081550	0.110559	0.233335	0.355000	0.080445	0.101183	0.430682	0.371557	0.061044	0.075288	0.269709	0.174122	0.118442	0.144875	0.173887	0.376128	0.054793	0.066877	0.142531	0.140487	0.044989	0.046453	0.181640	0.115240	0.082301	0.157434	0.365495	0.320395
11	0.095122	0.122784	0.421251	0.473171	0.050214	0.060533	0.354956	0.295708	0.063585	0.134481	0.161609	0.157233	0.097457	0.101877	0.269535	0.445049	0.060446	0.091277	0.221795	0.265662	0.054093	0.078891	0.180381	0.227800	0.028949	0.039641	0.277299	0.192453	0.050107	0.048198	0.479767	0.364483	0.054776	0.064748	0.292095	0.204023	0.085693	0.120159	0.457848	0.520595	0.079806	0.098505	0.335396	0.275805	0.062214	0.062030	0.311798	0.221164	0.057373	0.068640	0.131976	0.225521	0.078586	0.110679	0.232900	0.341930	0.081168	0.101749	0.425385	0.378498	0.059884	0.076190	0.294400	0.189304	0.107945	0.128523	0.172355	0.352702	0.053026	0.066162	0.125026	0.141106	0.054130	0.057134	0.230666	0.140047	0.089611	0.184640	0.400931	0.365163
12	0.080743	0.106706	0.405197	0.418202	0.042627	0.052166	0.271841	0.284074	0.060648	0.122198	0.164605	0.152369	0.108496	0.127384	0.284330	0.474208	0.062599	0.095233	0.238836	0.286653	0.053007	0.074991	0.159664	0.229828	0.026669	0.037288	0.291348	0.227216	0.063604	0.071780	0.482135	0.361661	0.058400	0.066086	0.291361	0.204599	0.097136	0.135384	0.485596	0.555086	0.077256	0.103728	0.319035	0.296610	0.061388	0.059421	0.308629	0.220511	0.059177	0.068318	0.127603	0.231880	0.072568	0.104922	0.237875	0.326322	0.080991	0.100932	0.421805	0.379656	0.058824	0.077162	0.335718	0.216078	0.077641	0.092529	0.172503	0.315785	0.053192	0.067513	0.126215	0.142754	0.067697	0.076667	0.243603	0.215674	0.096120	0.203735	0.408676	0.410359
13	0.076312	0.106306	0.419468	0.383320	0.036037	0.044691	0.247868	0.251311	0.059106	0.109515	0.182704	0.154121	0.118975	0.147139	0.315185	0.491212	0.068827	0.103203	0.245841	0.308109	0.052424	0.074188	0.156919	0.232576	0.024829	0.037404	0.283119	0.251402	0.074756	0.089381	0.558857	0.382797	0.058752	0.065086	0.271893	0.203402	0.108285	0.148008	0.475415	0.553552	0.071500	0.107037	0.295043	0.295662	0.061042	0.058969	0.332418	0.228104	0.063142	0.075144	0.147518	0.238339	0.067965	0.102199	0.254689	0.319612	0.080805	0.100298	0.439060	0.367979	0.059812	0.079342	0.363803	0.242694	0.059681	0.074630	0.172035	0.300618	0.051286	0.065846	0.121516	0.141370	0.084290	0.100640	0.243770	0.294644	0.100786	0.214126	0.408606	0.432346
14	0.079315	0.118503	0.402272	0.388660	0.035285	0.044723	0.255565	0.244229	0.059166	0.107196	0.197778	0.152445	0.115203	0.143223	0.301001	0.499060	0.069561	0.105591	0.247417	0.323092	0.050160	0.071237	0.149597	0.226987	0.023187	0.035732	0.263349	0.261289	0.081149	0.103926	0.630787	0.410047	0.058420	0.065350	0.251383	0.193622	0.109486	0.148312	0.450269	0.552905	0.072438	0.104834	0.283537	0.258279	0.065101	0.063783	0.406430	0.253845	0.081798	0.101904	0.211364	0.255164	0.061246	0.096730	0.262039	0.313102	0.080111	0.098866	0.469032	0.351125	0.058231	0.077539	0.370828	0.261430	0.053176	0.067571	0.169652	0.306729	0.049296	0.063729	0.117542	0.135376	0.101259	0.126640	0.244056	0.345116	0.103139	0.217523	0.408171	0.437355
15	0.084879	0.125990	0.319503	0.346131	0.036454	0.046841	0.290150	0.299127	0.061089	0.109539	0.174280	0.124771	0.110756	0.139823	0.267370	0.497758	0.070355	0.107187	0.246167	0.326778	0.049759	0.069894	0.148568	0.184916	0.023076	0.034314	0.255750	0.263205	0.089488	0.118996	0.677886	0.449683	0.057737	0.065575	0.242778	0.178742	0.112277	0.147638	0.447619	0.575068	0.071057	0.093036	0.302819	0.239131	0.064617	0.062961	0.458025	0.295304	0.099147	0.125509	0.233416	0.283432	0.061020	0.095863	0.261238	0.311251	0.079588	0.099242	0.505265	0.338792	0.051614	0.071740	0.363768	0.264311	0.054381	0.067805	0.168065	0.311803	0.052632	0.066804	0.128655	0.138090	0.114716	0.145076	0.245037	0.375583	0.104083	0.217653	0.403024	0.437778
16	0.079670	0.120480	0.251108	0.259313	0.045148	0.055969	0.338651	0.384669	0.064489	0.110405	0.177914	0.115724	0.111794	0.140497	0.261314	0.497940	0.070805	0.108277	0.241946	0.321448	0.049855	0.070739	0.151537	0.157495	0.021148	0.030426	0.257287	0.263279	0.095668	0.124794	0.699875	0.489398	0.057892	0.068156	0.225619	0.173501	0.124191	0.154275	0.446523	0.613912	0.070542	0.085766	0.335484	0.255469	0.064669	0.067231	0.468254	0.333307	0.109026	0.141044	0.236544	0.314282	0.062482	0.096038	0.261908	0.314100	0.079476	0.100566	0.536424	0.316965	0.050797	0.072048	0.356457	0.263988	0.054202	0.068639	0.207140	0.315850	0.052084	0.065274	0.146713	0.141224	0.121301	0.153588	0.253959	0.382515	0.103731	0.217202	0.351704	0.434429
17	0.074852	0.113429	0.191893	0.190964	0.054466	0.067849	0.356385	0.431418	0.067038	0.112915	0.179737	0.106271	0.110946	0.139093	0.261177	0.493618	0.069567	0.106546	0.206518	0.303571	0.048762	0.072428	0.154336	0.157815	0.018510	0.025149	0.235244	0.267301	0.094868	0.122929	0.701743	0.511547	0.060288	0.076367	0.211428	0.166760	0.121952	0.149981	0.457074	0.652300	0.067773	0.080469	0.347377	0.281573	0.065416	0.073520	0.468306	0.360657	0.112919	0.145641	0.237916	0.339092	0.063529	0.096948	0.259576	0.315800	0.075384	0.098665	0.547583	0.299977	0.050522	0.071828	0.353064	0.262638	0.049947	0.064940	0.288258	0.340375	0.051246	0.063598	0.149369	0.143074	0.123338	0.154589	0.257708	0.384852	0.098816	0.211646	0.307524	0.411061
18	0.074957	0.115033	0.219047	0.165873	0.056726	0.071399	0.347314	0.423541	0.066698	0.110747	0.204202	0.069984	0.109617	0.137626	0.256930	0.456109	0.062108	0.092402	0.176844	0.261107	0.046195	0.070508	0.157156	0.150619	0.019928	0.026794	0.189127	0.281463	0.094976	0.122432	0.697320	0.520014	0.063635	0.089502	0.200266	0.156152	0.117296	0.144114	0.453348	0.671087	0.065629	0.078661	0.319905	0.284435	0.064891	0.074515	0.465919	0.372399	0.114204	0.146412	0.237914	0.352697	0.070052	0.100345	0.253050	0.315051	0.067293	0.095692	0.538365	0.299413	0.046809	0.069920	0.352886	0.258433	0.041406	0.054575	0.319296	0.361747	0.051582	0.063678	0.149302	0.145731	0.124116	0.159980	0.272166	0.411378	0.091641	0.204336	0.294377	0.372729
19	0.073890	0.114967	0.233897	0.196615	0.063619	0.076087	0.375456	0.416984	0.057780	0.099527	0.234824	0.072981	0.107657	0.136128	0.235593	0.388076	0.053845	0.081586	0.177951	0.246168	0.037445	0.057416	0.160219	0.144879	0.024469	0.032050	0.174308	0.290953	0.094977	0.122805	0.687009	0.521996	0.087150	0.134708	0.187561	0.146171	0.117642	0.142808	0.450788	0.677163	0.066097	0.080568	0.302984	0.268510	0.064696	0.073906	0.464864	0.372474	0.114405	0.146435	0.237190	0.357518	0.076483	0.102027	0.222504	0.295231	0.063213	0.095182	0.523651	0.309372	0.045441	0.071470	0.343847	0.250443	0.032675	0.038517	0.311215	0.360252	0.050302	0.062275	0.148851	0.146781	0.161025	0.221149	0.292401	0.475522	0.088698	0.196228	0.297564	0.349618
20	0.080282	0.125927	0.231918	0.210974	0.078921	0.090611	0.502559	0.469605	0.041429	0.073194	0.257960	0.094076	0.101306	0.131566	0.212577	0.340567	0.046909	0.073384	0.164225	0.247001	0.041019	0.057820	0.159356	0.140931	0.033406	0.044036	0.200449	0.312588	0.095317	0.124305	0.661312	0.519235	0.133395	0.186951	0.183450	0.148576	0.117993	0.143630	0.450486	0.678806	0.068044	0.083895	0.302205	0.256265	0.063553	0.073553	0.464574	0.370663	0.114267	0.146041	0.230081	0.351221	0.078902	0.096810	0.195444	0.242713	0.062942	0.095613	0.496968	0.318639	0.041364	0.072239	0.312909	0.234107	0.032316	0.038691	0.320275	0.324521	0.045374	0.055816	0.147225	0.147645	0.277854	0.370419	0.307527	0.545256	0.088408	0.188078	0.303423	0.351802
21	0.083783	0.130678	0.214895	0.230821	0.086150	0.095062	0.575390	0.559712	0.036037	0.061826	0.264530	0.105126	0.097703	0.130404	0.196395	0.337195	0.045778	0.071816	0.153645	0.242575	0.047971	0.065363	0.138389	0.127124	0.047452	0.060878	0.208663	0.319266	0.095009	0.125231	0.635405	0.515662	0.178159	0.235055	0.185286	0.162281	0.117645	0.143752	0.446809	0.670543	0.060400	0.076918	0.301573	0.256120	0.062227	0.073623	0.448971	0.363469	0.112243	0.144251	0.226502	0.331323	0.074621	0.084695	0.192418	0.205011	0.061525	0.091999	0.455661	0.313267	0.030482	0.067178	0.280418	0.219299	0.034265	0.044543	0.354506	0.319960	0.039022	0.046861	0.166668	0.167949	0.403740	0.520319	0.322643	0.590652	0.087434	0.184681	0.308150	0.365332
22	0.083749	0.131083	0.169638	0.250762	0.087860	0.092583	0.579517	0.614119	0.036242	0.063215	0.263722	0.105761	0.098314	0.132154	0.193072	0.324109	0.044848	0.068283	0.131298	0.253982	0.050853	0.071410	0.133436	0.115935	0.051799	0.066553	0.199400	0.293549	0.095096	0.126330	0.587609	0.502415	0.229310	0.277190	0.186156	0.177554	0.117548	0.143647	0.438687	0.634993	0.048449	0.067310	0.289436	0.247864	0.060218	0.073563	0.410705	0.345559	0.107630	0.141347	0.234498	0.307608	0.069350	0.071647	0.192763	0.196499	0.057467	0.084543	0.431572	0.292799	0.027077	0.063522	0.272977	0.216759	0.042020	0.051737	0.394387	0.351709	0.035610	0.040541	0.196938	0.202899	0.516389	0.639613	0.327061	0.617006	0.087609	0.183594	0.305154	0.380423
23	0.077832	0.125999	0.191045	0.260288	0.088008	0.091253	0.579180	0.629908	0.036539	0.062850	0.275520	0.121768	0.100320	0.137416	0.192581	0.283176	0.035151	0.055098	0.106440	0.247248	0.051325	0.073011	0.137790	0.111809	0.051164	0.065434	0.184709	0.272085	0.092590	0.129024	0.560664	0.462510	0.287817	0.299269	0.176816	0.191988	0.115259	0.140893	0.387165	0.574663	0.041367	0.057728	0.271086	0.224692	0.057232	0.072241	0.381051	0.322393	0.105822	0.142528	0.264513	0.300782	0.068284	0.066749	0.178270	0.196276	0.041365	0.063829	0.417862	0.268542	0.026764	0.064871	0.272239	0.215658	0.051539	0.057538	0.402034	0.375721	0.037178	0.040881	0.226469	0.216326	0.603217	0.701532	0.309521	0.630098	0.078278	0.158877	0.255696	0.372089
24	0.071958	0.121376	0.229242	0.373063	0.087818	0.092351	0.578658	0.631274	0.039627	0.065244	0.264128	0.169380	0.094526	0.130881	0.185995	0.225770	0.029102	0.051371	0.111892	0.226032	0.047097	0.072456	0.131175	0.121349	0.049641	0.062695	0.187773	0.266452	0.093811	0.132775	0.560980	0.449723	0.330582	0.300504	0.154271	0.200127	0.110251	0.135617	0.328662	0.513341	0.036454	0.049053	0.265881	0.206685	0.056653	0.074363	0.368813	0.315326	0.106151	0.145787	0.285727	0.308791	0.068363	0.066537	0.160673	0.192017	0.029622	0.051197	0.402322	0.251884	0.026931	0.064899	0.255779	0.205007	0.054159	0.056795	0.401749	0.381557	0.043350	0.048288	0.235767	0.217167	0.664196	0.720455	0.274209	0.632390	0.067245	0.126198	0.190559	0.327885
25	0.082342	0.133090	0.331255	0.455553	0.087745	0.096036	0.581165	0.634481	0.040285	0.067468	0.246326	0.202141	0.080986	0.113682	0.115541	0.167641	0.028311	0.051858	0.126388	0.249179	0.047299	0.072229	0.113014	0.131804	0.062545	0.076457	0.192004	0.288443	0.087313	0.125134	0.541459	0.456828	0.351102	0.300240	0.142471	0.201634	0.100080	0.122115	0.291958	0.489747	0.034203	0.044027	0.264596	0.207679	0.057543	0.077817	0.369189	0.316863	0.104845	0.148004	0.308466	0.327614	0.068373	0.064691	0.141523	0.178210	0.028423	0.050698	0.400365	0.243485	0.026293	0.062715	0.210227	0.180671	0.052833	0.057326	0.414686	0.375280	0.045611	0.050315	0.236458	0.212303	0.682471	0.720394	0.264811	0.614418	0.055378	0.095468	0.175441	0.272735
26	0.081674	0.129318	0.380875	0.504579	0.089755	0.102247	0.601673	0.665474	0.037817	0.077743	0.245727	0.207332	0.066991	0.096495	0.044697	0.108094	0.031062	0.095026	0.139403	0.266648	0.050165	0.077540	0.136434	0.144992	0.072948	0.088277	0.228258	0.323258	0.077964	0.116606	0.462564	0.447778	0.352396	0.305316	0.136555	0.202471	0.089492	0.110648	0.281986	0.496160	0.032820	0.042748	0.248796	0.201484	0.057800	0.081704	0.362066	0.314435	0.105529	0.151733	0.339216	0.376004	0.067334	0.064545	0.150671	0.191367	0.028458	0.053380	0.411422	0.250969	0.024994	0.062575	0.142298	0.147592	0.053567	0.064546	0.423487	0.388123	0.042557	0.047250	0.246960	0.210923	0.681682	0.733106	0.282760	0.579475	0.045734	0.074296	0.178989	0.243487
27	0.080276	0.125163	0.365370	0.520699	0.090583	0.101845	0.601625	0.689039	0.033304	0.085894	0.242176	0.208362	0.055582	0.089120	0.067259	0.080621	0.044288	0.143707	0.142609	0.265955	0.053687	0.081439	0.180116	0.169717	0.075930	0.090558	0.266950	0.352739	0.071981	0.107941	0.358632	0.405809	0.365877	0.334174	0.135157	0.206437	0.086750	0.109849	0.273149	0.503539	0.028657	0.038046	0.202895	0.178267	0.046747	0.079786	0.305857	0.302262	0.105799	0.154163	0.346622	0.439525	0.067052	0.065338	0.171338	0.236190	0.028155	0.053063	0.400332	0.266784	0.022188	0.066972	0.087709	0.105983	0.061331	0.080386	0.380344	0.396565	0.038769	0.043605	0.255191	0.228584	0.701729	0.780465	0.336218	0.560064	0.040853	0.071170	0.191489	0.236907
28	0.079330	0.124950	0.357576	0.511587	0.089223	0.099547	0.591809	0.684850	0.029569	0.081260	0.228646	0.220241	0.050054	0.087847	0.085883	0.101205	0.044720	0.144392	0.176691	0.265464	0.054892	0.081236	0.202983	0.184805	0.078874	0.092374	0.277049	0.353496	0.065347	0.099234	0.262943	0.356736	0.446796	0.398924	0.136184	0.207133	0.074633	0.102326	0.245877	0.494685	0.035094	0.037942	0.166185	0.129949	0.042780	0.084470	0.196406	0.271739	0.097004	0.146690	0.310026	0.464554	0.067287	0.066707	0.185942	0.259389	0.028216	0.052615	0.366045	0.271927	0.024949	0.080156	0.083863	0.082465	0.074947	0.102528	0.326848	0.392982	0.039549	0.045807	0.262800	0.254184	0.843296	0.902943	0.375482	0.566689	0.039130	0.071968	0.215706	0.238121
29	0.073398	0.118627	0.364378	0.512627	0.089052	0.096374	0.601726	0.682479	0.048625	0.104315	0.204820	0.226540	0.053086	0.109864	0.101013	0.124046	0.044596	0.147681	0.221887	0.270461	0.056902	0.082336	0.211721	0.191518	0.079869	0.094486	0.277814	0.338326	0.058861	0.093855	0.207938	0.324030	0.492801	0.430483	0.114152	0.204038	0.056323	0.092124	0.202326	0.455589	0.035352	0.041418	0.207386	0.091477	0.042756	0.087740	0.115098	0.228940	0.088621	0.136049	0.300493	0.452279	0.069965	0.067859	0.195583	0.272408	0.028305	0.050714	0.312761	0.265720	0.028265	0.092536	0.087106	0.088800	0.087324	0.125422	0.323744	0.376037	0.039781	0.046104	0.269421	0.266678	1.000393	1.008881	0.401138	0.588275	0.039178	0.074116	0.226820	0.244201
30	0.073910	0.121969	0.405775	0.559421	0.088901	0.095358	0.610612	0.690771	0.062226	0.141696	0.196083	0.223689	0.057347	0.135236	0.109664	0.133559	0.045679	0.148182	0.229840	0.284115	0.061871	0.088637	0.214926	0.195205	0.078360	0.092345	0.295543	0.359463	0.061932	0.093319	0.214440	0.305788	0.510170	0.441568	0.099011	0.192500	0.053372	0.087594	0.132057	0.400639	0.035846	0.050758	0.275469	0.094945	0.041201	0.087263	0.111562	0.196436	0.086529	0.125743	0.308096	0.430974	0.064241	0.062875	0.197407	0.273342	0.029015	0.047369	0.259075	0.261178	0.030145	0.096323	0.085350	0.105115	0.091956	0.133192	0.334200	0.371704	0.039400	0.045776	0.270204	0.270690	1.053981	1.041328	0.468776	0.624528	0.038798	0.076654	0.225825	0.255323
31	0.073006	0.121684	0.508738	0.619556	0.080678	0.091697	0.576249	0.677622	0.063674	0.147229	0.302706	0.239529	0.058896	0.147499	0.123334	0.150388	0.046532	0.149463	0.231025	0.281663	0.063621	0.092532	0.212282	0.194681	0.075470	0.086711	0.325163	0.387633	0.065459	0.093377	0.228257	0.304786	0.517364	0.443340	0.092987	0.178220	0.050479	0.083133	0.146417	0.366804	0.034662	0.054915	0.284371	0.178181	0.039881	0.084013	0.127185	0.187812	0.083511	0.120416	0.318364	0.416169	0.052543	0.053137	0.191333	0.267580	0.028766	0.044708	0.258684	0.259802	0.032533	0.099808	0.091094	0.112939	0.092778	0.133113	0.311223	0.374309	0.039816	0.045604	0.267176	0.269051	1.075065	1.054421	0.516228	0.659675	0.037512	0.075116	0.217833	0.265200
32	0.093933	0.143537	0.646496	0.677969	0.066230	0.086066	0.454476	0.619588	0.069763	0.147169	0.417871	0.309517	0.063783	0.152971	0.139212	0.207976	0.046072	0.150384	0.232995	0.249446	0.061348	0.090135	0.213349	0.190903	0.073147	0.079561	0.331436	0.395458	0.067889	0.093147	0.234428	0.307729	0.520939	0.443834	0.112315	0.173907	0.045800	0.083762	0.176244	0.355150	0.039403	0.060266	0.287443	0.234468	0.040696	0.084772	0.140930	0.204154	0.080336	0.117727	0.336388	0.408981	0.036814	0.037330	0.194517	0.267834	0.031832	0.045474	0.293272	0.260601	0.035148	0.100527	0.096083	0.114556	0.090010	0.131481	0.268898	0.362824	0.040231	0.045993	0.257651	0.262544	1.082867	1.053035	0.516197	0.653075	0.035827	0.071336	0.207625	0.271889
33	0.118795	0.168151	0.682225	0.669892	0.057183	0.085877	0.363323	0.538877	0.083124	0.151613	0.448190	0.354709	0.065568	0.156038	0.140776	0.266188	0.045688	0.151931	0.253771	0.217910	0.053375	0.084065	0.215756	0.189020	0.074215	0.079715	0.330675	0.403735	0.067375	0.091499	0.234388	0.308219	0.521665	0.439666	0.128467	0.200958	0.050407	0.093694	0.178086	0.356237	0.040022	0.060717	0.282592	0.241029	0.041269	0.086961	0.148380	0.217047	0.079512	0.118416	0.345533	0.405907	0.034015	0.034950	0.205311	0.273606	0.039560	0.049988	0.313385	0.263010	0.034411	0.096961	0.097220	0.115640	0.084428	0.129476	0.248938	0.327084	0.039714	0.048697	0.239779	0.240680	1.064953	1.015767	0.506042	0.615965	0.031707	0.066234	0.198349	0.271122
34	0.121428	0.164975	0.643400	0.640738	0.061067	0.105936	0.351792	0.504102	0.090767	0.155063	0.443973	0.349641	0.065192	0.162918	0.146469	0.279338	0.046414	0.151252	0.259811	0.250169	0.050363	0.080474	0.215291	0.192101	0.074697	0.079978	0.333456	0.409107	0.068699	0.092723	0.230565	0.311176	0.514651	0.424555	0.156844	0.248753	0.052528	0.096574	0.177441	0.370110	0.041283	0.061032	0.282131	0.242284	0.041403	0.089352	0.149800	0.219201	0.079250	0.118339	0.346214	0.406536	0.035720	0.035444	0.220528	0.284429	0.040477	0.049368	0.310804	0.266020	0.033318	0.092223	0.097592	0.115960	0.081993	0.129154	0.350329	0.297140	0.039950	0.053517	0.214396	0.214387	1.025366	0.949299	0.537038	0.581224	0.028970	0.061818	0.185330	0.256723
35	0.121722	0.166406	0.707091	0.625149	0.069594	0.117894	0.372974	0.523491	0.090482	0.155621	0.471433	0.346164	0.062400	0.161729	0.146605	0.279836	0.051125	0.152547	0.273855	0.235587	0.048933	0.077389	0.220883	0.194515	0.074534	0.078941	0.334681	0.396398	0.077914	0.103836	0.225545	0.324298	0.503397	0.400548	0.208213	0.303419	0.053242	0.096760	0.178080	0.389576	0.041652	0.061825	0.283201	0.268446	0.042536	0.092779	0.149888	0.218567	0.082539	0.120483	0.348379	0.407181	0.037663	0.037200	0.236301	0.293148	0.040526	0.051879	0.301391	0.259179	0.033895	0.090600	0.100448	0.116478	0.081821	0.129226	0.404098	0.289869	0.037128	0.054602	0.186512	0.218189	0.974101	0.872886	0.597264	0.553705	0.026163	0.059195	0.162654	0.220042
36	0.144491	0.202126	0.801955	0.691222	0.071281	0.116768	0.413841	0.557602	0.104823	0.166709	0.570410	0.399377	0.058551	0.162825	0.147516	0.291547	0.050706	0.142707	0.278643	0.242056	0.049202	0.077533	0.239920	0.198427	0.066919	0.063772	0.363328	0.380523	0.085924	0.111052	0.226478	0.347034	0.496489	0.375857	0.216497	0.355778	0.050925	0.093384	0.183488	0.409953	0.054133	0.078286	0.307527	0.309127	0.045326	0.098414	0.151734	0.221177	0.084094	0.121712	0.354476	0.406085	0.038688	0.037762	0.240563	0.297319	0.041582	0.058397	0.319191	0.257111	0.034712	0.093225	0.109186	0.116143	0.092207	0.141717	0.380537	0.298009	0.029076	0.046064	0.227366	0.252583	0.922397	0.821517	0.626624	0.539192	0.026241	0.058298	0.151607	0.196242
37	0.170088	0.235412	0.854703	0.787638	0.073505	0.113313	0.435112	0.577192	0.117178	0.171240	0.669749	0.480707	0.059454	0.165502	0.154788	0.318010	0.037233	0.074381	0.290012	0.282658	0.049253	0.077848	0.263254	0.229475	0.070193	0.067872	0.415015	0.375744	0.090370	0.114591	0.230039	0.373362	0.475702	0.354743	0.216396	0.383105	0.048484	0.087324	0.212680	0.428867	0.068518	0.098405	0.357473	0.320849	0.053943	0.109987	0.152516	0.226251	0.083628	0.119291	0.331266	0.402089	0.038893	0.037929	0.234787	0.294758	0.045099	0.067813	0.372431	0.320767	0.038040	0.097259	0.126367	0.114487	0.098668	0.147466	0.372796	0.282629	0.027077	0.043619	0.268199	0.281422	0.878587	0.804175	0.627683	0.537063	0.026910	0.057187	0.149747	0.191890
38	0.182723	0.250751	0.865357	0.824781	0.072192	0.108028	0.414106	0.545001	0.120812	0.168924	0.758732	0.530845	0.068821	0.174607	0.187811	0.352277	0.047704	0.078449	0.278446	0.284741	0.052801	0.078513	0.279581	0.278647	0.069567	0.071567	0.516528	0.381440	0.093691	0.118541	0.234594	0.393090	0.447848	0.351328	0.216362	0.385436	0.048560	0.083175	0.252374	0.440736	0.075132	0.109260	0.376901	0.323654	0.060135	0.119628	0.151166	0.232431	0.083063	0.115641	0.316195	0.401624	0.038891	0.038196	0.220018	0.280945	0.058883	0.084969	0.393078	0.431421	0.041944	0.100629	0.146636	0.114538	0.092937	0.137650	0.386244	0.268620	0.030531	0.043994	0.290110	0.286549	0.862383	0.806389	0.646184	0.540186	0.026698	0.057552	0.149059	0.192201
39	0.185560	0.251130	0.839737	0.787608	0.069158	0.107717	0.388973	0.484745	0.120531	0.166773	0.781923	0.545137	0.082142	0.185805	0.218389	0.387750	0.052555	0.084152	0.264061	0.282000	0.057061	0.081337	0.278769	0.323787	0.070108	0.072515	0.520741	0.438111	0.094568	0.117252	0.247704	0.402306	0.426688	0.351517	0.216739	0.390681	0.047187	0.077233	0.271556	0.442517	0.072349	0.109622	0.373473	0.352392	0.066840	0.126465	0.152531	0.240781	0.082608	0.112187	0.303805	0.404807	0.037884	0.037164	0.203945	0.240858	0.075469	0.100324	0.393470	0.546897	0.042161	0.100961	0.152990	0.123384	0.081809	0.120335	0.393449	0.268150	0.032191	0.044967	0.275618	0.283096	0.864423	0.800861	0.703159	0.542002	0.028150	0.071920	0.143593	0.196968
40	0.181612	0.242893	0.770631	0.735262	0.065761	0.114781	0.364218	0.434810	0.112472	0.145458	0.792346	0.545389	0.096865	0.202165	0.227959	0.409068	0.053162	0.085883	0.379398	0.267155	0.061522	0.090023	0.264324	0.349934	0.073582	0.072045	0.531564	0.431570	0.093638	0.113651	0.263177	0.400876	0.422586	0.348407	0.222613	0.398889	0.045945	0.073433	0.281198	0.415709	0.074047	0.109912	0.371149	0.400755	0.071591	0.128992	0.156567	0.248602	0.081810	0.108784	0.277081	0.384438	0.035329	0.034633	0.188083	0.210833	0.091314	0.114382	0.380754	0.602639	0.043614	0.098632	0.151542	0.145074	0.075798	0.110166	0.382554	0.276122	0.030866	0.042378	0.286750	0.266389	0.853419	0.761115	0.702653	0.533269	0.040302	0.107592	0.130795	0.211183
41	0.168110	0.224962	0.672843	0.658937	0.064512	0.130588	0.336130	0.411236	0.110842	0.126660	0.856143	0.581335	0.108210	0.213115	0.231012	0.411442	0.053732	0.082980	0.422979	0.256137	0.062821	0.093823	0.254214	0.353345	0.077555	0.084188	0.569914	0.444283	0.091484	0.107189	0.274433	0.385611	0.420952	0.334774	0.239146	0.398154	0.045001	0.069997	0.285276	0.369206	0.080143	0.111729	0.460350	0.471734	0.074702	0.126120	0.161603	0.256073	0.083351	0.111783	0.262438	0.344754	0.028393	0.035154	0.178115	0.188059	0.104257	0.126260	0.374312	0.610204	0.047608	0.091742	0.150252	0.174091	0.073710	0.107590	0.380712	0.277830	0.030772	0.043035	0.345422	0.258154	0.730025	0.622622	0.684144	0.505921	0.053582	0.125855	0.107829	0.236005
42	0.152337	0.209687	0.658879	0.622393	0.067990	0.139037	0.365418	0.417044	0.121486	0.140895	0.935081	0.644297	0.109437	0.203789	0.229875	0.407311	0.055264	0.081767	0.423061	0.272634	0.059153	0.090674	0.260679	0.349631	0.085771	0.105380	0.652259	0.545660	0.087729	0.103086	0.268275	0.362204	0.356537	0.268847	0.254988	0.411267	0.043069	0.067197	0.286105	0.337589	0.089941	0.120496	0.548411	0.498789	0.080571	0.124558	0.163340	0.260893	0.084279	0.111852	0.263239	0.341725	0.032662	0.052327	0.219888	0.175295	0.111627	0.134003	0.374078	0.604562	0.046799	0.077649	0.147515	0.195624	0.073535	0.107336	0.375032	0.259722	0.038695	0.050492	0.382913	0.272445	0.487446	0.418678	0.700327	0.477669	0.061072	0.126242	0.116646	0.272922
43	0.149713	0.211399	0.640092	0.631019	0.076585	0.142671	0.479782	0.579889	0.136940	0.169733	0.953490	0.696061	0.107807	0.190500	0.226076	0.404388	0.054840	0.078859	0.434645	0.270921	0.055826	0.086025	0.279041	0.352360	0.123764	0.156448	0.714123	0.661060	0.084559	0.104362	0.252337	0.342536	0.280171	0.216523	0.265841	0.438948	0.041395	0.067356	0.278954	0.326522	0.095262	0.128210	0.569147	0.476391	0.090577	0.123557	0.167488	0.258153	0.087881	0.124459	0.280520	0.370817	0.036630	0.062059	0.311404	0.199948	0.112514	0.134980	0.376856	0.619530	0.047853	0.071389	0.145701	0.204207	0.073388	0.103461	0.381830	0.248959	0.046287	0.061843	0.386587	0.305979	0.334424	0.314757	0.677642	0.433195	0.063809	0.124733	0.130248	0.300445
44	0.151111	0.212774	0.536986	0.618677	0.091174	0.144369	0.548552	0.729494	0.146064	0.188575	0.951193	0.712973	0.108060	0.191974	0.220704	0.393707	0.054241	0.078081	0.447482	0.260736	0.058210	0.085725	0.301200	0.372667	0.145958	0.178915	0.762978	0.715711	0.081768	0.104553	0.238991	0.323483	0.249492	0.203941	0.267192	0.482357	0.041188	0.067469	0.257272	0.325951	0.103183	0.137121	0.571148	0.482082	0.092606	0.124205	0.169348	0.244943	0.100586	0.150840	0.280843	0.398722	0.036414	0.062132	0.380210	0.321294	0.119958	0.143733	0.372494	0.657954	0.045836	0.066575	0.144275	0.205189	0.074563	0.106376	0.343697	0.239329	0.053743	0.070999	0.389476	0.337900	0.255093	0.264168	0.647241	0.351438	0.065672	0.122606	0.141973	0.304565
45	0.123328	0.171934	0.390228	0.517502	0.101100	0.144408	0.628273	0.792290	0.147310	0.192243	0.950792	0.714524	0.109170	0.196827	0.243826	0.362311	0.070875	0.090731	0.474217	0.288822	0.069386	0.097687	0.353351	0.437448	0.160993	0.197484	0.772091	0.738294	0.079501	0.104590	0.237866	0.318542	0.241403	0.209548	0.270475	0.525480	0.041422	0.057586	0.265596	0.352371	0.116785	0.150939	0.607972	0.531420	0.105432	0.147680	0.162680	0.228626	0.110373	0.165498	0.271399	0.401129	0.038149	0.066004	0.394325	0.430206	0.128891	0.157325	0.368228	0.690831	0.044596	0.061894	0.151206	0.203721	0.077898	0.111498	0.230730	0.237234	0.056551	0.072845	0.394434	0.368595	0.198521	0.230563	0.637548	0.297604	0.065234	0.121315	0.158130	0.294427
46	0.092651	0.128326	0.287578	0.365332	0.105154	0.139108	0.679492	0.802234	0.146317	0.190454	0.937402	0.711034	0.114595	0.194632	0.265679	0.360795	0.090069	0.107481	0.526382	0.315591	0.079609	0.112252	0.393245	0.507736	0.172751	0.210874	0.771628	0.743496	0.081494	0.109018	0.261901	0.356436	0.240480	0.218952	0.264507	0.565035	0.044365	0.053770	0.319031	0.431261	0.118604	0.153117	0.650305	0.578644	0.123973	0.172795	0.153348	0.212070	0.115071	0.170194	0.255389	0.406274	0.037408	0.075850	0.387057	0.452752	0.131491	0.162783	0.368567	0.709041	0.045284	0.064575	0.186254	0.237625	0.071682	0.100282	0.240411	0.217552	0.060088	0.075677	0.395062	0.382305	0.183835	0.227694	0.654039	0.361397	0.066767	0.122371	0.165765	0.285225
47	0.069268	0.101558	0.254786	0.277299	0.103320	0.135390	0.668023	0.781194	0.140606	0.185417	0.912292	0.703988	0.120075	0.197060	0.273390	0.387523	0.096253	0.113991	0.548786	0.303886	0.085816	0.119077	0.398381	0.538884	0.170478	0.210974	0.753143	0.737483	0.087417	0.116790	0.338455	0.428929	0.238417	0.218264	0.258172	0.581190	0.053906	0.055544	0.400051	0.489208	0.121334	0.155116	0.684052	0.604168	0.129093	0.184252	0.151235	0.206354	0.118163	0.171504	0.253181	0.433764	0.040999	0.088939	0.389471	0.448603	0.133719	0.168932	0.354619	0.718666	0.046352	0.069042	0.227729	0.308222	0.052935	0.073448	0.240358	0.191357	0.060831	0.076788	0.399053	0.376648	0.197872	0.242430	0.630805	0.486058	0.071018	0.123610	0.166237	0.290393
48	0.061050	0.094014	0.254588	0.265055	0.110214	0.152254	0.697427	0.769715	0.154299	0.210695	0.867061	0.686614	0.120916	0.193450	0.273627	0.397162	0.091361	0.107312	0.551598	0.300568	0.087480	0.121348	0.390339	0.541641	0.170535	0.216737	0.698332	0.724792	0.092120	0.122658	0.407106	0.482058	0.235254	0.210796	0.250703	0.567137	0.063834	0.057064	0.459346	0.497914	0.120585	0.154110	0.677045	0.613122	0.130656	0.186088	0.164038	0.223101	0.119768	0.172285	0.333504	0.503992	0.061239	0.109040	0.409679	0.462606	0.138967	0.177471	0.360848	0.720426	0.061165	0.071034	0.258080	0.361612	0.047404	0.067073	0.222458	0.152910	0.060649	0.079842	0.389275	0.352533	0.215785	0.256634	0.575354	0.577752	0.076918	0.125143	0.168417	0.310595
49	0.060478	0.095833	0.233753	0.268712	0.128087	0.179257	0.805248	0.804641	0.158817	0.222112	0.805873	0.666052	0.119257	0.185519	0.272155	0.383077	0.089588	0.100086	0.547985	0.353282	0.091556	0.124178	0.397645	0.535125	0.173174	0.228589	0.637209	0.702369	0.096682	0.130197	0.432319	0.533179	0.233724	0.208857	0.219664	0.544692	0.076265	0.072601	0.481893	0.496292	0.134326	0.166459	0.668227	0.612632	0.132825	0.188706	0.189648	0.300765	0.117904	0.171810	0.423712	0.604303	0.069582	0.117285	0.438273	0.490198	0.140057	0.179338	0.366615	0.719906	0.079067	0.085798	0.273451	0.392085	0.044898	0.071542	0.205843	0.119070	0.060478	0.087718	0.377260	0.334933	0.228502	0.268575	0.555997	0.642043	0.076947	0.125404	0.171688	0.335422
50	0.058929	0.090518	0.204060	0.260873	0.143848	0.197348	0.864062	0.869832	0.161313	0.228329	0.805692	0.656549	0.115956	0.176432	0.287925	0.355066	0.096260	0.110440	0.482190	0.390902	0.104155	0.138067	0.447164	0.520669	0.175100	0.239406	0.635289	0.676523	0.107828	0.147364	0.430062	0.549655	0.215047	0.204639	0.226353	0.537295	0.090829	0.124701	0.469220	0.492568	0.145290	0.177538	0.668683	0.600607	0.134772	0.190023	0.225433	0.385147	0.126247	0.186762	0.469086	0.650904	0.070686	0.119210	0.465494	0.511276	0.140205	0.177096	0.344031	0.722737	0.089257	0.095794	0.279080	0.406559	0.042911	0.075604	0.198441	0.097731	0.059195	0.089553	0.359909	0.323233	0.241879	0.283458	0.566283	0.679100	0.078323	0.125925	0.181468	0.355970
51	0.057639	0.085933	0.183076	0.240344	0.153621	0.208533	0.895930	0.917403	0.162280	0.229137	0.781444	0.652466	0.106393	0.163700	0.319532	0.323684	0.107567	0.133595	0.432078	0.395754	0.110156	0.147444	0.474137	0.509112	0.175385	0.242646	0.619186	0.672398	0.115177	0.152169	0.432493	0.535011	0.187930	0.200080	0.242325	0.548354	0.094266	0.146222	0.461203	0.481541	0.146164	0.179204	0.662064	0.573572	0.133193	0.182633	0.265101	0.427374	0.144776	0.214994	0.525617	0.673748	0.071074	0.120950	0.470701	0.527422	0.138138	0.173116	0.326520	0.695505	0.091105	0.098233	0.272948	0.413367	0.043234	0.081217	0.201349	0.085909	0.058159	0.093129	0.368075	0.313070	0.241438	0.280454	0.553727	0.686403	0.079748	0.125902	0.207974	0.366971
52	0.056227	0.077545	0.266793	0.201611	0.158855	0.209571	0.912026	0.945632	0.158908	0.223219	0.678214	0.606696	0.095737	0.149506	0.333030	0.299696	0.121433	0.161412	0.430762	0.390559	0.112444	0.152917	0.469356	0.499378	0.173912	0.238415	0.544468	0.636471	0.114041	0.152007	0.446685	0.525694	0.178238	0.203070	0.242642	0.554761	0.094664	0.147476	0.473086	0.471756	0.143464	0.176593	0.595959	0.521173	0.131463	0.177416	0.309692	0.442636	0.165819	0.239771	0.540034	0.683469	0.071069	0.122048	0.472961	0.537314	0.134812	0.169538	0.367606	0.629172	0.091028	0.096411	0.266412	0.411603	0.045238	0.089783	0.193678	0.080437	0.061105	0.106735	0.350624	0.318334	0.231164	0.262049	0.472407	0.686022	0.080190	0.114517	0.233362	0.366962
53	0.056645	0.080625	0.277581	0.173957	0.161515	0.203541	0.913858	0.959530	0.149318	0.211932	0.490977	0.506860	0.077998	0.118960	0.339406	0.280362	0.127339	0.173787	0.420092	0.400492	0.112859	0.154286	0.469593	0.492418	0.166352	0.227075	0.420771	0.510940	0.115403	0.156371	0.455777	0.549673	0.175586	0.205290	0.248461	0.552075	0.098947	0.157560	0.476167	0.475017	0.137162	0.168903	0.486461	0.470508	0.133097	0.173418	0.334132	0.440072	0.190288	0.263728	0.532931	0.672243	0.071355	0.122464	0.475414	0.540627	0.128648	0.162260	0.405788	0.536958	0.091001	0.096470	0.276982	0.410969	0.049214	0.105467	0.175188	0.074827	0.064896	0.116401	0.294563	0.318689	0.221711	0.247758	0.434522	0.686755	0.076197	0.094946	0.246269	0.358664
54	0.052381	0.078630	0.294257	0.172305	0.160981	0.199801	0.889250	0.946498	0.127895	0.184183	0.429335	0.408319	0.069348	0.104113	0.338765	0.287564	0.127663	0.175041	0.398802	0.403945	0.113030	0.154401	0.465322	0.494712	0.134917	0.195036	0.302498	0.380063	0.120027	0.158107	0.446863	0.589944	0.175227	0.205684	0.299483	0.545485	0.107583	0.168563	0.480185	0.499500	0.132391	0.160958	0.442916	0.463008	0.132160	0.171892	0.335513	0.435847	0.210024	0.287186	0.528858	0.653617	0.069282	0.117829	0.457868	0.541221	0.118139	0.152499	0.409405	0.492014	0.089509	0.098262	0.302315	0.417926	0.053311	0.110813	0.167217	0.077733	0.065743	0.117631	0.291728	0.303254	0.212488	0.235844	0.438371	0.691911	0.074168	0.111598	0.243426	0.336995
55	0.053862	0.114321	0.314268	0.185552	0.155603	0.194616	0.834214	0.834878	0.114472	0.168635	0.443599	0.395079	0.069456	0.105870	0.372103	0.325731	0.120661	0.168547	0.381266	0.379634	0.113081	0.153764	0.453962	0.494993	0.121363	0.184265	0.193115	0.291327	0.127112	0.159922	0.440215	0.629281	0.173271	0.203508	0.363083	0.548630	0.123557	0.185866	0.486405	0.528714	0.127130	0.153462	0.439599	0.455857	0.133000	0.179839	0.338505	0.443297	0.216929	0.295139	0.554984	0.633744	0.069333	0.115911	0.408860	0.536887	0.107236	0.143258	0.409108	0.490834	0.089949	0.105609	0.316947	0.431165	0.049364	0.112225	0.176846	0.156865	0.065321	0.112276	0.359037	0.289072	0.201243	0.227704	0.390365	0.704774	0.075612	0.130278	0.234554	0.299507
56	0.088644	0.226578	0.344424	0.219244	0.148012	0.192063	0.790984	0.724077	0.112045	0.165820	0.442053	0.410357	0.075048	0.101692	0.453568	0.372327	0.105728	0.157102	0.350482	0.345061	0.112942	0.153978	0.443276	0.489522	0.105438	0.169810	0.192012	0.258599	0.135287	0.170927	0.439101	0.660643	0.167964	0.198112	0.405826	0.553903	0.137457	0.202000	0.498692	0.549290	0.113052	0.138915	0.398753	0.407607	0.131851	0.188530	0.365466	0.455583	0.219743	0.296128	0.650319	0.626573	0.069601	0.116120	0.353470	0.480580	0.104290	0.139426	0.428054	0.500641	0.093587	0.115097	0.328712	0.438199	0.053687	0.115449	0.207298	0.323631	0.063880	0.109449	0.384967	0.260827	0.201352	0.232068	0.350567	0.735260	0.075063	0.134504	0.227644	0.263854
57	0.106395	0.251583	0.345385	0.239236	0.142001	0.190131	0.729873	0.663464	0.109394	0.163243	0.401677	0.385778	0.073347	0.087871	0.513658	0.403258	0.098770	0.151664	0.310464	0.329440	0.108964	0.149276	0.419086	0.452300	0.106507	0.171683	0.204641	0.325290	0.139829	0.176843	0.440014	0.682021	0.168785	0.201120	0.421153	0.558696	0.150062	0.216031	0.508668	0.562639	0.111134	0.136884	0.322737	0.321238	0.129017	0.195361	0.385768	0.462323	0.217164	0.288665	0.751714	0.632089	0.068819	0.113824	0.334026	0.375039	0.105136	0.140287	0.437489	0.489259	0.098888	0.122798	0.331219	0.435426	0.075631	0.159277	0.348669	0.451094	0.065888	0.114829	0.384914	0.219622	0.205944	0.238938	0.317909	0.786508	0.073240	0.135079	0.219798	0.251352
58	0.110178	0.291321	0.359798	0.235558	0.137590	0.186790	0.701630	0.645652	0.096144	0.146600	0.305220	0.302907	0.064891	0.081884	0.522837	0.411655	0.098369	0.151650	0.301711	0.353614	0.100050	0.135509	0.374059	0.369208	0.112046	0.172539	0.203694	0.396958	0.141732	0.179562	0.444295	0.689020	0.165416	0.200773	0.438202	0.556692	0.157660	0.224510	0.497701	0.551261	0.104051	0.128557	0.220249	0.218211	0.129106	0.194181	0.399884	0.463630	0.208762	0.274671	0.845652	0.622163	0.070736	0.110436	0.333527	0.327591	0.097195	0.133235	0.437334	0.456112	0.102690	0.128817	0.329153	0.434378	0.100514	0.183967	0.554849	0.548026	0.064627	0.115921	0.389369	0.198127	0.209800	0.249453	0.313402	0.819409	0.072650	0.135343	0.209761	0.250489
59	0.111073	0.294159	0.364096	0.236156	0.139330	0.190210	0.702089	0.645350	0.064629	0.107930	0.249645	0.237433	0.054402	0.071722	0.520747	0.390103	0.098383	0.151667	0.308265	0.329567	0.093251	0.126252	0.357043	0.290095	0.108779	0.159158	0.264097	0.427538	0.142203	0.178038	0.447380	0.675599	0.157721	0.194367	0.460293	0.551344	0.159361	0.227352	0.465148	0.489135	0.098307	0.119377	0.138870	0.141134	0.113600	0.174292	0.409310	0.464766	0.203981	0.268305	0.867952	0.630349	0.070033	0.102383	0.321086	0.324688	0.092448	0.125918	0.434585	0.417907	0.105112	0.132333	0.318566	0.430104	0.113417	0.186543	0.596062	0.579723	0.064958	0.115348	0.400428	0.188906	0.206951	0.250439	0.279212	0.802616	0.071599	0.134523	0.208314	0.248200
60	0.111787	0.294000	0.332304	0.231073	0.131187	0.174914	0.626503	0.624529	0.064140	0.103696	0.247316	0.224250	0.048161	0.068003	0.520475	0.371132	0.092830	0.143839	0.319426	0.272087	0.090052	0.128519	0.358788	0.268283	0.105693	0.137120	0.390804	0.436221	0.139112	0.173561	0.418061	0.633288	0.146143	0.181229	0.483197	0.536578	0.156823	0.227622	0.394527	0.436141	0.073580	0.087737	0.118578	0.144050	0.101916	0.154133	0.410295	0.469246	0.202609	0.270631	0.871199	0.643815	0.054244	0.081705	0.289735	0.302382	0.096109	0.123690	0.428534	0.384619	0.105406	0.129722	0.293394	0.393278	0.112786	0.183126	0.606396	0.584699	0.066137	0.112636	0.426968	0.193423	0.196180	0.243582	0.264592	0.730010	0.065065	0.134184	0.208907	0.232830
61	0.108880	0.294444	0.269271	0.217586	0.113348	0.150464	0.459235	0.542354	0.060282	0.096739	0.217980	0.228740	0.047427	0.069196	0.521803	0.365101	0.080223	0.125479	0.328788	0.258966	0.089495	0.133255	0.364186	0.267393	0.101153	0.122021	0.420096	0.436240	0.131229	0.163160	0.355282	0.586665	0.140821	0.173281	0.491149	0.517101	0.153074	0.227243	0.334729	0.413652	0.039540	0.049643	0.113239	0.156347	0.099554	0.146891	0.409911	0.472690	0.204418	0.278622	0.876474	0.648629	0.046077	0.070155	0.243946	0.255212	0.091586	0.113550	0.428945	0.353854	0.103198	0.129694	0.276546	0.340497	0.115282	0.184333	0.669477	0.639835	0.066269	0.108297	0.435264	0.195104	0.178272	0.228579	0.256630	0.656161	0.061290	0.136983	0.208345	0.204184
62	0.106982	0.296558	0.265057	0.198106	0.095155	0.126344	0.347264	0.422738	0.061053	0.100842	0.222024	0.231010	0.045225	0.068726	0.518362	0.365057	0.057186	0.090303	0.341119	0.263962	0.075997	0.122540	0.318991	0.256324	0.103173	0.122738	0.427572	0.455647	0.121490	0.149124	0.315541	0.523770	0.139950	0.172464	0.488858	0.514133	0.146054	0.218956	0.306121	0.392938	0.029497	0.042311	0.130564	0.178160	0.097307	0.143282	0.402455	0.449896	0.207286	0.286272	0.844312	0.612889	0.049010	0.067852	0.183681	0.209087	0.086057	0.127646	0.421178	0.337758	0.092294	0.125879	0.283589	0.298179	0.122436	0.188980	0.754319	0.755238	0.067720	0.111276	0.433403	0.194684	0.160118	0.210660	0.227742	0.593768	0.062007	0.140099	0.218126	0.185905
63	0.107996	0.298264	0.246873	0.221182	0.087213	0.109083	0.286750	0.325770	0.060093	0.100800	0.230094	0.243956	0.045397	0.071986	0.485352	0.363855	0.038579	0.059684	0.349713	0.251065	0.057996	0.107874	0.239174	0.223800	0.117386	0.142147	0.454018	0.485170	0.106303	0.125038	0.310121	0.480225	0.139358	0.172596	0.487453	0.513648	0.139062	0.194172	0.303925	0.378350	0.033758	0.066057	0.179562	0.257297	0.092994	0.133677	0.387189	0.380828	0.208918	0.289680	0.805046	0.543880	0.048401	0.073577	0.163525	0.164174	0.094694	0.159869	0.416564	0.336932	0.079451	0.113862	0.305973	0.277503	0.148719	0.208356	0.854984	0.847097	0.067067	0.107627	0.423761	0.182332	0.134794	0.184754	0.276467	0.541794	0.062176	0.141323	0.218121	0.190684
64	0.107919	0.283436	0.248648	0.215692	0.086072	0.109932	0.340061	0.285771	0.059438	0.101450	0.263292	0.292742	0.048705	0.084943	0.461458	0.351643	0.042036	0.065993	0.348871	0.238982	0.042933	0.088156	0.232797	0.170667	0.124084	0.148952	0.466148	0.484038	0.092054	0.109286	0.302199	0.471798	0.138825	0.173172	0.479942	0.490849	0.139121	0.187960	0.273711	0.376543	0.070223	0.103466	0.289441	0.398823	0.088418	0.129592	0.367755	0.307433	0.205476	0.283765	0.773444	0.513143	0.050993	0.088109	0.157600	0.126493	0.100465	0.165903	0.405858	0.323433	0.071860	0.104069	0.316845	0.270031	0.159699	0.215212	0.920118	0.891976	0.063742	0.095208	0.415513	0.171857	0.124396	0.174957	0.378222	0.535707	0.064066	0.142693	0.198675	0.192195
65	0.078765	0.212376	0.211861	0.180619	0.094305	0.144847	0.399582	0.343724	0.058121	0.098815	0.280992	0.324814	0.050047	0.093880	0.444347	0.349680	0.046032	0.076393	0.332258	0.236599	0.042028	0.087142	0.245789	0.162362	0.123192	0.149000	0.507075	0.483412	0.091223	0.112092	0.267265	0.468560	0.139080	0.172555	0.469960	0.443690	0.140804	0.189818	0.242585	0.375551	0.114538	0.139781	0.327653	0.485611	0.085422	0.127395	0.345515	0.263945	0.198455	0.271398	0.738805	0.495526	0.050920	0.087062	0.145084	0.110077	0.100345	0.170511	0.368183	0.316113	0.070591	0.102300	0.319348	0.271306	0.164047	0.218762	0.925470	0.902774	0.057943	0.084681	0.408099	0.171234	0.124847	0.176438	0.394807	0.572815	0.066555	0.142810	0.170934	0.189453
66	0.067899	0.194159	0.250651	0.160768	0.096571	0.154271	0.407213	0.395069	0.061597	0.099372	0.253398	0.307735	0.051202	0.097547	0.443112	0.348673	0.048666	0.081755	0.284382	0.238549	0.063663	0.147458	0.245564	0.192730	0.117923	0.143393	0.556453	0.480225	0.089945	0.107518	0.226095	0.437702	0.138390	0.168363	0.469814	0.414539	0.139167	0.184155	0.232652	0.361229	0.145731	0.164563	0.411922	0.506838	0.080152	0.125081	0.332200	0.251351	0.186221	0.256804	0.731616	0.485658	0.050069	0.089522	0.144322	0.106843	0.095716	0.169124	0.310789	0.325459	0.070161	0.107576	0.313437	0.270404	0.166223	0.219323	0.917009	0.870619	0.053217	0.081274	0.375627	0.164842	0.130943	0.180411	0.391970	0.582951	0.066290	0.130448	0.147501	0.189018
67	0.059166	0.136245	0.251030	0.158919	0.096394	0.168567	0.441106	0.400056	0.071606	0.103071	0.252665	0.286960	0.050282	0.095473	0.430928	0.325167	0.047525	0.080895	0.245747	0.219790	0.088457	0.214180	0.248500	0.205496	0.109778	0.134095	0.559563	0.469430	0.084010	0.105846	0.217604	0.381610	0.141596	0.168653	0.473821	0.414037	0.132637	0.175711	0.223254	0.320240	0.156983	0.173427	0.426810	0.507999	0.073349	0.126537	0.334227	0.252743	0.172598	0.242010	0.732702	0.485223	0.046789	0.086533	0.140160	0.095922	0.093315	0.168232	0.332808	0.327399	0.070725	0.133236	0.295419	0.251954	0.161378	0.205624	0.891784	0.809878	0.049564	0.082986	0.311768	0.138512	0.134481	0.181171	0.384107	0.578549	0.061775	0.110643	0.149924	0.196317
68	0.058488	0.139685	0.248371	0.152841	0.096185	0.170481	0.505863	0.410016	0.082915	0.106370	0.255852	0.288519	0.043594	0.091768	0.369581	0.276830	0.045211	0.078859	0.292645	0.185108	0.101689	0.234291	0.248913	0.205732	0.095089	0.118443	0.553599	0.442632	0.072569	0.104320	0.218308	0.314547	0.147616	0.176408	0.471600	0.420472	0.118740	0.157263	0.208648	0.276363	0.158381	0.175902	0.451724	0.525402	0.071418	0.120468	0.335577	0.242363	0.185391	0.251129	0.732115	0.485402	0.048321	0.090027	0.122167	0.085285	0.099883	0.176123	0.474200	0.355530	0.073838	0.157079	0.279825	0.207680	0.147265	0.173570	0.784062	0.746521	0.044587	0.078405	0.283715	0.129223	0.132944	0.176463	0.387441	0.574757	0.056172	0.093580	0.173370	0.214201
69	0.054376	0.142118	0.246704	0.145607	0.094925	0.189652	0.548846	0.446759	0.088244	0.101453	0.271180	0.304870	0.033031	0.090719	0.249377	0.210169	0.051333	0.084484	0.371040	0.282013	0.102441	0.234898	0.249625	0.202210	0.111492	0.137082	0.542990	0.456438	0.055095	0.098285	0.218047	0.244089	0.153882	0.188537	0.520127	0.462939	0.103119	0.137701	0.176501	0.238191	0.164425	0.196756	0.535409	0.565874	0.061093	0.103984	0.312778	0.207573	0.248053	0.318255	0.704984	0.489254	0.049155	0.090084	0.118228	0.087680	0.114261	0.192023	0.558504	0.456910	0.069091	0.154098	0.270496	0.156644	0.133895	0.164943	0.731058	0.712098	0.037053	0.064604	0.282040	0.130094	0.129885	0.169615	0.402824	0.567982	0.054319	0.088076	0.189183	0.233323
70	0.059869	0.167238	0.252424	0.142852	0.106470	0.193183	0.578631	0.471070	0.083365	0.086792	0.270113	0.322900	0.032725	0.086324	0.158708	0.157696	0.064777	0.095776	0.384889	0.438996	0.107196	0.242644	0.241654	0.199986	0.128151	0.155840	0.499122	0.508753	0.039480	0.090276	0.216958	0.177052	0.162698	0.205299	0.624559	0.563233	0.085328	0.116012	0.154940	0.200199	0.179306	0.223088	0.638241	0.626803	0.053501	0.091020	0.275308	0.175018	0.313442	0.391092	0.612082	0.491340	0.046259	0.088315	0.121210	0.095381	0.128521	0.205198	0.571584	0.561557	0.060783	0.148136	0.273368	0.138198	0.133083	0.164779	0.729347	0.713518	0.037988	0.059416	0.274771	0.130338	0.123574	0.161203	0.411114	0.535232	0.054193	0.087624	0.191443	0.248279
71	0.059551	0.162467	0.261627	0.139582	0.118898	0.209603	0.577564	0.478664	0.092214	0.072794	0.278142	0.322757	0.033674	0.080472	0.156401	0.133992	0.076820	0.109225	0.391623	0.484539	0.115874	0.252254	0.243938	0.205971	0.126875	0.155853	0.438262	0.557108	0.043080	0.119385	0.214137	0.142691	0.163690	0.209566	0.724469	0.682144	0.069856	0.104640	0.143922	0.174058	0.192360	0.238325	0.686842	0.682424	0.046979	0.077501	0.249193	0.155336	0.377260	0.441916	0.474085	0.532608	0.046151	0.091917	0.133509	0.111423	0.139059	0.212898	0.570232	0.614445	0.052813	0.142010	0.286008	0.165447	0.133734	0.164907	0.683996	0.695884	0.039931	0.062646	0.232711	0.128559	0.114667	0.151525	0.478493	0.507992	0.055610	0.092792	0.190163	0.252504
72	0.065914	0.169339	0.247560	0.096698	0.120708	0.213924	0.613908	0.477204	0.115455	0.064298	0.280974	0.332228	0.032440	0.080229	0.162267	0.135514	0.079264	0.111329	0.373550	0.486562	0.118590	0.255302	0.249686	0.224815	0.126264	0.155564	0.428122	0.567728	0.060933	0.170922	0.202775	0.136085	0.161263	0.205160	0.794736	0.814048	0.061012	0.100302	0.135379	0.160209	0.203971	0.248819	0.702593	0.712626	0.046061	0.102511	0.229475	0.145915	0.412486	0.456442	0.358051	0.607334	0.054094	0.107635	0.164724	0.134204	0.144239	0.215232	0.575461	0.616461	0.049889	0.144767	0.298116	0.195287	0.132725	0.167696	0.598632	0.603232	0.043655	0.067400	0.130046	0.115886	0.102957	0.140727	0.536066	0.488873	0.061466	0.116466	0.190911	0.254141
73	0.062857	0.153866	0.235641	0.079473	0.120114	0.213227	0.646357	0.482601	0.119543	0.060077	0.281619	0.340307	0.033622	0.086512	0.166175	0.144783	0.078600	0.108817	0.364778	0.498013	0.120801	0.254373	0.233138	0.241018	0.120243	0.147444	0.424009	0.543150	0.069841	0.187831	0.184250	0.147277	0.173016	0.214430	0.797693	0.880667	0.059153	0.099759	0.133631	0.149939	0.207711	0.250180	0.700448	0.716883	0.045415	0.106635	0.227554	0.133653	0.415057	0.461084	0.443707	0.668272	0.062939	0.128822	0.174909	0.171972	0.146174	0.216376	0.570828	0.611629	0.061005	0.164141	0.310659	0.213791	0.109675	0.142442	0.459012	0.462167	0.043303	0.064029	0.077620	0.114019	0.091944	0.132577	0.563217	0.482249	0.062762	0.117957	0.195957	0.270246
74	0.069950	0.157551	0.231875	0.077964	0.120468	0.217845	0.653947	0.483830	0.125153	0.069688	0.281503	0.365462	0.033936	0.095437	0.165960	0.169834	0.076200	0.104233	0.383996	0.551665	0.124375	0.261125	0.213115	0.246591	0.105634	0.129821	0.419247	0.540428	0.069820	0.193050	0.186190	0.187115	0.195767	0.234894	0.783799	0.888943	0.059255	0.106699	0.133847	0.146360	0.207828	0.246710	0.708721	0.701989	0.046114	0.108486	0.235248	0.120471	0.416169	0.478732	0.507477	0.690044	0.062773	0.129616	0.174091	0.197069	0.141263	0.213895	0.578506	0.617714	0.071962	0.168559	0.312837	0.223300	0.088269	0.128069	0.268081	0.363340	0.041793	0.059567	0.081724	0.113030	0.099705	0.147787	0.581357	0.483507	0.061514	0.118510	0.198227	0.294496
75	0.074148	0.162370	0.183981	0.105299	0.124539	0.238075	0.640083	0.478958	0.127004	0.068771	0.273210	0.338556	0.034407	0.098798	0.165531	0.189468	0.077128	0.103515	0.429688	0.603199	0.129999	0.274987	0.197754	0.249557	0.104340	0.128507	0.530385	0.579145	0.070136	0.193999	0.197370	0.221961	0.208980	0.247726	0.776863	0.881427	0.057668	0.106013	0.132330	0.146708	0.201461	0.234721	0.680844	0.657523	0.047393	0.109023	0.254004	0.133917	0.418062	0.510352	0.637274	0.692042	0.065389	0.125991	0.174072	0.215110	0.140471	0.212362	0.599340	0.629717	0.071940	0.169861	0.294984	0.222931	0.079442	0.130273	0.193262	0.306335	0.044257	0.063380	0.087528	0.113959	0.135374	0.190899	0.579673	0.498018	0.060362	0.115616	0.188437	0.298530
76	0.075217	0.159514	0.203486	0.167537	0.126623	0.250028	0.588541	0.449519	0.126784	0.069533	0.254628	0.302238	0.041830	0.111611	0.172504	0.189608	0.081920	0.109418	0.457273	0.622676	0.130730	0.279094	0.173138	0.251593	0.106875	0.129067	0.533460	0.601068	0.076717	0.199277	0.201601	0.254580	0.208230	0.248187	0.795085	0.882654	0.054789	0.104379	0.132020	0.147074	0.183214	0.216036	0.667294	0.592098	0.048878	0.109466	0.269588	0.178583	0.450845	0.576580	0.706408	0.681554	0.065851	0.115864	0.174675	0.221426	0.138815	0.194485	0.602217	0.642984	0.072376	0.174973	0.260332	0.214959	0.072449	0.123236	0.191705	0.299585	0.048514	0.068596	0.095241	0.114921	0.168100	0.229366	0.553540	0.554690	0.060080	0.116732	0.181401	0.284299
77	0.076308	0.158559	0.311696	0.200888	0.118405	0.247959	0.557716	0.376092	0.124386	0.069447	0.324333	0.294561	0.060644	0.156331	0.182199	0.189083	0.094068	0.121031	0.487795	0.635376	0.132596	0.279395	0.143725	0.242269	0.113486	0.135039	0.497335	0.625025	0.090378	0.216785	0.201514	0.265466	0.213375	0.260825	0.846326	0.905640	0.050773	0.100955	0.132029	0.145444	0.160227	0.198829	0.628965	0.570903	0.056088	0.113964	0.272746	0.203020	0.584368	0.697698	0.711387	0.662803	0.069586	0.126644	0.177793	0.222737	0.135652	0.172872	0.630178	0.660247	0.073966	0.176498	0.222619	0.204110	0.070766	0.119385	0.194514	0.334105	0.052882	0.075356	0.094773	0.119500	0.185841	0.246997	0.504485	0.592361	0.058617	0.113801	0.176634	0.283549
78	0.085237	0.165259	0.332006	0.218889	0.130893	0.277126	0.553611	0.349590	0.119582	0.071558	0.360644	0.294890	0.064306	0.160727	0.182196	0.193535	0.118715	0.143803	0.489904	0.658040	0.136783	0.273317	0.139595	0.207958	0.116215	0.134141	0.533053	0.626180	0.096135	0.223818	0.203307	0.265097	0.230314	0.290310	0.900969	0.956973	0.047898	0.095164	0.129833	0.161670	0.149117	0.194145	0.607192	0.573255	0.063186	0.117893	0.264051	0.209190	0.695923	0.777371	0.720078	0.649113	0.071441	0.127960	0.199078	0.230261	0.147236	0.186288	0.636224	0.678140	0.073892	0.177085	0.212487	0.195226	0.069382	0.116369	0.180998	0.359584	0.052598	0.075572	0.094878	0.121196	0.198523	0.255148	0.523387	0.589432	0.054737	0.111546	0.176579	0.285554
79	0.092006	0.137628	0.331876	0.224407	0.140741	0.286061	0.521367	0.373313	0.124113	0.101815	0.419403	0.288232	0.074414	0.176366	0.181850	0.193570	0.118883	0.143129	0.443059	0.657758	0.132212	0.236267	0.135141	0.194665	0.119491	0.133453	0.545937	0.594877	0.098205	0.225625	0.209901	0.268237	0.267302	0.336277	0.946058	1.001262	0.045317	0.089461	0.133026	0.186213	0.146337	0.193292	0.597669	0.563039	0.065715	0.118768	0.241215	0.207460	0.735429	0.796655	0.764252	0.642255	0.073507	0.130062	0.209373	0.242562	0.160836	0.194209	0.639683	0.689487	0.074769	0.176660	0.226537	0.202110	0.069302	0.117276	0.208548	0.359412	0.051348	0.074750	0.096436	0.117720	0.205203	0.252887	0.530361	0.585873	0.054180	0.108876	0.176201	0.284902
80	0.114741	0.142398	0.341656	0.222282	0.146401	0.288330	0.460755	0.364878	0.123118	0.107838	0.522356	0.301163	0.081269	0.188467	0.179899	0.187834	0.113125	0.136442	0.413225	0.569377	0.126043	0.202697	0.145774	0.220985	0.091168	0.098520	0.551805	0.541352	0.098644	0.227202	0.225736	0.280924	0.303481	0.373331	0.966362	1.027416	0.043919	0.086011	0.157717	0.205340	0.143819	0.186902	0.540851	0.527441	0.066169	0.117469	0.207393	0.209386	0.747979	0.800918	0.794899	0.644046	0.085230	0.163779	0.205057	0.265164	0.166414	0.197238	0.673045	0.692882	0.077879	0.167038	0.249576	0.224653	0.073439	0.124488	0.313436	0.393314	0.051337	0.074860	0.094481	0.117006	0.208939	0.251156	0.536317	0.585923	0.073733	0.124682	0.167067	0.287864
81	0.115110	0.127650	0.357176	0.230019	0.146130	0.277254	0.401066	0.319287	0.128542	0.113966	0.569069	0.373905	0.081916	0.191722	0.182175	0.183671	0.104587	0.125064	0.415368	0.554335	0.127481	0.201163	0.142382	0.241021	0.079253	0.090362	0.543423	0.476875	0.099867	0.229493	0.247535	0.303655	0.324327	0.390209	0.967799	1.033643	0.044414	0.086563	0.157717	0.209290	0.126411	0.154825	0.413983	0.457673	0.074699	0.121819	0.196733	0.218727	0.747613	0.798010	0.818299	0.648388	0.107284	0.203897	0.206585	0.294270	0.170934	0.202843	0.685181	0.694846	0.077697	0.135292	0.252734	0.256363	0.079117	0.129527	0.432474	0.477066	0.059963	0.085248	0.092232	0.115309	0.214044	0.274258	0.535622	0.573800	0.110285	0.169746	0.141687	0.296981
82	0.112096	0.124574	0.356604	0.230969	0.132770	0.268048	0.366076	0.287743	0.121301	0.122064	0.581389	0.453076	0.081923	0.191648	0.177632	0.178843	0.102897	0.123716	0.474679	0.625124	0.130966	0.201792	0.141291	0.250016	0.083536	0.095066	0.535245	0.437951	0.102569	0.226982	0.261351	0.326866	0.326389	0.388503	0.964630	1.033564	0.043500	0.084989	0.154088	0.206306	0.108514	0.140098	0.310732	0.359919	0.094354	0.138642	0.197862	0.227325	0.738120	0.787042	0.847786	0.656975	0.119159	0.215408	0.216900	0.319121	0.171612	0.202838	0.652352	0.679200	0.078228	0.128803	0.246906	0.265617	0.085189	0.127200	0.504708	0.551824	0.074950	0.101535	0.088329	0.116206	0.249193	0.309539	0.524024	0.547322	0.158379	0.225954	0.131631	0.305745
83	0.108510	0.120829	0.356264	0.238668	0.122083	0.253992	0.379397	0.279142	0.113678	0.123970	0.596243	0.515153	0.081676	0.192606	0.158917	0.173541	0.112257	0.134144	0.527491	0.664739	0.126995	0.196036	0.141235	0.248655	0.083556	0.093859	0.535740	0.435317	0.106550	0.236389	0.272499	0.343759	0.323917	0.384729	0.932548	1.022420	0.044980	0.084112	0.155145	0.211674	0.097363	0.138713	0.261064	0.274806	0.109839	0.151537	0.198425	0.227893	0.716737	0.759559	0.870127	0.672073	0.120597	0.214305	0.215646	0.331816	0.165204	0.193723	0.632286	0.612831	0.078222	0.122800	0.240821	0.264804	0.094042	0.127058	0.509030	0.577080	0.084052	0.107692	0.101963	0.119608	0.279538	0.328113	0.521066	0.513642	0.195469	0.260736	0.145709	0.314647
84	0.111568	0.125703	0.359848	0.236076	0.120171	0.250984	0.311008	0.272460	0.115194	0.141141	0.597741	0.553763	0.081650	0.193433	0.160040	0.170191	0.129625	0.156809	0.538475	0.638309	0.122720	0.189650	0.124452	0.243657	0.083075	0.092008	0.533828	0.424661	0.106561	0.241141	0.273031	0.355362	0.323483	0.383552	0.843369	0.975823	0.046049	0.073054	0.208954	0.229250	0.098568	0.143571	0.354557	0.247240	0.117705	0.156751	0.193704	0.233081	0.690810	0.728672	0.878757	0.680022	0.117925	0.206897	0.193479	0.331315	0.153304	0.181007	0.635165	0.522636	0.079537	0.124484	0.240336	0.257989	0.093421	0.120612	0.530820	0.565958	0.093833	0.110571	0.109530	0.122666	0.291949	0.329293	0.493908	0.487707	0.212333	0.265811	0.156412	0.325885
85	0.124240	0.138461	0.355574	0.228627	0.119302	0.250632	0.277417	0.256675	0.114087	0.151541	0.588795	0.546018	0.081382	0.191227	0.176069	0.166997	0.140239	0.168513	0.509562	0.584100	0.120735	0.185260	0.120856	0.239448	0.081832	0.088670	0.498238	0.378436	0.095646	0.208663	0.260131	0.359054	0.333522	0.387272	0.744195	0.895162	0.047588	0.081271	0.261889	0.271299	0.104495	0.148699	0.389505	0.302803	0.123034	0.147248	0.187180	0.243569	0.661335	0.706296	0.874661	0.647071	0.111812	0.192887	0.181936	0.315735	0.143799	0.172133	0.642038	0.464369	0.082204	0.126695	0.258441	0.256113	0.095257	0.115973	0.608516	0.585174	0.102910	0.114336	0.111911	0.130169	0.295410	0.327259	0.460436	0.482574	0.215666	0.256954	0.157061	0.329458
86	0.128003	0.130360	0.283094	0.236637	0.115125	0.244040	0.282102	0.248236	0.115691	0.154760	0.589262	0.545578	0.081026	0.187181	0.181550	0.152315	0.138492	0.163442	0.482976	0.557625	0.117637	0.179175	0.115127	0.245712	0.076959	0.080150	0.367215	0.317448	0.087406	0.194361	0.239629	0.354182	0.337920	0.386301	0.635919	0.760196	0.049641	0.090995	0.276261	0.309192	0.112433	0.155044	0.384046	0.312811	0.129737	0.136263	0.190367	0.254146	0.645088	0.701472	0.853413	0.585423	0.109473	0.193375	0.182004	0.300797	0.138861	0.168175	0.636356	0.460488	0.083802	0.113101	0.285503	0.278409	0.105398	0.140383	0.692932	0.650958	0.103163	0.112882	0.122184	0.138945	0.295623	0.325696	0.439991	0.486111	0.217816	0.257773	0.151560	0.315141
87	0.122407	0.116243	0.276245	0.248440	0.104001	0.219660	0.282182	0.238990	0.116454	0.168336	0.659752	0.595404	0.080889	0.183334	0.183100	0.121227	0.132011	0.155531	0.449252	0.554221	0.114774	0.164374	0.106607	0.256662	0.081530	0.083622	0.353275	0.277650	0.089735	0.199593	0.225482	0.335029	0.332222	0.378639	0.603241	0.628889	0.049964	0.087646	0.277524	0.322143	0.112139	0.155360	0.429004	0.293837	0.135650	0.137270	0.209877	0.266033	0.645489	0.698511	0.802627	0.503494	0.108169	0.193765	0.181810	0.286762	0.134906	0.163033	0.632574	0.468955	0.075165	0.095239	0.297782	0.315698	0.129244	0.175339	0.762291	0.712927	0.102418	0.108398	0.116492	0.138047	0.296561	0.318248	0.416944	0.485750	0.219502	0.266409	0.143000	0.284830
88	0.109587	0.112462	0.261273	0.251763	0.094984	0.204476	0.276623	0.238676	0.118412	0.181281	0.786946	0.745965	0.078826	0.180943	0.176629	0.119919	0.112555	0.134548	0.424708	0.536435	0.116102	0.153959	0.102946	0.258498	0.079302	0.078770	0.424698	0.244413	0.090535	0.199069	0.219973	0.313219	0.319230	0.366036	0.601829	0.568855	0.057134	0.117387	0.277610	0.325491	0.114458	0.162358	0.448158	0.307452	0.139422	0.139477	0.209785	0.275979	0.646414	0.685828	0.752067	0.446505	0.107450	0.193510	0.180983	0.280861	0.134776	0.162641	0.637055	0.463115	0.070128	0.094348	0.297014	0.342520	0.137945	0.187459	0.790194	0.743816	0.116647	0.110352	0.112385	0.131981	0.286631	0.297053	0.418041	0.470135	0.243723	0.295824	0.133890	0.264979
89	0.085778	0.100494	0.260055	0.250104	0.090525	0.175211	0.277305	0.231468	0.123954	0.200545	0.851251	0.844217	0.067154	0.144501	0.165949	0.127479	0.111683	0.132865	0.422214	0.513558	0.121498	0.162862	0.103163	0.256240	0.074688	0.078082	0.373839	0.271426	0.085900	0.195241	0.224866	0.286763	0.305823	0.353133	0.600644	0.565011	0.070791	0.158980	0.279600	0.325796	0.135280	0.183366	0.451923	0.367962	0.152040	0.147023	0.188858	0.267396	0.643830	0.657184	0.634540	0.407964	0.104977	0.186889	0.178628	0.278234	0.135239	0.163334	0.655343	0.450346	0.069782	0.084296	0.296512	0.354433	0.140061	0.190075	0.790493	0.756472	0.139081	0.112437	0.112258	0.116690	0.269495	0.265723	0.417534	0.404467	0.281244	0.321063	0.128108	0.257097
90	0.083301	0.101111	0.279324	0.261386	0.071171	0.126010	0.280658	0.203420	0.128570	0.215820	0.825118	0.881227	0.054442	0.114430	0.161022	0.123026	0.115843	0.136844	0.479185	0.505464	0.139083	0.191345	0.104518	0.264611	0.067561	0.076810	0.392049	0.278428	0.074120	0.180383	0.234849	0.277760	0.304860	0.352226	0.589584	0.564820	0.077731	0.174807	0.282804	0.330892	0.181808	0.234138	0.461969	0.417513	0.157528	0.150539	0.174118	0.253570	0.613797	0.591017	0.576239	0.392976	0.103750	0.183507	0.156393	0.272872	0.136484	0.164871	0.662850	0.456496	0.067025	0.076036	0.297008	0.358887	0.139510	0.187157	0.760086	0.749940	0.141819	0.111533	0.113524	0.104989	0.258724	0.248388	0.418132	0.340436	0.310527	0.336062	0.124255	0.250385
91	0.083968	0.098841	0.294061	0.292752	0.049442	0.092680	0.273449	0.161748	0.132425	0.223881	0.768072	0.879325	0.051506	0.100100	0.160689	0.118187	0.118646	0.139944	0.537216	0.490043	0.184165	0.240390	0.107193	0.272832	0.070584	0.080307	0.382619	0.279807	0.075381	0.178630	0.241587	0.284856	0.302201	0.345640	0.527920	0.539127	0.077888	0.177360	0.289305	0.326540	0.215478	0.267369	0.486172	0.437912	0.161578	0.151463	0.169192	0.243773	0.476025	0.435505	0.573154	0.399453	0.102613	0.182096	0.133006	0.262239	0.135714	0.162058	0.638375	0.474124	0.065634	0.073641	0.297002	0.359565	0.135764	0.181470	0.699247	0.697734	0.142485	0.111650	0.114328	0.096786	0.251382	0.242340	0.384425	0.324388	0.318814	0.340143	0.123138	0.251244
92	0.081652	0.088330	0.307912	0.308131	0.036821	0.080730	0.273963	0.142956	0.138188	0.231094	0.745628	0.843255	0.040380	0.074709	0.159190	0.120858	0.119853	0.141198	0.532858	0.386428	0.231915	0.284948	0.095411	0.264813	0.067076	0.071106	0.380983	0.276478	0.097167	0.199174	0.240549	0.290551	0.293559	0.326495	0.472256	0.454202	0.077518	0.177639	0.287432	0.315518	0.234661	0.277662	0.499371	0.441638	0.163938	0.151602	0.168866	0.240509	0.307418	0.289250	0.569521	0.401763	0.092909	0.152582	0.124675	0.238070	0.124260	0.147186	0.646667	0.526681	0.065859	0.074002	0.290713	0.357077	0.129456	0.176158	0.643711	0.615336	0.142103	0.111376	0.122612	0.098931	0.243437	0.241640	0.379492	0.357491	0.319434	0.338800	0.124870	0.250914
93	0.076430	0.078451	0.303581	0.305148	0.037061	0.081592	0.276787	0.141493	0.150069	0.235277	0.749207	0.803938	0.051803	0.070508	0.157811	0.121750	0.112873	0.133327	0.471327	0.284492	0.271131	0.312170	0.088962	0.255826	0.065217	0.067752	0.378592	0.249511	0.120969	0.222008	0.225629	0.282916	0.265747	0.283477	0.383458	0.334000	0.076591	0.177257	0.275610	0.302149	0.246219	0.275400	0.537213	0.480814	0.164985	0.151705	0.168742	0.237172	0.211415	0.237424	0.554326	0.399031	0.065938	0.090755	0.106800	0.197489	0.118577	0.141618	0.671921	0.598666	0.063733	0.077211	0.271707	0.348281	0.119483	0.170465	0.631046	0.566481	0.138607	0.103248	0.136216	0.104245	0.238452	0.242092	0.372654	0.379073	0.314027	0.328748	0.122494	0.237292
94	0.049999	0.054125	0.281294	0.289364	0.056787	0.148373	0.261581	0.160645	0.155569	0.237007	0.768126	0.769897	0.071483	0.091544	0.154152	0.121755	0.094814	0.110034	0.504228	0.241984	0.299784	0.323005	0.100946	0.248373	0.067225	0.070152	0.404439	0.246221	0.132011	0.226425	0.200775	0.257381	0.222340	0.228229	0.323056	0.218001	0.076691	0.176689	0.277938	0.299906	0.243731	0.267691	0.544965	0.508447	0.163790	0.151259	0.167299	0.229540	0.164545	0.218935	0.550452	0.407489	0.037422	0.049420	0.071888	0.149368	0.125745	0.151223	0.672546	0.640707	0.062120	0.079933	0.257618	0.328706	0.113546	0.168269	0.625074	0.563778	0.133160	0.090654	0.127915	0.104916	0.237808	0.224660	0.368379	0.380621	0.300453	0.302745	0.120432	0.207256
95	0.048705	0.058845	0.283090	0.270262	0.070108	0.176223	0.236590	0.212425	0.152474	0.227535	0.817001	0.762880	0.094067	0.118416	0.153269	0.119481	0.072910	0.075380	0.592105	0.314968	0.322023	0.324373	0.111125	0.246217	0.075343	0.075333	0.422620	0.242671	0.134639	0.224100	0.182717	0.221031	0.178983	0.182435	0.314525	0.156039	0.079711	0.178581	0.285116	0.302244	0.242832	0.270430	0.507156	0.509659	0.156038	0.141055	0.164461	0.217882	0.163592	0.222084	0.526853	0.427983	0.028952	0.045980	0.048482	0.103926	0.131483	0.161815	0.641369	0.646771	0.061477	0.080107	0.255141	0.314546	0.111353	0.162041	0.564960	0.551917	0.126703	0.081715	0.116836	0.100608	0.207887	0.183271	0.370060	0.377365	0.276722	0.263433	0.112562	0.174551
96	0.054211	0.068331	0.320215	0.259241	0.071167	0.176558	0.212751	0.248578	0.159828	0.238774	0.859924	0.790020	0.112503	0.136841	0.138250	0.116440	0.080791	0.074739	0.657211	0.446198	0.332584	0.322959	0.124974	0.245647	0.073582	0.074264	0.424780	0.242155	0.133276	0.214645	0.167542	0.187412	0.163128	0.172457	0.306061	0.142594	0.079253	0.179767	0.277243	0.297555	0.289991	0.300505	0.442789	0.493224	0.144092	0.122056	0.162615	0.215153	0.169787	0.217762	0.486791	0.436252	0.025474	0.045214	0.049097	0.074142	0.138316	0.173421	0.595888	0.638173	0.062290	0.080157	0.255418	0.314404	0.106538	0.145451	0.465643	0.487458	0.117362	0.072757	0.111889	0.097980	0.165908	0.149776	0.402586	0.369735	0.253851	0.235732	0.088216	0.142331
97	0.054503	0.067916	0.319305	0.255759	0.070837	0.176524	0.174617	0.252736	0.170748	0.249614	0.869103	0.837949	0.122989	0.143459	0.106667	0.116108	0.103508	0.092384	0.728424	0.531529	0.334353	0.339491	0.127275	0.240999	0.073535	0.078068	0.435701	0.232200	0.131227	0.198037	0.154253	0.157793	0.162681	0.173528	0.342964	0.155319	0.079228	0.178837	0.225560	0.277397	0.302669	0.305697	0.458293	0.463557	0.135646	0.109803	0.161746	0.213858	0.171877	0.211189	0.456980	0.407939	0.023835	0.045373	0.048862	0.067052	0.141639	0.179664	0.554422	0.628203	0.063437	0.082695	0.248683	0.315860	0.081347	0.100141	0.336317	0.373364	0.112400	0.069280	0.117893	0.088696	0.139955	0.137984	0.384833	0.355151	0.243181	0.230485	0.070107	0.115560
98	0.057881	0.073472	0.292264	0.264029	0.070870	0.176913	0.148442	0.247814	0.179440	0.248824	0.797686	0.837908	0.125609	0.143959	0.086229	0.115927	0.115673	0.102627	0.752899	0.542875	0.367977	0.395940	0.129558	0.227901	0.068302	0.076253	0.407009	0.216491	0.133023	0.207430	0.152417	0.140746	0.160129	0.163755	0.441599	0.188391	0.079740	0.175233	0.172107	0.228142	0.303022	0.306800	0.479832	0.461160	0.130032	0.105459	0.162009	0.204643	0.169735	0.198041	0.519750	0.365264	0.024288	0.038202	0.051107	0.067953	0.143930	0.183432	0.559058	0.617053	0.060487	0.081508	0.225713	0.309465	0.062239	0.062151	0.243397	0.272105	0.113142	0.069777	0.138205	0.086420	0.132725	0.139842	0.339391	0.335687	0.239592	0.230027	0.061172	0.102474
99	0.062024	0.076805	0.263166	0.237563	0.071055	0.174672	0.148557	0.249069	0.185704	0.243068	0.666473	0.751250	0.126549	0.151961	0.103642	0.122232	0.113539	0.103173	0.751481	0.531859	0.457370	0.468685	0.139848	0.213049	0.077143	0.086806	0.379569	0.191311	0.154942	0.227527	0.152503	0.135109	0.128799	0.128246	0.533226	0.263537	0.080493	0.172217	0.155326	0.183495	0.302532	0.304358	0.474307	0.463752	0.122012	0.100286	0.157968	0.190435	0.157086	0.179189	0.669814	0.399830	0.024002	0.037833	0.059277	0.074461	0.144308	0.183249	0.565736	0.605934	0.054530	0.074251	0.172987	0.284370	0.057039	0.048971	0.223951	0.241576	0.112149	0.068842	0.151716	0.097800	0.143547	0.147866	0.316408	0.329888	0.238085	0.226651	0.057055	0.105560
100	0.062992	0.073416	0.240019	0.200345	0.070413	0.172224	0.147186	0.256085	0.181338	0.223115	0.593006	0.691103	0.137544	0.175661	0.145093	0.138658	0.113235	0.103585	0.781318	0.546219	0.527656	0.505638	0.155208	0.201353	0.086739	0.096855	0.407641	0.143395	0.208683	0.255094	0.149803	0.134302	0.088704	0.090757	0.547386	0.322540	0.081773	0.171710	0.164658	0.181814	0.298272	0.291018	0.473874	0.419293	0.113151	0.098836	0.131477	0.173632	0.152680	0.175870	0.760311	0.512281	0.021305	0.038780	0.071982	0.080974	0.144926	0.182034	0.567553	0.595878	0.051121	0.072240	0.102239	0.232505	0.058976	0.063906	0.225941	0.236894	0.088028	0.054669	0.152699	0.103302	0.153561	0.160090	0.326524	0.338103	0.233129	0.207676	0.058017	0.110587
101	0.061417	0.077200	0.229582	0.194019	0.068789	0.167531	0.144945	0.261495	0.174041	0.202665	0.648494	0.657751	0.165823	0.203396	0.171696	0.151662	0.129473	0.127583	0.828658	0.601034	0.557642	0.519071	0.165395	0.201669	0.088536	0.098839	0.396425	0.189703	0.241140	0.274320	0.140458	0.134596	0.060188	0.072392	0.558528	0.336698	0.084148	0.146921	0.190218	0.231468	0.277613	0.263005	0.474557	0.374477	0.111418	0.100024	0.106235	0.149985	0.152877	0.179501	0.815253	0.600096	0.021205	0.038793	0.075545	0.082307	0.150538	0.184645	0.563491	0.589064	0.062369	0.079936	0.066825	0.170733	0.084355	0.102337	0.231643	0.267814	0.052745	0.046724	0.152888	0.108939	0.164473	0.163270	0.386866	0.374369	0.201247	0.162761	0.060122	0.111778
