	306_At_T1_ih_ND_01.c3d	306_At_T1_ih_ND_01.c3d	306_At_T1_ih_ND_01.c3d	306_At_T1_ih_ND_01.c3d	306_At_T1_ih_ND_01.c3d	306_At_T1_ih_ND_01.c3d	306_At_T1_ih_ND_01.c3d	306_At_T1_ih_ND_01.c3d	306_At_T1_ih_ND_02.c3d	306_At_T1_ih_ND_02.c3d	306_At_T1_ih_ND_02.c3d	306_At_T1_ih_ND_02.c3d	306_At_T1_ih_ND_02.c3d	306_At_T1_ih_ND_02.c3d	306_At_T1_ih_ND_02.c3d	306_At_T1_ih_ND_02.c3d	306_At_T1_ih_ND_03.c3d	306_At_T1_ih_ND_03.c3d	306_At_T1_ih_ND_03.c3d	306_At_T1_ih_ND_03.c3d	306_At_T1_ih_ND_03.c3d	306_At_T1_ih_ND_03.c3d	306_At_T1_ih_ND_03.c3d	306_At_T1_ih_ND_03.c3d	306_At_T1_ih_ND_04.c3d	306_At_T1_ih_ND_04.c3d	306_At_T1_ih_ND_04.c3d	306_At_T1_ih_ND_04.c3d	306_At_T1_ih_ND_04.c3d	306_At_T1_ih_ND_04.c3d	306_At_T1_ih_ND_04.c3d	306_At_T1_ih_ND_04.c3d	306_At_T1_ih_ND_05.c3d	306_At_T1_ih_ND_05.c3d	306_At_T1_ih_ND_05.c3d	306_At_T1_ih_ND_05.c3d	306_At_T1_ih_ND_05.c3d	306_At_T1_ih_ND_05.c3d	306_At_T1_ih_ND_05.c3d	306_At_T1_ih_ND_05.c3d	306_At_T1_ih_ND_06.c3d	306_At_T1_ih_ND_06.c3d	306_At_T1_ih_ND_06.c3d	306_At_T1_ih_ND_06.c3d	306_At_T1_ih_ND_06.c3d	306_At_T1_ih_ND_06.c3d	306_At_T1_ih_ND_06.c3d	306_At_T1_ih_ND_06.c3d	306_At_T1_ih_ND_07.c3d	306_At_T1_ih_ND_07.c3d	306_At_T1_ih_ND_07.c3d	306_At_T1_ih_ND_07.c3d	306_At_T1_ih_ND_07.c3d	306_At_T1_ih_ND_07.c3d	306_At_T1_ih_ND_07.c3d	306_At_T1_ih_ND_07.c3d	306_At_T1_ih_ND_08.c3d	306_At_T1_ih_ND_08.c3d	306_At_T1_ih_ND_08.c3d	306_At_T1_ih_ND_08.c3d	306_At_T1_ih_ND_08.c3d	306_At_T1_ih_ND_08.c3d	306_At_T1_ih_ND_08.c3d	306_At_T1_ih_ND_08.c3d	306_At_T1_ih_ND_09.c3d	306_At_T1_ih_ND_09.c3d	306_At_T1_ih_ND_09.c3d	306_At_T1_ih_ND_09.c3d	306_At_T1_ih_ND_09.c3d	306_At_T1_ih_ND_09.c3d	306_At_T1_ih_ND_09.c3d	306_At_T1_ih_ND_09.c3d	306_At_T1_ih_ND_10.c3d	306_At_T1_ih_ND_10.c3d	306_At_T1_ih_ND_10.c3d	306_At_T1_ih_ND_10.c3d	306_At_T1_ih_ND_10.c3d	306_At_T1_ih_ND_10.c3d	306_At_T1_ih_ND_10.c3d	306_At_T1_ih_ND_10.c3d
	Biceps femoris_lat	Semitendinosus_lat	Vastus lateralis_lat	Vastus medialis_lat	Biceps femoris_med	Semitendinosus_med	Vastus lateralis_med	Vastus medialis_med	Biceps femoris_lat	Semitendinosus_lat	Vastus lateralis_lat	Vastus medialis_lat	Biceps femoris_med	Semitendinosus_med	Vastus lateralis_med	Vastus medialis_med	Biceps femoris_lat	Semitendinosus_lat	Vastus lateralis_lat	Vastus medialis_lat	Biceps femoris_med	Semitendinosus_med	Vastus lateralis_med	Vastus medialis_med	Biceps femoris_lat	Semitendinosus_lat	Vastus lateralis_lat	Vastus medialis_lat	Biceps femoris_med	Semitendinosus_med	Vastus lateralis_med	Vastus medialis_med	Biceps femoris_lat	Semitendinosus_lat	Vastus lateralis_lat	Vastus medialis_lat	Biceps femoris_med	Semitendinosus_med	Vastus lateralis_med	Vastus medialis_med	Biceps femoris_lat	Semitendinosus_lat	Vastus lateralis_lat	Vastus medialis_lat	Biceps femoris_med	Semitendinosus_med	Vastus lateralis_med	Vastus medialis_med	Biceps femoris_lat	Semitendinosus_lat	Vastus lateralis_lat	Vastus medialis_lat	Biceps femoris_med	Semitendinosus_med	Vastus lateralis_med	Vastus medialis_med	Biceps femoris_lat	Semitendinosus_lat	Vastus lateralis_lat	Vastus medialis_lat	Biceps femoris_med	Semitendinosus_med	Vastus lateralis_med	Vastus medialis_med	Biceps femoris_lat	Semitendinosus_lat	Vastus lateralis_lat	Vastus medialis_lat	Biceps femoris_med	Semitendinosus_med	Vastus lateralis_med	Vastus medialis_med	Biceps femoris_lat	Semitendinosus_lat	Vastus lateralis_lat	Vastus medialis_lat	Biceps femoris_med	Semitendinosus_med	Vastus lateralis_med	Vastus medialis_med
	P2D	P2D	P2D	P2D	P2D	P2D	P2D	P2D	P2D	P2D	P2D	P2D	P2D	P2D	P2D	P2D	P2D	P2D	P2D	P2D	P2D	P2D	P2D	P2D	P2D	P2D	P2D	P2D	P2D	P2D	P2D	P2D	P2D	P2D	P2D	P2D	P2D	P2D	P2D	P2D	P2D	P2D	P2D	P2D	P2D	P2D	P2D	P2D	P2D	P2D	P2D	P2D	P2D	P2D	P2D	P2D	P2D	P2D	P2D	P2D	P2D	P2D	P2D	P2D	P2D	P2D	P2D	P2D	P2D	P2D	P2D	P2D	P2D	P2D	P2D	P2D	P2D	P2D	P2D	P2D
	EMG_lat	EMG_lat	EMG_lat	EMG_lat	EMG_med	EMG_med	EMG_med	EMG_med	EMG_lat	EMG_lat	EMG_lat	EMG_lat	EMG_med	EMG_med	EMG_med	EMG_med	EMG_lat	EMG_lat	EMG_lat	EMG_lat	EMG_med	EMG_med	EMG_med	EMG_med	EMG_lat	EMG_lat	EMG_lat	EMG_lat	EMG_med	EMG_med	EMG_med	EMG_med	EMG_lat	EMG_lat	EMG_lat	EMG_lat	EMG_med	EMG_med	EMG_med	EMG_med	EMG_lat	EMG_lat	EMG_lat	EMG_lat	EMG_med	EMG_med	EMG_med	EMG_med	EMG_lat	EMG_lat	EMG_lat	EMG_lat	EMG_med	EMG_med	EMG_med	EMG_med	EMG_lat	EMG_lat	EMG_lat	EMG_lat	EMG_med	EMG_med	EMG_med	EMG_med	EMG_lat	EMG_lat	EMG_lat	EMG_lat	EMG_med	EMG_med	EMG_med	EMG_med	EMG_lat	EMG_lat	EMG_lat	EMG_lat	EMG_med	EMG_med	EMG_med	EMG_med
ITEM	Y	Y	Y	Y	Y	Y	Y	Y	Y	Y	Y	Y	Y	Y	Y	Y	Y	Y	Y	Y	Y	Y	Y	Y	Y	Y	Y	Y	Y	Y	Y	Y	Y	Y	Y	Y	Y	Y	Y	Y	Y	Y	Y	Y	Y	Y	Y	Y	Y	Y	Y	Y	Y	Y	Y	Y	Y	Y	Y	Y	Y	Y	Y	Y	Y	Y	Y	Y	Y	Y	Y	Y	Y	Y	Y	Y	Y	Y	Y	Y
1	0.214473	0.010482	0.281255	0.252863	0.591144	0.106708	0.347216	0.173232	0.351346	0.134024	0.230726	0.280428	0.187707	0.135613	0.172966	0.195407	0.372495	0.072582	0.338122	0.273925	0.450474	0.189203	0.339033	0.302115	0.230405	0.150820	0.228478	0.179893	0.402741	0.232163	0.336096	0.241415	0.544685	0.338433	0.742346	0.603669	0.248020	0.092725	0.187882	0.123719	0.979494	0.148573	0.451046	0.460807	0.245138	0.384103	0.639856	0.245690	0.629592	0.178643	0.293162	0.242702	0.126116	0.342014	0.371267	0.249460	0.703461	0.048643	0.123588	0.120749	0.125763	0.380455	0.166454	0.089515	0.258090	0.116549	0.669123	0.458167	0.233238	1.066744	0.248459	0.148691	0.383017	0.029600	0.470757	0.521977	0.101778	0.417558	0.253374	0.155620
2	0.211404	0.013598	0.260997	0.253936	0.561848	0.102843	0.342389	0.172481	0.360287	0.132768	0.234691	0.252316	0.188590	0.132077	0.171183	0.194231	0.356898	0.066830	0.327094	0.265815	0.453663	0.188563	0.336278	0.303242	0.282713	0.167498	0.193722	0.178608	0.402235	0.239271	0.388270	0.332666	0.566450	0.360040	0.777853	0.617152	0.249334	0.088681	0.181769	0.162952	0.909490	0.150890	0.551661	0.623166	0.263194	0.414796	0.621745	0.244526	0.653281	0.165874	0.277935	0.235770	0.124761	0.362132	0.371221	0.255320	0.722407	0.048418	0.124491	0.122201	0.126158	0.389734	0.150494	0.072169	0.202035	0.133729	0.620892	0.493497	0.227768	1.076639	0.242672	0.176879	0.362120	0.028414	0.470604	0.531159	0.101631	0.423250	0.277391	0.158340
3	0.231484	0.015659	0.231875	0.265221	0.525618	0.098729	0.323764	0.144045	0.351054	0.130384	0.228011	0.247932	0.170883	0.136234	0.195765	0.192867	0.339736	0.060961	0.335339	0.264870	0.452432	0.188996	0.320079	0.305785	0.326387	0.186444	0.190377	0.176655	0.413772	0.247524	0.421878	0.411872	0.562496	0.373004	0.773241	0.616649	0.249332	0.087038	0.162876	0.189280	0.659855	0.151797	0.592697	0.679174	0.273138	0.440962	0.563275	0.237509	0.647245	0.149379	0.265008	0.229600	0.132998	0.377039	0.319227	0.254085	0.732971	0.048120	0.126562	0.128181	0.127735	0.396048	0.150261	0.063905	0.177914	0.162804	0.569981	0.502962	0.227490	1.111180	0.238387	0.176367	0.332983	0.028698	0.470665	0.542547	0.095177	0.424811	0.306374	0.161256
4	0.251568	0.016732	0.206699	0.278752	0.441910	0.094483	0.311079	0.115237	0.351125	0.127348	0.202410	0.209429	0.144760	0.147170	0.191959	0.195302	0.335278	0.057106	0.368411	0.308449	0.453408	0.187206	0.276964	0.302822	0.343683	0.206505	0.192922	0.177022	0.444180	0.258929	0.435193	0.451584	0.554170	0.379224	0.815815	0.630899	0.250491	0.089512	0.163971	0.192437	0.380719	0.151932	0.601838	0.685585	0.272714	0.460294	0.459868	0.210845	0.580770	0.130105	0.269728	0.225611	0.149047	0.377936	0.245430	0.238513	0.757483	0.048320	0.127258	0.129891	0.127449	0.396864	0.146641	0.063099	0.180448	0.202275	0.550350	0.491631	0.227054	1.154355	0.222178	0.172599	0.311778	0.035072	0.483895	0.557608	0.094788	0.425226	0.335614	0.170199
5	0.254087	0.017581	0.217148	0.313618	0.374489	0.087063	0.310496	0.112965	0.346002	0.124224	0.191697	0.184221	0.151066	0.161602	0.181775	0.196228	0.334939	0.058913	0.403581	0.387992	0.455096	0.181307	0.203037	0.282859	0.368808	0.226966	0.190234	0.177044	0.446910	0.271555	0.430630	0.451471	0.550439	0.380937	0.921651	0.652981	0.253859	0.098583	0.170810	0.194577	0.289861	0.152208	0.602432	0.683013	0.270874	0.473917	0.387238	0.181969	0.544417	0.110075	0.314640	0.229782	0.148937	0.370834	0.193385	0.205552	0.756932	0.050265	0.125124	0.116959	0.123266	0.394240	0.133352	0.061741	0.212741	0.242833	0.559994	0.479128	0.225204	1.184677	0.211118	0.172100	0.309073	0.050955	0.522311	0.579248	0.086376	0.433320	0.345243	0.179358
6	0.254031	0.018860	0.224989	0.352489	0.370655	0.079107	0.303836	0.101031	0.325751	0.125478	0.188528	0.183857	0.140300	0.175628	0.193105	0.187960	0.326665	0.069219	0.404375	0.416250	0.442396	0.170430	0.136821	0.245528	0.396944	0.246340	0.174636	0.174250	0.446135	0.281492	0.421046	0.441364	0.508396	0.379708	0.999827	0.673508	0.251560	0.115745	0.171052	0.199610	0.287410	0.155683	0.613894	0.679097	0.270566	0.482818	0.370887	0.195191	0.537901	0.094424	0.376684	0.241255	0.148769	0.383073	0.180671	0.179719	0.758592	0.055934	0.131025	0.116412	0.120986	0.389751	0.111466	0.058638	0.215112	0.279104	0.580630	0.478547	0.257571	1.177221	0.211237	0.168601	0.306546	0.069224	0.576881	0.594178	0.082177	0.455617	0.341178	0.183537
7	0.252872	0.020440	0.340662	0.359613	0.390559	0.071755	0.258281	0.091946	0.313732	0.138924	0.214743	0.200257	0.111306	0.188354	0.199348	0.152993	0.228700	0.084915	0.397778	0.415921	0.400328	0.155173	0.116513	0.224331	0.496670	0.263063	0.181731	0.169117	0.444327	0.287381	0.422706	0.436794	0.445850	0.378001	1.026456	0.695702	0.242284	0.140856	0.160565	0.201447	0.284347	0.167791	0.658922	0.681399	0.270946	0.487047	0.383608	0.223205	0.467997	0.090346	0.410481	0.244302	0.148158	0.416006	0.174984	0.173997	0.757461	0.066814	0.152253	0.128093	0.126854	0.384716	0.078833	0.054744	0.215501	0.307405	0.592981	0.490174	0.273057	1.123902	0.211822	0.172339	0.292860	0.081450	0.625805	0.600401	0.085249	0.499637	0.347861	0.184578
8	0.249617	0.021915	0.499593	0.413700	0.395504	0.065685	0.176573	0.095532	0.292827	0.162468	0.219283	0.202278	0.090483	0.197567	0.202402	0.128878	0.148910	0.102141	0.406433	0.419465	0.372928	0.137617	0.116144	0.223208	0.568345	0.276179	0.309159	0.229609	0.435670	0.288063	0.440922	0.449746	0.430834	0.377523	1.035370	0.716422	0.235630	0.172281	0.154407	0.199611	0.272847	0.195687	0.733851	0.712469	0.258788	0.485488	0.384669	0.235504	0.425903	0.094685	0.415113	0.228965	0.142254	0.450604	0.173162	0.181994	0.733369	0.082911	0.175944	0.157482	0.157178	0.380859	0.057086	0.050105	0.220381	0.324173	0.590758	0.498002	0.264554	1.056027	0.225525	0.184042	0.288834	0.086751	0.644505	0.601965	0.081139	0.572724	0.352483	0.184712
9	0.255732	0.023073	0.546512	0.452332	0.391352	0.062026	0.124020	0.100160	0.275429	0.187748	0.220199	0.207768	0.086023	0.201513	0.225865	0.168392	0.122031	0.120479	0.396386	0.414354	0.367243	0.120182	0.114732	0.222212	0.570314	0.285118	0.421905	0.434307	0.424409	0.284594	0.481503	0.467366	0.428155	0.378802	1.038474	0.738292	0.235622	0.208258	0.153841	0.202596	0.241657	0.244980	0.779386	0.767129	0.219643	0.477694	0.387887	0.233735	0.413413	0.099585	0.413215	0.206389	0.133769	0.493980	0.174506	0.192370	0.683807	0.102864	0.187387	0.161941	0.160601	0.376945	0.050374	0.046598	0.216226	0.329192	0.591279	0.495482	0.261826	1.015447	0.249835	0.195956	0.287883	0.089792	0.630775	0.583802	0.070957	0.657936	0.352115	0.185524
10	0.267032	0.023893	0.544863	0.446404	0.388873	0.060853	0.121787	0.102291	0.259557	0.208043	0.228992	0.187831	0.097717	0.200725	0.247429	0.224229	0.118738	0.138322	0.391780	0.402028	0.353372	0.105655	0.113381	0.221388	0.571358	0.289948	0.467739	0.565246	0.410097	0.280585	0.523080	0.482602	0.428652	0.381378	1.046739	0.754670	0.224678	0.254281	0.164297	0.210871	0.209217	0.317080	0.814517	0.820797	0.206742	0.468812	0.407057	0.229770	0.419968	0.102901	0.433087	0.185901	0.132615	0.542446	0.175152	0.200479	0.578027	0.125658	0.189842	0.158556	0.174390	0.369359	0.050784	0.043638	0.212363	0.329059	0.591960	0.493097	0.256234	1.039827	0.262029	0.205096	0.281348	0.090962	0.583308	0.531062	0.069668	0.728086	0.351839	0.187435
11	0.276385	0.024616	0.553533	0.432972	0.387761	0.060654	0.120328	0.101622	0.098567	0.221156	0.297695	0.180672	0.110045	0.196751	0.251875	0.229451	0.112914	0.152722	0.383889	0.394001	0.329348	0.093824	0.109979	0.214534	0.585916	0.291320	0.480860	0.604428	0.382699	0.285211	0.552557	0.491492	0.421557	0.384334	1.056566	0.764036	0.219045	0.312844	0.181522	0.220403	0.207080	0.372798	0.834644	0.864191	0.193873	0.475302	0.429838	0.245591	0.412675	0.104781	0.479054	0.179371	0.115261	0.587789	0.174259	0.206459	0.554452	0.138215	0.187456	0.158050	0.187998	0.349391	0.051139	0.041933	0.210138	0.335689	0.591502	0.492355	0.248921	1.105718	0.240056	0.196806	0.261133	0.090561	0.535161	0.449048	0.073524	0.782320	0.351273	0.187912
12	0.294072	0.025509	0.606238	0.432685	0.387603	0.060804	0.114137	0.101482	0.073469	0.226241	0.368348	0.214522	0.111248	0.190170	0.270732	0.243425	0.113304	0.163091	0.366893	0.385140	0.287783	0.081850	0.102903	0.186375	0.590969	0.290127	0.480621	0.605690	0.374797	0.309374	0.564577	0.494806	0.397570	0.387392	1.065939	0.769575	0.144349	0.380201	0.193367	0.231817	0.209261	0.399952	0.841738	0.892936	0.150024	0.515268	0.443702	0.285027	0.409614	0.106440	0.507372	0.180452	0.112947	0.621489	0.171812	0.208043	0.544176	0.140050	0.230641	0.158046	0.204089	0.311978	0.044164	0.040445	0.200086	0.370017	0.586650	0.492455	0.224378	1.162913	0.218909	0.184212	0.254565	0.090420	0.514560	0.380249	0.071098	0.838900	0.334440	0.164134
13	0.350456	0.026647	0.676261	0.461047	0.378951	0.063534	0.122640	0.101189	0.075194	0.227538	0.403725	0.239437	0.108990	0.180566	0.314271	0.270503	0.112636	0.170806	0.347663	0.380422	0.236472	0.070173	0.091474	0.150467	0.590384	0.287542	0.504039	0.626158	0.338236	0.354635	0.565247	0.496543	0.376146	0.387397	1.068079	0.772248	0.122790	0.450915	0.197527	0.241528	0.209575	0.411896	0.841252	0.897626	0.147058	0.542517	0.448568	0.314019	0.406467	0.110975	0.513173	0.178469	0.112658	0.637497	0.162956	0.203505	0.503462	0.138811	0.278349	0.158165	0.208069	0.271156	0.037981	0.039264	0.189464	0.419684	0.557306	0.492578	0.220024	1.218519	0.212212	0.164409	0.254946	0.090228	0.507681	0.356719	0.073359	0.900360	0.302659	0.137542
14	0.383073	0.027795	0.692245	0.494710	0.345588	0.074002	0.128960	0.098943	0.065661	0.225603	0.403737	0.241894	0.111630	0.168211	0.305289	0.296378	0.106685	0.177580	0.347912	0.379807	0.192565	0.061121	0.086856	0.136064	0.590146	0.285133	0.565901	0.688537	0.238510	0.402768	0.546414	0.495497	0.375299	0.376432	1.059585	0.772138	0.114807	0.512339	0.195940	0.245406	0.208120	0.413845	0.836090	0.894485	0.147451	0.559633	0.445636	0.327239	0.405327	0.122427	0.513160	0.177849	0.102665	0.637498	0.130765	0.192352	0.422079	0.142195	0.302723	0.164228	0.197527	0.261945	0.036942	0.038720	0.186092	0.446830	0.458840	0.479148	0.221495	1.275204	0.248643	0.140075	0.247314	0.089777	0.505539	0.360998	0.078115	0.965984	0.291352	0.126747
15	0.390455	0.029409	0.690540	0.507934	0.318224	0.095889	0.129201	0.094418	0.066379	0.221241	0.413259	0.247399	0.121322	0.151057	0.324092	0.300826	0.107672	0.184995	0.354503	0.384521	0.150225	0.067148	0.120201	0.133019	0.591084	0.285003	0.644269	0.768824	0.225023	0.439584	0.502191	0.473306	0.347909	0.351519	1.023940	0.755447	0.102779	0.552629	0.188550	0.242849	0.206366	0.411350	0.826983	0.896065	0.147450	0.568893	0.441964	0.331632	0.386236	0.142743	0.512350	0.169477	0.097300	0.627090	0.102134	0.187034	0.319511	0.159627	0.313089	0.171646	0.199865	0.255870	0.035690	0.037596	0.178075	0.465204	0.360268	0.405469	0.221671	1.313110	0.260244	0.141535	0.242064	0.090819	0.503822	0.367444	0.079230	1.030380	0.293666	0.155622
16	0.393712	0.032260	0.683749	0.502053	0.310643	0.129655	0.134781	0.092658	0.060799	0.216175	0.456531	0.300230	0.130899	0.130233	0.453736	0.314814	0.100795	0.192504	0.358963	0.398440	0.134154	0.095012	0.143448	0.132928	0.580401	0.289613	0.679970	0.830919	0.227772	0.475654	0.461939	0.410795	0.311025	0.315289	0.952028	0.673629	0.095111	0.569184	0.180490	0.218887	0.199960	0.412776	0.797028	0.875542	0.139133	0.572530	0.439523	0.333396	0.313133	0.172518	0.520628	0.173002	0.095497	0.612483	0.087886	0.183401	0.269322	0.193278	0.314108	0.170415	0.200347	0.252556	0.040612	0.039033	0.173408	0.478171	0.320758	0.334801	0.221151	1.317743	0.257468	0.152413	0.200026	0.096632	0.497126	0.374715	0.077972	1.079953	0.292512	0.192404
17	0.382098	0.037560	0.683651	0.559262	0.304360	0.167997	0.149126	0.093690	0.058383	0.221872	0.490445	0.333789	0.137266	0.108501	0.512388	0.337869	0.081696	0.194722	0.357160	0.417054	0.140156	0.135054	0.149566	0.129206	0.549190	0.297688	0.696588	0.850746	0.197921	0.494529	0.433974	0.332204	0.300563	0.272621	0.879778	0.586770	0.095180	0.570491	0.174945	0.188608	0.160093	0.424108	0.717453	0.771494	0.096641	0.573250	0.437570	0.334029	0.257422	0.207978	0.527831	0.189119	0.061416	0.601969	0.157060	0.199425	0.222352	0.236918	0.312841	0.163926	0.200329	0.256101	0.048885	0.045960	0.167137	0.484240	0.312674	0.305548	0.201710	1.312641	0.256680	0.166734	0.181275	0.107557	0.497819	0.371120	0.076478	1.118597	0.289882	0.208478
18	0.378365	0.042507	0.705734	0.688102	0.214207	0.193461	0.157424	0.096891	0.056140	0.261895	0.518437	0.346986	0.138189	0.084096	0.525320	0.350016	0.064220	0.195774	0.345001	0.413607	0.140260	0.173797	0.148858	0.121742	0.520807	0.309125	0.700484	0.850784	0.120448	0.491879	0.415765	0.279689	0.239211	0.228739	0.851218	0.670269	0.093794	0.595579	0.173597	0.174603	0.156305	0.446111	0.650652	0.662688	0.083633	0.577517	0.434746	0.333868	0.190017	0.231634	0.527392	0.195095	0.049726	0.599681	0.405092	0.311577	0.142485	0.281819	0.312126	0.153426	0.202283	0.263943	0.079994	0.068773	0.167041	0.482185	0.313400	0.290383	0.128763	1.314913	0.256611	0.180469	0.181351	0.121441	0.498756	0.357124	0.077563	1.150507	0.270328	0.210393
19	0.378440	0.042983	0.734936	0.742670	0.203024	0.203594	0.159293	0.101887	0.053077	0.277738	0.520742	0.343733	0.153204	0.059778	0.540723	0.348274	0.064423	0.213786	0.318832	0.355014	0.120041	0.204557	0.156734	0.126002	0.502391	0.326850	0.707651	0.852114	0.110520	0.495845	0.401553	0.284908	0.192105	0.194193	0.873563	0.867267	0.083974	0.660818	0.167231	0.170058	0.150870	0.473399	0.623249	0.625669	0.089429	0.589497	0.408016	0.331416	0.169848	0.237424	0.527535	0.195234	0.050075	0.597370	0.523955	0.403161	0.117972	0.321660	0.312593	0.156944	0.207300	0.273388	0.092225	0.090391	0.148965	0.471682	0.321010	0.298447	0.102657	1.315768	0.254951	0.175458	0.172634	0.134139	0.501252	0.339260	0.073673	1.158414	0.235020	0.205130
20	0.378709	0.047891	0.726471	0.756458	0.182722	0.205060	0.159676	0.108522	0.063048	0.276139	0.537754	0.364282	0.177026	0.042823	0.595213	0.337741	0.056757	0.266272	0.297272	0.309580	0.109066	0.227407	0.167564	0.139844	0.492140	0.357317	0.756870	0.858162	0.111696	0.560411	0.398862	0.303091	0.181687	0.171127	0.900205	0.958272	0.078882	0.714704	0.178144	0.167259	0.161735	0.499129	0.620458	0.621879	0.102547	0.605314	0.363182	0.318039	0.167639	0.236490	0.525954	0.196114	0.053292	0.572617	0.541307	0.421514	0.090789	0.350064	0.309093	0.192177	0.203964	0.284850	0.095200	0.093777	0.100030	0.454214	0.307943	0.324797	0.101570	1.308883	0.234065	0.162494	0.121545	0.139815	0.525614	0.316700	0.071364	1.185275	0.207656	0.199102
21	0.382388	0.057080	0.641506	0.732239	0.112022	0.210954	0.159047	0.103089	0.095549	0.270273	0.538351	0.382727	0.173653	0.037993	0.623063	0.317376	0.054823	0.311990	0.283628	0.305554	0.107911	0.244971	0.179643	0.147113	0.465481	0.404465	0.794578	0.871569	0.117756	0.714472	0.396724	0.299707	0.169713	0.162045	0.878784	0.967352	0.079185	0.761330	0.289483	0.190374	0.169497	0.518270	0.619546	0.622064	0.107317	0.616512	0.341467	0.294312	0.171691	0.238988	0.510028	0.193458	0.055053	0.544759	0.551136	0.420171	0.088165	0.360122	0.293196	0.224113	0.180189	0.293064	0.113444	0.095683	0.096993	0.434291	0.303279	0.408238	0.100956	1.278895	0.199816	0.149160	0.117630	0.137500	0.646072	0.284904	0.070230	1.293981	0.207159	0.197679
22	0.380068	0.057931	0.591571	0.709454	0.130085	0.216384	0.152284	0.086844	0.094795	0.267379	0.507926	0.378304	0.166043	0.070158	0.651362	0.331051	0.057030	0.334879	0.265431	0.304459	0.108025	0.258936	0.190046	0.147166	0.398676	0.461832	0.807143	0.886193	0.122492	0.892759	0.396166	0.270168	0.166931	0.164544	0.799099	0.953491	0.074657	0.794923	0.361404	0.256502	0.173282	0.528127	0.605776	0.623652	0.105477	0.619829	0.342134	0.307902	0.184419	0.244643	0.487238	0.264941	0.057150	0.506464	0.615349	0.433990	0.065330	0.357625	0.279076	0.232928	0.178812	0.289521	0.118254	0.096163	0.094845	0.416478	0.317605	0.522767	0.097968	1.192368	0.190612	0.154880	0.112556	0.129961	0.785813	0.326902	0.065366	1.394789	0.195392	0.205729
23	0.371120	0.068190	0.601895	0.707787	0.155221	0.223448	0.145569	0.076733	0.091702	0.266374	0.485520	0.365759	0.166650	0.171130	0.658292	0.335324	0.056972	0.351392	0.262974	0.306642	0.107884	0.269745	0.193211	0.147176	0.226033	0.526248	0.774172	0.881873	0.123055	1.039462	0.374219	0.232230	0.171702	0.174419	0.723837	0.942300	0.064718	0.813806	0.373553	0.320765	0.174330	0.528285	0.554829	0.673091	0.096328	0.619353	0.348535	0.342364	0.189148	0.249034	0.480552	0.426180	0.058798	0.453611	0.703983	0.472543	0.057151	0.359561	0.303799	0.236369	0.163714	0.273120	0.135616	0.106726	0.082377	0.406075	0.335505	0.573300	0.086233	1.080922	0.206077	0.185352	0.110137	0.121868	0.848084	0.432389	0.058709	1.473968	0.187572	0.216578
24	0.371974	0.086272	0.599730	0.708686	0.155974	0.230289	0.143791	0.075452	0.091146	0.267006	0.493849	0.368017	0.176316	0.312565	0.640531	0.321276	0.057614	0.373632	0.289053	0.305717	0.105999	0.276480	0.193679	0.147230	0.216010	0.577051	0.717856	0.813856	0.105824	1.144483	0.349527	0.198272	0.125334	0.184837	0.692666	0.944436	0.047585	0.819497	0.370981	0.335268	0.162691	0.516555	0.470689	0.733340	0.097191	0.619917	0.330812	0.362070	0.184173	0.250087	0.481864	0.498750	0.058124	0.389179	0.767179	0.518569	0.048750	0.366317	0.381146	0.256684	0.144740	0.255233	0.148784	0.123495	0.079485	0.404082	0.348739	0.586339	0.072847	0.981342	0.222325	0.208849	0.108331	0.118209	0.858535	0.497913	0.056552	1.533911	0.186327	0.223451
25	0.358391	0.106027	0.573196	0.723426	0.157024	0.235058	0.143221	0.075433	0.091704	0.266657	0.482570	0.361058	0.181538	0.416613	0.635174	0.295717	0.056361	0.410742	0.462292	0.395053	0.102657	0.277856	0.193875	0.148518	0.212434	0.614241	0.700327	0.713850	0.099986	1.203210	0.310264	0.178050	0.113896	0.191981	0.679184	0.958071	0.048689	0.811667	0.363808	0.330476	0.136979	0.488810	0.411469	0.718860	0.098564	0.620072	0.293729	0.360756	0.173017	0.248587	0.475758	0.507739	0.067010	0.323155	0.774303	0.532809	0.047018	0.380369	0.470691	0.360388	0.119350	0.241489	0.153676	0.142718	0.078012	0.403900	0.360637	0.590686	0.059896	0.904040	0.218332	0.221693	0.086076	0.117560	0.857239	0.522587	0.056403	1.588440	0.186475	0.227216
26	0.283718	0.121567	0.496879	0.762508	0.155711	0.237762	0.141648	0.075453	0.091978	0.260696	0.442458	0.309349	0.173960	0.453629	0.616557	0.288246	0.052227	0.459346	0.604538	0.568988	0.099317	0.277687	0.194300	0.149530	0.175872	0.635441	0.711177	0.668471	0.099718	1.225824	0.287537	0.173268	0.110988	0.194635	0.669277	0.966770	0.054191	0.791975	0.369772	0.324630	0.132189	0.439594	0.352236	0.663125	0.101247	0.602021	0.259330	0.350043	0.174222	0.247861	0.450491	0.509485	0.086190	0.268787	0.776552	0.532562	0.046857	0.398500	0.480182	0.456349	0.108512	0.230461	0.153909	0.157628	0.084165	0.393892	0.362732	0.597121	0.050246	0.838590	0.175337	0.226207	0.065721	0.119297	0.867263	0.522392	0.049756	1.639915	0.192084	0.225340
27	0.232293	0.129957	0.475322	0.814113	0.156353	0.238340	0.125185	0.075689	0.094216	0.234892	0.394023	0.273121	0.168352	0.465540	0.527680	0.272332	0.052781	0.487629	0.660894	0.660594	0.095875	0.283328	0.194826	0.146603	0.148062	0.639347	0.714931	0.700901	0.099766	1.224117	0.288561	0.168471	0.110300	0.193889	0.655798	0.956013	0.063174	0.761535	0.401775	0.328156	0.131526	0.401013	0.316379	0.616881	0.105565	0.557225	0.234713	0.331416	0.165090	0.250650	0.413570	0.533774	0.098845	0.234528	0.779963	0.532274	0.047392	0.416366	0.457457	0.491549	0.105901	0.221068	0.158995	0.164568	0.088157	0.348827	0.365752	0.627222	0.045019	0.803879	0.160609	0.222743	0.070940	0.123371	0.908465	0.515603	0.055663	1.687828	0.205307	0.224714
28	0.214444	0.132067	0.529606	0.847227	0.162975	0.235327	0.124552	0.077522	0.094635	0.162404	0.364566	0.273260	0.184275	0.466861	0.465990	0.242755	0.050751	0.501911	0.697024	0.722218	0.092921	0.308848	0.190080	0.132256	0.150437	0.642401	0.704610	0.740539	0.092789	1.213323	0.301558	0.174349	0.106997	0.191759	0.660769	0.944860	0.064748	0.725471	0.423071	0.346716	0.133125	0.384046	0.304512	0.611229	0.105647	0.520387	0.215032	0.312464	0.161189	0.259347	0.402830	0.580116	0.099195	0.210944	0.780640	0.532159	0.057160	0.429567	0.451458	0.495056	0.100656	0.212925	0.172603	0.178085	0.092583	0.291361	0.371251	0.666932	0.041196	0.818433	0.158318	0.220015	0.070866	0.128196	0.963016	0.513793	0.058662	1.711688	0.233512	0.224677
29	0.185044	0.131386	0.611981	0.869373	0.170294	0.225891	0.145712	0.138581	0.110443	0.120368	0.364839	0.278655	0.188478	0.467559	0.448087	0.222206	0.056351	0.507718	0.700317	0.763989	0.082378	0.365995	0.172948	0.115464	0.147049	0.662135	0.673103	0.709335	0.102144	1.202396	0.311859	0.175456	0.104427	0.189924	0.677829	0.944043	0.060839	0.694784	0.434790	0.366053	0.141892	0.384692	0.307998	0.636270	0.107427	0.483054	0.217416	0.301847	0.154990	0.273129	0.418588	0.630986	0.100620	0.198687	0.780723	0.532950	0.070684	0.432430	0.467747	0.494913	0.098329	0.205511	0.174305	0.231712	0.100029	0.249332	0.372603	0.683948	0.046201	0.844903	0.161295	0.215860	0.069304	0.133330	0.995420	0.521452	0.054053	1.713018	0.253740	0.221429
30	0.178660	0.131935	0.701116	0.834995	0.176218	0.205410	0.165905	0.246014	0.151853	0.096644	0.316930	0.247992	0.178194	0.470886	0.425325	0.219720	0.081850	0.508828	0.706399	0.762918	0.070765	0.446223	0.171303	0.108716	0.143175	0.702984	0.607285	0.624723	0.106699	1.191657	0.313840	0.176180	0.106453	0.189465	0.687299	0.953479	0.061274	0.679015	0.438842	0.377603	0.143856	0.397527	0.299147	0.649112	0.107369	0.447373	0.232479	0.298544	0.151196	0.293520	0.433451	0.673387	0.105619	0.215393	0.780264	0.532830	0.078338	0.423330	0.517624	0.506366	0.109041	0.198825	0.187909	0.279018	0.102551	0.214542	0.382349	0.681022	0.056926	0.860134	0.227036	0.231647	0.077973	0.139069	1.000367	0.548575	0.078515	1.698734	0.254580	0.205800
31	0.190646	0.137871	0.721130	0.715573	0.178385	0.173439	0.177603	0.286065	0.187664	0.104189	0.242947	0.195963	0.198671	0.475296	0.329633	0.205474	0.099731	0.508615	0.770881	0.781871	0.052755	0.542087	0.194248	0.105883	0.136218	0.758238	0.567212	0.541392	0.106490	1.189889	0.316013	0.176626	0.107071	0.190120	0.698209	0.956080	0.062754	0.678265	0.440246	0.380494	0.147916	0.414103	0.293657	0.646318	0.102747	0.413592	0.252906	0.298374	0.149717	0.318540	0.424365	0.686518	0.106528	0.288150	0.730913	0.498708	0.079023	0.404819	0.542160	0.525633	0.117860	0.191998	0.212341	0.307780	0.104930	0.187068	0.398890	0.676281	0.061773	0.866411	0.298832	0.301067	0.088890	0.144927	1.000434	0.582754	0.084334	1.683063	0.247112	0.170585
32	0.190595	0.152310	0.706738	0.629694	0.177152	0.145436	0.176715	0.289219	0.224694	0.168038	0.224692	0.170430	0.292067	0.478925	0.250938	0.185673	0.100470	0.508597	0.855083	0.840268	0.043703	0.644639	0.206217	0.107612	0.134929	0.817303	0.542647	0.523189	0.114225	1.196015	0.323277	0.174141	0.102832	0.190899	0.710053	0.956120	0.064097	0.669518	0.440287	0.380908	0.167443	0.426503	0.293669	0.643383	0.109612	0.382481	0.301558	0.297921	0.149620	0.343491	0.389326	0.682859	0.115030	0.404749	0.618795	0.412321	0.093386	0.379252	0.550053	0.548874	0.112786	0.183254	0.232442	0.321406	0.107559	0.170766	0.403427	0.675724	0.073065	0.866844	0.329629	0.325390	0.092363	0.149288	0.996474	0.611403	0.084049	1.664131	0.222594	0.144562
33	0.195369	0.171939	0.678105	0.605282	0.175256	0.135266	0.185134	0.296054	0.243448	0.234152	0.229005	0.166459	0.354430	0.477940	0.157142	0.153330	0.101318	0.503630	0.926058	0.910234	0.045479	0.716916	0.203756	0.107864	0.124191	0.863368	0.542022	0.568770	0.129995	1.190958	0.322548	0.156190	0.096472	0.190916	0.717494	0.955133	0.064043	0.612084	0.443125	0.381037	0.175268	0.431459	0.307929	0.646315	0.148105	0.352214	0.321750	0.301329	0.151685	0.368149	0.376515	0.678156	0.128939	0.502182	0.572110	0.364823	0.098173	0.347303	0.556603	0.570637	0.108505	0.166965	0.239698	0.326501	0.106888	0.162519	0.413437	0.678694	0.083816	0.862655	0.334660	0.326608	0.092126	0.150634	0.996662	0.643829	0.085805	1.641587	0.217689	0.148826
34	0.226743	0.193938	0.661005	0.605512	0.171141	0.136276	0.216453	0.323800	0.328526	0.267178	0.229918	0.188827	0.387396	0.455794	0.104904	0.121209	0.101902	0.483329	0.966123	0.970034	0.045496	0.758002	0.194965	0.093116	0.126400	0.885163	0.547014	0.626544	0.129047	1.192127	0.321633	0.125502	0.092535	0.189492	0.705945	0.941918	0.064598	0.545353	0.443356	0.386588	0.176787	0.429428	0.321276	0.649726	0.155896	0.329375	0.324949	0.313639	0.154347	0.397898	0.377493	0.678227	0.128280	0.584388	0.569414	0.360281	0.099442	0.321806	0.565301	0.584720	0.105360	0.141922	0.231963	0.327354	0.107155	0.157198	0.421141	0.681305	0.089701	0.854142	0.327800	0.315506	0.091182	0.149074	1.005529	0.675921	0.088646	1.653584	0.218196	0.155639
35	0.226006	0.221200	0.660410	0.603739	0.168418	0.135099	0.232874	0.360397	0.355102	0.277761	0.267883	0.258896	0.387914	0.385641	0.196782	0.199949	0.101442	0.450259	0.982546	1.003473	0.036112	0.780155	0.184909	0.075514	0.129723	0.886992	0.488026	0.648247	0.126463	1.161320	0.313953	0.115296	0.092323	0.187493	0.655440	0.828265	0.064184	0.472230	0.397614	0.386794	0.190091	0.423090	0.324782	0.653902	0.160277	0.332273	0.367243	0.330241	0.156258	0.429965	0.377795	0.678289	0.131135	0.658765	0.533576	0.350558	0.102310	0.328149	0.579474	0.595647	0.101272	0.125687	0.232679	0.327862	0.106029	0.152029	0.437534	0.715346	0.103061	0.836329	0.332211	0.298359	0.092752	0.146372	1.013095	0.696049	0.094289	1.694133	0.218577	0.154116
36	0.269142	0.246650	0.654387	0.605833	0.131221	0.138457	0.234351	0.383829	0.375987	0.279702	0.322847	0.322529	0.464664	0.297554	0.257612	0.290958	0.107893	0.432241	0.983569	1.012734	0.035998	0.789359	0.187855	0.079070	0.130740	0.870860	0.429833	0.640288	0.134244	1.092332	0.281960	0.154942	0.092249	0.189433	0.600309	0.621735	0.063259	0.399111	0.318748	0.357402	0.208946	0.408923	0.324302	0.659743	0.163862	0.370589	0.407837	0.333922	0.156260	0.454620	0.371754	0.680142	0.148774	0.722301	0.420020	0.308533	0.103182	0.366759	0.586675	0.600956	0.100575	0.129599	0.236119	0.328798	0.110904	0.164680	0.460265	0.735560	0.109836	0.796491	0.333206	0.299122	0.099594	0.146908	1.006512	0.706409	0.094983	1.667292	0.218213	0.150721
37	0.269256	0.267850	0.662303	0.610034	0.121600	0.142090	0.243791	0.386239	0.382223	0.279114	0.308069	0.350520	0.561043	0.260558	0.279589	0.314008	0.116668	0.437329	0.986964	1.012259	0.035404	0.790708	0.207695	0.088225	0.127723	0.841665	0.402966	0.644237	0.137869	1.017901	0.239349	0.180929	0.092297	0.203329	0.564526	0.511256	0.065009	0.334886	0.294962	0.296673	0.240141	0.388449	0.325168	0.662096	0.170103	0.407938	0.412159	0.300720	0.162220	0.469256	0.355700	0.680545	0.158208	0.759596	0.251684	0.214600	0.102480	0.413516	0.569909	0.602208	0.106768	0.143619	0.241225	0.325709	0.140796	0.219481	0.482409	0.735978	0.116174	0.720895	0.335678	0.301525	0.103946	0.151143	0.939956	0.708670	0.102127	1.613780	0.223286	0.142027
38	0.408398	0.283523	0.651184	0.597837	0.133246	0.141814	0.250062	0.393638	0.384859	0.275575	0.310901	0.351802	0.587955	0.251860	0.281576	0.319231	0.124925	0.487202	0.986240	1.019932	0.043441	0.788853	0.213613	0.105416	0.131211	0.799665	0.398186	0.646575	0.138661	0.966549	0.199814	0.183399	0.092152	0.235265	0.512506	0.505834	0.064439	0.282881	0.311557	0.267764	0.241230	0.381591	0.309817	0.653983	0.175885	0.416278	0.408901	0.258348	0.149986	0.476861	0.333952	0.635446	0.166827	0.775505	0.135131	0.116254	0.101957	0.462970	0.515766	0.590088	0.118385	0.161510	0.246954	0.321653	0.177530	0.303602	0.493633	0.744615	0.126711	0.626394	0.344363	0.298751	0.118414	0.154962	0.792052	0.688826	0.127323	1.550246	0.231126	0.127558
39	0.562582	0.293701	0.645002	0.530553	0.133026	0.136686	0.260127	0.397522	0.418180	0.268747	0.375362	0.409425	0.592671	0.253906	0.298622	0.317484	0.141044	0.550616	0.944631	1.029062	0.057949	0.787642	0.213599	0.107428	0.128575	0.758288	0.409593	0.647214	0.148393	0.956793	0.202271	0.187609	0.089067	0.283402	0.459913	0.526455	0.065505	0.243988	0.330975	0.271323	0.242959	0.403143	0.279612	0.558020	0.176328	0.424464	0.408833	0.243247	0.144821	0.478510	0.326838	0.539843	0.175675	0.777591	0.130964	0.095932	0.101741	0.494286	0.453181	0.532244	0.126973	0.179440	0.250586	0.319398	0.182551	0.395001	0.484583	0.739318	0.157318	0.527320	0.351979	0.301483	0.141124	0.156877	0.656357	0.624024	0.162651	1.483124	0.232968	0.121954
40	0.627887	0.299632	0.640717	0.400146	0.136060	0.133885	0.266004	0.398605	0.421984	0.267650	0.429381	0.462857	0.592182	0.253162	0.325818	0.330665	0.142306	0.593393	0.860276	0.977955	0.063752	0.789022	0.213783	0.104748	0.131366	0.724531	0.422209	0.663859	0.161723	0.981819	0.235909	0.197561	0.076806	0.337505	0.446007	0.529123	0.062671	0.218764	0.332536	0.277818	0.333031	0.449745	0.255564	0.428048	0.179002	0.470813	0.403749	0.250594	0.144657	0.477738	0.326687	0.498089	0.167409	0.772941	0.109032	0.102730	0.102500	0.500731	0.451884	0.479498	0.126105	0.195220	0.247969	0.320663	0.180526	0.475553	0.481215	0.753718	0.179943	0.418125	0.353022	0.302457	0.156188	0.157129	0.594245	0.562661	0.182247	1.412450	0.232996	0.113686
41	0.632022	0.302254	0.601035	0.290334	0.142171	0.145074	0.267698	0.399070	0.411928	0.258511	0.442387	0.486482	0.592130	0.246885	0.344168	0.365755	0.142879	0.639863	0.819690	0.935356	0.109557	0.792534	0.213995	0.105999	0.142458	0.702433	0.460862	0.681370	0.162657	1.021769	0.273527	0.223498	0.067224	0.369868	0.445895	0.493682	0.055791	0.205452	0.296737	0.275395	0.556651	0.505956	0.237575	0.377138	0.179518	0.518162	0.392597	0.240643	0.132643	0.482240	0.337886	0.494638	0.166942	0.769731	0.124798	0.118396	0.101594	0.493293	0.452842	0.468888	0.130847	0.208151	0.239946	0.320456	0.179300	0.524405	0.490287	0.770435	0.179373	0.334805	0.347874	0.299543	0.165726	0.156038	0.584639	0.541058	0.188143	1.337475	0.228968	0.113024
42	0.634025	0.302458	0.552794	0.226205	0.128955	0.169987	0.275033	0.399024	0.413151	0.216007	0.604269	0.512750	0.577294	0.239805	0.372017	0.390162	0.144790	0.693292	0.790304	0.896372	0.166188	0.793617	0.214124	0.111315	0.143124	0.697810	0.497524	0.660707	0.159388	1.051819	0.278494	0.250275	0.066358	0.383803	0.446137	0.431701	0.069546	0.205088	0.254870	0.251556	0.728077	0.562417	0.222411	0.379904	0.184669	0.560763	0.389874	0.224713	0.113749	0.500728	0.360183	0.492684	0.172411	0.771051	0.161259	0.186291	0.094349	0.480875	0.444057	0.470722	0.148594	0.217094	0.242043	0.288152	0.194404	0.553997	0.514357	0.765934	0.200375	0.299576	0.298525	0.272884	0.166071	0.153773	0.585526	0.558472	0.201730	1.257340	0.216359	0.115336
43	0.649743	0.306800	0.476032	0.307740	0.123747	0.197303	0.286569	0.376277	0.429056	0.146262	0.778783	0.710515	0.534704	0.235761	0.376436	0.393216	0.149612	0.729307	0.780868	0.860161	0.217305	0.784037	0.214558	0.109481	0.139005	0.698777	0.505227	0.607565	0.145328	1.070973	0.280507	0.266156	0.066457	0.389112	0.447418	0.378820	0.095218	0.234602	0.230977	0.218968	0.803628	0.602164	0.218615	0.367392	0.187965	0.601473	0.393161	0.220521	0.109145	0.523600	0.350001	0.459911	0.186858	0.774440	0.173432	0.231108	0.084963	0.473567	0.415207	0.468054	0.145461	0.221190	0.232689	0.240159	0.202813	0.569115	0.548055	0.750299	0.218814	0.294755	0.231870	0.199046	0.174021	0.150547	0.561146	0.581824	0.207805	1.194785	0.189001	0.115991
44	0.676028	0.323693	0.451232	0.407955	0.116933	0.213253	0.290641	0.317346	0.364929	0.087036	0.810295	0.753168	0.497604	0.234185	0.433063	0.394885	0.142161	0.745050	0.778114	0.850651	0.234702	0.757172	0.205098	0.103776	0.144280	0.686544	0.493553	0.581416	0.139719	1.076692	0.280128	0.268855	0.063599	0.389804	0.450239	0.382988	0.102740	0.304471	0.220097	0.191461	0.852466	0.625765	0.216270	0.319288	0.190548	0.642376	0.402069	0.220991	0.104383	0.540155	0.337639	0.405946	0.203510	0.770390	0.174203	0.234069	0.079593	0.474791	0.366785	0.454016	0.137776	0.220666	0.204551	0.196877	0.205475	0.573746	0.575272	0.758980	0.228785	0.298657	0.198512	0.172442	0.220535	0.146587	0.495982	0.590516	0.215476	1.156316	0.163720	0.116472
45	0.706346	0.350594	0.508980	0.460113	0.115133	0.222900	0.283489	0.287615	0.351705	0.065745	0.812917	0.732037	0.473351	0.227411	0.483287	0.392030	0.127867	0.749354	0.741282	0.837451	0.276066	0.707711	0.182022	0.103370	0.158722	0.650721	0.479959	0.579967	0.145237	1.072055	0.276165	0.268402	0.063850	0.388063	0.433926	0.429077	0.129983	0.386607	0.224815	0.182622	0.885798	0.637100	0.210442	0.265527	0.191855	0.684294	0.413390	0.225327	0.104658	0.548122	0.333137	0.399550	0.213410	0.742135	0.169486	0.235158	0.077246	0.482205	0.368938	0.431574	0.155945	0.217370	0.182966	0.163918	0.208037	0.572344	0.576088	0.780537	0.240940	0.302029	0.189450	0.171416	0.229427	0.142209	0.429949	0.588982	0.217080	1.129442	0.167248	0.116929
46	0.783489	0.367616	0.573366	0.479150	0.114716	0.227758	0.334849	0.285530	0.339944	0.072667	0.805940	0.714182	0.469480	0.203379	0.470009	0.349078	0.125541	0.749604	0.653033	0.784624	0.385994	0.628495	0.167669	0.105718	0.170925	0.587325	0.470345	0.574220	0.166811	1.065384	0.269053	0.267245	0.067837	0.386032	0.429139	0.488676	0.207060	0.452950	0.249347	0.188613	0.963717	0.638705	0.206537	0.229678	0.192096	0.727253	0.402807	0.231409	0.105729	0.544447	0.328332	0.416979	0.203071	0.695338	0.176457	0.245109	0.055866	0.493623	0.389865	0.399721	0.171822	0.213106	0.190291	0.156139	0.207577	0.568820	0.576287	0.790154	0.240590	0.301974	0.183299	0.171432	0.231110	0.137984	0.415884	0.564828	0.218640	1.106500	0.171800	0.118589
47	0.813119	0.373080	0.578044	0.478380	0.114779	0.229307	0.416313	0.276243	0.336081	0.084160	0.886171	0.744640	0.384321	0.165788	0.442137	0.277030	0.124937	0.750337	0.535835	0.724570	0.400812	0.543449	0.173171	0.101998	0.172069	0.496870	0.470788	0.550598	0.162351	1.062871	0.270580	0.262640	0.069711	0.384537	0.468457	0.521049	0.314767	0.507372	0.287826	0.222049	0.986506	0.633147	0.190839	0.221465	0.183041	0.760951	0.367970	0.233569	0.106220	0.528426	0.322256	0.424293	0.202335	0.645416	0.208336	0.261794	0.047012	0.508300	0.439457	0.379739	0.183458	0.209672	0.198809	0.157321	0.209700	0.565796	0.579201	0.786516	0.236887	0.296486	0.150941	0.164532	0.229657	0.134643	0.415059	0.524796	0.219442	1.090794	0.168804	0.119440
48	0.840675	0.369084	0.578589	0.496205	0.115576	0.227457	0.464823	0.243888	0.330010	0.094392	0.932715	0.765222	0.227431	0.129678	0.456283	0.252692	0.125462	0.753554	0.433903	0.675519	0.400963	0.490506	0.173892	0.100439	0.177059	0.391637	0.463951	0.504928	0.163867	1.012997	0.272433	0.258993	0.106751	0.384242	0.525132	0.553987	0.396801	0.546333	0.316661	0.287551	1.039408	0.622202	0.165095	0.217834	0.160223	0.777247	0.359219	0.226536	0.105409	0.502528	0.315058	0.426941	0.205273	0.588647	0.247709	0.279039	0.043614	0.519633	0.496372	0.447932	0.187117	0.206045	0.202670	0.162463	0.214041	0.564687	0.568995	0.785695	0.235104	0.284045	0.129719	0.130237	0.234997	0.132542	0.408641	0.484535	0.218604	1.088799	0.152986	0.105764
49	0.840448	0.357681	0.576757	0.515899	0.115731	0.222566	0.474761	0.194477	0.281607	0.102913	0.985629	0.742264	0.137394	0.106139	0.488605	0.248740	0.125700	0.759465	0.383291	0.657381	0.404338	0.469509	0.176711	0.101538	0.213734	0.304498	0.462670	0.430455	0.172225	0.942884	0.285712	0.256985	0.127968	0.385613	0.558457	0.586310	0.405287	0.569348	0.328317	0.310345	1.119292	0.607151	0.124262	0.206686	0.164685	0.777540	0.360937	0.206215	0.110273	0.470025	0.311659	0.434821	0.210150	0.520495	0.257676	0.292009	0.039786	0.517488	0.490543	0.485296	0.221233	0.201767	0.218982	0.190899	0.216944	0.567136	0.553745	0.774307	0.232836	0.261644	0.113586	0.110538	0.243171	0.131784	0.393717	0.437509	0.220433	1.067645	0.146559	0.089314
50	0.837970	0.341786	0.586132	0.520368	0.112786	0.215130	0.475491	0.154018	0.254773	0.109661	1.026322	0.721460	0.093441	0.105052	0.487358	0.250314	0.121436	0.766557	0.377401	0.667175	0.407703	0.475902	0.173464	0.099098	0.229362	0.245219	0.470532	0.377691	0.165185	0.877070	0.302324	0.237946	0.129898	0.388520	0.574130	0.600485	0.447274	0.585444	0.330609	0.311231	1.136030	0.589303	0.099086	0.194322	0.158782	0.761817	0.379976	0.215112	0.146942	0.435737	0.312651	0.458840	0.218415	0.461355	0.258140	0.296803	0.049770	0.495790	0.486989	0.479470	0.277444	0.196095	0.246284	0.224786	0.217838	0.571821	0.516294	0.718944	0.228639	0.233279	0.094408	0.107617	0.246582	0.130835	0.375460	0.396903	0.224730	0.990221	0.146727	0.085917
51	0.785944	0.324546	0.619692	0.532385	0.096296	0.207337	0.469882	0.149110	0.257693	0.114232	1.032225	0.715102	0.116180	0.123436	0.484135	0.230854	0.113761	0.768133	0.370853	0.684348	0.408496	0.499243	0.145169	0.093811	0.224832	0.213296	0.465333	0.378830	0.162281	0.815854	0.314027	0.227054	0.142563	0.391924	0.612234	0.606856	0.483275	0.596446	0.327926	0.311153	1.137741	0.572954	0.089038	0.175204	0.164694	0.735816	0.468175	0.255016	0.150327	0.404613	0.319430	0.472092	0.231242	0.427024	0.261117	0.296997	0.053332	0.453652	0.497921	0.479957	0.291774	0.186684	0.252621	0.242281	0.211451	0.570070	0.475006	0.622411	0.224820	0.201849	0.095196	0.144755	0.246532	0.126937	0.363851	0.392265	0.236784	0.908446	0.145571	0.085061
52	0.685702	0.309682	0.645491	0.551774	0.080258	0.204055	0.466438	0.126946	0.208844	0.116395	0.921111	0.677187	0.114234	0.149084	0.484113	0.174148	0.109255	0.746344	0.365409	0.685298	0.408353	0.525843	0.133072	0.077801	0.229400	0.201444	0.456924	0.338478	0.163501	0.758232	0.316590	0.230232	0.155779	0.393821	0.658327	0.624399	0.502902	0.602991	0.317893	0.309419	1.132170	0.566336	0.082351	0.155129	0.158863	0.719371	0.538269	0.275778	0.147854	0.378943	0.331345	0.475697	0.223147	0.413413	0.287102	0.301804	0.060832	0.391991	0.515030	0.481158	0.295126	0.173192	0.250789	0.237482	0.185441	0.551046	0.456105	0.544608	0.214365	0.171249	0.114713	0.196897	0.244615	0.120173	0.364589	0.399579	0.245124	0.832154	0.139711	0.082826
53	0.617730	0.299731	0.666878	0.552947	0.080887	0.206497	0.460321	0.117335	0.172893	0.116234	0.803106	0.464549	0.119964	0.172996	0.463595	0.135166	0.090095	0.692771	0.394309	0.659004	0.406177	0.547729	0.139871	0.076820	0.230791	0.200875	0.455911	0.310277	0.154750	0.701909	0.310889	0.228978	0.160315	0.391460	0.679090	0.632965	0.517178	0.605106	0.300638	0.312340	1.131935	0.567350	0.087338	0.147554	0.156126	0.719543	0.559372	0.279592	0.140854	0.359013	0.326378	0.470615	0.226765	0.412207	0.315508	0.331432	0.082029	0.338386	0.532779	0.472689	0.300028	0.157178	0.269652	0.236758	0.156329	0.508802	0.464595	0.517798	0.218974	0.141910	0.119705	0.203399	0.242794	0.112860	0.379264	0.422832	0.247357	0.774802	0.126525	0.078503
54	0.610424	0.295253	0.700597	0.552615	0.073022	0.207971	0.457987	0.114383	0.170414	0.112890	0.803933	0.447346	0.120132	0.190010	0.461102	0.145848	0.086002	0.632719	0.430901	0.646078	0.405875	0.560310	0.146918	0.082690	0.229737	0.203698	0.448113	0.307905	0.144392	0.643611	0.280499	0.222616	0.165834	0.380897	0.672740	0.620870	0.538324	0.603669	0.286490	0.319604	1.136049	0.561354	0.094794	0.145676	0.152215	0.708652	0.561110	0.274258	0.147512	0.347312	0.314429	0.471908	0.231595	0.415414	0.316010	0.356575	0.085916	0.309330	0.543449	0.450973	0.298883	0.140624	0.297640	0.248447	0.152121	0.442650	0.468903	0.519084	0.185600	0.111036	0.119567	0.199216	0.237366	0.107093	0.390692	0.502711	0.230404	0.726491	0.122096	0.066595
55	0.607869	0.294872	0.685623	0.546622	0.059381	0.199536	0.460394	0.116464	0.157261	0.106132	0.820180	0.506158	0.124445	0.197600	0.406628	0.141841	0.089555	0.565479	0.437235	0.633092	0.400289	0.561747	0.146192	0.081942	0.233176	0.205179	0.417853	0.279037	0.145784	0.590771	0.237108	0.211071	0.172256	0.357446	0.710569	0.612264	0.555787	0.600938	0.282405	0.324027	1.136728	0.538933	0.099593	0.146302	0.151306	0.671694	0.586171	0.265829	0.147816	0.346703	0.299718	0.479363	0.233841	0.415961	0.299371	0.344222	0.086102	0.299889	0.546240	0.431617	0.290516	0.126352	0.323744	0.269349	0.150854	0.366169	0.464621	0.489724	0.221436	0.081502	0.133523	0.199470	0.229083	0.103727	0.392063	0.547149	0.211553	0.679483	0.122746	0.059441
56	0.595801	0.290647	0.664907	0.506269	0.097738	0.178289	0.463766	0.122455	0.133782	0.097888	0.796152	0.494110	0.124324	0.198740	0.340913	0.147016	0.105752	0.486951	0.428403	0.623774	0.389562	0.553609	0.146941	0.075684	0.227284	0.203545	0.337008	0.227224	0.147244	0.558714	0.214426	0.181261	0.173307	0.316814	0.776656	0.616573	0.561290	0.598476	0.282535	0.323228	1.097420	0.498414	0.103818	0.144391	0.145947	0.630606	0.633073	0.261747	0.148038	0.350081	0.298443	0.488175	0.223960	0.409922	0.284943	0.300902	0.086444	0.299324	0.546907	0.435118	0.292406	0.117235	0.331235	0.283995	0.147005	0.308761	0.462873	0.446957	0.233300	0.059004	0.151452	0.200330	0.218051	0.102222	0.395454	0.550281	0.208819	0.630895	0.140062	0.069299
57	0.557761	0.270158	0.645200	0.461918	0.114680	0.148607	0.463367	0.137333	0.130084	0.089588	0.704720	0.427140	0.127428	0.196600	0.318683	0.160747	0.100864	0.416694	0.419822	0.619980	0.368812	0.539659	0.148607	0.069931	0.225710	0.198678	0.235443	0.206269	0.152963	0.538554	0.204952	0.160629	0.173184	0.261449	0.827479	0.628074	0.560293	0.592372	0.285027	0.323479	0.989645	0.442374	0.108194	0.139903	0.140095	0.588076	0.662921	0.268838	0.148006	0.341826	0.282156	0.496650	0.218486	0.395897	0.286229	0.286030	0.088723	0.296245	0.551782	0.448303	0.298212	0.114256	0.331553	0.284561	0.122413	0.268043	0.442074	0.420627	0.225737	0.046668	0.150779	0.218050	0.209463	0.101950	0.409026	0.556616	0.197855	0.576431	0.154199	0.069859
58	0.526381	0.226549	0.592555	0.438038	0.149483	0.126450	0.477334	0.181337	0.123199	0.083481	0.630143	0.407642	0.127217	0.195813	0.318854	0.174486	0.149809	0.379154	0.427887	0.619891	0.354795	0.522075	0.149406	0.070976	0.233858	0.191089	0.200721	0.184112	0.158994	0.533519	0.205861	0.155838	0.174270	0.223087	0.878639	0.635855	0.559177	0.571929	0.290712	0.323796	0.879438	0.374998	0.114459	0.119117	0.138515	0.545812	0.669112	0.275478	0.146549	0.307719	0.254396	0.495778	0.225530	0.374608	0.291103	0.292637	0.093079	0.284633	0.561492	0.449424	0.294155	0.115001	0.326225	0.282389	0.103655	0.248896	0.397185	0.388247	0.223869	0.046357	0.151665	0.229361	0.208179	0.102504	0.424450	0.563227	0.199886	0.513853	0.155807	0.068685
59	0.407219	0.178613	0.524850	0.422760	0.172038	0.109424	0.490396	0.220048	0.115531	0.082707	0.494860	0.440234	0.127256	0.200418	0.276073	0.175543	0.188458	0.368640	0.441294	0.623679	0.347039	0.502700	0.144201	0.075063	0.247523	0.181305	0.198401	0.165402	0.150020	0.534863	0.205005	0.155471	0.175289	0.202803	0.900642	0.638094	0.555910	0.532364	0.289086	0.323581	0.844988	0.316866	0.113713	0.090233	0.133377	0.504378	0.659654	0.275308	0.146349	0.261900	0.254349	0.498268	0.227242	0.348621	0.291307	0.299532	0.100486	0.263198	0.604844	0.453763	0.289055	0.116692	0.315739	0.278766	0.093334	0.246915	0.367541	0.349308	0.226235	0.052848	0.151783	0.240573	0.211876	0.103742	0.437925	0.545738	0.195794	0.450137	0.149325	0.071369
60	0.327160	0.135960	0.518111	0.426932	0.210738	0.098078	0.454241	0.231770	0.099909	0.090357	0.391471	0.443895	0.130010	0.210436	0.219595	0.170393	0.191479	0.370578	0.432193	0.624086	0.228362	0.482813	0.140231	0.078394	0.256060	0.169930	0.204307	0.177910	0.119076	0.536251	0.205892	0.157013	0.174813	0.191016	0.908702	0.641586	0.538410	0.488959	0.275105	0.319924	0.771653	0.270041	0.115614	0.069937	0.132904	0.462322	0.649643	0.270756	0.145983	0.214328	0.265601	0.491746	0.226482	0.319743	0.278779	0.298668	0.112567	0.233725	0.626625	0.460870	0.285091	0.115154	0.309437	0.275691	0.088253	0.251781	0.361304	0.300655	0.247265	0.060954	0.153551	0.248667	0.172853	0.105494	0.444516	0.537120	0.187927	0.398128	0.133956	0.072468
61	0.235591	0.099157	0.516701	0.428152	0.226284	0.091965	0.371864	0.231350	0.069913	0.108631	0.385621	0.439401	0.124005	0.219465	0.197793	0.166704	0.193916	0.372885	0.421891	0.607485	0.153864	0.465425	0.129950	0.085006	0.332384	0.157541	0.232022	0.315094	0.116815	0.535777	0.206225	0.160196	0.175608	0.184865	0.905484	0.643372	0.496979	0.446916	0.235584	0.305636	0.736761	0.238268	0.124625	0.060122	0.131984	0.416713	0.647433	0.267806	0.145837	0.168919	0.263989	0.434541	0.224763	0.288126	0.247508	0.289423	0.125182	0.198894	0.587671	0.440452	0.284064	0.110779	0.306677	0.273187	0.091741	0.255383	0.347840	0.287198	0.279969	0.068167	0.159973	0.250246	0.153851	0.107633	0.449561	0.556520	0.183117	0.367353	0.127896	0.071328
62	0.188009	0.070083	0.513284	0.431108	0.258623	0.090441	0.296645	0.223855	0.096236	0.136361	0.538766	0.479070	0.114405	0.217896	0.158128	0.164580	0.194724	0.369177	0.419361	0.565768	0.155262	0.449950	0.126993	0.094081	0.376360	0.144485	0.328833	0.483502	0.135950	0.533270	0.201908	0.161747	0.177012	0.183405	0.894191	0.619283	0.414637	0.410155	0.184196	0.249243	0.633189	0.222442	0.137027	0.054492	0.127394	0.386543	0.647343	0.268755	0.145121	0.133869	0.258636	0.378252	0.218985	0.254119	0.226969	0.276086	0.130325	0.161946	0.572203	0.348229	0.264861	0.104695	0.289235	0.251095	0.089764	0.254031	0.343239	0.309523	0.296995	0.073389	0.155580	0.249534	0.146080	0.109622	0.458062	0.596683	0.183181	0.356522	0.132230	0.069109
63	0.158758	0.047291	0.491347	0.421154	0.264600	0.090342	0.276624	0.218444	0.106999	0.168082	0.609351	0.531659	0.134074	0.205236	0.113999	0.159487	0.194080	0.357892	0.416319	0.505607	0.151418	0.430784	0.125434	0.098008	0.395415	0.131155	0.486964	0.640858	0.173902	0.528393	0.183344	0.158811	0.176954	0.183583	0.871540	0.577629	0.407233	0.390118	0.146436	0.183892	0.612912	0.219329	0.144403	0.052958	0.115965	0.375486	0.649495	0.269169	0.145367	0.115565	0.304191	0.378062	0.205636	0.219126	0.226193	0.268735	0.133950	0.126529	0.660203	0.375095	0.201147	0.098127	0.254209	0.215836	0.079609	0.247512	0.346767	0.342112	0.299123	0.075966	0.141784	0.213089	0.147479	0.110402	0.464924	0.635626	0.183308	0.356286	0.134807	0.069649
64	0.152976	0.031760	0.439662	0.415539	0.264128	0.088400	0.293595	0.229988	0.115792	0.194986	0.573584	0.513564	0.154693	0.190623	0.143347	0.138105	0.194994	0.340002	0.412781	0.450538	0.143612	0.404038	0.117043	0.097841	0.410160	0.117843	0.574973	0.756113	0.201626	0.520023	0.160332	0.154936	0.172339	0.183347	0.839684	0.549118	0.372469	0.378574	0.136015	0.166121	0.468611	0.223730	0.147143	0.053804	0.100714	0.373515	0.646224	0.272468	0.146491	0.110736	0.375353	0.447445	0.187949	0.184939	0.227143	0.267215	0.136836	0.096046	0.769994	0.512393	0.168138	0.093078	0.236595	0.188173	0.072752	0.237182	0.353136	0.349735	0.300729	0.076217	0.130390	0.166488	0.141896	0.108662	0.477531	0.667791	0.180958	0.357054	0.136039	0.070793
65	0.127009	0.023060	0.392908	0.388083	0.264165	0.083136	0.309368	0.249054	0.130448	0.211760	0.550068	0.466219	0.228883	0.180763	0.171824	0.119060	0.197688	0.317198	0.413629	0.414100	0.149097	0.369591	0.113341	0.097871	0.458200	0.104955	0.593821	0.792864	0.210280	0.505235	0.134071	0.153471	0.147783	0.181139	0.794672	0.522924	0.317011	0.372790	0.135617	0.165338	0.300621	0.230267	0.141679	0.055015	0.083820	0.374292	0.593431	0.237176	0.131896	0.110763	0.421500	0.523204	0.176899	0.153352	0.211051	0.265913	0.136570	0.074255	0.866768	0.631244	0.154714	0.089795	0.235338	0.184704	0.070533	0.224623	0.353318	0.347512	0.299923	0.076243	0.130171	0.160109	0.134017	0.103817	0.487232	0.693761	0.173660	0.353381	0.137289	0.071117
66	0.147479	0.022386	0.357231	0.394315	0.265189	0.075361	0.316098	0.261334	0.134476	0.220748	0.549585	0.465973	0.234665	0.178894	0.183434	0.144011	0.198846	0.291355	0.412965	0.404536	0.159332	0.335392	0.107563	0.097181	0.595352	0.092805	0.589835	0.793527	0.216328	0.482878	0.113980	0.149918	0.133419	0.176213	0.766050	0.488993	0.279844	0.372770	0.134305	0.160756	0.278502	0.235687	0.138623	0.057340	0.068154	0.375009	0.493738	0.179776	0.095469	0.110749	0.442036	0.581267	0.170232	0.126557	0.156954	0.242710	0.136121	0.065577	0.896892	0.709131	0.139070	0.085757	0.215943	0.178830	0.071662	0.211064	0.350545	0.341592	0.310964	0.078283	0.131588	0.161332	0.138928	0.096752	0.484613	0.704124	0.157986	0.343363	0.138758	0.074157
67	0.181662	0.030167	0.288179	0.410052	0.267021	0.067166	0.317438	0.268705	0.134880	0.222785	0.550293	0.464920	0.234760	0.183027	0.186498	0.171579	0.197785	0.264503	0.385478	0.430527	0.166406	0.309717	0.101806	0.091425	0.622245	0.082005	0.602940	0.795349	0.215675	0.453161	0.109246	0.145643	0.132124	0.169199	0.745684	0.478244	0.251255	0.377374	0.124399	0.149048	0.318171	0.239226	0.137625	0.059362	0.064803	0.375019	0.426182	0.157983	0.091674	0.111986	0.437210	0.593474	0.165383	0.107500	0.125442	0.185931	0.131315	0.069186	0.878590	0.740621	0.134908	0.080381	0.176842	0.153380	0.073967	0.197485	0.327230	0.327891	0.295760	0.083478	0.109624	0.161958	0.144718	0.090984	0.489571	0.689449	0.141902	0.326702	0.137796	0.078559
68	0.183490	0.043453	0.275819	0.438644	0.269466	0.061729	0.317377	0.272519	0.162914	0.221033	0.567089	0.540896	0.234730	0.190004	0.182322	0.169487	0.197467	0.238184	0.304121	0.421172	0.167572	0.296871	0.088696	0.085603	0.619232	0.072538	0.656341	0.839998	0.222816	0.417906	0.109026	0.131794	0.118121	0.162290	0.707043	0.476065	0.212052	0.383889	0.119326	0.119081	0.343570	0.243031	0.134855	0.058700	0.070416	0.374394	0.412687	0.170225	0.090993	0.119668	0.425836	0.589313	0.159010	0.097299	0.120623	0.161592	0.129055	0.080872	0.863452	0.744082	0.134107	0.080473	0.112184	0.108968	0.073563	0.184311	0.298290	0.318523	0.289324	0.091352	0.094044	0.153896	0.163375	0.087717	0.510144	0.681993	0.121880	0.304563	0.140874	0.078836
69	0.183355	0.059758	0.297258	0.466961	0.268522	0.062258	0.310035	0.271614	0.177028	0.223789	0.566037	0.523849	0.256656	0.195101	0.180933	0.167850	0.197229	0.214163	0.246118	0.368744	0.191919	0.297361	0.086933	0.085777	0.618264	0.064646	0.743455	0.924893	0.249241	0.382537	0.109159	0.101495	0.105745	0.157353	0.661408	0.449890	0.147646	0.388003	0.125327	0.081812	0.316448	0.248775	0.130620	0.057607	0.069777	0.372861	0.407170	0.188430	0.069749	0.134446	0.424992	0.589694	0.160709	0.094433	0.120402	0.160248	0.129632	0.097370	0.861926	0.744882	0.125412	0.087880	0.078707	0.054102	0.071527	0.171614	0.295650	0.313493	0.294506	0.100089	0.092792	0.127321	0.189625	0.085800	0.526424	0.707044	0.111170	0.278898	0.146090	0.077445
70	0.213069	0.076161	0.307500	0.454337	0.255208	0.069402	0.292743	0.268475	0.177553	0.243538	0.569987	0.521988	0.262750	0.193900	0.191185	0.178063	0.189156	0.194477	0.230349	0.340892	0.202449	0.306821	0.086546	0.087146	0.616473	0.058790	0.814509	1.008496	0.268163	0.354829	0.109450	0.103868	0.117736	0.154143	0.641665	0.435945	0.114564	0.386861	0.146513	0.070245	0.312763	0.257345	0.125286	0.056272	0.076306	0.370617	0.356758	0.200045	0.056986	0.147749	0.423123	0.585207	0.171942	0.094717	0.113183	0.160353	0.134004	0.117250	0.867478	0.745464	0.111379	0.093923	0.073350	0.043133	0.070802	0.159077	0.294949	0.327353	0.295977	0.110056	0.092028	0.108101	0.236997	0.084691	0.530510	0.699576	0.113547	0.251358	0.147135	0.076561
71	0.220651	0.087504	0.302182	0.425298	0.248502	0.080657	0.268124	0.258645	0.181740	0.272528	0.559449	0.530504	0.263871	0.184358	0.199590	0.178227	0.185062	0.181121	0.229621	0.327442	0.193305	0.317372	0.076728	0.089513	0.618004	0.055208	0.840708	1.064135	0.270609	0.337615	0.103712	0.118901	0.147603	0.151270	0.640801	0.435399	0.095880	0.379866	0.175483	0.072813	0.307548	0.267399	0.119786	0.054110	0.092893	0.370517	0.266350	0.200716	0.054826	0.156272	0.422177	0.577285	0.144772	0.093427	0.099040	0.154517	0.142989	0.136752	0.877914	0.748188	0.092428	0.097251	0.073206	0.042608	0.073100	0.144959	0.287223	0.340564	0.321223	0.119011	0.091612	0.078865	0.338088	0.084278	0.537304	0.680014	0.113100	0.222834	0.134588	0.068486
72	0.220197	0.092471	0.294092	0.412428	0.222274	0.094313	0.222380	0.227545	0.161380	0.299223	0.470846	0.503459	0.264697	0.169360	0.204318	0.195482	0.165097	0.176175	0.225265	0.326651	0.192200	0.323264	0.068274	0.090088	0.624548	0.053838	0.850517	1.090291	0.270630	0.326473	0.101972	0.121106	0.177857	0.146057	0.591392	0.418653	0.116562	0.367087	0.187032	0.073232	0.368773	0.274238	0.116610	0.051641	0.098812	0.368511	0.197140	0.188455	0.055525	0.163135	0.421847	0.569595	0.125801	0.087105	0.180951	0.144947	0.169668	0.149078	0.876727	0.787227	0.073903	0.098911	0.071822	0.042659	0.071256	0.129728	0.280644	0.337043	0.408520	0.121846	0.085877	0.054535	0.434770	0.084697	0.540499	0.679437	0.107549	0.194276	0.114969	0.061804
73	0.279490	0.093068	0.291141	0.410328	0.210729	0.109157	0.182007	0.192694	0.156818	0.323857	0.551087	0.568393	0.265942	0.158297	0.207232	0.215533	0.092934	0.180225	0.207632	0.338428	0.196618	0.324933	0.066505	0.087961	0.624450	0.054181	0.853520	1.096915	0.270784	0.320742	0.102518	0.122112	0.202225	0.134084	0.515058	0.387051	0.126242	0.349189	0.182245	0.073640	0.549662	0.274790	0.111373	0.048837	0.100437	0.360199	0.174275	0.181914	0.055778	0.171463	0.417078	0.563382	0.129665	0.073688	0.275310	0.163221	0.201786	0.153678	0.850612	0.853771	0.056810	0.099898	0.069479	0.042150	0.071103	0.117790	0.276479	0.339730	0.423169	0.120046	0.071372	0.049621	0.486581	0.086461	0.532161	0.673808	0.085586	0.166706	0.113882	0.061783
74	0.429273	0.093845	0.292114	0.393647	0.168722	0.123551	0.173488	0.180822	0.148808	0.344671	0.661749	0.643880	0.258621	0.152617	0.207481	0.219545	0.081011	0.192311	0.189379	0.347161	0.193873	0.323266	0.056800	0.082767	0.616724	0.055659	0.854665	1.096945	0.271094	0.318878	0.094067	0.124962	0.222935	0.113503	0.443960	0.353946	0.140105	0.327241	0.181272	0.073917	0.764919	0.270686	0.106440	0.045743	0.113044	0.342833	0.169255	0.180657	0.055488	0.181821	0.415482	0.561923	0.133331	0.057586	0.306863	0.188783	0.201401	0.154266	0.846416	0.897737	0.044569	0.100450	0.065050	0.040653	0.071409	0.108461	0.264207	0.337953	0.443751	0.117158	0.061070	0.049449	0.499489	0.089948	0.517902	0.654511	0.071912	0.141433	0.114714	0.058468
75	0.511810	0.101607	0.298255	0.371791	0.156811	0.135711	0.174200	0.179308	0.138446	0.352207	0.694467	0.692296	0.305283	0.143913	0.194207	0.219598	0.076002	0.209559	0.186496	0.336028	0.191911	0.317998	0.049958	0.072979	0.613400	0.057772	0.854042	1.097951	0.272343	0.321136	0.091474	0.126371	0.230513	0.086740	0.348625	0.348050	0.145700	0.302434	0.189499	0.073896	0.925648	0.263169	0.106351	0.041911	0.124595	0.316355	0.166984	0.181222	0.056203	0.190011	0.413161	0.557224	0.137708	0.046619	0.322788	0.190457	0.198780	0.153778	0.867898	0.929355	0.040339	0.100181	0.059022	0.040564	0.064066	0.097882	0.254388	0.340399	0.439631	0.116163	0.057585	0.049389	0.507063	0.095240	0.488968	0.653481	0.067300	0.119462	0.114468	0.054581
76	0.539213	0.121798	0.311891	0.387302	0.099756	0.144686	0.173608	0.185394	0.174230	0.354953	0.698398	0.697297	0.279291	0.133681	0.167432	0.219624	0.073440	0.226795	0.186733	0.323448	0.190968	0.308292	0.047968	0.059437	0.580226	0.060077	0.847217	1.075021	0.273168	0.337400	0.096844	0.128277	0.238824	0.062571	0.298441	0.353084	0.144424	0.276247	0.196452	0.075476	0.950286	0.253629	0.101158	0.039720	0.128775	0.285893	0.166991	0.187413	0.057991	0.193698	0.395740	0.542176	0.131938	0.045714	0.329335	0.188412	0.213148	0.152929	0.853826	0.929462	0.044179	0.098061	0.053525	0.040705	0.053788	0.087065	0.253273	0.335848	0.442651	0.118458	0.051650	0.048667	0.619186	0.101747	0.444396	0.661528	0.061339	0.101790	0.112579	0.052168
77	0.541130	0.155591	0.335163	0.396990	0.089816	0.150568	0.164596	0.184787	0.187749	0.356678	0.735664	0.724411	0.298708	0.127847	0.159568	0.208667	0.085841	0.240448	0.187504	0.329310	0.190365	0.300660	0.047096	0.047441	0.540431	0.062412	0.820465	1.016203	0.253910	0.377007	0.089438	0.130222	0.250735	0.049609	0.270579	0.343706	0.142583	0.250474	0.195267	0.075360	1.151172	0.243488	0.087285	0.039420	0.129532	0.257854	0.165999	0.199501	0.062090	0.194034	0.389809	0.530883	0.130224	0.051943	0.334423	0.192058	0.231767	0.152021	0.782580	0.885246	0.047128	0.094005	0.048266	0.039449	0.054560	0.079358	0.252257	0.310520	0.456537	0.123349	0.048683	0.045301	0.631152	0.108902	0.408056	0.653469	0.053982	0.088617	0.108435	0.050482
78	0.549548	0.208334	0.352491	0.401251	0.092747	0.152280	0.124755	0.164956	0.168049	0.357339	0.751298	0.775710	0.315732	0.129588	0.166561	0.187258	0.132557	0.247197	0.198794	0.342700	0.189045	0.301190	0.046998	0.043389	0.530249	0.064732	0.746279	0.928548	0.239328	0.434171	0.081710	0.125743	0.286715	0.046908	0.267337	0.324835	0.140551	0.226437	0.195319	0.076454	1.291303	0.233613	0.065712	0.039173	0.130868	0.231711	0.149177	0.207910	0.061306	0.192402	0.388958	0.531816	0.123695	0.060432	0.379860	0.200175	0.253649	0.151738	0.664884	0.811542	0.047439	0.089604	0.040907	0.034462	0.066139	0.076683	0.238255	0.284497	0.448465	0.129065	0.043679	0.039310	0.670367	0.115825	0.384452	0.621000	0.053458	0.079188	0.102905	0.048930
79	0.563451	0.275800	0.356452	0.395233	0.100470	0.152560	0.083165	0.135480	0.248673	0.351874	0.791691	0.834261	0.324281	0.137286	0.163683	0.183716	0.139640	0.248491	0.203977	0.345598	0.193557	0.307057	0.043723	0.042385	0.502315	0.067183	0.663878	0.830721	0.235551	0.498346	0.091551	0.121515	0.300452	0.046748	0.276822	0.300448	0.139332	0.206143	0.195397	0.079012	1.318679	0.224325	0.050190	0.038434	0.130611	0.210476	0.104792	0.198654	0.059256	0.190705	0.349080	0.512197	0.124647	0.069848	0.423417	0.211636	0.342728	0.153919	0.525812	0.728384	0.048193	0.087425	0.035129	0.027028	0.067364	0.077966	0.223613	0.265793	0.444037	0.133437	0.040591	0.031555	0.714521	0.121797	0.373833	0.580364	0.053560	0.072674	0.096995	0.047424
80	0.552418	0.350859	0.356934	0.380045	0.105474	0.157638	0.058348	0.111042	0.260391	0.330922	0.802898	0.840894	0.311707	0.146688	0.162066	0.177800	0.141422	0.248494	0.221455	0.342954	0.184527	0.311767	0.038785	0.041804	0.476077	0.070293	0.630592	0.780561	0.231350	0.563486	0.110965	0.124405	0.299711	0.045890	0.294407	0.271841	0.137153	0.192321	0.194340	0.078611	1.327767	0.224355	0.038839	0.036762	0.130541	0.194183	0.084696	0.192501	0.055769	0.191755	0.275680	0.440606	0.124960	0.076833	0.443152	0.219948	0.348096	0.162091	0.468976	0.662123	0.048496	0.087731	0.027678	0.020555	0.066255	0.081555	0.214173	0.259974	0.443069	0.131869	0.038990	0.024802	0.715489	0.126765	0.360631	0.541670	0.053217	0.070185	0.095730	0.046768
81	0.560007	0.410887	0.343117	0.348844	0.100715	0.170335	0.051260	0.094670	0.258561	0.298604	0.829017	0.849986	0.309267	0.154581	0.178676	0.196559	0.164052	0.250522	0.226030	0.317430	0.178358	0.309388	0.032932	0.041399	0.292062	0.073995	0.628247	0.771340	0.248195	0.625768	0.133249	0.127205	0.300195	0.045498	0.310592	0.244734	0.139333	0.188083	0.192572	0.072775	1.339069	0.234789	0.033694	0.033937	0.131298	0.185655	0.082819	0.193109	0.052897	0.196741	0.214605	0.325699	0.142217	0.079111	0.456216	0.222151	0.366366	0.179087	0.464662	0.632383	0.049292	0.084040	0.021411	0.015779	0.067248	0.087543	0.180628	0.250494	0.440356	0.125596	0.038116	0.020174	0.746407	0.131194	0.345849	0.505103	0.052810	0.076994	0.097942	0.044378
82	0.569604	0.440039	0.303005	0.295333	0.095153	0.190531	0.050141	0.085023	0.260798	0.256985	0.876268	0.837122	0.310280	0.160345	0.193536	0.230836	0.169233	0.257300	0.233169	0.271466	0.176335	0.299651	0.027805	0.039289	0.254016	0.078425	0.619739	0.769751	0.240115	0.682259	0.141376	0.129139	0.314175	0.045305	0.317821	0.244024	0.139280	0.194807	0.193668	0.071793	1.348107	0.251129	0.033714	0.028657	0.135179	0.182902	0.077027	0.189534	0.051136	0.205045	0.182528	0.192876	0.149429	0.078384	0.463354	0.221204	0.371452	0.206622	0.464618	0.634254	0.048785	0.071530	0.020849	0.012417	0.079286	0.095676	0.160203	0.229995	0.446527	0.154903	0.036694	0.017188	0.815089	0.135578	0.342091	0.480792	0.051247	0.097959	0.099805	0.035506
83	0.568300	0.454909	0.253761	0.259540	0.094018	0.215694	0.050883	0.082477	0.259512	0.204785	0.885680	0.782883	0.352697	0.164950	0.189580	0.232830	0.170317	0.273424	0.299258	0.266486	0.161796	0.286141	0.024426	0.036232	0.360103	0.083682	0.575034	0.734170	0.218308	0.731785	0.141379	0.129321	0.342590	0.044837	0.319030	0.256593	0.137190	0.210910	0.194804	0.072668	1.345566	0.270288	0.032927	0.022268	0.145926	0.185208	0.068699	0.175971	0.052065	0.214486	0.170829	0.165129	0.138581	0.077853	0.464460	0.220462	0.384564	0.242597	0.463067	0.646135	0.044632	0.057605	0.024214	0.011027	0.088766	0.104150	0.161425	0.225904	0.415054	0.161855	0.034967	0.016351	0.826668	0.140606	0.328647	0.473911	0.046110	0.128723	0.094032	0.029764
84	0.567977	0.461342	0.231452	0.253419	0.094362	0.247747	0.049156	0.083648	0.260178	0.156185	0.820668	0.714108	0.354395	0.169086	0.189880	0.216248	0.175322	0.302910	0.371395	0.289887	0.123394	0.271384	0.029229	0.030314	0.451797	0.089093	0.466162	0.634442	0.202805	0.765473	0.140763	0.116492	0.353035	0.043815	0.317883	0.253596	0.137773	0.233292	0.183862	0.066147	1.344051	0.288013	0.025049	0.019563	0.161764	0.192126	0.058934	0.159390	0.050210	0.222660	0.172570	0.171312	0.130175	0.078289	0.464271	0.220188	0.390501	0.281934	0.450910	0.641993	0.042905	0.044808	0.029056	0.011567	0.092127	0.111623	0.164042	0.219291	0.338013	0.159530	0.034353	0.017459	0.842204	0.146825	0.285495	0.465869	0.047561	0.160636	0.081663	0.029440
85	0.614004	0.463313	0.222792	0.252362	0.109784	0.281868	0.045882	0.086124	0.258219	0.147160	0.801333	0.682181	0.365721	0.171849	0.199398	0.227900	0.175918	0.350809	0.431195	0.315347	0.114517	0.257515	0.043974	0.022301	0.458157	0.090690	0.312577	0.491091	0.200431	0.770333	0.144756	0.102593	0.354597	0.042962	0.316044	0.235071	0.134451	0.258129	0.157515	0.059165	1.345361	0.302682	0.017008	0.017312	0.171856	0.206603	0.061245	0.149579	0.063329	0.229656	0.172573	0.172398	0.128355	0.078817	0.453617	0.217947	0.398871	0.324129	0.424171	0.630610	0.043908	0.034640	0.030107	0.012678	0.150229	0.118644	0.149928	0.190731	0.300514	0.158886	0.038392	0.018290	0.878455	0.154356	0.228305	0.412501	0.066168	0.189328	0.075894	0.032589
86	0.672018	0.463468	0.222444	0.247280	0.116433	0.298681	0.047183	0.089578	0.230526	0.175563	0.872777	0.679469	0.317249	0.172523	0.213555	0.256380	0.178528	0.426926	0.470672	0.338248	0.116468	0.248538	0.068103	0.020151	0.458636	0.090063	0.206981	0.339079	0.200976	0.766991	0.154481	0.101621	0.354529	0.043883	0.313904	0.224209	0.119707	0.281260	0.125275	0.058992	1.358041	0.312933	0.016490	0.015144	0.177367	0.236960	0.071339	0.149509	0.080769	0.237470	0.171130	0.173619	0.124656	0.078531	0.404583	0.199230	0.385817	0.365483	0.402784	0.581363	0.043724	0.028354	0.030419	0.013536	0.269512	0.127127	0.118975	0.159997	0.303795	0.161680	0.041794	0.018459	0.872799	0.162880	0.186489	0.336349	0.080202	0.211764	0.076220	0.033003
87	0.623635	0.464079	0.220376	0.239765	0.116740	0.303320	0.046596	0.091894	0.228087	0.231522	0.987750	0.654389	0.298520	0.169248	0.230723	0.271878	0.178885	0.484348	0.481049	0.334727	0.098409	0.245230	0.071408	0.037531	0.525914	0.096705	0.153913	0.219935	0.200514	0.765901	0.166705	0.102220	0.349379	0.046852	0.311206	0.220110	0.102540	0.298636	0.111810	0.058564	1.410825	0.319611	0.015703	0.013480	0.175326	0.293752	0.076487	0.150748	0.090077	0.246634	0.170023	0.176920	0.119378	0.077163	0.365438	0.154904	0.395052	0.386374	0.377821	0.494788	0.042683	0.026114	0.031890	0.014066	0.347187	0.133917	0.095045	0.146887	0.301586	0.165961	0.041931	0.022843	0.844162	0.171936	0.154330	0.265180	0.079956	0.226134	0.075517	0.032208
88	0.607299	0.467348	0.208955	0.216582	0.111765	0.301143	0.043504	0.092227	0.221811	0.293302	1.034843	0.525189	0.274088	0.160723	0.232949	0.274264	0.184610	0.506091	0.473364	0.322703	0.095394	0.245334	0.074538	0.057341	0.616831	0.110667	0.132142	0.162231	0.199535	0.772424	0.181329	0.100985	0.352152	0.051277	0.299527	0.218879	0.082603	0.309128	0.111051	0.058314	1.408069	0.325774	0.014733	0.011820	0.186487	0.369815	0.078579	0.150626	0.100122	0.256824	0.170047	0.176221	0.117081	0.075573	0.348356	0.126409	0.402297	0.394509	0.331185	0.424900	0.039625	0.026538	0.033933	0.013670	0.370309	0.136078	0.094736	0.144146	0.292026	0.168824	0.069613	0.033171	0.804118	0.180777	0.134453	0.236481	0.081727	0.232137	0.070869	0.033856
89	0.578036	0.475011	0.186255	0.169595	0.106998	0.296483	0.040269	0.086326	0.094968	0.348754	1.022249	0.442939	0.262786	0.147025	0.225781	0.271829	0.184375	0.510906	0.470870	0.320368	0.102444	0.244534	0.084954	0.063434	0.622930	0.123192	0.125848	0.162498	0.194788	0.786011	0.188266	0.100286	0.387735	0.056196	0.276782	0.216604	0.064392	0.313792	0.107378	0.061876	1.342270	0.332272	0.014248	0.010431	0.178838	0.412265	0.079151	0.149986	0.109752	0.266586	0.168964	0.171433	0.114867	0.077279	0.337531	0.126804	0.438907	0.396826	0.264233	0.363541	0.030866	0.027404	0.035223	0.013282	0.388873	0.136862	0.095317	0.140859	0.273748	0.168621	0.079227	0.058162	0.794945	0.187393	0.131764	0.235361	0.082154	0.232621	0.079407	0.036794
90	0.576595	0.486640	0.139465	0.104446	0.104490	0.292513	0.040160	0.071125	0.109189	0.381774	1.045389	0.477149	0.267771	0.128782	0.249709	0.266457	0.184696	0.506655	0.471177	0.319014	0.108559	0.239851	0.101479	0.064099	0.776284	0.130513	0.124531	0.153200	0.172561	0.798629	0.187285	0.098903	0.452893	0.061265	0.251094	0.213182	0.064377	0.313423	0.092908	0.060905	1.227802	0.336910	0.012825	0.009614	0.177823	0.422933	0.077906	0.144503	0.112658	0.275490	0.168254	0.167657	0.114310	0.076935	0.343811	0.128151	0.442317	0.396930	0.211753	0.334862	0.027190	0.027911	0.034958	0.013361	0.459480	0.138762	0.095045	0.134088	0.266072	0.165511	0.081521	0.074637	0.810936	0.189195	0.129601	0.229126	0.081475	0.237631	0.102678	0.040561
91	0.571803	0.496152	0.079249	0.060262	0.104579	0.290753	0.039991	0.060195	0.190886	0.391230	1.033809	0.486755	0.263850	0.108450	0.312093	0.272375	0.182650	0.499916	0.469888	0.314278	0.109134	0.227762	0.109914	0.069931	0.973254	0.135141	0.125901	0.148113	0.159559	0.802390	0.187294	0.096298	0.453794	0.066275	0.222576	0.210102	0.063203	0.312508	0.088691	0.058525	1.152755	0.339733	0.011607	0.010014	0.183472	0.419277	0.087577	0.128601	0.166469	0.284068	0.162973	0.166047	0.113812	0.071927	0.322001	0.122108	0.437700	0.398214	0.204778	0.332842	0.032030	0.028663	0.035682	0.013325	0.472036	0.140468	0.093688	0.126873	0.302362	0.160926	0.085391	0.075688	0.811413	0.186876	0.118969	0.199042	0.084419	0.250831	0.116683	0.053183
92	0.555709	0.498104	0.041596	0.039422	0.102589	0.292007	0.038949	0.056364	0.264754	0.391494	0.946793	0.486474	0.265858	0.091801	0.337471	0.269126	0.162489	0.495357	0.465851	0.301474	0.123350	0.204681	0.112063	0.078600	1.012691	0.138670	0.123841	0.149551	0.154373	0.795885	0.185933	0.095459	0.455556	0.071697	0.208923	0.196260	0.070294	0.318769	0.089033	0.057930	1.227596	0.340957	0.011124	0.009983	0.189413	0.412914	0.103787	0.104792	0.237959	0.292160	0.155411	0.166215	0.111920	0.069097	0.253793	0.106842	0.420508	0.401953	0.207122	0.320424	0.034632	0.030059	0.047171	0.013158	0.472937	0.140511	0.088424	0.108715	0.320521	0.160675	0.086321	0.084412	0.751756	0.182987	0.107947	0.150992	0.094823	0.257156	0.121451	0.077824
93	0.558567	0.487906	0.025614	0.034164	0.095680	0.294167	0.038592	0.055439	0.293142	0.388990	0.904619	0.470253	0.322928	0.089522	0.329514	0.255560	0.151460	0.494758	0.465543	0.296655	0.110464	0.173462	0.113488	0.090143	1.068801	0.141189	0.120624	0.148515	0.152832	0.779638	0.178441	0.089793	0.505157	0.077297	0.207756	0.180607	0.088421	0.335469	0.089611	0.054678	0.999431	0.341210	0.011538	0.009686	0.193067	0.412972	0.113838	0.085967	0.312823	0.298910	0.141304	0.163673	0.120053	0.072345	0.201650	0.083144	0.356973	0.408186	0.205553	0.306818	0.058610	0.028942	0.056320	0.013136	0.472191	0.139176	0.085049	0.077873	0.333520	0.156691	0.086526	0.094586	0.759785	0.178956	0.102620	0.116354	0.096317	0.263489	0.123227	0.088596
94	0.555698	0.471679	0.024609	0.028605	0.090306	0.293610	0.037942	0.054625	0.342411	0.385423	0.943058	0.470397	0.345325	0.105193	0.332948	0.243683	0.157763	0.496342	0.461723	0.299697	0.112523	0.139333	0.115022	0.096611	1.260709	0.143423	0.116756	0.144699	0.147913	0.750541	0.164215	0.081347	0.509172	0.081038	0.207443	0.173560	0.093615	0.358481	0.095877	0.054349	0.954920	0.340918	0.011530	0.010070	0.211660	0.423715	0.119792	0.081699	0.317762	0.304132	0.117981	0.155761	0.101241	0.084291	0.166577	0.069508	0.352714	0.417242	0.205511	0.300617	0.061166	0.029961	0.057251	0.014138	0.475401	0.137388	0.084716	0.055294	0.323864	0.115159	0.087545	0.108008	0.769917	0.174794	0.094679	0.102207	0.099647	0.270411	0.123299	0.092110
95	0.554422	0.469458	0.027260	0.023682	0.092099	0.288051	0.037612	0.050417	0.345517	0.379451	0.932807	0.461649	0.365042	0.131510	0.368336	0.246291	0.231172	0.497934	0.456413	0.300539	0.121541	0.113251	0.114976	0.099214	1.283334	0.147040	0.112591	0.142235	0.119580	0.711341	0.146557	0.077061	0.487153	0.082637	0.202962	0.170876	0.090153	0.386626	0.112258	0.053188	0.962880	0.340406	0.011467	0.010869	0.268609	0.444418	0.139386	0.091166	0.320686	0.307040	0.097678	0.145917	0.096984	0.101837	0.134983	0.067632	0.331785	0.426581	0.207064	0.303872	0.065525	0.039026	0.056119	0.015153	0.487450	0.135419	0.082357	0.051008	0.309036	0.100691	0.088038	0.119694	0.763561	0.171840	0.084337	0.098481	0.103676	0.279317	0.121001	0.092292
96	0.614492	0.465306	0.028677	0.021281	0.091881	0.276292	0.036954	0.049161	0.346433	0.365223	0.849872	0.462487	0.397141	0.165911	0.403055	0.240423	0.287064	0.497293	0.457424	0.297022	0.126997	0.109949	0.115750	0.101725	1.294207	0.154042	0.106567	0.141574	0.114925	0.664812	0.140962	0.076335	0.483171	0.082846	0.188064	0.171215	0.092216	0.419425	0.126420	0.047789	1.043184	0.332913	0.011050	0.011087	0.277317	0.470543	0.159695	0.163867	0.324721	0.306700	0.082050	0.134574	0.122948	0.119666	0.123820	0.069202	0.326939	0.435347	0.212627	0.307906	0.065729	0.050236	0.059193	0.015298	0.533970	0.133123	0.080961	0.049512	0.297578	0.099447	0.094513	0.126979	0.769232	0.172540	0.074249	0.097901	0.109211	0.294944	0.122061	0.096133
97	0.714554	0.460973	0.029280	0.020490	0.091261	0.256969	0.040525	0.047322	0.351769	0.335652	0.722049	0.487549	0.577914	0.193263	0.410881	0.220243	0.292590	0.491669	0.428922	0.290769	0.127912	0.135346	0.115986	0.104967	1.306304	0.167776	0.099778	0.140538	0.097712	0.612599	0.141101	0.074723	0.483349	0.086723	0.153390	0.167687	0.091802	0.454430	0.126143	0.043098	1.050492	0.320995	0.010592	0.011090	0.273274	0.498157	0.172203	0.235182	0.407832	0.303263	0.067576	0.121621	0.167940	0.134601	0.122733	0.070444	0.313215	0.444008	0.221856	0.330418	0.065796	0.058149	0.062984	0.017314	0.558325	0.131074	0.080911	0.048369	0.282648	0.098740	0.100560	0.128286	0.780704	0.179677	0.068544	0.097485	0.108979	0.315210	0.135250	0.102590
98	0.736818	0.458526	0.028782	0.020058	0.089678	0.224038	0.045472	0.043699	0.357234	0.291052	0.732557	0.522325	0.676842	0.207341	0.403155	0.203897	0.329790	0.477264	0.372841	0.271495	0.127915	0.177562	0.116512	0.106361	1.289472	0.173055	0.091948	0.133560	0.084778	0.572636	0.139887	0.073046	0.483021	0.094886	0.102690	0.154319	0.089653	0.485061	0.124279	0.043775	1.041456	0.305849	0.010001	0.011110	0.267205	0.524190	0.172661	0.251931	0.462340	0.297185	0.054675	0.107778	0.256924	0.145749	0.123552	0.070353	0.299914	0.452411	0.222859	0.363841	0.065101	0.061910	0.069602	0.019710	0.560388	0.130966	0.075224	0.047751	0.242229	0.096169	0.099840	0.154565	0.717506	0.193320	0.068458	0.092842	0.110244	0.331240	0.147735	0.107005
99	0.693494	0.458056	0.027808	0.018870	0.069021	0.177988	0.054051	0.039289	0.361876	0.235301	0.717381	0.508685	0.690648	0.214360	0.398939	0.194322	0.340429	0.448513	0.298767	0.244205	0.128811	0.222438	0.117292	0.106353	1.256135	0.169843	0.081939	0.122718	0.075162	0.566482	0.132554	0.072722	0.471852	0.100263	0.072487	0.126206	0.089041	0.493225	0.122487	0.045365	1.031664	0.287940	0.009580	0.011172	0.257942	0.546570	0.173408	0.251231	0.483182	0.288549	0.043017	0.094155	0.270752	0.153499	0.129458	0.070363	0.288037	0.457882	0.211014	0.365474	0.065351	0.062669	0.075126	0.022850	0.748719	0.133892	0.065689	0.047287	0.240937	0.091786	0.122834	0.183321	0.755335	0.210577	0.067223	0.084110	0.111413	0.330885	0.155057	0.110175
100	0.666546	0.457773	0.027688	0.018711	0.061441	0.146268	0.061817	0.051462	0.357747	0.200316	0.682957	0.460248	0.733516	0.216992	0.398537	0.196534	0.375020	0.389005	0.226585	0.202646	0.127024	0.267462	0.113156	0.106059	1.261557	0.167657	0.072000	0.109385	0.074394	0.573009	0.119065	0.071741	0.467305	0.104611	0.069148	0.099581	0.095035	0.489187	0.121850	0.046595	1.030516	0.268768	0.009929	0.011036	0.246805	0.562485	0.171847	0.255448	0.511119	0.277239	0.034107	0.081713	0.321013	0.158444	0.133711	0.070394	0.287132	0.455361	0.180260	0.349622	0.065669	0.062601	0.074977	0.024062	0.908147	0.136092	0.059074	0.047528	0.238863	0.087637	0.155802	0.198563	0.790657	0.229371	0.063607	0.074469	0.107011	0.322362	0.160323	0.111007
101	0.641423	0.454308	0.028933	0.019993	0.061535	0.129695	0.063333	0.076267	0.315734	0.196262	0.673468	0.451771	0.769672	0.217158	0.382324	0.199699	0.386127	0.307283	0.165181	0.171205	0.120599	0.312932	0.119573	0.103739	1.278724	0.167595	0.063637	0.095080	0.080823	0.579062	0.105955	0.066936	0.480670	0.110867	0.068102	0.081992	0.094045	0.480944	0.122004	0.047064	1.028620	0.247987	0.010142	0.010558	0.238960	0.565880	0.178641	0.266761	0.511216	0.263039	0.030914	0.069882	0.344379	0.161246	0.131881	0.072230	0.247994	0.453071	0.154209	0.343574	0.065816	0.062266	0.080136	0.024203	0.881549	0.135922	0.053115	0.044631	0.237606	0.085590	0.175520	0.195002	0.768740	0.248911	0.058101	0.065276	0.100137	0.310009	0.161225	0.111423
