	306_At_T2_sh_ND_01.c3d	306_At_T2_sh_ND_01.c3d	306_At_T2_sh_ND_01.c3d	306_At_T2_sh_ND_01.c3d	306_At_T2_sh_ND_01.c3d	306_At_T2_sh_ND_01.c3d	306_At_T2_sh_ND_01.c3d	306_At_T2_sh_ND_01.c3d	306_At_T2_sh_ND_02.c3d	306_At_T2_sh_ND_02.c3d	306_At_T2_sh_ND_02.c3d	306_At_T2_sh_ND_02.c3d	306_At_T2_sh_ND_02.c3d	306_At_T2_sh_ND_02.c3d	306_At_T2_sh_ND_02.c3d	306_At_T2_sh_ND_02.c3d	306_At_T2_sh_ND_03.c3d	306_At_T2_sh_ND_03.c3d	306_At_T2_sh_ND_03.c3d	306_At_T2_sh_ND_03.c3d	306_At_T2_sh_ND_03.c3d	306_At_T2_sh_ND_03.c3d	306_At_T2_sh_ND_03.c3d	306_At_T2_sh_ND_03.c3d	306_At_T2_sh_ND_04.c3d	306_At_T2_sh_ND_04.c3d	306_At_T2_sh_ND_04.c3d	306_At_T2_sh_ND_04.c3d	306_At_T2_sh_ND_04.c3d	306_At_T2_sh_ND_04.c3d	306_At_T2_sh_ND_04.c3d	306_At_T2_sh_ND_04.c3d	306_At_T2_sh_ND_05.c3d	306_At_T2_sh_ND_05.c3d	306_At_T2_sh_ND_05.c3d	306_At_T2_sh_ND_05.c3d	306_At_T2_sh_ND_05.c3d	306_At_T2_sh_ND_05.c3d	306_At_T2_sh_ND_05.c3d	306_At_T2_sh_ND_05.c3d	306_At_T2_sh_ND_06.c3d	306_At_T2_sh_ND_06.c3d	306_At_T2_sh_ND_06.c3d	306_At_T2_sh_ND_06.c3d	306_At_T2_sh_ND_06.c3d	306_At_T2_sh_ND_06.c3d	306_At_T2_sh_ND_06.c3d	306_At_T2_sh_ND_06.c3d	306_At_T2_sh_ND_07.c3d	306_At_T2_sh_ND_07.c3d	306_At_T2_sh_ND_07.c3d	306_At_T2_sh_ND_07.c3d	306_At_T2_sh_ND_07.c3d	306_At_T2_sh_ND_07.c3d	306_At_T2_sh_ND_07.c3d	306_At_T2_sh_ND_07.c3d	306_At_T2_sh_ND_08.c3d	306_At_T2_sh_ND_08.c3d	306_At_T2_sh_ND_08.c3d	306_At_T2_sh_ND_08.c3d	306_At_T2_sh_ND_08.c3d	306_At_T2_sh_ND_08.c3d	306_At_T2_sh_ND_08.c3d	306_At_T2_sh_ND_08.c3d	306_At_T2_sh_ND_09.c3d	306_At_T2_sh_ND_09.c3d	306_At_T2_sh_ND_09.c3d	306_At_T2_sh_ND_09.c3d	306_At_T2_sh_ND_09.c3d	306_At_T2_sh_ND_09.c3d	306_At_T2_sh_ND_09.c3d	306_At_T2_sh_ND_09.c3d	306_At_T2_sh_ND_10.c3d	306_At_T2_sh_ND_10.c3d	306_At_T2_sh_ND_10.c3d	306_At_T2_sh_ND_10.c3d	306_At_T2_sh_ND_10.c3d	306_At_T2_sh_ND_10.c3d	306_At_T2_sh_ND_10.c3d	306_At_T2_sh_ND_10.c3d
	Biceps femoris_lat	Semitendinosus_lat	Vastus lateralis_lat	Vastus medialis_lat	Biceps femoris_med	Semitendinosus_med	Vastus lateralis_med	Vastus medialis_med	Biceps femoris_lat	Semitendinosus_lat	Vastus lateralis_lat	Vastus medialis_lat	Biceps femoris_med	Semitendinosus_med	Vastus lateralis_med	Vastus medialis_med	Biceps femoris_lat	Semitendinosus_lat	Vastus lateralis_lat	Vastus medialis_lat	Biceps femoris_med	Semitendinosus_med	Vastus lateralis_med	Vastus medialis_med	Biceps femoris_lat	Semitendinosus_lat	Vastus lateralis_lat	Vastus medialis_lat	Biceps femoris_med	Semitendinosus_med	Vastus lateralis_med	Vastus medialis_med	Biceps femoris_lat	Semitendinosus_lat	Vastus lateralis_lat	Vastus medialis_lat	Biceps femoris_med	Semitendinosus_med	Vastus lateralis_med	Vastus medialis_med	Biceps femoris_lat	Semitendinosus_lat	Vastus lateralis_lat	Vastus medialis_lat	Biceps femoris_med	Semitendinosus_med	Vastus lateralis_med	Vastus medialis_med	Biceps femoris_lat	Semitendinosus_lat	Vastus lateralis_lat	Vastus medialis_lat	Biceps femoris_med	Semitendinosus_med	Vastus lateralis_med	Vastus medialis_med	Biceps femoris_lat	Semitendinosus_lat	Vastus lateralis_lat	Vastus medialis_lat	Biceps femoris_med	Semitendinosus_med	Vastus lateralis_med	Vastus medialis_med	Biceps femoris_lat	Semitendinosus_lat	Vastus lateralis_lat	Vastus medialis_lat	Biceps femoris_med	Semitendinosus_med	Vastus lateralis_med	Vastus medialis_med	Biceps femoris_lat	Semitendinosus_lat	Vastus lateralis_lat	Vastus medialis_lat	Biceps femoris_med	Semitendinosus_med	Vastus lateralis_med	Vastus medialis_med
	P2D	P2D	P2D	P2D	P2D	P2D	P2D	P2D	P2D	P2D	P2D	P2D	P2D	P2D	P2D	P2D	P2D	P2D	P2D	P2D	P2D	P2D	P2D	P2D	P2D	P2D	P2D	P2D	P2D	P2D	P2D	P2D	P2D	P2D	P2D	P2D	P2D	P2D	P2D	P2D	P2D	P2D	P2D	P2D	P2D	P2D	P2D	P2D	P2D	P2D	P2D	P2D	P2D	P2D	P2D	P2D	P2D	P2D	P2D	P2D	P2D	P2D	P2D	P2D	P2D	P2D	P2D	P2D	P2D	P2D	P2D	P2D	P2D	P2D	P2D	P2D	P2D	P2D	P2D	P2D
	EMG_lat	EMG_lat	EMG_lat	EMG_lat	EMG_med	EMG_med	EMG_med	EMG_med	EMG_lat	EMG_lat	EMG_lat	EMG_lat	EMG_med	EMG_med	EMG_med	EMG_med	EMG_lat	EMG_lat	EMG_lat	EMG_lat	EMG_med	EMG_med	EMG_med	EMG_med	EMG_lat	EMG_lat	EMG_lat	EMG_lat	EMG_med	EMG_med	EMG_med	EMG_med	EMG_lat	EMG_lat	EMG_lat	EMG_lat	EMG_med	EMG_med	EMG_med	EMG_med	EMG_lat	EMG_lat	EMG_lat	EMG_lat	EMG_med	EMG_med	EMG_med	EMG_med	EMG_lat	EMG_lat	EMG_lat	EMG_lat	EMG_med	EMG_med	EMG_med	EMG_med	EMG_lat	EMG_lat	EMG_lat	EMG_lat	EMG_med	EMG_med	EMG_med	EMG_med	EMG_lat	EMG_lat	EMG_lat	EMG_lat	EMG_med	EMG_med	EMG_med	EMG_med	EMG_lat	EMG_lat	EMG_lat	EMG_lat	EMG_med	EMG_med	EMG_med	EMG_med
ITEM	Y	Y	Y	Y	Y	Y	Y	Y	Y	Y	Y	Y	Y	Y	Y	Y	Y	Y	Y	Y	Y	Y	Y	Y	Y	Y	Y	Y	Y	Y	Y	Y	Y	Y	Y	Y	Y	Y	Y	Y	Y	Y	Y	Y	Y	Y	Y	Y	Y	Y	Y	Y	Y	Y	Y	Y	Y	Y	Y	Y	Y	Y	Y	Y	Y	Y	Y	Y	Y	Y	Y	Y	Y	Y	Y	Y	Y	Y	Y	Y
1	0.277231	0.241683	0.197814	0.075093	0.114277	0.120981	0.364306	0.259267	0.422626	0.160351	0.496122	0.157004	0.280398	0.195234	0.416654	0.153930	0.345366	0.180672	0.192760	0.271832	0.701175	0.308113	0.237900	0.366216	0.566108	0.171816	0.233301	0.319497	0.232454	0.106834	0.299137	0.405361	0.193492	0.138679	0.477686	0.194492	0.080050	0.073699	0.204611	0.186480	0.450983	0.142595	0.116024	0.299143	0.378612	0.204777	0.206237	0.434750	0.687168	0.300586	0.179356	0.203150	0.456922	0.198663	0.245467	0.402133	0.513397	0.144246	0.244295	0.189343	0.084350	0.137534	0.233603	0.370213	0.412662	0.192336	0.210805	0.191371	0.122728	0.152462	0.222994	0.374965	0.378446	0.174003	0.143403	0.198262	0.165965	0.189172	0.204842	0.334773
2	0.296932	0.257143	0.199210	0.079376	0.119443	0.120936	0.357195	0.259537	0.437643	0.159866	0.486669	0.155441	0.281537	0.193469	0.421151	0.149435	0.345763	0.172968	0.194415	0.296493	0.699081	0.281646	0.281244	0.367694	0.568209	0.174316	0.228428	0.323219	0.235683	0.105616	0.297651	0.395076	0.213142	0.160305	0.423809	0.222150	0.089451	0.077186	0.204563	0.181993	0.415726	0.121174	0.124077	0.300764	0.327259	0.181091	0.222035	0.435650	0.737282	0.306121	0.159853	0.203263	0.450300	0.193501	0.255716	0.399925	0.504454	0.144697	0.250416	0.186353	0.083236	0.154386	0.242225	0.368387	0.436835	0.192866	0.214437	0.191507	0.109863	0.128581	0.210413	0.375002	0.399625	0.193932	0.146667	0.192136	0.165816	0.196982	0.198976	0.334334
3	0.362215	0.269290	0.203888	0.150951	0.120138	0.121167	0.350504	0.257999	0.448083	0.173497	0.436681	0.150678	0.276605	0.190866	0.423641	0.139318	0.344415	0.162474	0.199724	0.308611	0.699257	0.274553	0.292690	0.364114	0.566212	0.176345	0.242295	0.314256	0.224627	0.101011	0.245778	0.381432	0.241096	0.180457	0.404730	0.235829	0.123669	0.079241	0.201738	0.181604	0.367786	0.102425	0.127726	0.299187	0.282160	0.161516	0.248082	0.423281	0.760471	0.303450	0.146064	0.200272	0.443722	0.199424	0.250101	0.404779	0.502096	0.142687	0.259854	0.188524	0.084995	0.160389	0.257934	0.361341	0.454929	0.193878	0.215265	0.191439	0.094678	0.105322	0.255062	0.374872	0.471505	0.218176	0.185641	0.187723	0.163877	0.204407	0.197738	0.337624
4	0.411675	0.272335	0.233684	0.215505	0.164680	0.123719	0.333532	0.255078	0.451543	0.184708	0.398543	0.141077	0.270783	0.204103	0.425982	0.160978	0.347636	0.162158	0.206107	0.310677	0.686561	0.275529	0.293265	0.366188	0.562214	0.182331	0.235143	0.319839	0.216473	0.101779	0.188730	0.382149	0.280356	0.196319	0.412725	0.236674	0.127677	0.091215	0.201240	0.179635	0.349238	0.098884	0.127443	0.304653	0.249917	0.149015	0.267038	0.382945	0.753118	0.293817	0.145163	0.201734	0.442989	0.216755	0.224117	0.405722	0.502986	0.144660	0.272849	0.190607	0.093842	0.165418	0.284996	0.335412	0.458656	0.193916	0.215063	0.191409	0.092826	0.097628	0.313563	0.373526	0.565284	0.241599	0.307877	0.211178	0.163489	0.205074	0.198457	0.335173
5	0.417913	0.278085	0.238000	0.223222	0.181504	0.135729	0.289291	0.239091	0.459700	0.190456	0.392700	0.141884	0.270138	0.208016	0.417885	0.204605	0.337181	0.152806	0.221441	0.311410	0.612793	0.265510	0.283006	0.356933	0.605002	0.197439	0.204774	0.337894	0.171793	0.093845	0.148999	0.382032	0.327933	0.201225	0.413777	0.236483	0.124914	0.149950	0.201041	0.173225	0.330449	0.095411	0.130174	0.304286	0.236340	0.144216	0.277729	0.369341	0.747676	0.286359	0.181661	0.211371	0.442910	0.234198	0.218231	0.407489	0.487304	0.149781	0.291290	0.182906	0.107456	0.176641	0.314566	0.307146	0.467985	0.193502	0.249939	0.186397	0.055018	0.080700	0.357267	0.374636	0.648975	0.260466	0.479423	0.266791	0.163169	0.205607	0.216124	0.337577
6	0.416839	0.302024	0.233983	0.224151	0.188801	0.142672	0.276697	0.209064	0.471935	0.196162	0.391435	0.149553	0.266837	0.234433	0.396514	0.196937	0.220754	0.105785	0.268866	0.313361	0.556557	0.264041	0.278861	0.323134	0.678502	0.208558	0.193621	0.340588	0.147155	0.089758	0.149259	0.387332	0.354288	0.198132	0.404976	0.235542	0.123596	0.238331	0.199532	0.174387	0.341581	0.103112	0.146631	0.304318	0.177047	0.134411	0.283039	0.368291	0.744605	0.281348	0.320067	0.228882	0.445052	0.238220	0.250582	0.406324	0.484835	0.160308	0.294078	0.190110	0.126714	0.210662	0.317179	0.291733	0.464145	0.183436	0.333876	0.211042	0.036200	0.069430	0.360778	0.372185	0.709701	0.267023	0.529424	0.316857	0.164263	0.207804	0.253653	0.346463
7	0.516187	0.338013	0.259771	0.227076	0.199452	0.140761	0.278660	0.196652	0.480094	0.200093	0.375259	0.150414	0.267660	0.242348	0.376073	0.200351	0.181389	0.090882	0.313290	0.312266	0.551358	0.252547	0.288022	0.306044	0.692854	0.206252	0.206632	0.336630	0.154471	0.089950	0.158955	0.389275	0.360444	0.201324	0.355785	0.247748	0.128088	0.299545	0.188977	0.185554	0.345240	0.107246	0.194077	0.304270	0.136712	0.128928	0.282672	0.367963	0.722278	0.280071	0.380599	0.222798	0.442794	0.238825	0.255827	0.424807	0.497470	0.167576	0.289173	0.208794	0.131022	0.216869	0.310635	0.275323	0.479658	0.173406	0.389963	0.331268	0.034900	0.071889	0.361367	0.374388	0.721527	0.269009	0.531293	0.358568	0.164208	0.209953	0.264968	0.336226
8	0.618945	0.351081	0.295447	0.239577	0.205064	0.134445	0.274979	0.203173	0.481926	0.200979	0.345287	0.147424	0.285925	0.231704	0.369190	0.197345	0.181321	0.101435	0.325167	0.311450	0.541295	0.223679	0.295366	0.328775	0.687009	0.204907	0.206978	0.337477	0.163302	0.090117	0.163239	0.378031	0.381748	0.216657	0.311053	0.285910	0.145315	0.387598	0.183428	0.196370	0.345314	0.106840	0.272815	0.306189	0.124950	0.124677	0.271976	0.355862	0.703640	0.284280	0.382697	0.218965	0.433792	0.225154	0.257320	0.443428	0.511983	0.167707	0.292285	0.219132	0.130578	0.216664	0.309500	0.269538	0.532461	0.169740	0.428111	0.389904	0.035295	0.074285	0.370168	0.379018	0.736744	0.270921	0.550041	0.380639	0.163484	0.247899	0.238351	0.294997
9	0.619542	0.336375	0.319349	0.265169	0.206611	0.133813	0.261219	0.197631	0.457726	0.198834	0.324558	0.156324	0.292651	0.230059	0.370439	0.198452	0.192068	0.107636	0.324742	0.313871	0.460476	0.193203	0.296466	0.343399	0.682144	0.216029	0.206462	0.358872	0.169724	0.090886	0.177588	0.373704	0.472374	0.243469	0.288002	0.322229	0.148313	0.416705	0.172727	0.191450	0.347627	0.107626	0.307107	0.316150	0.127999	0.127359	0.258210	0.298101	0.700796	0.300583	0.385785	0.221369	0.424859	0.214452	0.255429	0.441087	0.547710	0.167133	0.298725	0.212669	0.127719	0.212235	0.310919	0.299266	0.551608	0.172703	0.421834	0.394885	0.037659	0.078175	0.377672	0.376578	0.739400	0.274919	0.614549	0.383307	0.164289	0.352702	0.219703	0.284742
10	0.607731	0.326772	0.315844	0.299304	0.206096	0.136369	0.202055	0.161829	0.433608	0.195404	0.318295	0.168602	0.286586	0.228171	0.387106	0.204107	0.213783	0.105055	0.369527	0.325501	0.410026	0.190347	0.292815	0.323794	0.682666	0.240639	0.215171	0.388493	0.173850	0.084396	0.189104	0.367346	0.514148	0.253835	0.288864	0.350866	0.152074	0.436619	0.156958	0.168220	0.351460	0.107664	0.306679	0.325088	0.122524	0.127877	0.258232	0.206518	0.712245	0.305139	0.386693	0.236433	0.409250	0.208773	0.259650	0.401767	0.595832	0.164213	0.298911	0.214469	0.118691	0.206316	0.312407	0.293856	0.552136	0.186786	0.407326	0.415701	0.038486	0.078128	0.387492	0.384227	0.739583	0.281632	0.723867	0.399497	0.171783	0.409368	0.217937	0.288959
11	0.615308	0.357065	0.313092	0.311787	0.207100	0.138912	0.156391	0.125100	0.449817	0.197999	0.337608	0.172811	0.293086	0.219699	0.412724	0.215699	0.208836	0.108834	0.419802	0.332824	0.339761	0.189678	0.278735	0.356059	0.652992	0.264840	0.264987	0.438451	0.174811	0.085216	0.190435	0.357649	0.528301	0.255174	0.291017	0.362211	0.153089	0.438351	0.157723	0.158609	0.352543	0.112832	0.318281	0.323538	0.107821	0.116440	0.279206	0.181189	0.708465	0.278736	0.386982	0.252998	0.386351	0.205401	0.292615	0.377126	0.591482	0.156500	0.322487	0.214470	0.114095	0.205288	0.308378	0.278500	0.555872	0.196931	0.430719	0.439510	0.046710	0.068652	0.410187	0.384943	0.759685	0.314048	0.810021	0.474960	0.178347	0.400770	0.220792	0.289453
12	0.652005	0.392768	0.314274	0.312601	0.207209	0.139211	0.154749	0.150300	0.454798	0.198579	0.379765	0.176199	0.306484	0.212926	0.466656	0.298902	0.206876	0.117682	0.420921	0.333573	0.314316	0.174464	0.262602	0.388131	0.672251	0.289062	0.300699	0.478505	0.168192	0.079393	0.204428	0.350104	0.532604	0.253008	0.282578	0.365045	0.170235	0.440038	0.197291	0.162659	0.353805	0.122815	0.343717	0.309230	0.098234	0.104412	0.288264	0.183982	0.690712	0.240729	0.389305	0.267033	0.368843	0.203672	0.300007	0.377753	0.543268	0.152474	0.368569	0.219493	0.114928	0.205297	0.313392	0.275779	0.585644	0.205173	0.509785	0.447529	0.049619	0.064870	0.428532	0.347265	0.785043	0.340654	0.844500	0.556731	0.142570	0.540114	0.229036	0.288713
13	0.684834	0.412759	0.312168	0.318756	0.201383	0.138981	0.160569	0.161315	0.454166	0.200367	0.391237	0.223183	0.251755	0.204036	0.468747	0.320649	0.208522	0.129767	0.418164	0.322775	0.308508	0.141916	0.270867	0.382146	0.699760	0.297703	0.302992	0.491083	0.160970	0.070995	0.216114	0.348611	0.534683	0.250341	0.291580	0.366329	0.226738	0.467102	0.211135	0.144773	0.355709	0.122796	0.368305	0.284852	0.083347	0.093207	0.288351	0.164148	0.672263	0.220644	0.385186	0.269098	0.354534	0.201208	0.319139	0.383735	0.584664	0.177820	0.381057	0.243489	0.114712	0.205429	0.329531	0.282082	0.618451	0.204071	0.613885	0.453084	0.059703	0.082785	0.432268	0.291092	0.795202	0.343026	0.848572	0.606717	0.131319	0.602341	0.229176	0.288154
14	0.691266	0.417173	0.316031	0.338080	0.197716	0.131965	0.177793	0.155807	0.452091	0.196643	0.393506	0.248956	0.232584	0.192699	0.482060	0.318590	0.226184	0.150197	0.415970	0.298182	0.271431	0.131651	0.278328	0.379200	0.707328	0.298356	0.306063	0.489666	0.158706	0.069180	0.221380	0.351485	0.538977	0.250597	0.304369	0.367016	0.305021	0.501426	0.217251	0.129086	0.315288	0.119663	0.394946	0.253344	0.072664	0.089369	0.302931	0.153844	0.644879	0.209205	0.404449	0.263235	0.234101	0.185391	0.333754	0.399716	0.633228	0.189060	0.383361	0.278317	0.165428	0.207926	0.342233	0.282342	0.654641	0.191630	0.666237	0.452871	0.062865	0.089481	0.430473	0.237542	0.860440	0.350749	0.848608	0.614710	0.136675	0.603611	0.227663	0.273973
15	0.687991	0.417005	0.330485	0.349506	0.207889	0.142116	0.215474	0.177088	0.442308	0.186842	0.405500	0.250498	0.238126	0.191650	0.515764	0.325831	0.274857	0.168539	0.414532	0.281075	0.260241	0.123865	0.278741	0.374631	0.746172	0.303450	0.335233	0.480835	0.155950	0.070229	0.222811	0.354262	0.538855	0.251161	0.305051	0.377896	0.377273	0.514025	0.225358	0.130777	0.351611	0.122777	0.419233	0.240221	0.066437	0.087367	0.346276	0.152130	0.607402	0.198763	0.443610	0.272921	0.236642	0.180388	0.337901	0.397257	0.654442	0.185538	0.410004	0.287293	0.269904	0.213438	0.364460	0.249061	0.667561	0.183493	0.669687	0.453047	0.064691	0.094227	0.430389	0.225852	0.926866	0.355226	0.848900	0.614404	0.150021	0.604927	0.228532	0.250223
16	0.692802	0.414878	0.334680	0.349540	0.221861	0.151395	0.216345	0.206917	0.428123	0.173454	0.419495	0.270195	0.234996	0.192972	0.537990	0.350711	0.291988	0.172953	0.428480	0.275955	0.248215	0.115219	0.277041	0.377708	0.772197	0.304516	0.368624	0.468749	0.150780	0.071285	0.240722	0.357141	0.548275	0.252113	0.303142	0.403728	0.439160	0.531423	0.230354	0.144044	0.388570	0.122518	0.447318	0.251956	0.065675	0.089795	0.366607	0.190530	0.547982	0.206145	0.471359	0.297134	0.253247	0.180822	0.333927	0.395699	0.659596	0.175590	0.432258	0.285854	0.375636	0.224086	0.365371	0.230332	0.663531	0.169999	0.672868	0.453675	0.070074	0.102492	0.427191	0.218486	0.942575	0.351552	0.847356	0.614966	0.154972	0.608996	0.231185	0.246288
17	0.712544	0.406832	0.334136	0.349567	0.234404	0.151917	0.237590	0.213318	0.405413	0.161099	0.425411	0.298797	0.236407	0.188632	0.543497	0.371961	0.290434	0.172906	0.478089	0.279383	0.244798	0.113465	0.260373	0.390666	0.780216	0.310424	0.407237	0.456817	0.148363	0.071109	0.282578	0.364197	0.574950	0.254186	0.295205	0.439586	0.500350	0.531533	0.231656	0.147617	0.391162	0.124515	0.467263	0.271538	0.067765	0.121692	0.370180	0.207805	0.497473	0.234599	0.484493	0.314420	0.265072	0.177695	0.322239	0.393028	0.663040	0.172546	0.438170	0.284727	0.458994	0.229583	0.358674	0.231947	0.670487	0.158494	0.686612	0.459944	0.077043	0.104913	0.410531	0.215321	0.946785	0.344112	0.847426	0.615130	0.165842	0.607955	0.256114	0.256683
18	0.686466	0.403273	0.351492	0.336119	0.226411	0.157287	0.281027	0.215346	0.396564	0.159271	0.429100	0.321162	0.256248	0.159874	0.545664	0.361864	0.284107	0.172666	0.516666	0.282199	0.245603	0.109717	0.211589	0.388122	0.826094	0.335768	0.448587	0.446027	0.147178	0.070044	0.356549	0.376356	0.618526	0.266231	0.282881	0.460583	0.527148	0.529203	0.232937	0.147657	0.419863	0.125112	0.467413	0.275684	0.082303	0.160508	0.365938	0.202899	0.490535	0.237242	0.491224	0.323110	0.275632	0.173349	0.321903	0.390619	0.664621	0.174162	0.439364	0.289962	0.528297	0.230480	0.351516	0.235854	0.675226	0.154783	0.708860	0.466856	0.076794	0.104101	0.380406	0.211731	0.955481	0.340318	0.848386	0.615024	0.166095	0.605472	0.290494	0.270492
19	0.665648	0.415983	0.375916	0.295931	0.209475	0.160785	0.304566	0.239813	0.413224	0.159788	0.435687	0.341326	0.331836	0.149124	0.543629	0.336313	0.287577	0.176683	0.521898	0.281460	0.228585	0.099561	0.186741	0.405068	0.847798	0.348720	0.452985	0.443128	0.146560	0.081848	0.414763	0.393106	0.660349	0.278587	0.260786	0.459323	0.558678	0.524475	0.232166	0.146858	0.420176	0.127289	0.467659	0.266784	0.085496	0.166118	0.361044	0.193721	0.415767	0.234985	0.493423	0.328423	0.296701	0.159545	0.345739	0.389094	0.665905	0.178381	0.435100	0.290660	0.536953	0.230777	0.333291	0.238355	0.668007	0.153362	0.721480	0.468977	0.075797	0.106946	0.342859	0.210049	0.945485	0.327065	0.848190	0.615607	0.165706	0.606043	0.315175	0.285798
20	0.706625	0.430441	0.374285	0.286639	0.225663	0.153046	0.305173	0.274093	0.403560	0.143578	0.426137	0.371625	0.345923	0.091248	0.542015	0.334609	0.295860	0.185009	0.566584	0.266051	0.181756	0.099199	0.179345	0.438715	0.867479	0.360403	0.447487	0.439763	0.135936	0.090196	0.436824	0.409478	0.650510	0.268968	0.228968	0.452674	0.662719	0.502050	0.247975	0.143411	0.425265	0.120587	0.471677	0.258552	0.086186	0.208795	0.358118	0.194830	0.387726	0.237939	0.493360	0.330067	0.301094	0.134697	0.384243	0.385719	0.665980	0.179340	0.448643	0.288886	0.672037	0.265479	0.301158	0.236394	0.663217	0.152890	0.722644	0.470490	0.075765	0.113303	0.327815	0.207529	0.903444	0.305737	0.837619	0.616140	0.165790	0.608276	0.313286	0.288510
21	0.709510	0.416223	0.374152	0.300223	0.220280	0.157230	0.299982	0.293313	0.406485	0.132735	0.421134	0.407984	0.344478	0.073693	0.545837	0.332169	0.301284	0.193273	0.600744	0.259010	0.155291	0.106765	0.200076	0.447332	0.871203	0.364202	0.478901	0.424167	0.133782	0.092219	0.455368	0.414729	0.638629	0.260807	0.223598	0.451905	0.798025	0.494120	0.278738	0.126586	0.467799	0.116239	0.473260	0.255826	0.087239	0.217766	0.359369	0.195521	0.388606	0.237103	0.493227	0.328364	0.321072	0.120095	0.417553	0.379790	0.663884	0.175649	0.478962	0.287515	0.785218	0.260537	0.291861	0.236369	0.695138	0.155584	0.723822	0.476832	0.077660	0.119157	0.342490	0.208006	0.828067	0.278522	0.790836	0.606368	0.164852	0.613351	0.283333	0.279497
22	0.674796	0.391415	0.363514	0.316749	0.241806	0.157486	0.299493	0.293957	0.419180	0.168816	0.458323	0.417940	0.328135	0.076277	0.561646	0.335475	0.303539	0.202933	0.604472	0.258699	0.148810	0.111632	0.235670	0.448111	0.835961	0.357103	0.539664	0.432667	0.130369	0.093564	0.461202	0.414092	0.618469	0.260981	0.228405	0.449845	0.818324	0.423222	0.300635	0.108417	0.493983	0.112884	0.468304	0.254675	0.086244	0.219056	0.359216	0.194022	0.387084	0.236404	0.471328	0.322529	0.326782	0.102787	0.448029	0.359939	0.665602	0.173666	0.490121	0.282237	0.785382	0.249992	0.297835	0.241412	0.720442	0.156267	0.728450	0.486636	0.079078	0.119799	0.331139	0.186484	0.788653	0.260884	0.703076	0.580394	0.165352	0.619868	0.262923	0.255644
23	0.555437	0.375003	0.334031	0.317156	0.274131	0.157097	0.298315	0.290444	0.424276	0.184084	0.486041	0.416935	0.323346	0.086528	0.575029	0.345099	0.301979	0.201341	0.590159	0.256131	0.145509	0.103799	0.235433	0.460119	0.783979	0.351538	0.569275	0.442212	0.125549	0.093213	0.461334	0.415427	0.608255	0.262943	0.235420	0.439905	0.826066	0.400411	0.303818	0.106544	0.490377	0.108836	0.454809	0.254538	0.080302	0.219446	0.362404	0.194051	0.421939	0.236527	0.392130	0.313821	0.321939	0.097189	0.457019	0.335113	0.662344	0.168157	0.488663	0.265197	0.788629	0.251043	0.296095	0.238771	0.717406	0.160991	0.722621	0.490069	0.080803	0.120502	0.320056	0.168752	0.831408	0.260411	0.676044	0.551316	0.170419	0.616956	0.261589	0.245188
24	0.591974	0.374313	0.293661	0.304106	0.276647	0.180090	0.291153	0.294740	0.421181	0.181233	0.486720	0.420324	0.323709	0.097551	0.549533	0.352972	0.322113	0.197135	0.565911	0.253294	0.132703	0.097269	0.225022	0.456214	0.778810	0.351116	0.568816	0.442740	0.122799	0.092997	0.458010	0.406595	0.607024	0.255440	0.235732	0.419094	0.827149	0.380412	0.303820	0.110278	0.507487	0.108925	0.418241	0.253196	0.073053	0.216594	0.372337	0.199982	0.465038	0.238533	0.364429	0.318266	0.322101	0.106256	0.455747	0.327372	0.650329	0.164636	0.489077	0.253390	0.790986	0.252125	0.295354	0.196618	0.696262	0.177393	0.721893	0.449980	0.079970	0.115624	0.319074	0.161193	0.869003	0.258322	0.675277	0.524624	0.172927	0.568809	0.262306	0.236729
25	0.611135	0.368675	0.306360	0.274660	0.277260	0.239652	0.304628	0.295039	0.418025	0.183269	0.480055	0.417006	0.315993	0.104093	0.483613	0.347296	0.332316	0.193111	0.556242	0.256471	0.120917	0.096890	0.223947	0.435632	0.778077	0.348587	0.575041	0.460815	0.117684	0.093295	0.454663	0.381005	0.548838	0.235867	0.228546	0.389205	0.826969	0.382046	0.300766	0.108642	0.510246	0.113422	0.383520	0.240573	0.069508	0.215257	0.372014	0.201155	0.492969	0.238303	0.378071	0.325309	0.322527	0.114309	0.449523	0.327342	0.642051	0.166147	0.487553	0.254128	0.803218	0.261037	0.293267	0.170408	0.664691	0.188072	0.719067	0.372118	0.078816	0.121709	0.315737	0.136727	0.893128	0.256983	0.665462	0.511935	0.165610	0.524923	0.262878	0.230691
26	0.617132	0.347402	0.323104	0.252417	0.281473	0.306017	0.312302	0.288551	0.426733	0.194774	0.456996	0.409220	0.305232	0.107544	0.407922	0.276213	0.331270	0.193990	0.558611	0.266891	0.123797	0.100507	0.230441	0.433348	0.779265	0.339668	0.599731	0.469021	0.108864	0.096290	0.455521	0.346317	0.534115	0.233009	0.221186	0.351963	0.822667	0.386872	0.264694	0.101044	0.507523	0.119535	0.384051	0.225282	0.072871	0.215174	0.368711	0.196514	0.482189	0.213877	0.382328	0.329059	0.322755	0.120098	0.425767	0.327200	0.634760	0.171927	0.484426	0.258867	0.831418	0.276630	0.289409	0.164520	0.670990	0.202413	0.713777	0.365242	0.076566	0.169633	0.294275	0.118234	0.893860	0.252946	0.613659	0.511559	0.144839	0.520483	0.262640	0.230274
27	0.602543	0.290193	0.339491	0.252652	0.284397	0.317794	0.310909	0.277783	0.428133	0.197764	0.430924	0.404245	0.301881	0.105550	0.405996	0.257352	0.356114	0.213719	0.549592	0.262597	0.126816	0.103487	0.237795	0.407832	0.769833	0.324771	0.622287	0.449981	0.100426	0.118431	0.452947	0.300190	0.565551	0.233730	0.201592	0.334660	0.806528	0.360556	0.239341	0.099200	0.509501	0.117653	0.386282	0.231711	0.076684	0.220724	0.371392	0.195383	0.467039	0.197177	0.382685	0.317748	0.320372	0.123531	0.416634	0.325265	0.625670	0.185959	0.484450	0.263211	0.842321	0.280265	0.284345	0.164047	0.745953	0.213839	0.713754	0.373554	0.077573	0.226269	0.279967	0.117936	0.896263	0.244317	0.512552	0.494488	0.132515	0.408834	0.256850	0.232807
28	0.568804	0.248347	0.353802	0.248541	0.298094	0.354324	0.305360	0.276899	0.410680	0.195089	0.407667	0.403551	0.298399	0.103945	0.389828	0.257639	0.435645	0.244909	0.505191	0.239681	0.128020	0.105153	0.240794	0.372001	0.780551	0.310080	0.617916	0.394284	0.091140	0.194332	0.450671	0.266521	0.580862	0.232376	0.199952	0.330510	0.778619	0.317994	0.232114	0.097577	0.552591	0.106499	0.368418	0.237077	0.077125	0.221928	0.364846	0.194737	0.467568	0.197665	0.390971	0.296029	0.310373	0.124116	0.415214	0.290549	0.619025	0.184211	0.463206	0.269758	0.843379	0.280445	0.259866	0.155449	0.871371	0.217726	0.729264	0.333717	0.071633	0.235725	0.279551	0.115941	0.877106	0.196869	0.427760	0.421833	0.134339	0.247488	0.255641	0.231641
29	0.562586	0.242732	0.362251	0.246935	0.296256	0.363271	0.280995	0.260192	0.407345	0.196151	0.401357	0.399197	0.292682	0.102296	0.337857	0.245741	0.496933	0.256758	0.499128	0.237804	0.127344	0.103619	0.229473	0.365593	0.769744	0.283916	0.609897	0.352800	0.086272	0.295453	0.450432	0.263734	0.599592	0.230165	0.191120	0.328248	0.748023	0.305516	0.228949	0.092760	0.621226	0.105394	0.353128	0.229874	0.075905	0.228479	0.328656	0.194135	0.468204	0.198680	0.408045	0.280495	0.292815	0.129031	0.408275	0.198800	0.616491	0.174020	0.421735	0.263252	0.838613	0.277281	0.218287	0.137173	0.882920	0.209678	0.735325	0.297914	0.083922	0.335647	0.280427	0.114853	0.931247	0.167778	0.392377	0.336222	0.134283	0.257819	0.254077	0.224379
30	0.559254	0.244249	0.378107	0.227017	0.298662	0.363427	0.275246	0.233183	0.411604	0.196403	0.421815	0.376928	0.286871	0.098883	0.300324	0.208484	0.517838	0.253354	0.513511	0.259255	0.124402	0.107257	0.218924	0.343113	0.716429	0.270814	0.608714	0.353708	0.079950	0.344404	0.447388	0.262138	0.597218	0.238093	0.165026	0.329554	0.708538	0.289412	0.224440	0.073822	0.635797	0.119321	0.339456	0.256187	0.079833	0.238340	0.288154	0.167693	0.464825	0.202056	0.425947	0.283839	0.258292	0.129909	0.407595	0.149578	0.554402	0.144547	0.411583	0.238093	0.814545	0.267785	0.159780	0.120829	0.870927	0.206835	0.699834	0.279860	0.092394	0.357778	0.280525	0.118544	0.963526	0.176275	0.388243	0.310017	0.139071	0.269447	0.248759	0.213329
31	0.550313	0.247191	0.382787	0.228272	0.295261	0.365783	0.264876	0.221959	0.418559	0.205882	0.438091	0.369399	0.287492	0.092767	0.300433	0.180079	0.541254	0.244241	0.523179	0.271714	0.120941	0.143238	0.217937	0.329759	0.701296	0.291659	0.608023	0.365223	0.115095	0.384986	0.444001	0.259924	0.606485	0.255623	0.167552	0.327714	0.665574	0.292192	0.224556	0.069049	0.662369	0.169109	0.326963	0.329204	0.086206	0.256614	0.246037	0.117880	0.474322	0.218507	0.412633	0.287825	0.233341	0.132054	0.416503	0.158742	0.508286	0.134056	0.404773	0.199885	0.774683	0.250498	0.151005	0.114602	0.854305	0.211029	0.651695	0.290891	0.095445	0.358871	0.279091	0.119494	0.904517	0.159715	0.390631	0.353173	0.140990	0.261588	0.247919	0.202993
32	0.511039	0.249861	0.382997	0.231133	0.329325	0.384998	0.221694	0.221433	0.454337	0.208635	0.437868	0.368402	0.262038	0.091042	0.309354	0.198365	0.578111	0.229190	0.540437	0.272667	0.115593	0.197522	0.218064	0.328191	0.714958	0.304894	0.597203	0.366915	0.178247	0.551609	0.444267	0.262022	0.653664	0.279269	0.172369	0.306442	0.651884	0.301080	0.223902	0.068038	0.684677	0.178816	0.296170	0.359698	0.076730	0.250408	0.218805	0.093881	0.472204	0.246088	0.382478	0.276073	0.230518	0.136033	0.422361	0.176538	0.492441	0.132997	0.375253	0.189759	0.727720	0.232224	0.148724	0.113459	0.854715	0.220730	0.644811	0.298652	0.100039	0.365759	0.278047	0.120820	0.843271	0.159517	0.413289	0.369756	0.123891	0.259037	0.229551	0.189946
33	0.505299	0.236852	0.377639	0.244555	0.404750	0.445528	0.177983	0.204118	0.533565	0.215477	0.429249	0.359314	0.149848	0.090533	0.320411	0.221676	0.571642	0.229988	0.550736	0.276608	0.109810	0.224752	0.214797	0.309407	0.746511	0.319200	0.583781	0.363447	0.202504	0.620988	0.449809	0.271419	0.646503	0.288102	0.192943	0.255311	0.618998	0.287996	0.222464	0.065300	0.691080	0.181358	0.253892	0.345239	0.065603	0.242472	0.201361	0.092016	0.510180	0.251656	0.357647	0.279672	0.215787	0.134529	0.417447	0.191833	0.480876	0.133117	0.359335	0.189530	0.679188	0.233223	0.141429	0.104426	0.852794	0.286278	0.644940	0.299470	0.101179	0.365990	0.276413	0.124965	0.829398	0.161702	0.460130	0.369424	0.124226	0.258210	0.189891	0.163913
34	0.501942	0.207333	0.349926	0.267603	0.399161	0.450783	0.160877	0.154670	0.540722	0.231219	0.424554	0.341492	0.105610	0.091314	0.323853	0.234811	0.576563	0.240026	0.520465	0.295128	0.106465	0.225669	0.210924	0.298542	0.741621	0.312601	0.561251	0.365032	0.208008	0.624605	0.467306	0.292129	0.636496	0.305161	0.216057	0.192072	0.489209	0.258157	0.194954	0.065813	0.728348	0.181064	0.254051	0.323573	0.070113	0.214346	0.188499	0.079038	0.512500	0.228833	0.345895	0.290533	0.188035	0.128115	0.398077	0.202150	0.472382	0.134546	0.364290	0.187780	0.665844	0.244341	0.132553	0.097811	0.848633	0.372495	0.638969	0.292401	0.101106	0.366373	0.250227	0.125480	0.824090	0.159465	0.492603	0.374782	0.127423	0.254841	0.142466	0.128588
35	0.432942	0.161693	0.352715	0.283102	0.394936	0.449073	0.170148	0.101528	0.520626	0.240378	0.421519	0.324434	0.110142	0.090217	0.316491	0.247533	0.594467	0.252848	0.467668	0.291634	0.106670	0.238152	0.212429	0.284267	0.693724	0.283509	0.539952	0.376889	0.210880	0.624512	0.502640	0.293835	0.583729	0.291325	0.224376	0.162420	0.240576	0.240388	0.145622	0.064878	0.754011	0.179870	0.255527	0.316534	0.077297	0.199348	0.187112	0.076087	0.498374	0.231422	0.334612	0.301952	0.179503	0.124198	0.366616	0.208118	0.475681	0.131449	0.368903	0.198190	0.575456	0.215114	0.134276	0.100764	0.846009	0.394747	0.626386	0.279436	0.100503	0.365845	0.207909	0.126102	0.811878	0.147256	0.510284	0.386553	0.129315	0.249548	0.106071	0.110407
36	0.514102	0.148170	0.364079	0.277393	0.388794	0.448852	0.185510	0.078553	0.502263	0.245602	0.460764	0.354694	0.111921	0.091384	0.286746	0.248774	0.627717	0.266161	0.453781	0.261287	0.106299	0.252914	0.213806	0.229199	0.674248	0.277059	0.545717	0.390865	0.211576	0.624616	0.521424	0.278567	0.571685	0.285993	0.233638	0.160081	0.175006	0.239807	0.099800	0.064614	0.769717	0.202083	0.247927	0.318171	0.088594	0.206297	0.195155	0.089849	0.509603	0.230656	0.353334	0.321757	0.146732	0.123798	0.315252	0.197550	0.487743	0.160959	0.369670	0.231330	0.339162	0.180349	0.130229	0.105210	0.887771	0.408847	0.618403	0.271118	0.103790	0.364303	0.186138	0.128278	0.808044	0.148565	0.516324	0.399857	0.132576	0.233507	0.094633	0.109398
37	0.542165	0.177688	0.373185	0.255240	0.351162	0.448890	0.196791	0.083717	0.498310	0.254080	0.631491	0.508423	0.113666	0.092693	0.258705	0.233643	0.627720	0.266512	0.421592	0.246736	0.099841	0.270030	0.204950	0.184607	0.646146	0.264037	0.544185	0.403087	0.211422	0.624423	0.511177	0.255409	0.564581	0.292511	0.234890	0.160596	0.138576	0.240863	0.094219	0.063974	0.782726	0.253232	0.246629	0.331581	0.098334	0.217016	0.193402	0.106232	0.530191	0.227416	0.420853	0.359543	0.126190	0.124381	0.252044	0.190291	0.499747	0.207706	0.345938	0.247573	0.321063	0.182905	0.116488	0.100976	0.920811	0.418308	0.621139	0.270937	0.108686	0.363400	0.186096	0.133586	0.814887	0.154566	0.518722	0.414056	0.132025	0.213821	0.094531	0.111211
38	0.579994	0.223016	0.372830	0.247535	0.348701	0.445186	0.204858	0.077096	0.505969	0.261629	0.767629	0.588321	0.112736	0.082892	0.254064	0.222036	0.626308	0.264212	0.350179	0.244227	0.102179	0.270106	0.161247	0.181843	0.632265	0.256991	0.508283	0.408127	0.210828	0.623150	0.498027	0.235830	0.600810	0.316932	0.235991	0.159468	0.131852	0.238345	0.094711	0.052741	0.768691	0.266308	0.274868	0.332004	0.103706	0.218757	0.170334	0.106554	0.559444	0.244469	0.469848	0.408974	0.128681	0.119558	0.225934	0.187020	0.501543	0.215365	0.289291	0.269948	0.314901	0.180771	0.110567	0.082496	0.906049	0.418024	0.624145	0.264181	0.108546	0.363337	0.178010	0.131222	0.812354	0.167980	0.519674	0.420360	0.131324	0.193211	0.095276	0.111904
39	0.546002	0.222960	0.380012	0.250336	0.346578	0.419956	0.200279	0.079942	0.495734	0.259673	0.824885	0.610919	0.113327	0.080378	0.259628	0.217499	0.694947	0.280376	0.313930	0.249219	0.115657	0.270658	0.147801	0.156278	0.623840	0.257918	0.441543	0.383950	0.212298	0.623046	0.479970	0.237464	0.650651	0.317036	0.230474	0.161071	0.131687	0.231675	0.094557	0.044266	0.767406	0.267972	0.303178	0.334758	0.106434	0.218948	0.144010	0.097262	0.700178	0.297313	0.491088	0.447030	0.128937	0.110689	0.230215	0.185955	0.488344	0.213350	0.259842	0.300903	0.312372	0.183826	0.109503	0.072053	0.880791	0.421377	0.619351	0.246404	0.109916	0.365773	0.159539	0.129711	0.753608	0.162109	0.524955	0.421259	0.142359	0.191116	0.094394	0.110790
40	0.513998	0.222823	0.366710	0.247041	0.344015	0.383038	0.187030	0.084663	0.504773	0.306367	0.834380	0.624999	0.109167	0.080850	0.263868	0.218234	0.723222	0.279986	0.307987	0.259646	0.116400	0.273078	0.156519	0.101917	0.624190	0.259045	0.398103	0.384175	0.215492	0.624766	0.484647	0.248087	0.669861	0.315601	0.230260	0.232643	0.132025	0.213538	0.095081	0.049226	0.757390	0.270969	0.305479	0.340958	0.107257	0.225891	0.114922	0.099715	0.750670	0.332586	0.488885	0.459458	0.132207	0.099664	0.230427	0.185832	0.476850	0.214464	0.269294	0.311181	0.288325	0.181675	0.109235	0.070704	0.877602	0.425353	0.603695	0.232741	0.114620	0.364290	0.132157	0.126334	0.662323	0.155912	0.526325	0.421588	0.143808	0.176879	0.092862	0.106721
41	0.577791	0.217633	0.352263	0.246731	0.340926	0.358508	0.178652	0.085676	0.510888	0.336940	0.835151	0.633664	0.106599	0.080761	0.256245	0.218020	0.718811	0.280077	0.311377	0.272736	0.119206	0.273661	0.158667	0.080556	0.619221	0.263217	0.396354	0.385291	0.232628	0.627000	0.515479	0.253146	0.677071	0.312448	0.232167	0.322041	0.131592	0.193868	0.092311	0.051662	0.755401	0.271456	0.330892	0.348683	0.133357	0.239078	0.101161	0.119085	0.726522	0.352532	0.477659	0.456520	0.132509	0.091144	0.226193	0.186900	0.474048	0.220871	0.284471	0.309373	0.199316	0.155483	0.113743	0.072881	0.883437	0.423127	0.568461	0.229041	0.113048	0.339334	0.099364	0.124153	0.606693	0.155994	0.526746	0.421629	0.143809	0.168090	0.091567	0.099924
42	0.627599	0.210929	0.353191	0.245606	0.328163	0.323407	0.179791	0.087956	0.515427	0.345942	0.863663	0.640558	0.117975	0.092045	0.246502	0.216650	0.709503	0.280265	0.351123	0.293163	0.120946	0.272927	0.154774	0.081727	0.621684	0.260942	0.387119	0.354753	0.237940	0.627189	0.550249	0.253401	0.661037	0.304330	0.230580	0.375938	0.130428	0.188566	0.096724	0.054993	0.776582	0.270211	0.391647	0.351467	0.135018	0.236711	0.112264	0.148129	0.711549	0.354441	0.467627	0.458171	0.133206	0.087477	0.217384	0.188685	0.453747	0.220513	0.295931	0.298425	0.115234	0.156158	0.111391	0.074407	0.882290	0.416922	0.530125	0.228469	0.113339	0.311657	0.095052	0.122207	0.567978	0.160489	0.512074	0.424593	0.140229	0.167526	0.089456	0.094821
43	0.681539	0.217185	0.368547	0.246115	0.325186	0.307135	0.180538	0.088173	0.507233	0.340580	0.973412	0.641222	0.124515	0.093743	0.235563	0.225513	0.708707	0.279549	0.469840	0.328530	0.118550	0.272278	0.146129	0.066161	0.607854	0.257694	0.346724	0.322002	0.236958	0.628266	0.576924	0.259842	0.613187	0.297859	0.232955	0.400559	0.124352	0.176639	0.098595	0.064226	0.791489	0.285213	0.468738	0.347551	0.135609	0.229612	0.112794	0.172277	0.713476	0.357174	0.473438	0.491404	0.137294	0.087523	0.200469	0.189111	0.410231	0.216294	0.297181	0.286327	0.101500	0.174190	0.108902	0.077580	0.870733	0.412465	0.508094	0.216046	0.112123	0.287059	0.144140	0.114648	0.565423	0.164671	0.491000	0.430042	0.137217	0.166277	0.100660	0.096511
44	0.682078	0.209694	0.388773	0.232384	0.311936	0.295858	0.178418	0.089901	0.510875	0.339322	1.121708	0.666454	0.125752	0.093178	0.216661	0.238062	0.703548	0.272110	0.595100	0.367623	0.117207	0.272418	0.140652	0.056758	0.577883	0.256352	0.295770	0.318492	0.235306	0.630253	0.592457	0.274388	0.590542	0.297280	0.252452	0.402819	0.123337	0.160459	0.097906	0.074154	0.788846	0.312300	0.558613	0.348447	0.134394	0.225959	0.127502	0.174169	0.712911	0.358053	0.514724	0.558527	0.132067	0.082340	0.184537	0.190450	0.360829	0.206185	0.295262	0.278202	0.100888	0.175212	0.106042	0.079096	0.838734	0.404181	0.502631	0.181335	0.099467	0.160854	0.181875	0.110873	0.562192	0.168507	0.467163	0.428850	0.136258	0.148555	0.118116	0.099566
45	0.683762	0.212864	0.382039	0.240697	0.300905	0.293224	0.177105	0.097877	0.510555	0.351087	1.212410	0.755478	0.122336	0.092527	0.192962	0.229605	0.667587	0.248723	0.648806	0.380359	0.117593	0.272848	0.133945	0.056333	0.525598	0.250988	0.262590	0.329232	0.236132	0.629769	0.595585	0.284337	0.569617	0.297670	0.311338	0.416225	0.120994	0.167084	0.098187	0.078253	0.736377	0.330056	0.604852	0.373069	0.129038	0.195494	0.145146	0.196127	0.716554	0.356874	0.556890	0.618934	0.122538	0.081649	0.173499	0.190792	0.345730	0.206886	0.289885	0.272869	0.097936	0.177475	0.103422	0.078712	0.738521	0.394119	0.489692	0.165293	0.094774	0.141934	0.187476	0.120910	0.550372	0.164269	0.465866	0.412145	0.112682	0.109267	0.123930	0.102731
46	0.689295	0.217342	0.377587	0.259587	0.288595	0.286927	0.174887	0.097503	0.523428	0.371767	1.237344	0.838699	0.118299	0.092477	0.165939	0.206723	0.615296	0.223234	0.651622	0.385756	0.117229	0.273218	0.130074	0.056276	0.500855	0.249934	0.250247	0.321745	0.259600	0.614715	0.595821	0.292083	0.562547	0.293964	0.374039	0.444964	0.107895	0.169014	0.107677	0.078704	0.708150	0.340053	0.603207	0.386081	0.127998	0.168744	0.149733	0.224042	0.736391	0.355119	0.575081	0.668926	0.120432	0.083343	0.158563	0.187210	0.361066	0.210089	0.287723	0.273249	0.096003	0.176832	0.100471	0.077560	0.667714	0.392936	0.438024	0.166588	0.083414	0.127331	0.191842	0.126332	0.403859	0.153594	0.473998	0.378433	0.102729	0.103797	0.126985	0.097744
47	0.691454	0.220869	0.376910	0.268121	0.113210	0.161539	0.173202	0.097200	0.527968	0.381404	1.240371	0.875880	0.116302	0.092249	0.147108	0.183985	0.591981	0.215832	0.641529	0.378068	0.116560	0.262307	0.139728	0.056689	0.507835	0.236136	0.263300	0.309395	0.275256	0.575972	0.595205	0.299187	0.565898	0.289107	0.393449	0.475747	0.089072	0.174978	0.126327	0.078812	0.712821	0.330990	0.634088	0.363987	0.127781	0.162247	0.148564	0.236794	0.744075	0.351981	0.599370	0.688917	0.109124	0.077487	0.172407	0.176991	0.364810	0.213986	0.286121	0.284823	0.092718	0.175823	0.097419	0.076535	0.665543	0.394025	0.364716	0.177569	0.075696	0.116989	0.213848	0.126145	0.305175	0.142443	0.478071	0.322601	0.103042	0.107555	0.126594	0.095558
48	0.691656	0.225732	0.374174	0.260776	0.051409	0.111641	0.173435	0.096948	0.531701	0.382726	1.234857	0.890106	0.110519	0.093101	0.142032	0.167113	0.583142	0.217626	0.643681	0.366437	0.111416	0.227569	0.150511	0.057117	0.486736	0.204643	0.255938	0.308834	0.281034	0.542772	0.593273	0.303135	0.536345	0.289414	0.390222	0.494699	0.075956	0.172301	0.138532	0.082577	0.654447	0.323840	0.670691	0.332574	0.125121	0.161603	0.154772	0.243235	0.734712	0.340008	0.604952	0.688231	0.108191	0.072721	0.217820	0.150495	0.356602	0.214311	0.279553	0.298433	0.076482	0.166650	0.093039	0.075268	0.665224	0.394056	0.296808	0.176327	0.086312	0.115840	0.235100	0.137217	0.296639	0.138334	0.474389	0.269322	0.100892	0.110299	0.122914	0.101438
49	0.690385	0.226484	0.361964	0.235942	0.039689	0.123200	0.173147	0.097015	0.492581	0.389475	1.231122	0.895849	0.101943	0.094542	0.137735	0.149547	0.535012	0.222264	0.646529	0.362707	0.106397	0.190375	0.152505	0.057113	0.388592	0.179798	0.237725	0.319512	0.275767	0.526866	0.590773	0.301966	0.530079	0.290585	0.383079	0.495122	0.081332	0.181134	0.139112	0.085147	0.647654	0.323999	0.688655	0.330259	0.123474	0.160520	0.182813	0.249146	0.714399	0.320672	0.601511	0.685395	0.110135	0.075615	0.248892	0.136433	0.327228	0.215061	0.267077	0.308284	0.070008	0.147440	0.088371	0.074671	0.631199	0.387500	0.251662	0.158214	0.115612	0.109733	0.251277	0.178727	0.295975	0.128775	0.449920	0.253067	0.096734	0.110582	0.125511	0.110238
50	0.689737	0.223221	0.344124	0.215302	0.042874	0.136258	0.169784	0.099289	0.407838	0.391193	1.235424	0.893939	0.108847	0.093700	0.132945	0.138956	0.501445	0.223545	0.657791	0.371061	0.105529	0.187392	0.151686	0.060405	0.302631	0.159802	0.234150	0.355786	0.243924	0.361090	0.588118	0.295218	0.523748	0.263405	0.384578	0.494938	0.084336	0.183053	0.178112	0.094788	0.605117	0.324284	0.688072	0.329371	0.117172	0.154758	0.183913	0.255699	0.677302	0.311692	0.598983	0.683482	0.117949	0.086409	0.261274	0.124474	0.298928	0.216799	0.257433	0.312037	0.069928	0.136103	0.084284	0.078331	0.613345	0.369570	0.239745	0.151524	0.113999	0.107294	0.258598	0.223071	0.295240	0.130936	0.406692	0.254479	0.095039	0.110700	0.143935	0.115407
51	0.638341	0.223080	0.336954	0.205388	0.043187	0.140450	0.169899	0.107518	0.393805	0.386557	1.250686	0.893058	0.131002	0.100159	0.133169	0.138303	0.493728	0.211147	0.682330	0.383148	0.105778	0.179759	0.150288	0.066677	0.279740	0.157804	0.239404	0.398341	0.223684	0.176479	0.584098	0.283898	0.507870	0.239431	0.400300	0.490982	0.083647	0.183115	0.246690	0.170893	0.547996	0.347244	0.685942	0.330023	0.110945	0.136455	0.208190	0.259998	0.669955	0.306317	0.596912	0.685167	0.130600	0.096804	0.262953	0.132926	0.285648	0.218139	0.253705	0.308183	0.067682	0.133606	0.075857	0.076915	0.602750	0.272132	0.238437	0.153180	0.111146	0.109308	0.262760	0.245990	0.292682	0.134811	0.370520	0.244831	0.088798	0.111175	0.174138	0.131572
52	0.597050	0.210615	0.330874	0.204680	0.043295	0.134645	0.163135	0.120745	0.398923	0.383317	1.273372	0.892434	0.159388	0.122226	0.129923	0.138717	0.487512	0.199066	0.713664	0.400083	0.104549	0.156734	0.154927	0.068168	0.255853	0.163280	0.222305	0.426507	0.227548	0.153335	0.566717	0.259632	0.514734	0.239671	0.406102	0.490854	0.083336	0.189942	0.283333	0.221463	0.517951	0.351984	0.688397	0.334945	0.107478	0.127949	0.257637	0.259220	0.668211	0.295841	0.596244	0.685059	0.134779	0.107667	0.263415	0.140564	0.276832	0.221898	0.246520	0.295659	0.065733	0.126646	0.073324	0.073387	0.588663	0.205269	0.217957	0.169489	0.104417	0.114697	0.263142	0.252002	0.292725	0.135736	0.404633	0.248370	0.088709	0.110494	0.206351	0.139464
53	0.563646	0.139637	0.344564	0.200194	0.051859	0.128746	0.149507	0.122435	0.399470	0.379273	1.262418	0.863765	0.182062	0.133149	0.116038	0.158460	0.485254	0.179083	0.728383	0.412389	0.103196	0.121736	0.165178	0.067769	0.260761	0.159294	0.202283	0.434553	0.243976	0.186563	0.520341	0.246489	0.517699	0.236997	0.405769	0.511963	0.083320	0.192861	0.294581	0.239183	0.457079	0.319541	0.693739	0.325691	0.106633	0.126642	0.275695	0.259297	0.654139	0.295032	0.579092	0.675439	0.148452	0.117248	0.262998	0.135808	0.251864	0.194290	0.234566	0.276862	0.060195	0.126753	0.096429	0.076374	0.539532	0.173640	0.173539	0.194008	0.103645	0.131525	0.261150	0.252546	0.291770	0.135256	0.602615	0.409317	0.086286	0.108967	0.222940	0.138869
54	0.562171	0.137008	0.343214	0.187370	0.055611	0.123074	0.140315	0.120174	0.400784	0.373891	1.186995	0.765167	0.189587	0.133166	0.093925	0.175106	0.496600	0.165084	0.733027	0.419813	0.091394	0.095418	0.173437	0.069758	0.262385	0.161798	0.201411	0.429134	0.263764	0.223668	0.453843	0.249788	0.482722	0.203569	0.404295	0.561283	0.083124	0.192959	0.295079	0.241973	0.417608	0.300129	0.690764	0.321385	0.107359	0.118256	0.277900	0.275196	0.636528	0.295008	0.533983	0.653386	0.163432	0.122026	0.285246	0.134715	0.235646	0.154882	0.225838	0.272390	0.054183	0.128183	0.112515	0.082254	0.436075	0.140601	0.137386	0.221696	0.135670	0.144664	0.261090	0.252070	0.258651	0.127650	0.787301	0.609234	0.046768	0.106522	0.228291	0.140845
55	0.560576	0.138941	0.340653	0.186139	0.058028	0.112452	0.143761	0.122228	0.379005	0.365137	1.102673	0.704607	0.201867	0.166747	0.090609	0.177703	0.507902	0.163429	0.734499	0.423851	0.061922	0.089513	0.174570	0.070757	0.253002	0.160272	0.204925	0.421507	0.282336	0.235814	0.404763	0.257479	0.416261	0.192058	0.403748	0.596895	0.083075	0.192418	0.301432	0.244720	0.417013	0.298961	0.685093	0.323503	0.074794	0.084768	0.276877	0.308788	0.592506	0.273599	0.504532	0.634257	0.171688	0.126382	0.369485	0.158504	0.244788	0.146284	0.225885	0.249141	0.043808	0.115347	0.115510	0.082285	0.411577	0.132462	0.132948	0.245781	0.165179	0.146151	0.265089	0.252647	0.221186	0.114599	0.893234	0.711211	0.040820	0.091016	0.228436	0.141236
56	0.510705	0.137842	0.339530	0.188540	0.060502	0.111186	0.158528	0.135966	0.361580	0.341922	1.051946	0.688677	0.226599	0.177859	0.103491	0.177286	0.464178	0.138422	0.735159	0.429436	0.059313	0.076496	0.166538	0.069731	0.250751	0.163130	0.206816	0.410320	0.289851	0.238274	0.385062	0.259038	0.365799	0.192529	0.399439	0.600773	0.086127	0.189929	0.321076	0.271897	0.417144	0.295785	0.694861	0.324620	0.061763	0.096739	0.278893	0.358344	0.387317	0.216002	0.496476	0.637297	0.171452	0.128395	0.451127	0.170008	0.245074	0.143527	0.226017	0.220814	0.046755	0.115686	0.110390	0.080465	0.411882	0.128647	0.143196	0.249345	0.169268	0.154014	0.265988	0.255161	0.200847	0.118812	0.924404	0.733253	0.040015	0.072891	0.240892	0.150614
57	0.401588	0.137641	0.332015	0.196077	0.060569	0.112032	0.177387	0.143868	0.333246	0.289537	1.042730	0.674923	0.234920	0.182784	0.111580	0.161024	0.352179	0.107907	0.735505	0.436894	0.055021	0.073211	0.210817	0.071017	0.248867	0.162156	0.207566	0.396852	0.289069	0.262782	0.383437	0.241696	0.352052	0.192710	0.393332	0.574258	0.088839	0.191376	0.340159	0.329469	0.415978	0.297686	0.691626	0.321929	0.062571	0.104187	0.294296	0.396998	0.253290	0.165536	0.493706	0.652036	0.198541	0.132580	0.506871	0.168069	0.243638	0.136064	0.291307	0.263834	0.049231	0.108424	0.118804	0.079243	0.395826	0.112785	0.143994	0.250675	0.167966	0.159889	0.262911	0.258000	0.210772	0.125775	0.926321	0.735296	0.041632	0.072737	0.276277	0.154199
58	0.284254	0.130642	0.321660	0.290402	0.060480	0.115367	0.198098	0.144166	0.323587	0.260779	1.041623	0.665025	0.237118	0.183843	0.113145	0.147330	0.361499	0.120713	0.736530	0.444858	0.046053	0.071741	0.303527	0.094913	0.260938	0.170338	0.200248	0.394885	0.287399	0.289465	0.369840	0.219464	0.337545	0.192770	0.393459	0.542514	0.099416	0.195219	0.365012	0.385811	0.383526	0.297115	0.668914	0.341823	0.069155	0.113665	0.312077	0.410676	0.251021	0.118496	0.494274	0.667651	0.235009	0.171203	0.585128	0.166867	0.235214	0.122275	0.339658	0.350150	0.050052	0.064798	0.147496	0.078223	0.383421	0.097472	0.164858	0.298232	0.172072	0.176240	0.270173	0.262683	0.231310	0.138394	0.939846	0.756272	0.060581	0.072013	0.295197	0.169488
59	0.239738	0.126031	0.287988	0.473653	0.060083	0.115163	0.211725	0.139895	0.312653	0.245342	1.011860	0.660027	0.240950	0.197561	0.110733	0.154749	0.362269	0.131387	0.733573	0.447824	0.050908	0.069491	0.370412	0.114783	0.257530	0.177189	0.211518	0.395278	0.275252	0.294643	0.326170	0.207362	0.337150	0.191501	0.393086	0.519708	0.097631	0.185117	0.383757	0.408615	0.346118	0.287891	0.638341	0.352356	0.124043	0.170918	0.304542	0.404884	0.252802	0.121894	0.499783	0.663720	0.250417	0.208815	0.629136	0.167071	0.229820	0.124139	0.353762	0.418910	0.049815	0.082753	0.165763	0.103253	0.372904	0.093757	0.213330	0.446121	0.172511	0.176529	0.286995	0.275306	0.245793	0.137689	0.987895	0.791576	0.090614	0.112760	0.295769	0.201835
60	0.234678	0.120821	0.260392	0.598762	0.060956	0.114875	0.219388	0.146649	0.291997	0.241977	0.896624	0.661588	0.240406	0.200364	0.113245	0.157740	0.362748	0.132143	0.692761	0.437664	0.059219	0.065895	0.411237	0.126607	0.250855	0.180053	0.322285	0.469629	0.278340	0.296101	0.267185	0.206548	0.336434	0.191290	0.385683	0.516691	0.093708	0.175889	0.390297	0.417224	0.309182	0.259204	0.575201	0.349261	0.187076	0.252933	0.300554	0.389872	0.249740	0.121846	0.518732	0.636279	0.251302	0.211203	0.633909	0.172532	0.215779	0.122054	0.363780	0.474727	0.056043	0.090810	0.170445	0.150007	0.363801	0.091806	0.243117	0.546609	0.172029	0.172762	0.291121	0.280881	0.252238	0.130073	1.058930	0.850221	0.109570	0.144498	0.324966	0.212072
61	0.217290	0.120635	0.259583	0.701495	0.059186	0.113725	0.223537	0.164535	0.283437	0.240751	0.714116	0.635161	0.240377	0.201670	0.157901	0.157994	0.364506	0.130966	0.590482	0.405747	0.070322	0.063931	0.437233	0.151963	0.251721	0.177708	0.415070	0.691806	0.286004	0.297327	0.237601	0.200289	0.332716	0.190895	0.350530	0.510954	0.097476	0.202635	0.385955	0.421512	0.284265	0.232538	0.505724	0.325831	0.198185	0.292084	0.301065	0.381158	0.251363	0.121587	0.496167	0.602006	0.252507	0.210115	0.640632	0.171390	0.213077	0.134095	0.366244	0.511391	0.083211	0.113156	0.172738	0.165851	0.349240	0.085540	0.250104	0.569543	0.171826	0.186100	0.286401	0.286856	0.252030	0.128174	1.108655	0.929665	0.126338	0.151326	0.345571	0.214940
62	0.215925	0.148623	0.269794	0.810034	0.056678	0.111350	0.247725	0.178254	0.277089	0.218912	0.615521	0.562577	0.240031	0.201106	0.206775	0.158679	0.360063	0.125240	0.497394	0.381002	0.077079	0.061353	0.455300	0.211005	0.258409	0.178547	0.459485	0.816676	0.289794	0.292857	0.254274	0.181528	0.320346	0.190274	0.279350	0.488238	0.096696	0.204685	0.382291	0.421005	0.268186	0.213306	0.500914	0.315226	0.199578	0.310626	0.301104	0.381699	0.227321	0.120481	0.453324	0.578443	0.261156	0.208695	0.666671	0.165419	0.227989	0.154055	0.411900	0.523955	0.104898	0.135091	0.175834	0.166077	0.323941	0.080125	0.252811	0.570927	0.172322	0.194202	0.271793	0.285890	0.239072	0.137043	1.120251	0.967207	0.128363	0.152194	0.347735	0.215323
63	0.200706	0.147087	0.278828	0.832942	0.056155	0.106893	0.270437	0.191281	0.250053	0.184792	0.651723	0.514263	0.239888	0.202398	0.215295	0.169497	0.361058	0.124359	0.477229	0.374348	0.078106	0.060559	0.454387	0.243208	0.260584	0.182314	0.476894	0.860751	0.289438	0.287382	0.285803	0.170917	0.310927	0.178736	0.233083	0.457793	0.088453	0.205865	0.380878	0.420528	0.199067	0.194821	0.481314	0.331762	0.202582	0.338297	0.286562	0.383826	0.152904	0.121963	0.441824	0.577174	0.274303	0.208688	0.709782	0.175142	0.202610	0.153909	0.464278	0.523769	0.111422	0.136736	0.178335	0.171499	0.297451	0.076593	0.251877	0.587158	0.166012	0.194496	0.260722	0.275825	0.226769	0.143295	1.125781	0.977578	0.130316	0.158573	0.361320	0.215369
64	0.184908	0.147103	0.302664	0.837411	0.055806	0.105421	0.287075	0.198861	0.233437	0.169472	0.677585	0.485532	0.235221	0.205382	0.217901	0.173086	0.361483	0.130206	0.483374	0.395576	0.078284	0.063002	0.454833	0.252253	0.260758	0.185726	0.482502	0.880095	0.271667	0.283911	0.295956	0.168881	0.280384	0.146591	0.229348	0.447567	0.085101	0.206248	0.359769	0.416961	0.128162	0.184607	0.446812	0.344958	0.201295	0.337261	0.275904	0.382445	0.148029	0.124742	0.462794	0.601716	0.276199	0.212203	0.761094	0.185600	0.200266	0.151309	0.496807	0.537992	0.116770	0.137324	0.186565	0.201972	0.274256	0.072146	0.251844	0.612481	0.159053	0.194719	0.252298	0.249653	0.218518	0.147666	1.128222	0.981220	0.130500	0.161390	0.387723	0.211141
65	0.182427	0.147147	0.317567	0.886611	0.094687	0.135638	0.295775	0.195362	0.219879	0.159480	0.680690	0.461664	0.223069	0.203708	0.245657	0.186221	0.376905	0.143749	0.473572	0.425417	0.078394	0.063253	0.475475	0.253926	0.265397	0.190536	0.483147	0.888603	0.256407	0.282121	0.292689	0.169049	0.228660	0.088928	0.229734	0.513783	0.081273	0.208876	0.315790	0.389423	0.118526	0.182806	0.430024	0.355260	0.200888	0.338274	0.268344	0.374204	0.166024	0.130066	0.488035	0.614825	0.275054	0.220182	0.793098	0.191891	0.202371	0.151283	0.506251	0.596334	0.128486	0.145056	0.190537	0.211776	0.254216	0.069634	0.251965	0.635966	0.162546	0.194442	0.245112	0.233915	0.213167	0.148718	1.128594	0.981422	0.130549	0.160837	0.414184	0.210265
66	0.178109	0.154790	0.315518	0.997829	0.122351	0.182125	0.299903	0.185243	0.201292	0.140854	0.692661	0.477379	0.202712	0.191187	0.277523	0.185470	0.382264	0.139493	0.458377	0.456433	0.078562	0.062440	0.496429	0.262696	0.269531	0.189547	0.486113	0.882219	0.263774	0.284186	0.291005	0.178377	0.172755	0.060113	0.214214	0.598962	0.077776	0.203574	0.286525	0.366113	0.111748	0.181198	0.426847	0.359554	0.204388	0.373181	0.233197	0.371245	0.174317	0.133071	0.507532	0.608100	0.277589	0.224707	0.809789	0.205561	0.191814	0.149730	0.509354	0.662585	0.137924	0.155342	0.191090	0.211877	0.240771	0.069386	0.254222	0.666028	0.162609	0.192077	0.243464	0.237341	0.213240	0.148384	1.128278	0.982886	0.130609	0.160650	0.418363	0.204236
67	0.160342	0.155587	0.321181	1.115615	0.134103	0.190665	0.300819	0.176558	0.175895	0.117026	0.717901	0.521586	0.184716	0.182402	0.284397	0.161203	0.390853	0.130319	0.439209	0.495203	0.076927	0.061387	0.528386	0.266314	0.265854	0.185492	0.507157	0.878724	0.277777	0.290458	0.290757	0.205574	0.152364	0.068690	0.171318	0.669801	0.076597	0.201713	0.279063	0.359442	0.106690	0.151756	0.430022	0.360267	0.210618	0.399477	0.218186	0.372369	0.169578	0.130115	0.520160	0.593870	0.275294	0.220654	0.824170	0.202381	0.184548	0.147940	0.507508	0.705486	0.139689	0.161009	0.191166	0.213972	0.236842	0.067493	0.256813	0.697099	0.163277	0.187676	0.243669	0.237036	0.213032	0.145468	1.127169	0.985518	0.133796	0.165466	0.408444	0.195147
68	0.146198	0.158940	0.315576	1.198173	0.140095	0.236771	0.300706	0.174912	0.156829	0.099238	0.729986	0.555476	0.178031	0.185619	0.293904	0.152654	0.391534	0.129050	0.438081	0.578624	0.076727	0.059077	0.570042	0.270359	0.263705	0.186257	0.538984	0.908963	0.282687	0.291454	0.291336	0.224758	0.160372	0.092308	0.162335	0.725751	0.076518	0.202595	0.281026	0.374809	0.123149	0.087634	0.461239	0.373345	0.210400	0.402763	0.218147	0.366139	0.168160	0.129403	0.520738	0.584209	0.271008	0.216852	0.834178	0.203691	0.185101	0.151492	0.503448	0.715720	0.144503	0.165814	0.192276	0.212759	0.236701	0.066805	0.260754	0.706559	0.162806	0.172611	0.255677	0.236678	0.212531	0.142885	1.125796	0.987706	0.137353	0.167236	0.399138	0.196249
69	0.138541	0.169596	0.305876	1.253594	0.239465	0.340189	0.304961	0.180967	0.145830	0.091587	0.732002	0.577224	0.155467	0.154370	0.299605	0.162144	0.388976	0.131017	0.435354	0.700472	0.082994	0.059965	0.606973	0.278572	0.265175	0.198227	0.562368	0.942305	0.284911	0.291420	0.304296	0.230837	0.169240	0.112934	0.191792	0.739654	0.077350	0.204059	0.272066	0.389260	0.123965	0.083367	0.506024	0.401945	0.210523	0.425719	0.220528	0.339377	0.174502	0.133496	0.521352	0.584495	0.271759	0.216587	0.830665	0.207922	0.187108	0.154588	0.503259	0.715908	0.146219	0.184862	0.185676	0.211286	0.242376	0.066814	0.266127	0.704790	0.126786	0.155627	0.270870	0.236805	0.212390	0.142880	1.095844	0.978360	0.139544	0.166231	0.396939	0.197189
70	0.130663	0.176217	0.313988	1.261699	0.251859	0.344034	0.312862	0.182031	0.138039	0.093948	0.742525	0.585680	0.110956	0.137812	0.295811	0.168754	0.362673	0.131606	0.413183	0.760136	0.083241	0.063452	0.622143	0.288927	0.279734	0.209351	0.578380	0.973151	0.282450	0.291127	0.330881	0.232918	0.183238	0.131418	0.203321	0.708665	0.077284	0.206376	0.245895	0.383587	0.121875	0.085736	0.533929	0.457915	0.209966	0.448825	0.216947	0.283215	0.173485	0.135505	0.539255	0.591641	0.280535	0.216030	0.802725	0.196451	0.186331	0.154905	0.503272	0.715054	0.155278	0.205853	0.187782	0.210914	0.257708	0.067769	0.266327	0.699752	0.099163	0.156034	0.287705	0.235753	0.212641	0.143433	0.987912	0.902598	0.145141	0.170007	0.399160	0.198501
71	0.125539	0.182776	0.322829	1.261296	0.252081	0.345605	0.311744	0.177121	0.132050	0.101446	0.750641	0.580057	0.096251	0.132712	0.293586	0.170053	0.302510	0.130226	0.403051	0.772261	0.083243	0.063849	0.620993	0.293445	0.312616	0.224131	0.597784	1.000851	0.272218	0.273983	0.348426	0.246817	0.187455	0.140819	0.202232	0.680946	0.079131	0.210185	0.266496	0.348185	0.135978	0.101527	0.546884	0.533380	0.208752	0.458487	0.204835	0.197649	0.185740	0.151631	0.587838	0.605349	0.335918	0.220306	0.756202	0.179377	0.176504	0.157051	0.503459	0.714158	0.153995	0.205515	0.192804	0.212671	0.257640	0.081823	0.266862	0.692863	0.096448	0.140616	0.292767	0.235481	0.213892	0.143439	0.849503	0.774679	0.147741	0.170337	0.396283	0.193383
72	0.124374	0.184896	0.326170	1.260530	0.252174	0.344534	0.302435	0.178166	0.129034	0.110057	0.759871	0.574348	0.096229	0.131336	0.314145	0.168144	0.269287	0.127056	0.397291	0.770129	0.084100	0.064682	0.620766	0.294029	0.373935	0.235638	0.612889	1.032895	0.253807	0.243750	0.354283	0.247643	0.184183	0.141932	0.206246	0.684457	0.074541	0.213308	0.339417	0.311626	0.153551	0.116261	0.534698	0.591673	0.207052	0.455569	0.169145	0.149876	0.195909	0.166530	0.629319	0.605997	0.334202	0.220683	0.728926	0.179430	0.160022	0.157952	0.502994	0.715895	0.154071	0.204690	0.188913	0.215231	0.262801	0.097609	0.264458	0.684192	0.096081	0.124232	0.283648	0.233473	0.215441	0.141665	0.754632	0.695009	0.148127	0.172588	0.375869	0.186638
73	0.124180	0.183352	0.311948	1.248546	0.253182	0.344722	0.293076	0.181979	0.127557	0.113575	0.760760	0.570478	0.088477	0.112478	0.366508	0.163075	0.272296	0.126915	0.395701	0.775122	0.090086	0.066064	0.613831	0.299143	0.414544	0.251648	0.618310	1.053917	0.235490	0.228021	0.357804	0.240658	0.182079	0.141508	0.217672	0.690013	0.077122	0.214491	0.348134	0.292632	0.169675	0.120055	0.530577	0.624038	0.196897	0.446203	0.186087	0.161303	0.199526	0.175818	0.649745	0.589413	0.306931	0.198165	0.682379	0.181619	0.157074	0.157750	0.494052	0.713179	0.162668	0.204626	0.173370	0.218095	0.268863	0.100623	0.260708	0.679797	0.092015	0.109801	0.250062	0.224702	0.216791	0.141385	0.725966	0.680376	0.143003	0.191281	0.352589	0.179000
74	0.124528	0.183508	0.310704	1.197577	0.254575	0.344723	0.288714	0.183019	0.125927	0.112779	0.759537	0.570100	0.089648	0.109669	0.382869	0.167639	0.282804	0.127542	0.397277	0.783359	0.090979	0.073444	0.577472	0.314217	0.488639	0.281575	0.619683	1.060497	0.250443	0.238820	0.368561	0.231545	0.181898	0.142828	0.240665	0.694321	0.071311	0.199157	0.339614	0.282057	0.188517	0.122083	0.530759	0.619194	0.127949	0.414453	0.220979	0.212855	0.227355	0.176853	0.661078	0.575462	0.293908	0.155836	0.639052	0.208244	0.150689	0.157457	0.437297	0.691245	0.165643	0.202302	0.153640	0.211953	0.270270	0.098787	0.270389	0.679709	0.093129	0.107943	0.232684	0.203851	0.211050	0.163848	0.725129	0.680094	0.126132	0.202991	0.352183	0.135824
75	0.129740	0.185211	0.323677	1.137055	0.256184	0.343847	0.294657	0.178260	0.122765	0.109714	0.759206	0.570138	0.086990	0.107146	0.361802	0.175030	0.272579	0.110326	0.411682	0.788001	0.097124	0.075976	0.534704	0.338180	0.520541	0.281310	0.619427	1.061990	0.286657	0.221645	0.389075	0.232391	0.183600	0.146842	0.267981	0.716663	0.069585	0.199761	0.342634	0.286645	0.199402	0.124141	0.513081	0.612623	0.111716	0.422426	0.229417	0.254222	0.262451	0.171578	0.664937	0.560124	0.297664	0.146866	0.631211	0.251839	0.147583	0.156901	0.394475	0.652156	0.165166	0.197677	0.155695	0.184446	0.271858	0.100511	0.276296	0.675415	0.101780	0.106924	0.236354	0.187601	0.261941	0.202239	0.699753	0.658475	0.110097	0.201628	0.339554	0.106572
76	0.130482	0.181502	0.321707	1.080203	0.257663	0.343586	0.282676	0.168990	0.119582	0.108763	0.758668	0.569442	0.088056	0.106530	0.341503	0.173415	0.273107	0.108239	0.431955	0.813343	0.095680	0.076035	0.498740	0.351892	0.519325	0.278431	0.607772	1.061608	0.292042	0.178939	0.410562	0.251717	0.190510	0.157819	0.282836	0.749089	0.070590	0.231390	0.359193	0.302497	0.212483	0.123241	0.495386	0.612236	0.122410	0.435833	0.227589	0.262435	0.295529	0.163756	0.660171	0.558541	0.298094	0.144937	0.630066	0.308999	0.149731	0.153891	0.374988	0.613366	0.161678	0.192184	0.167392	0.165432	0.269286	0.109134	0.252822	0.619103	0.106888	0.067272	0.234620	0.180269	0.348861	0.216012	0.619952	0.616648	0.089775	0.196115	0.336593	0.092259
77	0.104683	0.147275	0.306031	0.992346	0.258055	0.343064	0.255300	0.154768	0.118862	0.106797	0.763315	0.566323	0.089664	0.101033	0.343655	0.172129	0.291510	0.113330	0.431202	0.873753	0.087618	0.083059	0.475951	0.350391	0.517186	0.277656	0.549021	1.016358	0.293067	0.165791	0.419451	0.289800	0.204378	0.172823	0.284044	0.766583	0.069877	0.219437	0.387095	0.317087	0.217485	0.123396	0.492316	0.612352	0.118444	0.409604	0.231384	0.253152	0.333012	0.167297	0.634853	0.549473	0.293984	0.148098	0.604217	0.332762	0.155398	0.153761	0.369277	0.572652	0.152923	0.177778	0.171455	0.165538	0.271104	0.136281	0.230991	0.512953	0.104840	0.057145	0.232988	0.179859	0.387620	0.216366	0.480828	0.527469	0.094097	0.231130	0.341682	0.090406
78	0.103598	0.136538	0.302765	0.958801	0.258031	0.336690	0.230832	0.140343	0.115741	0.106764	0.756620	0.552337	0.089900	0.085006	0.346256	0.176580	0.293688	0.126908	0.423869	0.929140	0.079904	0.082451	0.455524	0.324667	0.532288	0.285174	0.488270	0.873895	0.283811	0.192661	0.418266	0.314072	0.212145	0.181607	0.285717	0.772976	0.073150	0.236848	0.408300	0.335337	0.217571	0.123175	0.494540	0.607420	0.117977	0.411011	0.234877	0.253368	0.339016	0.170663	0.618219	0.516535	0.279845	0.150931	0.546335	0.336893	0.154124	0.139301	0.363075	0.546331	0.157105	0.181453	0.174518	0.166073	0.321049	0.168011	0.234477	0.454368	0.097525	0.054946	0.234619	0.180477	0.454784	0.214016	0.332987	0.383780	0.095281	0.244406	0.332087	0.084336
79	0.099880	0.131614	0.292317	0.957944	0.250085	0.329685	0.209342	0.137122	0.115798	0.104649	0.705236	0.495412	0.087747	0.069720	0.328224	0.165286	0.294151	0.134455	0.423988	0.953933	0.078175	0.082347	0.452657	0.296779	0.561351	0.287889	0.451604	0.769697	0.274683	0.219065	0.400378	0.321695	0.220528	0.188106	0.285483	0.776020	0.073119	0.248829	0.418874	0.345274	0.216108	0.121368	0.485703	0.587444	0.117382	0.413233	0.236129	0.271431	0.361403	0.176114	0.610605	0.471447	0.276061	0.147753	0.449911	0.330434	0.133508	0.116195	0.303777	0.539646	0.162421	0.182093	0.170147	0.140728	0.322985	0.172708	0.249956	0.449472	0.085986	0.053153	0.242364	0.171499	0.525869	0.207708	0.236243	0.311661	0.096948	0.242918	0.300652	0.084376
80	0.100100	0.131846	0.312108	0.927496	0.236825	0.304639	0.198997	0.140884	0.114829	0.098050	0.620157	0.417735	0.088462	0.076238	0.307927	0.166153	0.294709	0.145448	0.417329	0.970044	0.077078	0.080306	0.452796	0.285087	0.623723	0.295119	0.431554	0.728856	0.270053	0.227078	0.361832	0.323590	0.225997	0.190735	0.284428	0.770298	0.077413	0.254211	0.421301	0.345512	0.225965	0.126022	0.470307	0.587813	0.115763	0.404955	0.231361	0.287589	0.462002	0.218560	0.581929	0.400090	0.274259	0.133980	0.372648	0.342394	0.125427	0.110743	0.217802	0.538289	0.156316	0.178278	0.168778	0.113338	0.313733	0.172281	0.258456	0.437878	0.083677	0.053230	0.243726	0.135654	0.563941	0.201290	0.170724	0.288700	0.097467	0.250548	0.254270	0.082068
81	0.093251	0.123401	0.347382	0.833104	0.225957	0.293402	0.216587	0.150631	0.106851	0.086923	0.581711	0.394500	0.086311	0.093632	0.307567	0.164641	0.291163	0.152035	0.405411	0.972813	0.076601	0.079249	0.435426	0.284514	0.624678	0.301091	0.421962	0.705372	0.269422	0.229813	0.323854	0.319295	0.228723	0.190756	0.285794	0.735984	0.083117	0.266571	0.420330	0.340215	0.232994	0.138139	0.487989	0.637244	0.110092	0.396558	0.221228	0.295514	0.469163	0.228885	0.525933	0.334609	0.265403	0.114858	0.321019	0.368182	0.118181	0.108136	0.141064	0.509246	0.148381	0.166705	0.171455	0.108754	0.311328	0.171613	0.263359	0.404978	0.083315	0.053525	0.242006	0.097307	0.601693	0.242908	0.153426	0.280428	0.099559	0.259925	0.223381	0.076099
82	0.091498	0.119499	0.350635	0.691424	0.224543	0.280526	0.241572	0.157762	0.096794	0.078792	0.580059	0.401692	0.086110	0.086351	0.302074	0.155873	0.269156	0.138921	0.401838	0.962626	0.075381	0.079755	0.412009	0.277891	0.616722	0.300005	0.422619	0.694769	0.269191	0.252287	0.307278	0.311480	0.230360	0.189759	0.287831	0.668554	0.084096	0.268655	0.421505	0.320221	0.238762	0.151925	0.528498	0.714024	0.112302	0.398126	0.212971	0.297787	0.463689	0.225958	0.495051	0.312944	0.264387	0.123585	0.280904	0.403563	0.117106	0.108121	0.111452	0.425532	0.148643	0.162966	0.174386	0.102666	0.311598	0.176004	0.273306	0.354828	0.082347	0.052212	0.240488	0.090216	0.638073	0.264273	0.154906	0.278088	0.098845	0.258467	0.211680	0.073912
83	0.091465	0.114891	0.340998	0.545971	0.147832	0.130227	0.243753	0.153684	0.084997	0.075563	0.558025	0.376695	0.084893	0.121647	0.310829	0.152265	0.240412	0.134237	0.399298	0.951805	0.079455	0.096324	0.379746	0.272912	0.613910	0.299916	0.415203	0.696832	0.266479	0.272922	0.307398	0.303609	0.229403	0.186957	0.287312	0.594898	0.083232	0.276707	0.427717	0.301573	0.238892	0.156078	0.558281	0.760048	0.115958	0.386775	0.222313	0.300207	0.461868	0.224517	0.470340	0.312308	0.282280	0.152067	0.245018	0.430793	0.117295	0.107839	0.103604	0.306958	0.144952	0.158209	0.169920	0.101695	0.332959	0.197099	0.275844	0.291653	0.079195	0.050758	0.224407	0.094890	0.637824	0.272944	0.150776	0.271368	0.095854	0.255585	0.208725	0.071623
84	0.090107	0.099493	0.355996	0.401849	0.064914	0.064628	0.229102	0.138591	0.070583	0.074647	0.508049	0.314156	0.079764	0.130746	0.352776	0.169890	0.233686	0.134187	0.394497	0.935896	0.089479	0.138809	0.317902	0.270629	0.620287	0.300543	0.372528	0.678147	0.254689	0.281477	0.314513	0.294495	0.212253	0.176648	0.275483	0.520048	0.081912	0.279379	0.430864	0.285571	0.231608	0.160796	0.550165	0.779175	0.117725	0.350942	0.229279	0.312715	0.471086	0.227897	0.458956	0.315123	0.291139	0.167895	0.230802	0.442525	0.117216	0.105998	0.100093	0.206225	0.142636	0.145867	0.166578	0.105961	0.356265	0.215969	0.272856	0.198841	0.071106	0.044944	0.205399	0.113107	0.648604	0.296099	0.149839	0.259564	0.093186	0.255846	0.205297	0.063399
85	0.086523	0.091437	0.362505	0.388253	0.066554	0.059980	0.212385	0.134551	0.057222	0.074366	0.442693	0.253380	0.071963	0.137745	0.380422	0.173443	0.227097	0.133840	0.364754	0.901851	0.091987	0.182966	0.235160	0.266876	0.631091	0.297366	0.315878	0.605962	0.232831	0.273756	0.349642	0.276887	0.190431	0.161599	0.252598	0.475095	0.080714	0.278851	0.395845	0.261449	0.230147	0.170473	0.501540	0.776057	0.117727	0.332090	0.227770	0.323236	0.482079	0.230782	0.457258	0.308130	0.311509	0.175097	0.229712	0.450360	0.112244	0.095849	0.139948	0.208113	0.131296	0.103421	0.163190	0.118060	0.360067	0.222237	0.274644	0.124281	0.072105	0.041872	0.183958	0.149655	0.711093	0.319946	0.153056	0.251708	0.084746	0.257017	0.201116	0.058930
86	0.080671	0.083409	0.358561	0.396569	0.066488	0.060502	0.204898	0.137076	0.045936	0.073672	0.369408	0.199234	0.059842	0.136691	0.363710	0.172279	0.223019	0.131342	0.293810	0.809774	0.091641	0.189929	0.158852	0.258986	0.662821	0.286837	0.276007	0.531586	0.221006	0.278346	0.418421	0.269072	0.168501	0.146964	0.243455	0.472945	0.079715	0.278858	0.310322	0.232184	0.231656	0.174972	0.463055	0.750935	0.117234	0.328903	0.226571	0.326737	0.488770	0.232067	0.455635	0.292911	0.315802	0.182993	0.230649	0.453465	0.111603	0.087272	0.207115	0.261070	0.131092	0.108553	0.153791	0.123573	0.365587	0.232061	0.281491	0.169149	0.071444	0.044545	0.184880	0.168034	0.788327	0.331033	0.154510	0.249029	0.077421	0.262406	0.195872	0.057985
87	0.079882	0.077450	0.352335	0.400777	0.064001	0.057787	0.203390	0.135568	0.047378	0.066120	0.305143	0.183701	0.068679	0.136634	0.311635	0.171589	0.215638	0.129857	0.246236	0.711313	0.093366	0.198010	0.147712	0.260087	0.662421	0.281169	0.241712	0.463543	0.213072	0.287845	0.454902	0.283157	0.153018	0.134397	0.247811	0.475124	0.080470	0.279618	0.287297	0.226798	0.224794	0.169743	0.439761	0.701312	0.117516	0.329360	0.217127	0.322570	0.492867	0.233214	0.431316	0.272672	0.343326	0.192618	0.226627	0.454475	0.127403	0.086640	0.247731	0.295954	0.131052	0.125588	0.156587	0.122647	0.384447	0.254048	0.319819	0.227120	0.068621	0.046563	0.187143	0.171180	0.820857	0.330679	0.153585	0.248585	0.075961	0.270841	0.194078	0.058130
88	0.079516	0.077505	0.346896	0.402895	0.058238	0.055928	0.200114	0.129543	0.046654	0.052375	0.262624	0.191218	0.067964	0.143684	0.307173	0.168516	0.211153	0.132880	0.232122	0.674144	0.099840	0.214756	0.147335	0.271598	0.644562	0.293826	0.185656	0.398125	0.207416	0.322510	0.458166	0.299972	0.148991	0.131367	0.247282	0.454849	0.079950	0.276664	0.293687	0.227406	0.210626	0.160098	0.448177	0.651053	0.119536	0.328430	0.180136	0.299572	0.489758	0.226995	0.353365	0.235163	0.352185	0.196092	0.196102	0.459699	0.142086	0.093807	0.265853	0.315107	0.122605	0.131720	0.155590	0.117582	0.411523	0.263227	0.351993	0.292703	0.067257	0.058848	0.181240	0.166188	0.826703	0.336154	0.142500	0.248402	0.077269	0.268095	0.194147	0.055671
89	0.080994	0.080244	0.340148	0.401723	0.051296	0.055037	0.192296	0.118043	0.039232	0.030202	0.236817	0.207021	0.068158	0.145026	0.336745	0.174205	0.211310	0.136099	0.231654	0.674727	0.099442	0.243704	0.145713	0.278511	0.620133	0.301532	0.131729	0.307952	0.199818	0.350402	0.454207	0.299608	0.147375	0.131189	0.239600	0.423336	0.076252	0.245796	0.293036	0.213360	0.197535	0.153573	0.459042	0.630421	0.107750	0.275185	0.176570	0.270356	0.489936	0.220204	0.278767	0.192576	0.350124	0.206927	0.185079	0.457767	0.150472	0.101865	0.272558	0.377237	0.115630	0.129603	0.156492	0.114573	0.425916	0.257539	0.357119	0.341127	0.067144	0.061511	0.166209	0.163916	0.826173	0.356890	0.121531	0.246576	0.079585	0.254193	0.190882	0.054742
90	0.082283	0.082465	0.330474	0.395239	0.042706	0.055555	0.195009	0.112540	0.038365	0.024228	0.229021	0.251764	0.067808	0.150051	0.358059	0.185268	0.204531	0.137515	0.233360	0.679990	0.098472	0.252782	0.138678	0.274846	0.626132	0.309188	0.107088	0.241729	0.197376	0.371455	0.451430	0.299275	0.147009	0.130328	0.216894	0.413491	0.076279	0.214786	0.272090	0.189624	0.177063	0.154116	0.467889	0.642216	0.091228	0.236953	0.188845	0.274976	0.491596	0.212479	0.239454	0.138910	0.356244	0.204500	0.198406	0.437556	0.154957	0.107778	0.273086	0.509196	0.111425	0.137620	0.150364	0.112289	0.422152	0.265308	0.352619	0.357740	0.054095	0.061821	0.162922	0.164923	0.826817	0.366582	0.095788	0.241076	0.080699	0.236100	0.169705	0.065111
91	0.076086	0.080057	0.321261	0.394637	0.038206	0.059002	0.204521	0.117932	0.034519	0.027721	0.237756	0.303632	0.073803	0.170519	0.360325	0.184404	0.191082	0.140474	0.232054	0.675278	0.090839	0.262922	0.136056	0.243255	0.627284	0.288235	0.099209	0.218828	0.194664	0.384206	0.450730	0.299876	0.145804	0.126960	0.195159	0.399375	0.075239	0.207657	0.230905	0.163927	0.156545	0.157710	0.467505	0.650198	0.084225	0.219140	0.191490	0.291449	0.480933	0.208485	0.225871	0.097973	0.355180	0.211428	0.205359	0.401633	0.160952	0.113487	0.272814	0.641362	0.104362	0.147414	0.137939	0.111569	0.418696	0.271164	0.351222	0.359795	0.048298	0.060599	0.161005	0.170682	0.824729	0.353151	0.085701	0.229608	0.080693	0.231304	0.115902	0.103905
92	0.073474	0.078829	0.321332	0.423435	0.037566	0.058229	0.208662	0.122219	0.034779	0.031529	0.262723	0.356664	0.075677	0.189443	0.356355	0.179154	0.184312	0.145112	0.222912	0.676166	0.084176	0.263037	0.136402	0.211806	0.661677	0.282709	0.097228	0.212512	0.166984	0.390263	0.461996	0.300008	0.143416	0.117358	0.172971	0.344705	0.072748	0.184723	0.192977	0.123934	0.147872	0.163049	0.464944	0.650356	0.089850	0.216710	0.185286	0.298734	0.464419	0.207579	0.219650	0.097111	0.355182	0.215445	0.207687	0.380520	0.163690	0.115726	0.272891	0.701416	0.097373	0.148881	0.127688	0.110107	0.414067	0.287027	0.363789	0.361413	0.052569	0.061535	0.153707	0.177278	0.795436	0.330914	0.084966	0.212464	0.071998	0.204411	0.085820	0.147024
93	0.075390	0.079749	0.320952	0.457970	0.037344	0.059406	0.201964	0.128209	0.036020	0.039482	0.267408	0.394036	0.072138	0.198878	0.352084	0.174438	0.177286	0.150869	0.185337	0.675658	0.084656	0.260798	0.134131	0.197823	0.701023	0.283917	0.097486	0.212656	0.080730	0.388844	0.479616	0.302335	0.128057	0.094755	0.169351	0.296450	0.074957	0.178832	0.174414	0.110413	0.133701	0.165660	0.462758	0.650200	0.103122	0.224484	0.183450	0.288396	0.440107	0.208724	0.215628	0.104309	0.359368	0.214627	0.201111	0.379712	0.161699	0.116471	0.271929	0.707294	0.085221	0.162104	0.127385	0.108771	0.412429	0.313373	0.397668	0.376638	0.064259	0.066523	0.131353	0.178099	0.761838	0.329374	0.085027	0.188692	0.062153	0.172353	0.124549	0.182098
94	0.075939	0.081773	0.312315	0.492505	0.039048	0.065870	0.201693	0.128722	0.038005	0.047247	0.239746	0.412456	0.068524	0.203971	0.348970	0.169389	0.161443	0.151078	0.166682	0.644864	0.084924	0.262731	0.130643	0.197327	0.713067	0.282494	0.096728	0.209206	0.053072	0.389482	0.492216	0.299408	0.115432	0.074369	0.165949	0.279992	0.075668	0.172383	0.169273	0.119364	0.132166	0.165607	0.461253	0.649936	0.112889	0.238400	0.177987	0.269708	0.414985	0.204547	0.214807	0.148659	0.359588	0.214914	0.203834	0.384854	0.157095	0.116139	0.274739	0.709795	0.068461	0.176194	0.151327	0.099344	0.411603	0.311622	0.414223	0.411594	0.089414	0.076248	0.118976	0.176022	0.741001	0.329131	0.086393	0.155740	0.061927	0.168355	0.149477	0.213839
95	0.075387	0.085584	0.280812	0.519998	0.040331	0.072533	0.185770	0.118038	0.038531	0.048992	0.222468	0.418180	0.066571	0.197073	0.344796	0.168589	0.141528	0.143092	0.203638	0.583601	0.085349	0.265865	0.127877	0.199792	0.705269	0.273885	0.094988	0.204267	0.071578	0.409013	0.497291	0.278276	0.100962	0.053547	0.174151	0.274246	0.070745	0.155704	0.169518	0.121406	0.134269	0.165596	0.460067	0.653470	0.112109	0.191750	0.173254	0.258573	0.414311	0.202211	0.213311	0.214928	0.382080	0.223739	0.215393	0.376923	0.152320	0.114893	0.294821	0.727656	0.069460	0.181881	0.166440	0.097033	0.382766	0.295817	0.413020	0.448247	0.122495	0.084008	0.117026	0.175191	0.697987	0.329035	0.087281	0.118441	0.065463	0.159278	0.150445	0.222448
96	0.075560	0.088612	0.231573	0.526199	0.040278	0.072027	0.153616	0.105628	0.037394	0.049545	0.213562	0.422712	0.066593	0.195089	0.340423	0.167652	0.144179	0.142790	0.235518	0.536343	0.085848	0.267584	0.121581	0.201434	0.676603	0.278158	0.090775	0.198181	0.112860	0.491662	0.497634	0.255669	0.090870	0.041594	0.180066	0.272823	0.069833	0.151716	0.161578	0.120788	0.119266	0.162214	0.450353	0.644161	0.117244	0.171139	0.180289	0.251087	0.380135	0.193479	0.212535	0.278780	0.438415	0.243816	0.239639	0.347507	0.160107	0.117823	0.327347	0.779994	0.065808	0.204592	0.167757	0.098950	0.356625	0.298625	0.403630	0.473003	0.137437	0.085567	0.116470	0.177026	0.673794	0.331116	0.087966	0.084787	0.068726	0.141947	0.153867	0.222004
97	0.079749	0.095850	0.211060	0.498427	0.038350	0.069519	0.138603	0.104207	0.039132	0.049416	0.210168	0.423089	0.065532	0.171755	0.325755	0.158991	0.144804	0.134375	0.252333	0.503939	0.088584	0.282903	0.113890	0.202131	0.618744	0.274234	0.083672	0.190357	0.140715	0.543100	0.498068	0.245213	0.086095	0.043594	0.180182	0.277341	0.068642	0.132845	0.142708	0.110888	0.102957	0.153277	0.413893	0.594662	0.123348	0.162314	0.170480	0.250861	0.255044	0.142380	0.214083	0.320592	0.448968	0.246226	0.259871	0.303836	0.165499	0.120122	0.346460	0.868474	0.060289	0.234967	0.165017	0.100785	0.411890	0.321416	0.394424	0.486775	0.172086	0.096746	0.131637	0.176857	0.678078	0.334145	0.089546	0.066895	0.064451	0.137649	0.157795	0.229827
98	0.085260	0.105815	0.212642	0.474998	0.035878	0.066964	0.135747	0.104483	0.039279	0.050591	0.222630	0.418899	0.064958	0.167371	0.275741	0.135969	0.166309	0.130199	0.252000	0.481017	0.089366	0.290765	0.107358	0.201404	0.616601	0.266677	0.074646	0.181890	0.150861	0.549215	0.498500	0.241390	0.107370	0.069442	0.181262	0.275977	0.065389	0.121935	0.125566	0.099008	0.089876	0.139049	0.354185	0.496518	0.124371	0.157274	0.157521	0.240751	0.244776	0.130169	0.214482	0.336419	0.466270	0.239967	0.272521	0.256361	0.165784	0.122396	0.350996	0.955959	0.059353	0.245250	0.162422	0.101293	0.470505	0.334360	0.391379	0.491689	0.181448	0.097633	0.154435	0.172828	0.634769	0.302139	0.090001	0.065394	0.060587	0.137685	0.166784	0.245220
99	0.102863	0.112701	0.188841	0.455983	0.033531	0.063215	0.135070	0.103398	0.044009	0.055119	0.221604	0.407600	0.065661	0.164087	0.240868	0.131728	0.200426	0.132676	0.255017	0.477457	0.088999	0.287880	0.096288	0.200010	0.615143	0.266541	0.067275	0.171947	0.152892	0.575197	0.498790	0.241330	0.123756	0.081700	0.196971	0.275934	0.059419	0.113114	0.120077	0.096152	0.092546	0.130961	0.296616	0.405882	0.179789	0.166962	0.150703	0.224350	0.256809	0.130794	0.212858	0.337882	0.485020	0.229982	0.276194	0.231386	0.174686	0.128359	0.350923	1.008141	0.059646	0.244686	0.160092	0.097333	0.509404	0.336480	0.388985	0.492664	0.182028	0.095833	0.151869	0.155906	0.615099	0.294132	0.083299	0.073742	0.056612	0.139470	0.180773	0.268826
100	0.126540	0.111271	0.155686	0.429371	0.032151	0.058989	0.135909	0.099163	0.061554	0.070787	0.222009	0.396680	0.064278	0.167373	0.233271	0.129475	0.224161	0.135079	0.275349	0.485408	0.080600	0.272184	0.083887	0.198038	0.627002	0.304034	0.062072	0.159656	0.160340	0.609704	0.498809	0.243076	0.132414	0.086664	0.221918	0.279467	0.051612	0.101689	0.120967	0.099065	0.098035	0.126314	0.269345	0.349216	0.182581	0.166537	0.147521	0.212548	0.255753	0.129511	0.211466	0.341458	0.471989	0.222223	0.275636	0.223712	0.174163	0.133060	0.349505	1.028921	0.063851	0.243254	0.161569	0.084040	0.512075	0.328858	0.387244	0.492566	0.181755	0.092910	0.146583	0.117893	0.615527	0.283500	0.073061	0.079027	0.057235	0.138995	0.193452	0.290750
101	0.159746	0.113974	0.142501	0.420412	0.032080	0.057700	0.136588	0.095314	0.069188	0.075713	0.230406	0.396274	0.054789	0.173156	0.231247	0.126018	0.242152	0.135024	0.300926	0.500972	0.070320	0.246111	0.068120	0.194217	0.623066	0.321990	0.058356	0.146185	0.163014	0.607006	0.498779	0.245122	0.133789	0.086919	0.261096	0.295695	0.045950	0.096562	0.117098	0.100300	0.093052	0.114043	0.270697	0.328008	0.182964	0.165460	0.143542	0.206225	0.242589	0.128432	0.211166	0.363513	0.440507	0.213883	0.276518	0.221668	0.186875	0.137692	0.346513	1.034125	0.065770	0.244645	0.163940	0.069886	0.493602	0.321423	0.389605	0.492694	0.190270	0.093471	0.147782	0.092449	0.604651	0.258489	0.063436	0.081592	0.069205	0.142148	0.197846	0.304587
