	307_At_T2_sh_ND_01.c3d	307_At_T2_sh_ND_01.c3d	307_At_T2_sh_ND_01.c3d	307_At_T2_sh_ND_01.c3d	307_At_T2_sh_ND_01.c3d	307_At_T2_sh_ND_01.c3d	307_At_T2_sh_ND_01.c3d	307_At_T2_sh_ND_01.c3d	307_At_T2_sh_ND_02.c3d	307_At_T2_sh_ND_02.c3d	307_At_T2_sh_ND_02.c3d	307_At_T2_sh_ND_02.c3d	307_At_T2_sh_ND_02.c3d	307_At_T2_sh_ND_02.c3d	307_At_T2_sh_ND_02.c3d	307_At_T2_sh_ND_02.c3d	307_At_T2_sh_ND_03.c3d	307_At_T2_sh_ND_03.c3d	307_At_T2_sh_ND_03.c3d	307_At_T2_sh_ND_03.c3d	307_At_T2_sh_ND_03.c3d	307_At_T2_sh_ND_03.c3d	307_At_T2_sh_ND_03.c3d	307_At_T2_sh_ND_03.c3d	307_At_T2_sh_ND_04.c3d	307_At_T2_sh_ND_04.c3d	307_At_T2_sh_ND_04.c3d	307_At_T2_sh_ND_04.c3d	307_At_T2_sh_ND_04.c3d	307_At_T2_sh_ND_04.c3d	307_At_T2_sh_ND_04.c3d	307_At_T2_sh_ND_04.c3d	307_At_T2_sh_ND_05.c3d	307_At_T2_sh_ND_05.c3d	307_At_T2_sh_ND_05.c3d	307_At_T2_sh_ND_05.c3d	307_At_T2_sh_ND_05.c3d	307_At_T2_sh_ND_05.c3d	307_At_T2_sh_ND_05.c3d	307_At_T2_sh_ND_05.c3d	307_At_T2_sh_ND_06.c3d	307_At_T2_sh_ND_06.c3d	307_At_T2_sh_ND_06.c3d	307_At_T2_sh_ND_06.c3d	307_At_T2_sh_ND_06.c3d	307_At_T2_sh_ND_06.c3d	307_At_T2_sh_ND_06.c3d	307_At_T2_sh_ND_06.c3d	307_At_T2_sh_ND_07.c3d	307_At_T2_sh_ND_07.c3d	307_At_T2_sh_ND_07.c3d	307_At_T2_sh_ND_07.c3d	307_At_T2_sh_ND_07.c3d	307_At_T2_sh_ND_07.c3d	307_At_T2_sh_ND_07.c3d	307_At_T2_sh_ND_07.c3d	307_At_T2_sh_ND_08.c3d	307_At_T2_sh_ND_08.c3d	307_At_T2_sh_ND_08.c3d	307_At_T2_sh_ND_08.c3d	307_At_T2_sh_ND_08.c3d	307_At_T2_sh_ND_08.c3d	307_At_T2_sh_ND_08.c3d	307_At_T2_sh_ND_08.c3d	307_At_T2_sh_ND_09.c3d	307_At_T2_sh_ND_09.c3d	307_At_T2_sh_ND_09.c3d	307_At_T2_sh_ND_09.c3d	307_At_T2_sh_ND_09.c3d	307_At_T2_sh_ND_09.c3d	307_At_T2_sh_ND_09.c3d	307_At_T2_sh_ND_09.c3d	307_At_T2_sh_ND_10.c3d	307_At_T2_sh_ND_10.c3d	307_At_T2_sh_ND_10.c3d	307_At_T2_sh_ND_10.c3d	307_At_T2_sh_ND_10.c3d	307_At_T2_sh_ND_10.c3d	307_At_T2_sh_ND_10.c3d	307_At_T2_sh_ND_10.c3d
	Biceps femoris_lat	Semitendinosus_lat	Vastus lateralis_lat	Vastus medialis_lat	Biceps femoris_med	Semitendinosus_med	Vastus lateralis_med	Vastus medialis_med	Biceps femoris_lat	Semitendinosus_lat	Vastus lateralis_lat	Vastus medialis_lat	Biceps femoris_med	Semitendinosus_med	Vastus lateralis_med	Vastus medialis_med	Biceps femoris_lat	Semitendinosus_lat	Vastus lateralis_lat	Vastus medialis_lat	Biceps femoris_med	Semitendinosus_med	Vastus lateralis_med	Vastus medialis_med	Biceps femoris_lat	Semitendinosus_lat	Vastus lateralis_lat	Vastus medialis_lat	Biceps femoris_med	Semitendinosus_med	Vastus lateralis_med	Vastus medialis_med	Biceps femoris_lat	Semitendinosus_lat	Vastus lateralis_lat	Vastus medialis_lat	Biceps femoris_med	Semitendinosus_med	Vastus lateralis_med	Vastus medialis_med	Biceps femoris_lat	Semitendinosus_lat	Vastus lateralis_lat	Vastus medialis_lat	Biceps femoris_med	Semitendinosus_med	Vastus lateralis_med	Vastus medialis_med	Biceps femoris_lat	Semitendinosus_lat	Vastus lateralis_lat	Vastus medialis_lat	Biceps femoris_med	Semitendinosus_med	Vastus lateralis_med	Vastus medialis_med	Biceps femoris_lat	Semitendinosus_lat	Vastus lateralis_lat	Vastus medialis_lat	Biceps femoris_med	Semitendinosus_med	Vastus lateralis_med	Vastus medialis_med	Biceps femoris_lat	Semitendinosus_lat	Vastus lateralis_lat	Vastus medialis_lat	Biceps femoris_med	Semitendinosus_med	Vastus lateralis_med	Vastus medialis_med	Biceps femoris_lat	Semitendinosus_lat	Vastus lateralis_lat	Vastus medialis_lat	Biceps femoris_med	Semitendinosus_med	Vastus lateralis_med	Vastus medialis_med
	P2D	P2D	P2D	P2D	P2D	P2D	P2D	P2D	P2D	P2D	P2D	P2D	P2D	P2D	P2D	P2D	P2D	P2D	P2D	P2D	P2D	P2D	P2D	P2D	P2D	P2D	P2D	P2D	P2D	P2D	P2D	P2D	P2D	P2D	P2D	P2D	P2D	P2D	P2D	P2D	P2D	P2D	P2D	P2D	P2D	P2D	P2D	P2D	P2D	P2D	P2D	P2D	P2D	P2D	P2D	P2D	P2D	P2D	P2D	P2D	P2D	P2D	P2D	P2D	P2D	P2D	P2D	P2D	P2D	P2D	P2D	P2D	P2D	P2D	P2D	P2D	P2D	P2D	P2D	P2D
	EMG_lat	EMG_lat	EMG_lat	EMG_lat	EMG_med	EMG_med	EMG_med	EMG_med	EMG_lat	EMG_lat	EMG_lat	EMG_lat	EMG_med	EMG_med	EMG_med	EMG_med	EMG_lat	EMG_lat	EMG_lat	EMG_lat	EMG_med	EMG_med	EMG_med	EMG_med	EMG_lat	EMG_lat	EMG_lat	EMG_lat	EMG_med	EMG_med	EMG_med	EMG_med	EMG_lat	EMG_lat	EMG_lat	EMG_lat	EMG_med	EMG_med	EMG_med	EMG_med	EMG_lat	EMG_lat	EMG_lat	EMG_lat	EMG_med	EMG_med	EMG_med	EMG_med	EMG_lat	EMG_lat	EMG_lat	EMG_lat	EMG_med	EMG_med	EMG_med	EMG_med	EMG_lat	EMG_lat	EMG_lat	EMG_lat	EMG_med	EMG_med	EMG_med	EMG_med	EMG_lat	EMG_lat	EMG_lat	EMG_lat	EMG_med	EMG_med	EMG_med	EMG_med	EMG_lat	EMG_lat	EMG_lat	EMG_lat	EMG_med	EMG_med	EMG_med	EMG_med
ITEM	Y	Y	Y	Y	Y	Y	Y	Y	Y	Y	Y	Y	Y	Y	Y	Y	Y	Y	Y	Y	Y	Y	Y	Y	Y	Y	Y	Y	Y	Y	Y	Y	Y	Y	Y	Y	Y	Y	Y	Y	Y	Y	Y	Y	Y	Y	Y	Y	Y	Y	Y	Y	Y	Y	Y	Y	Y	Y	Y	Y	Y	Y	Y	Y	Y	Y	Y	Y	Y	Y	Y	Y	Y	Y	Y	Y	Y	Y	Y	Y
1	0.140128	0.220029	0.381122	0.241873	0.156807	0.262161	0.227844	0.097790	0.181944	0.194828	0.426144	0.296951	0.182886	0.250492	0.367073	0.128977	0.078062	0.068061	0.252233	0.249889	0.126678	0.129657	0.277972	0.081082	0.061236	0.075966	0.456403	0.214421	0.154724	0.244952	0.178891	0.178880	0.130574	0.224340	0.423622	0.412179	0.496808	0.818812	0.196925	0.161112	0.058238	0.062973	0.607211	0.424801	0.063306	0.088430	0.367530	0.071489	0.053324	0.080550	0.194339	0.339113	0.158303	0.117017	0.404788	0.210366	0.429849	0.428392	0.180690	0.212623	0.057995	0.121930	0.200573	0.187290	0.131213	0.425144	0.519547	0.249693	0.277365	0.409523	0.260491	0.198503	0.060244	0.054613	0.188033	0.096565	0.292010	0.147205	0.304575	0.101536
2	0.100529	0.179078	0.332107	0.232793	0.128367	0.213089	0.219762	0.093625	0.167869	0.179951	0.427279	0.326756	0.170853	0.227450	0.367303	0.126403	0.082360	0.074936	0.254294	0.240364	0.126141	0.131203	0.273252	0.077183	0.061618	0.080769	0.517350	0.219687	0.155647	0.255602	0.212029	0.202224	0.131430	0.229022	0.424835	0.413211	0.457637	0.741620	0.193117	0.165830	0.058244	0.062866	0.606990	0.416248	0.063002	0.087754	0.321402	0.056667	0.051483	0.071149	0.194383	0.345066	0.155588	0.118415	0.430419	0.202381	0.367964	0.426671	0.166876	0.234852	0.059200	0.116453	0.202166	0.167693	0.124703	0.413462	0.522535	0.253729	0.266984	0.406178	0.218687	0.199985	0.059321	0.053919	0.211055	0.122161	0.282035	0.146701	0.286001	0.096701
3	0.067100	0.152176	0.277919	0.232324	0.126318	0.208009	0.219578	0.073376	0.164175	0.169682	0.437478	0.353379	0.161759	0.206006	0.362278	0.107892	0.083758	0.077223	0.249690	0.189879	0.123999	0.131054	0.276277	0.072504	0.061957	0.088650	0.552346	0.222487	0.179441	0.252771	0.231749	0.221127	0.129311	0.226036	0.429023	0.428403	0.366426	0.503440	0.180177	0.165037	0.059482	0.089957	0.567508	0.398500	0.057982	0.081162	0.238535	0.067834	0.053062	0.068045	0.194975	0.345896	0.154590	0.118667	0.430883	0.153425	0.350294	0.411984	0.172010	0.239796	0.056574	0.112877	0.187934	0.151776	0.112486	0.389289	0.513814	0.260592	0.261499	0.398305	0.207968	0.204311	0.057189	0.054589	0.226268	0.119788	0.288772	0.148441	0.302149	0.097010
4	0.058458	0.150253	0.272927	0.221399	0.122774	0.215811	0.223517	0.066310	0.115498	0.141084	0.440809	0.368394	0.152394	0.191420	0.339203	0.089851	0.083832	0.077825	0.238839	0.174511	0.113107	0.123154	0.236056	0.076263	0.061952	0.098714	0.551074	0.229144	0.201890	0.244774	0.237365	0.221186	0.122558	0.214026	0.443166	0.451412	0.324102	0.314355	0.196358	0.156811	0.061193	0.129719	0.464501	0.364851	0.050486	0.076251	0.202959	0.092091	0.055436	0.069284	0.228068	0.355551	0.154706	0.119256	0.435699	0.155071	0.330429	0.370337	0.199167	0.239560	0.054416	0.116137	0.200518	0.158017	0.101956	0.358437	0.502594	0.268241	0.254998	0.388665	0.215155	0.218244	0.073646	0.060387	0.242179	0.124979	0.287247	0.141836	0.308074	0.097017
5	0.058187	0.150128	0.253891	0.201528	0.121609	0.220611	0.223554	0.066403	0.112636	0.133787	0.434289	0.370481	0.147098	0.192895	0.330849	0.090014	0.085565	0.087386	0.231555	0.179745	0.089390	0.106661	0.212360	0.078277	0.056791	0.106214	0.555326	0.241979	0.196715	0.225740	0.230025	0.220730	0.102363	0.187369	0.456848	0.464642	0.319138	0.232006	0.243303	0.154856	0.061614	0.155719	0.388236	0.327906	0.046586	0.076034	0.203023	0.102148	0.057105	0.068386	0.271144	0.358810	0.128589	0.102155	0.438759	0.179236	0.254358	0.311209	0.210138	0.238945	0.054082	0.116549	0.194555	0.155482	0.095813	0.326187	0.497503	0.260253	0.233782	0.367681	0.208434	0.231455	0.112697	0.071656	0.250004	0.150712	0.260866	0.141128	0.308067	0.098893
6	0.060237	0.146689	0.226333	0.194555	0.129627	0.219703	0.220783	0.080374	0.119526	0.150254	0.435363	0.370837	0.127221	0.187715	0.321709	0.083062	0.097532	0.104034	0.228509	0.180235	0.079325	0.135744	0.211561	0.077885	0.051871	0.106641	0.582254	0.254425	0.197342	0.219939	0.235898	0.223401	0.080684	0.154086	0.450850	0.482906	0.311988	0.203446	0.261027	0.153301	0.066135	0.167336	0.360123	0.311576	0.050126	0.082881	0.201863	0.117942	0.057316	0.062596	0.290721	0.352973	0.080822	0.081915	0.439188	0.185058	0.169180	0.275312	0.205767	0.241757	0.053699	0.117350	0.180528	0.147361	0.094826	0.305451	0.472545	0.208564	0.191793	0.329858	0.216152	0.242415	0.139493	0.076923	0.250753	0.176383	0.250449	0.153424	0.318473	0.105022
7	0.090800	0.150028	0.224871	0.210922	0.144404	0.225047	0.184620	0.084703	0.120523	0.164533	0.445177	0.370938	0.116668	0.190639	0.269891	0.065238	0.102265	0.116902	0.234541	0.182873	0.088106	0.198987	0.209962	0.078649	0.046680	0.102826	0.615629	0.259413	0.199806	0.223696	0.237071	0.224596	0.063211	0.128082	0.449595	0.505005	0.311114	0.206979	0.266985	0.154819	0.075664	0.167217	0.357738	0.313788	0.055622	0.096917	0.194902	0.124489	0.060286	0.055089	0.292089	0.331932	0.067288	0.076567	0.448323	0.184745	0.144347	0.248889	0.201285	0.243917	0.057375	0.119375	0.232652	0.152693	0.092495	0.304822	0.373502	0.210841	0.169464	0.302927	0.233073	0.258088	0.151140	0.077371	0.259107	0.196316	0.250593	0.163407	0.329364	0.115278
8	0.137773	0.164118	0.248041	0.255012	0.182603	0.234734	0.164042	0.082006	0.121284	0.171284	0.473632	0.372054	0.139172	0.210791	0.269016	0.061033	0.102497	0.129207	0.237801	0.192093	0.096144	0.258550	0.208406	0.081525	0.047606	0.096514	0.631745	0.264335	0.199742	0.216835	0.240314	0.219725	0.054430	0.112099	0.468171	0.515172	0.311528	0.227360	0.270172	0.162365	0.083175	0.166214	0.322326	0.302224	0.049739	0.086811	0.175961	0.127604	0.073975	0.054050	0.310712	0.286739	0.063953	0.076360	0.431572	0.174266	0.137661	0.225477	0.211728	0.245080	0.079341	0.122076	0.244439	0.158452	0.088350	0.296359	0.333472	0.231751	0.168751	0.298793	0.226647	0.269619	0.152301	0.080863	0.268130	0.205588	0.248140	0.160117	0.337439	0.120872
9	0.172152	0.183567	0.291139	0.275382	0.205830	0.238569	0.177168	0.082520	0.109601	0.173940	0.544451	0.377868	0.147789	0.209686	0.276966	0.058635	0.105529	0.142447	0.292866	0.200434	0.096378	0.274043	0.195104	0.083230	0.048641	0.090923	0.640530	0.265869	0.198782	0.193476	0.253638	0.173723	0.052304	0.103303	0.481118	0.514365	0.309747	0.241293	0.267464	0.162218	0.086447	0.176274	0.283771	0.264487	0.045721	0.080985	0.153017	0.151881	0.089572	0.055753	0.345430	0.256891	0.060172	0.074940	0.358579	0.168672	0.143654	0.199584	0.210976	0.252357	0.091354	0.113361	0.254389	0.157843	0.085954	0.271971	0.325621	0.233220	0.168975	0.302733	0.210894	0.275201	0.161216	0.084600	0.268321	0.206077	0.245792	0.172499	0.341654	0.124885
10	0.182174	0.195201	0.305576	0.274716	0.210942	0.215486	0.176844	0.082405	0.105858	0.172836	0.517287	0.371842	0.145412	0.210069	0.258607	0.057536	0.109640	0.150503	0.405486	0.215835	0.099948	0.267665	0.176319	0.095097	0.053976	0.089877	0.648673	0.254120	0.190807	0.191228	0.269999	0.149208	0.053222	0.100281	0.472860	0.459497	0.308011	0.242996	0.278939	0.159784	0.092737	0.190780	0.239920	0.215514	0.047068	0.076665	0.114548	0.181992	0.098057	0.055313	0.348638	0.251069	0.054110	0.070594	0.329760	0.169444	0.150811	0.177074	0.201203	0.262356	0.093077	0.094943	0.254368	0.174529	0.076504	0.199942	0.280787	0.233429	0.170721	0.307223	0.208544	0.280791	0.169800	0.088615	0.265464	0.206286	0.235345	0.200235	0.329350	0.122087
11	0.183195	0.196962	0.370590	0.266030	0.202689	0.173450	0.177880	0.076423	0.104717	0.167142	0.459266	0.376235	0.145238	0.208366	0.252541	0.119199	0.110914	0.151439	0.432530	0.227636	0.121721	0.286970	0.158332	0.104759	0.053267	0.092730	0.650850	0.251029	0.167860	0.175195	0.276636	0.148945	0.054103	0.100263	0.391206	0.367108	0.307710	0.240619	0.311827	0.153825	0.101338	0.194816	0.199345	0.164569	0.046173	0.075349	0.101475	0.198424	0.099449	0.053200	0.347476	0.249753	0.056958	0.067648	0.329286	0.166788	0.154602	0.151889	0.194318	0.271036	0.111403	0.077499	0.259595	0.207522	0.060640	0.116772	0.258215	0.232681	0.170397	0.310044	0.208781	0.289559	0.169657	0.105071	0.264153	0.206278	0.212573	0.197287	0.321028	0.121179
12	0.203820	0.196151	0.390611	0.259624	0.204609	0.149270	0.209999	0.068763	0.106665	0.157589	0.437151	0.413529	0.144758	0.195179	0.264319	0.185723	0.109799	0.149391	0.415188	0.222315	0.139030	0.332023	0.142893	0.106897	0.053158	0.105422	0.650293	0.244167	0.148309	0.142315	0.266607	0.144982	0.055671	0.099761	0.329129	0.349587	0.307335	0.238155	0.349965	0.154516	0.104980	0.193847	0.168988	0.130705	0.041638	0.077361	0.119418	0.206702	0.100440	0.053974	0.346991	0.239139	0.053633	0.068717	0.323950	0.167051	0.152163	0.128321	0.191955	0.273291	0.136399	0.080714	0.274753	0.240185	0.056233	0.073047	0.263360	0.228811	0.153584	0.292782	0.204711	0.287080	0.170023	0.128865	0.242700	0.205924	0.189456	0.192731	0.319659	0.115018
13	0.256299	0.201729	0.401407	0.271395	0.248839	0.148294	0.210807	0.068099	0.106527	0.156464	0.470205	0.418493	0.138445	0.195779	0.282773	0.193813	0.107216	0.147742	0.408424	0.220717	0.151457	0.367078	0.148855	0.103913	0.056455	0.122966	0.635406	0.213794	0.144550	0.128988	0.242872	0.109677	0.053467	0.091343	0.317108	0.348745	0.297327	0.227861	0.359876	0.151609	0.121390	0.193482	0.137147	0.110537	0.042949	0.078967	0.129352	0.207641	0.100439	0.056495	0.352238	0.234686	0.052567	0.068300	0.242415	0.175519	0.153803	0.124929	0.191716	0.269726	0.171265	0.085221	0.306114	0.251017	0.056685	0.058753	0.256306	0.226061	0.117465	0.240583	0.197309	0.268391	0.167434	0.156909	0.214781	0.206701	0.185611	0.192347	0.314530	0.107725
14	0.326402	0.211700	0.449511	0.283582	0.280794	0.143133	0.229609	0.070820	0.108512	0.156429	0.489813	0.427095	0.126713	0.191719	0.286197	0.208373	0.101835	0.146810	0.415302	0.234516	0.155430	0.380175	0.155850	0.116728	0.057061	0.140509	0.616521	0.202240	0.089580	0.129075	0.225218	0.098590	0.046654	0.066005	0.297128	0.342729	0.269971	0.211420	0.359388	0.130331	0.134992	0.193736	0.127808	0.096802	0.042899	0.079106	0.133225	0.207644	0.100503	0.060139	0.358008	0.235445	0.051983	0.066185	0.194663	0.197000	0.154199	0.124014	0.191501	0.261652	0.197274	0.088208	0.314428	0.252379	0.057043	0.057030	0.201343	0.225458	0.095700	0.173735	0.198503	0.252265	0.166156	0.169897	0.213133	0.204084	0.180028	0.186234	0.309379	0.109508
15	0.365334	0.213535	0.497533	0.292392	0.288523	0.141431	0.267964	0.070589	0.108816	0.155992	0.508676	0.451883	0.136338	0.188077	0.304301	0.245439	0.094074	0.144564	0.431927	0.251160	0.155527	0.382561	0.138164	0.149291	0.058038	0.167486	0.592448	0.198764	0.053471	0.134367	0.224192	0.113705	0.046269	0.038955	0.295978	0.342332	0.228121	0.193943	0.360242	0.105952	0.155853	0.205443	0.137133	0.088786	0.043309	0.080591	0.141285	0.201255	0.103331	0.066945	0.371191	0.230033	0.051728	0.064092	0.202468	0.205469	0.153907	0.121258	0.190713	0.255243	0.208322	0.088646	0.315569	0.251574	0.055487	0.059351	0.157518	0.222058	0.095808	0.144608	0.198627	0.237548	0.169425	0.172417	0.190380	0.193886	0.179899	0.182813	0.317010	0.112655
16	0.368588	0.209993	0.517096	0.304448	0.295121	0.147550	0.287488	0.074820	0.111045	0.156335	0.527361	0.476176	0.147856	0.187359	0.311281	0.268281	0.088498	0.140142	0.432650	0.260067	0.154846	0.389335	0.124705	0.217552	0.063868	0.200033	0.541700	0.189425	0.051870	0.138666	0.229136	0.144039	0.052443	0.024962	0.291736	0.324687	0.213106	0.190477	0.361974	0.102421	0.171674	0.207958	0.138766	0.084841	0.050269	0.096249	0.147951	0.193038	0.107167	0.071114	0.376336	0.229807	0.049843	0.049705	0.199201	0.194145	0.153210	0.117496	0.188679	0.255275	0.222904	0.098083	0.313248	0.251492	0.049404	0.062988	0.136942	0.214078	0.098733	0.145843	0.203496	0.235721	0.189142	0.187512	0.165860	0.240276	0.182051	0.183905	0.334620	0.118651
17	0.378103	0.218277	0.522221	0.317429	0.291257	0.150847	0.287042	0.074887	0.112388	0.155095	0.533175	0.487519	0.162843	0.187067	0.318704	0.271456	0.087126	0.136852	0.436191	0.258688	0.151716	0.398242	0.131795	0.280138	0.068463	0.222860	0.482837	0.185289	0.040326	0.096624	0.229733	0.142242	0.059222	0.027932	0.272843	0.285915	0.221680	0.193306	0.358331	0.100860	0.245899	0.202081	0.134915	0.084398	0.056196	0.112477	0.148932	0.185835	0.121945	0.078723	0.376446	0.237853	0.049115	0.045191	0.186373	0.173543	0.153364	0.113298	0.186779	0.243135	0.289910	0.110664	0.300915	0.249417	0.045615	0.064705	0.136703	0.203707	0.099601	0.146500	0.208769	0.239736	0.204107	0.232654	0.197503	0.293137	0.184464	0.184955	0.325568	0.119038
18	0.381508	0.224322	0.528513	0.327764	0.284364	0.149981	0.285667	0.080119	0.109304	0.145153	0.538460	0.500508	0.167415	0.189886	0.313371	0.270463	0.088525	0.136496	0.436174	0.253167	0.143415	0.393309	0.139161	0.282794	0.071899	0.232280	0.456808	0.183653	0.034257	0.072964	0.226913	0.149260	0.060239	0.029791	0.238918	0.257470	0.215899	0.192827	0.336826	0.102949	0.334000	0.195755	0.120811	0.081863	0.053611	0.109789	0.146414	0.174608	0.153483	0.103217	0.363973	0.228784	0.043331	0.056342	0.184630	0.166538	0.157412	0.108283	0.186424	0.218699	0.315695	0.114081	0.299191	0.254565	0.045692	0.064700	0.172428	0.230726	0.104769	0.149012	0.212913	0.240170	0.197819	0.259482	0.291776	0.312951	0.184563	0.184206	0.285794	0.120335
19	0.386921	0.224470	0.528874	0.334615	0.260298	0.133835	0.270335	0.081342	0.100341	0.126784	0.538217	0.503091	0.155267	0.164463	0.301351	0.277727	0.095537	0.136986	0.439314	0.250913	0.135446	0.367749	0.122353	0.298885	0.072810	0.228902	0.456818	0.178849	0.034156	0.083145	0.217872	0.163731	0.072752	0.048180	0.238298	0.219559	0.176619	0.188804	0.302329	0.108451	0.372479	0.187251	0.120211	0.075812	0.049763	0.103838	0.144805	0.172251	0.172374	0.122048	0.322779	0.217237	0.043992	0.091772	0.160813	0.168160	0.164625	0.106684	0.178769	0.207766	0.321452	0.116645	0.268926	0.260621	0.047983	0.063443	0.304142	0.382194	0.107736	0.154270	0.219975	0.251239	0.182855	0.263618	0.312218	0.314846	0.179407	0.184726	0.267583	0.122712
20	0.395416	0.219773	0.528456	0.330381	0.242682	0.125230	0.257004	0.080922	0.093074	0.104260	0.534458	0.504707	0.136107	0.106392	0.289083	0.290199	0.105298	0.133564	0.452556	0.259847	0.131131	0.327302	0.111948	0.325863	0.077847	0.237861	0.445429	0.164939	0.035102	0.102762	0.196291	0.181174	0.107377	0.082722	0.233373	0.159159	0.167919	0.196212	0.304268	0.112171	0.382418	0.181153	0.126462	0.064471	0.050490	0.102802	0.145101	0.168738	0.175495	0.127106	0.291871	0.216958	0.041030	0.096612	0.151895	0.166812	0.170431	0.106388	0.150167	0.208125	0.322199	0.123748	0.229135	0.256756	0.049221	0.060636	0.444335	0.498898	0.109604	0.152386	0.225793	0.286096	0.200801	0.265677	0.351539	0.303445	0.178290	0.184602	0.260349	0.122602
21	0.385368	0.209681	0.520639	0.304014	0.230053	0.126819	0.254199	0.145886	0.090454	0.086279	0.524570	0.505414	0.134708	0.092412	0.333708	0.309758	0.098261	0.123177	0.460042	0.271915	0.130569	0.314667	0.171929	0.350294	0.092421	0.269163	0.394981	0.152613	0.043397	0.129561	0.167570	0.186072	0.134197	0.108728	0.188310	0.116944	0.171006	0.195102	0.301860	0.106508	0.459607	0.202276	0.126675	0.104522	0.048938	0.099779	0.144634	0.154329	0.193443	0.127229	0.288476	0.217200	0.044919	0.100718	0.148960	0.165785	0.173990	0.107367	0.126854	0.208622	0.316825	0.122486	0.223625	0.256167	0.047567	0.054126	0.456230	0.522317	0.111584	0.151919	0.249462	0.328599	0.245929	0.266069	0.383091	0.301717	0.174312	0.177301	0.248256	0.116213
22	0.370277	0.200362	0.481674	0.259270	0.231813	0.127574	0.275178	0.267529	0.089294	0.072697	0.468459	0.502668	0.136280	0.100703	0.340449	0.330045	0.097676	0.113005	0.461582	0.278622	0.128331	0.323109	0.212365	0.361898	0.101384	0.306600	0.310587	0.147272	0.059012	0.169485	0.159218	0.190449	0.151381	0.126397	0.140304	0.113081	0.171053	0.175521	0.299305	0.104386	0.538244	0.229625	0.139149	0.165963	0.046924	0.099396	0.144813	0.163319	0.200504	0.125717	0.272221	0.219118	0.045435	0.121043	0.145313	0.164643	0.173206	0.107407	0.124365	0.212110	0.313544	0.153437	0.248676	0.258187	0.042429	0.048215	0.509649	0.516047	0.111945	0.150211	0.241634	0.338792	0.315676	0.267011	0.394119	0.319798	0.180713	0.171786	0.229106	0.105209
23	0.360524	0.200826	0.451075	0.241394	0.230423	0.133981	0.267162	0.304706	0.089373	0.066006	0.414236	0.497362	0.136180	0.101252	0.341974	0.300938	0.101008	0.097940	0.454910	0.276584	0.112545	0.318702	0.215929	0.363135	0.109395	0.324301	0.231708	0.141926	0.061054	0.181220	0.153809	0.188889	0.185867	0.145811	0.174693	0.161829	0.168410	0.155623	0.298881	0.143750	0.596967	0.253089	0.181278	0.207848	0.053693	0.099707	0.154193	0.178775	0.195096	0.124952	0.242422	0.261374	0.040640	0.129063	0.140193	0.165295	0.167529	0.107602	0.118710	0.250271	0.312826	0.175579	0.266421	0.254255	0.036080	0.046202	0.604358	0.533682	0.108968	0.143266	0.239898	0.336081	0.406924	0.271066	0.408844	0.345534	0.184010	0.197194	0.203231	0.098276
24	0.360529	0.208906	0.418162	0.237334	0.196206	0.155727	0.271399	0.317054	0.089564	0.061445	0.396002	0.478306	0.136127	0.098789	0.332983	0.287665	0.100159	0.078318	0.402829	0.267770	0.091415	0.274812	0.215477	0.362192	0.161168	0.325542	0.168976	0.138199	0.062623	0.203181	0.155128	0.183638	0.211123	0.148519	0.209527	0.198976	0.175489	0.150568	0.285041	0.181077	0.621786	0.275517	0.322913	0.230447	0.057050	0.097641	0.140894	0.172451	0.240781	0.147999	0.291544	0.324495	0.042369	0.129230	0.143431	0.165199	0.159112	0.106762	0.154328	0.384934	0.305899	0.174784	0.343829	0.243365	0.032986	0.046300	0.652475	0.575552	0.101951	0.156818	0.252435	0.331843	0.462247	0.266671	0.417743	0.373157	0.176889	0.206117	0.193375	0.091227
25	0.355865	0.212293	0.376468	0.324764	0.131054	0.175003	0.262303	0.318983	0.090425	0.062326	0.390194	0.410039	0.136323	0.096694	0.321698	0.301607	0.098368	0.065564	0.290120	0.243543	0.081940	0.228158	0.209862	0.362173	0.236554	0.328897	0.134776	0.131035	0.068745	0.240887	0.148405	0.178319	0.212524	0.163845	0.219137	0.212042	0.182546	0.147326	0.273194	0.205586	0.625373	0.280781	0.394468	0.231559	0.056200	0.098081	0.150655	0.183313	0.337977	0.207337	0.309138	0.362026	0.050916	0.137071	0.167109	0.159010	0.148186	0.104443	0.331862	0.543028	0.295409	0.190414	0.358165	0.218306	0.033949	0.046888	0.666388	0.620154	0.096455	0.189414	0.255777	0.325622	0.491935	0.259987	0.420992	0.396918	0.175126	0.178609	0.192472	0.084924
26	0.331782	0.209632	0.383002	0.488965	0.113446	0.174885	0.223669	0.346237	0.092866	0.068248	0.361895	0.382195	0.124032	0.094138	0.311824	0.302620	0.106434	0.062366	0.245810	0.230031	0.116270	0.251644	0.204904	0.358392	0.279499	0.332196	0.134102	0.192416	0.070788	0.236694	0.137246	0.162662	0.213573	0.202469	0.271513	0.211332	0.183871	0.135488	0.384854	0.250744	0.624638	0.281742	0.398225	0.240489	0.060847	0.111202	0.162003	0.198564	0.352067	0.236377	0.301835	0.387289	0.051795	0.139604	0.164535	0.134480	0.136789	0.102051	0.397968	0.608681	0.275090	0.193766	0.355148	0.196530	0.043396	0.053183	0.668014	0.650916	0.091995	0.189134	0.257057	0.331692	0.575374	0.250145	0.421105	0.409796	0.192935	0.167610	0.189377	0.080105
27	0.274912	0.218076	0.351949	0.603251	0.090289	0.199197	0.210816	0.393004	0.097668	0.075001	0.356345	0.421803	0.117258	0.095985	0.288137	0.296824	0.106748	0.062047	0.241515	0.229909	0.144450	0.294532	0.206119	0.346431	0.310280	0.331354	0.148891	0.252873	0.071750	0.233705	0.072816	0.141444	0.213514	0.232889	0.295607	0.216663	0.189472	0.126031	0.469774	0.307608	0.620831	0.281920	0.415850	0.270696	0.064541	0.113821	0.165148	0.210743	0.352027	0.239410	0.291509	0.408991	0.059897	0.143656	0.157017	0.105195	0.152396	0.113787	0.401987	0.612288	0.259755	0.194070	0.355953	0.190319	0.081005	0.073013	0.669834	0.666595	0.092893	0.206310	0.260528	0.352887	0.595751	0.239861	0.421096	0.413127	0.205578	0.204018	0.188620	0.079738
28	0.193223	0.243166	0.300807	0.616820	0.092956	0.206494	0.231912	0.429215	0.103281	0.081209	0.381125	0.463078	0.099405	0.092361	0.264993	0.296126	0.108767	0.064401	0.252751	0.223289	0.156891	0.335921	0.207860	0.312713	0.319514	0.327467	0.153474	0.259600	0.071097	0.232774	0.074482	0.140642	0.238322	0.251886	0.295419	0.239726	0.193148	0.130081	0.493072	0.318473	0.619465	0.283158	0.462759	0.315032	0.058305	0.108727	0.170145	0.215362	0.352803	0.239991	0.291845	0.401307	0.086752	0.171635	0.164701	0.093721	0.162029	0.125247	0.432508	0.609858	0.259047	0.195681	0.354546	0.198155	0.096569	0.089328	0.670164	0.674111	0.104885	0.279245	0.263773	0.369923	0.605814	0.237471	0.421596	0.411269	0.213160	0.218111	0.187564	0.077966
29	0.208094	0.272561	0.305810	0.622814	0.091625	0.203269	0.256430	0.445930	0.107289	0.087245	0.350666	0.469253	0.071991	0.089187	0.263061	0.295250	0.111962	0.065173	0.281566	0.222203	0.158227	0.350427	0.205277	0.251107	0.369368	0.340550	0.140545	0.260683	0.071819	0.233775	0.079977	0.138900	0.265098	0.257530	0.293044	0.272143	0.194788	0.141256	0.492544	0.331654	0.616388	0.277067	0.496137	0.347706	0.053864	0.111651	0.177123	0.216570	0.352708	0.238906	0.279800	0.392641	0.100809	0.186620	0.162191	0.091901	0.160353	0.126755	0.457380	0.620340	0.231060	0.188069	0.354936	0.214810	0.098748	0.098815	0.670671	0.677503	0.102375	0.291848	0.265744	0.381269	0.605096	0.228353	0.422607	0.387008	0.222152	0.226968	0.185108	0.072975
30	0.234418	0.289679	0.313925	0.661514	0.079061	0.203400	0.263478	0.451920	0.105434	0.091651	0.333091	0.477222	0.072815	0.075699	0.267525	0.294266	0.114173	0.065034	0.268725	0.246279	0.159301	0.352586	0.200197	0.247022	0.404205	0.352092	0.162124	0.267127	0.082892	0.238401	0.092235	0.165303	0.265710	0.257196	0.291990	0.292991	0.189107	0.138814	0.497178	0.364322	0.614054	0.281294	0.515454	0.370665	0.054815	0.108716	0.179289	0.218359	0.352368	0.237378	0.280573	0.406288	0.102329	0.187064	0.160558	0.091794	0.162547	0.127101	0.469457	0.649873	0.143418	0.187754	0.364523	0.229780	0.098919	0.101048	0.671196	0.678302	0.096771	0.287035	0.263396	0.388881	0.598483	0.183730	0.401093	0.352738	0.225028	0.229194	0.170875	0.076069
31	0.233320	0.286328	0.320646	0.720507	0.081600	0.202557	0.262772	0.452186	0.095657	0.093571	0.327472	0.461330	0.071534	0.075475	0.281412	0.290152	0.114585	0.064888	0.274404	0.260237	0.170698	0.371786	0.201426	0.231689	0.457206	0.352798	0.181172	0.278138	0.091680	0.235733	0.093497	0.187233	0.267672	0.257051	0.293379	0.298704	0.180138	0.140318	0.514328	0.397526	0.589676	0.286881	0.524434	0.383694	0.054058	0.105346	0.179850	0.220058	0.349620	0.236312	0.300606	0.430223	0.100803	0.173079	0.163391	0.088089	0.177356	0.134491	0.479640	0.693747	0.099699	0.186125	0.377819	0.235103	0.101655	0.107552	0.671143	0.677940	0.100871	0.284821	0.257940	0.390275	0.594540	0.135810	0.334069	0.336695	0.222334	0.228091	0.137515	0.101489
32	0.231878	0.292057	0.362854	0.766068	0.081421	0.197624	0.267525	0.443457	0.088738	0.097595	0.330159	0.456896	0.077959	0.076627	0.250525	0.282927	0.112106	0.064765	0.297802	0.270798	0.193884	0.436364	0.201182	0.195611	0.500160	0.350439	0.178816	0.291416	0.086967	0.215840	0.099403	0.204219	0.290185	0.256068	0.295299	0.298752	0.163531	0.165654	0.554233	0.433011	0.548803	0.287585	0.527655	0.389920	0.053234	0.107538	0.181149	0.220105	0.339625	0.229869	0.307488	0.459385	0.100701	0.170869	0.170988	0.086316	0.203947	0.154020	0.492664	0.735128	0.104502	0.186701	0.387069	0.236762	0.106685	0.113250	0.656718	0.661325	0.098389	0.284265	0.250827	0.385839	0.593493	0.123363	0.330070	0.324821	0.218471	0.227030	0.109858	0.126413
33	0.252387	0.320206	0.376453	0.788312	0.076630	0.196550	0.250001	0.388449	0.086098	0.098330	0.346377	0.473402	0.078717	0.069040	0.208103	0.255125	0.110637	0.063611	0.332453	0.278715	0.219128	0.496955	0.167280	0.143562	0.505747	0.345649	0.176739	0.307621	0.078637	0.191488	0.121664	0.201711	0.313212	0.248499	0.303203	0.301722	0.149777	0.172711	0.586338	0.462276	0.533946	0.291850	0.527984	0.390647	0.053192	0.117178	0.181244	0.207789	0.327670	0.221308	0.307493	0.487284	0.099078	0.169130	0.175278	0.090466	0.231538	0.179349	0.511655	0.766057	0.146242	0.189037	0.387768	0.232103	0.107201	0.114596	0.599397	0.577267	0.096563	0.281285	0.240189	0.370998	0.585968	0.119644	0.312063	0.326141	0.212487	0.230872	0.094644	0.131713
34	0.286187	0.351425	0.380495	0.794208	0.078360	0.192631	0.229782	0.349680	0.084747	0.098265	0.350711	0.497607	0.075752	0.063088	0.205353	0.243332	0.102820	0.058105	0.337384	0.280996	0.227732	0.519966	0.112958	0.096946	0.505776	0.346266	0.178474	0.320231	0.082145	0.186350	0.125330	0.222770	0.303821	0.238006	0.304807	0.352089	0.148058	0.166473	0.586959	0.474966	0.525019	0.294189	0.527165	0.388395	0.053060	0.130740	0.170311	0.171449	0.329460	0.222005	0.307726	0.504917	0.100674	0.158837	0.175939	0.099839	0.240620	0.187749	0.524970	0.782932	0.213160	0.195613	0.375221	0.229527	0.106865	0.126796	0.509777	0.490316	0.093823	0.279542	0.236267	0.341361	0.569103	0.116384	0.263783	0.322506	0.198781	0.240399	0.109975	0.129394
35	0.318011	0.369394	0.382843	0.795390	0.082395	0.183830	0.215169	0.337998	0.083910	0.098465	0.348168	0.519289	0.077558	0.061175	0.190511	0.241342	0.089125	0.047182	0.317879	0.269214	0.226929	0.520162	0.106319	0.079856	0.505962	0.340471	0.184963	0.322441	0.084203	0.135254	0.124103	0.252226	0.295941	0.229484	0.311588	0.399738	0.148592	0.157313	0.584558	0.477946	0.451095	0.279144	0.530606	0.386686	0.046550	0.138692	0.170436	0.147563	0.325864	0.226597	0.307678	0.511574	0.111097	0.153589	0.176985	0.109493	0.236467	0.189752	0.527748	0.790148	0.271241	0.172821	0.361275	0.222220	0.115886	0.145411	0.500495	0.466917	0.091117	0.279114	0.187389	0.286924	0.534207	0.112182	0.243910	0.304805	0.183011	0.246219	0.114673	0.131809
36	0.331786	0.371303	0.383670	0.795306	0.089415	0.155333	0.215142	0.336180	0.085690	0.104290	0.346270	0.542496	0.089309	0.068873	0.184298	0.227989	0.087054	0.041837	0.305935	0.263955	0.225705	0.520019	0.106546	0.086424	0.509946	0.321527	0.186157	0.324357	0.088164	0.101808	0.126839	0.274769	0.276754	0.217131	0.285192	0.392160	0.153952	0.155740	0.586075	0.476204	0.356351	0.255686	0.535575	0.442364	0.050069	0.140801	0.242560	0.145259	0.319867	0.229853	0.309314	0.511481	0.122840	0.154954	0.164022	0.109395	0.231980	0.190411	0.528501	0.793909	0.313281	0.160463	0.330113	0.205505	0.155159	0.168373	0.430357	0.481749	0.089905	0.279120	0.151564	0.249164	0.466620	0.098490	0.219107	0.283243	0.170415	0.247306	0.114020	0.140837
37	0.332520	0.363447	0.383544	0.795032	0.099303	0.147705	0.216809	0.315996	0.089183	0.113816	0.354206	0.561671	0.125495	0.101032	0.178351	0.204392	0.082470	0.036315	0.304443	0.276017	0.221952	0.518470	0.103489	0.093787	0.516648	0.299276	0.185773	0.325431	0.099913	0.107497	0.129636	0.285876	0.255719	0.214583	0.255469	0.375636	0.164782	0.158405	0.589167	0.463947	0.249627	0.221039	0.575271	0.496305	0.052879	0.138899	0.306263	0.128533	0.319148	0.230151	0.306471	0.495972	0.123830	0.150339	0.158782	0.137970	0.236276	0.190423	0.529332	0.795558	0.340200	0.158092	0.249846	0.182224	0.176592	0.183689	0.327898	0.503705	0.089277	0.279254	0.147178	0.242254	0.405021	0.091641	0.204207	0.255457	0.160996	0.244645	0.111531	0.157296
38	0.335887	0.360318	0.375452	0.785944	0.099855	0.107888	0.198087	0.259422	0.093784	0.122186	0.353857	0.571453	0.169030	0.131536	0.169056	0.169560	0.078034	0.035455	0.307121	0.296298	0.203948	0.497799	0.097131	0.097649	0.516814	0.295943	0.186089	0.325134	0.131378	0.113186	0.134950	0.286927	0.253013	0.205563	0.254746	0.367881	0.172028	0.159333	0.589574	0.450614	0.190506	0.185057	0.533560	0.519706	0.050849	0.127562	0.307832	0.105212	0.302323	0.222302	0.248941	0.459142	0.124662	0.146991	0.177773	0.223442	0.240649	0.192623	0.529476	0.794780	0.344543	0.135299	0.211368	0.177523	0.183840	0.195265	0.439474	0.494746	0.089203	0.272720	0.125127	0.242203	0.378655	0.081236	0.199441	0.225570	0.155245	0.228797	0.110467	0.171498
39	0.347159	0.375727	0.372108	0.722468	0.110908	0.049176	0.169444	0.183350	0.092625	0.125573	0.353804	0.575955	0.201540	0.146088	0.161230	0.136317	0.076676	0.039933	0.306219	0.319031	0.185076	0.472490	0.093648	0.098610	0.498445	0.299604	0.187018	0.324575	0.142063	0.113584	0.133285	0.309462	0.251874	0.169226	0.218000	0.373209	0.177402	0.159363	0.569340	0.437925	0.176702	0.185042	0.505021	0.529281	0.046992	0.126937	0.312063	0.083865	0.185608	0.177580	0.206630	0.435288	0.125212	0.144467	0.196747	0.273305	0.242167	0.192771	0.529462	0.785757	0.388942	0.150897	0.178463	0.177983	0.191421	0.206733	0.493273	0.453296	0.087287	0.246118	0.114764	0.242275	0.218928	0.049595	0.205675	0.201971	0.164195	0.216440	0.110594	0.178193
40	0.353156	0.383986	0.358410	0.607484	0.108856	0.050001	0.142915	0.142167	0.085563	0.123600	0.340829	0.569282	0.214562	0.146668	0.160369	0.133262	0.070219	0.043951	0.307440	0.344559	0.174842	0.440223	0.089670	0.096047	0.467719	0.295459	0.186457	0.320107	0.145914	0.110542	0.135422	0.349278	0.251825	0.122452	0.180988	0.403497	0.182490	0.158163	0.475236	0.410353	0.179340	0.199106	0.519194	0.529079	0.046770	0.113698	0.315301	0.088125	0.109483	0.117787	0.209345	0.413737	0.128506	0.114131	0.204491	0.286845	0.242512	0.192534	0.525384	0.741066	0.487690	0.172512	0.175206	0.182314	0.192158	0.211977	0.491587	0.436427	0.086487	0.239511	0.105372	0.231515	0.148514	0.051963	0.219173	0.304826	0.179769	0.219519	0.110188	0.179246
41	0.355068	0.370941	0.353570	0.547073	0.107933	0.054880	0.135702	0.274992	0.076837	0.119563	0.273053	0.518845	0.215572	0.147630	0.170063	0.213405	0.058742	0.054096	0.311421	0.362192	0.173325	0.418199	0.085834	0.095420	0.447948	0.290306	0.182179	0.271724	0.154529	0.089724	0.128472	0.335172	0.232933	0.079644	0.186904	0.394239	0.178262	0.157203	0.400040	0.373442	0.190165	0.214709	0.524827	0.515244	0.047555	0.102581	0.319066	0.148290	0.108652	0.102738	0.207789	0.386501	0.123804	0.089134	0.208365	0.291902	0.242219	0.189771	0.445826	0.631736	0.502086	0.173784	0.185575	0.195017	0.180374	0.208542	0.493396	0.432938	0.084054	0.234458	0.092593	0.197301	0.089082	0.057790	0.315897	0.523466	0.177735	0.226304	0.109348	0.179258
42	0.344857	0.350502	0.306819	0.543528	0.119242	0.057237	0.206477	0.371423	0.068259	0.115529	0.236755	0.462856	0.251283	0.155611	0.173532	0.359716	0.076479	0.070949	0.312294	0.370570	0.173250	0.412221	0.083499	0.094032	0.430936	0.288835	0.183592	0.244802	0.200761	0.090876	0.140792	0.318875	0.193673	0.060998	0.298175	0.385086	0.176997	0.152921	0.383911	0.368088	0.194694	0.218030	0.528640	0.504173	0.045820	0.101580	0.343358	0.159265	0.107916	0.100256	0.196594	0.377586	0.122700	0.087103	0.245071	0.299196	0.239409	0.181379	0.364852	0.539132	0.505884	0.171214	0.209928	0.264857	0.174889	0.201953	0.494799	0.423242	0.067843	0.161965	0.070614	0.158377	0.039093	0.064263	0.402470	0.651978	0.177941	0.205528	0.108453	0.180383
43	0.316669	0.329858	0.255064	0.509236	0.126612	0.063200	0.238345	0.385277	0.061038	0.110774	0.231356	0.410551	0.320377	0.181337	0.162373	0.428633	0.090697	0.081324	0.290596	0.370892	0.164863	0.403935	0.079770	0.089433	0.416432	0.280727	0.258312	0.276107	0.239653	0.092271	0.138712	0.317540	0.191210	0.064939	0.598270	0.371118	0.181110	0.140126	0.382830	0.352135	0.185905	0.213579	0.513234	0.491052	0.045606	0.101658	0.359219	0.155657	0.106032	0.099614	0.193321	0.382388	0.123674	0.086697	0.301003	0.331965	0.220566	0.165635	0.352738	0.520263	0.515867	0.166244	0.241767	0.304188	0.174697	0.196715	0.494645	0.431544	0.052042	0.106403	0.066840	0.168400	0.036277	0.066898	0.405291	0.675227	0.182188	0.190152	0.107504	0.181381
44	0.302015	0.319087	0.249651	0.424523	0.126035	0.066691	0.274432	0.388204	0.060575	0.106672	0.203101	0.380127	0.382576	0.242217	0.217195	0.432092	0.092988	0.083162	0.252347	0.354624	0.137823	0.343942	0.099973	0.076141	0.374301	0.250024	0.314277	0.288402	0.240489	0.092708	0.127635	0.321569	0.188504	0.065110	0.738309	0.365259	0.174728	0.138480	0.374254	0.316411	0.176208	0.206727	0.498953	0.475519	0.046706	0.098414	0.358835	0.154978	0.106989	0.101456	0.239548	0.367274	0.123341	0.088538	0.325334	0.370425	0.205321	0.151697	0.323902	0.520658	0.522168	0.166136	0.251888	0.300605	0.175336	0.195646	0.500013	0.467972	0.050799	0.107883	0.069150	0.184107	0.036326	0.070714	0.408582	0.675196	0.175240	0.184552	0.106758	0.181843
45	0.299671	0.317946	0.178221	0.303409	0.125431	0.072635	0.326929	0.413743	0.058622	0.099314	0.193899	0.379186	0.410452	0.278103	0.267862	0.433455	0.093412	0.083155	0.248770	0.327896	0.093465	0.253421	0.152817	0.109715	0.331369	0.213703	0.324275	0.281773	0.240172	0.092501	0.128092	0.302660	0.153638	0.060334	0.750706	0.366148	0.173256	0.141562	0.342415	0.272610	0.167387	0.198131	0.509572	0.469777	0.047476	0.083731	0.359931	0.154506	0.102864	0.100298	0.261550	0.341118	0.123439	0.103886	0.326275	0.402821	0.204505	0.149492	0.283457	0.513986	0.519700	0.161541	0.247979	0.300715	0.176089	0.195788	0.518790	0.512905	0.042386	0.108356	0.100404	0.179382	0.036882	0.073835	0.421226	0.679030	0.171003	0.178535	0.120795	0.179240
46	0.284307	0.300224	0.117700	0.191113	0.131456	0.075663	0.331848	0.475609	0.058089	0.092289	0.171212	0.365141	0.417756	0.285334	0.318227	0.452557	0.093734	0.083477	0.231693	0.316088	0.062439	0.184432	0.178817	0.193125	0.243182	0.184107	0.318661	0.268762	0.237898	0.089180	0.167341	0.301481	0.046489	0.055355	0.802406	0.373906	0.198999	0.135582	0.260392	0.212350	0.158682	0.188472	0.523681	0.475624	0.047621	0.063342	0.359695	0.166064	0.100587	0.097788	0.255396	0.346218	0.123389	0.116892	0.327467	0.419168	0.202964	0.150227	0.264891	0.489804	0.506415	0.152335	0.250522	0.318676	0.175929	0.198155	0.534757	0.551198	0.034563	0.107900	0.112819	0.179191	0.042724	0.074151	0.411767	0.726959	0.189669	0.179400	0.122958	0.165212
47	0.241829	0.262858	0.104403	0.132914	0.132137	0.076912	0.331553	0.511164	0.055966	0.090385	0.177971	0.360615	0.416572	0.285221	0.461277	0.476293	0.093983	0.086017	0.185713	0.307267	0.057731	0.159052	0.190856	0.267980	0.170883	0.167993	0.338180	0.251839	0.236946	0.085000	0.183598	0.289255	0.039041	0.055040	0.919045	0.334918	0.227681	0.143041	0.190207	0.159666	0.148014	0.179568	0.543136	0.497874	0.044592	0.044571	0.360754	0.168912	0.096936	0.091941	0.254465	0.387110	0.116816	0.125431	0.327183	0.423651	0.194803	0.147751	0.254725	0.452832	0.480370	0.140589	0.285219	0.348149	0.178099	0.202226	0.545028	0.577012	0.029823	0.107066	0.119421	0.183221	0.083399	0.093335	0.437550	0.802219	0.230541	0.194244	0.114457	0.183523
48	0.192263	0.222273	0.190236	0.291670	0.123574	0.088004	0.335894	0.515532	0.059031	0.092230	0.250709	0.377437	0.412292	0.285749	0.483094	0.505076	0.106981	0.093535	0.119321	0.301066	0.066749	0.162168	0.224226	0.318118	0.163041	0.167666	0.371150	0.227926	0.228633	0.079358	0.194990	0.287813	0.051963	0.054326	1.010346	0.285146	0.242224	0.142145	0.213736	0.207283	0.139102	0.175982	0.566980	0.523430	0.038483	0.041928	0.312538	0.170905	0.088483	0.081874	0.356764	0.429421	0.103742	0.128811	0.329293	0.423925	0.169396	0.134227	0.249390	0.436906	0.449254	0.134445	0.315655	0.381352	0.181957	0.200542	0.556897	0.588246	0.032898	0.106797	0.130757	0.195621	0.112515	0.114252	0.511057	0.867855	0.255948	0.209642	0.114266	0.246289
49	0.151785	0.194668	0.613005	0.563195	0.122354	0.097683	0.336001	0.516448	0.069355	0.096943	0.254557	0.466901	0.401762	0.281146	0.490948	0.524371	0.130363	0.103459	0.134296	0.343597	0.081433	0.193210	0.226203	0.335332	0.162581	0.162108	0.403543	0.222464	0.212403	0.073187	0.206114	0.299498	0.055964	0.054173	1.055475	0.320505	0.241069	0.145971	0.316700	0.285759	0.135048	0.177155	0.575150	0.533889	0.030926	0.044013	0.258520	0.175128	0.075370	0.070834	0.546844	0.476803	0.098701	0.126869	0.325796	0.416958	0.132468	0.101396	0.253279	0.423692	0.424265	0.138325	0.326375	0.392905	0.179070	0.192094	0.564726	0.590044	0.048378	0.106986	0.184001	0.200080	0.120968	0.125835	0.553831	0.900790	0.259012	0.207475	0.119987	0.286276
50	0.137215	0.179005	0.847388	0.700105	0.116000	0.103987	0.336700	0.516517	0.079095	0.098781	0.241974	0.569214	0.385373	0.274007	0.506870	0.533417	0.140286	0.114425	0.306362	0.494524	0.082314	0.198498	0.227837	0.340249	0.155129	0.147526	0.411567	0.287724	0.209886	0.078122	0.201749	0.274436	0.061573	0.056655	1.077438	0.372138	0.249327	0.163169	0.331472	0.315982	0.134464	0.179316	0.560706	0.480867	0.025659	0.041213	0.267615	0.192365	0.069765	0.063066	0.753997	0.520895	0.096718	0.127238	0.323407	0.378816	0.096179	0.078269	0.228042	0.398698	0.407621	0.147554	0.331866	0.395393	0.149198	0.175288	0.566292	0.578904	0.071752	0.107994	0.192293	0.206858	0.122931	0.134101	0.570436	0.921875	0.259882	0.202551	0.130594	0.299102
51	0.134788	0.177535	0.869593	0.733069	0.109895	0.107264	0.333183	0.515633	0.077417	0.096883	0.262215	0.656104	0.374001	0.276025	0.514689	0.540286	0.143471	0.121385	0.548498	0.672685	0.083654	0.195371	0.244290	0.371376	0.126220	0.123014	0.535918	0.436988	0.202510	0.078683	0.199373	0.239489	0.074533	0.067552	1.086016	0.416036	0.299936	0.195676	0.350375	0.320914	0.133903	0.180880	0.508255	0.418101	0.027977	0.038366	0.255400	0.210946	0.072052	0.062660	0.840720	0.560387	0.093730	0.126541	0.317540	0.341291	0.095206	0.076279	0.242252	0.382986	0.411148	0.153456	0.335193	0.395280	0.130049	0.161416	0.532809	0.538695	0.092185	0.110693	0.204029	0.224042	0.130777	0.143610	0.579547	0.930690	0.260678	0.202174	0.159646	0.297225
52	0.113502	0.159916	0.908484	0.739630	0.109775	0.105880	0.332366	0.469099	0.074385	0.107958	0.333234	0.689317	0.372212	0.280148	0.511814	0.537590	0.143951	0.125099	0.794739	0.812400	0.081268	0.191880	0.270985	0.417293	0.095328	0.094246	0.637342	0.481483	0.188676	0.069845	0.197034	0.238163	0.084955	0.082785	1.084279	0.442696	0.331982	0.218304	0.452808	0.321611	0.133741	0.178817	0.489342	0.386373	0.029308	0.037649	0.255286	0.214034	0.074356	0.064667	0.850470	0.566972	0.065090	0.123241	0.304659	0.327416	0.096545	0.079347	0.258480	0.390359	0.360827	0.139542	0.337466	0.394753	0.120437	0.147651	0.371583	0.503887	0.092196	0.114016	0.221394	0.234356	0.139655	0.150977	0.580214	0.931835	0.261000	0.202806	0.182294	0.291474
53	0.081537	0.119788	0.959286	0.740222	0.097711	0.101581	0.311344	0.385637	0.081220	0.138053	0.341158	0.696555	0.370053	0.281280	0.509045	0.479322	0.142840	0.125621	0.893922	0.852644	0.082227	0.190508	0.272895	0.459411	0.074128	0.064033	0.645054	0.488188	0.119905	0.066068	0.186252	0.234222	0.092832	0.091425	1.084040	0.425323	0.342246	0.227780	0.545485	0.322385	0.131561	0.168072	0.474178	0.374308	0.045805	0.058488	0.248074	0.189191	0.074308	0.064571	0.977223	0.569102	0.045234	0.118561	0.302013	0.321518	0.089102	0.086073	0.260745	0.408258	0.256296	0.121274	0.337421	0.391053	0.112086	0.133660	0.295208	0.487901	0.092678	0.111792	0.228794	0.241929	0.141420	0.151379	0.576710	0.907027	0.260737	0.201961	0.185748	0.286304
54	0.075922	0.095454	1.013050	0.784775	0.083070	0.096381	0.287057	0.361181	0.095940	0.143504	0.355048	0.699583	0.325912	0.272628	0.504339	0.380640	0.141939	0.126633	0.900205	0.846356	0.081710	0.189983	0.275869	0.483435	0.072259	0.047237	0.694968	0.517489	0.066631	0.064502	0.184447	0.222039	0.099626	0.090856	1.083736	0.422562	0.343953	0.231016	0.563179	0.321029	0.124298	0.148511	0.461142	0.368684	0.060110	0.076995	0.204443	0.184975	0.074936	0.064530	1.159819	0.626871	0.043356	0.114449	0.275141	0.317041	0.081012	0.087956	0.283039	0.410947	0.263340	0.124346	0.328562	0.371147	0.113359	0.125683	0.292596	0.462149	0.092367	0.105646	0.231172	0.254580	0.141436	0.149420	0.535998	0.807331	0.255742	0.195051	0.187772	0.291473
55	0.082067	0.102971	1.088374	0.888874	0.082050	0.093882	0.299962	0.368485	0.097014	0.143746	0.392792	0.747656	0.243833	0.238649	0.493358	0.344114	0.144115	0.130987	0.965675	0.851626	0.077585	0.179369	0.277930	0.490774	0.063525	0.044677	0.749649	0.554587	0.063681	0.061418	0.179579	0.217180	0.103594	0.085692	1.065357	0.410892	0.344708	0.231039	0.568265	0.320530	0.105880	0.125448	0.425875	0.364006	0.070471	0.082127	0.187261	0.184584	0.075804	0.065340	1.277411	0.728714	0.039017	0.114044	0.211443	0.285611	0.083813	0.091282	0.296438	0.411544	0.277150	0.127342	0.304017	0.305193	0.123373	0.124351	0.288280	0.450234	0.092481	0.103144	0.232369	0.269816	0.144095	0.147436	0.472296	0.699749	0.244163	0.186207	0.205118	0.312746
56	0.112006	0.142415	1.161630	0.986163	0.081861	0.089567	0.237608	0.354283	0.097312	0.145323	0.402853	0.816873	0.174661	0.173489	0.456928	0.344820	0.148193	0.131204	1.077478	0.881235	0.074205	0.165278	0.283658	0.491350	0.054020	0.042220	0.758286	0.594401	0.057871	0.058356	0.174276	0.212591	0.105805	0.082112	0.940842	0.406365	0.342317	0.229830	0.583043	0.331812	0.093806	0.117574	0.371486	0.346439	0.071611	0.082128	0.186298	0.184350	0.087814	0.077897	1.339746	0.833544	0.038483	0.110986	0.157535	0.236434	0.088080	0.092394	0.301722	0.418617	0.261393	0.127008	0.266221	0.270624	0.132397	0.125837	0.302263	0.452108	0.093970	0.098558	0.233984	0.279332	0.146441	0.145372	0.481224	0.671698	0.232535	0.186550	0.221182	0.339677
57	0.133116	0.168087	1.176021	1.041011	0.072417	0.085086	0.231682	0.272726	0.100275	0.152576	0.404072	0.891759	0.132164	0.140627	0.445776	0.335124	0.139395	0.122660	1.180282	0.912802	0.072111	0.147265	0.263524	0.494197	0.057349	0.052939	0.749933	0.632269	0.054268	0.057818	0.127062	0.179170	0.106097	0.083837	0.824531	0.410239	0.338941	0.230418	0.583638	0.357183	0.094562	0.117760	0.356600	0.346034	0.072378	0.081506	0.184476	0.183963	0.110076	0.100049	1.364913	0.912398	0.038873	0.097494	0.149110	0.173840	0.086714	0.093718	0.304624	0.431509	0.265477	0.138516	0.246050	0.272459	0.149591	0.126593	0.313084	0.439502	0.093775	0.070468	0.231828	0.270625	0.149397	0.143776	0.484316	0.666512	0.220575	0.187923	0.228288	0.359870
58	0.151277	0.185270	1.176371	1.071439	0.059719	0.083644	0.248668	0.175465	0.104687	0.164323	0.405671	0.958018	0.142822	0.144064	0.332259	0.306672	0.130282	0.117964	1.231425	0.930133	0.071874	0.136948	0.240824	0.477974	0.075437	0.087736	0.726910	0.651465	0.050400	0.055269	0.116534	0.178037	0.114081	0.093347	0.814685	0.418330	0.338737	0.229372	0.583533	0.372417	0.092440	0.111978	0.351172	0.375584	0.076778	0.082676	0.183264	0.173970	0.125631	0.116528	1.362641	0.954365	0.048495	0.082365	0.145976	0.122697	0.086776	0.094014	0.325945	0.450675	0.281855	0.149250	0.242916	0.271728	0.156886	0.124326	0.302127	0.426995	0.094090	0.058977	0.228362	0.244060	0.160352	0.143460	0.461729	0.664523	0.208870	0.184093	0.231282	0.368635
59	0.168481	0.198709	1.177271	1.084289	0.061715	0.074301	0.245651	0.146254	0.116238	0.178377	0.413026	1.005907	0.167542	0.144173	0.198016	0.267523	0.127278	0.121149	1.238467	0.930233	0.070993	0.135029	0.233038	0.439986	0.097206	0.113766	0.708854	0.664628	0.047428	0.050665	0.073062	0.164711	0.132260	0.105411	0.772163	0.419982	0.335007	0.221220	0.583448	0.385839	0.080048	0.095144	0.341754	0.412877	0.079185	0.086330	0.150788	0.173809	0.131991	0.126342	1.351611	0.971744	0.083768	0.062066	0.150302	0.094627	0.086917	0.096023	0.344409	0.486674	0.286346	0.150754	0.237974	0.251537	0.164823	0.128243	0.299827	0.494350	0.095678	0.055465	0.219615	0.236209	0.167432	0.146503	0.452604	0.620135	0.204201	0.179835	0.232819	0.372673
60	0.183708	0.205539	1.179389	1.087979	0.058795	0.067387	0.249534	0.145153	0.120598	0.187902	0.436601	1.028442	0.163450	0.125651	0.188411	0.226018	0.126293	0.125832	1.238494	0.932388	0.063284	0.125990	0.199334	0.405961	0.114847	0.124875	0.702100	0.667911	0.047876	0.049698	0.019940	0.137148	0.141059	0.112800	0.630924	0.434152	0.318730	0.208019	0.582816	0.400524	0.071147	0.079605	0.416814	0.425300	0.078958	0.095535	0.142840	0.175576	0.134934	0.131509	1.351081	0.963809	0.112011	0.052616	0.146185	0.090626	0.090978	0.103574	0.346284	0.529608	0.287996	0.151722	0.186885	0.205866	0.204588	0.143816	0.359627	0.664164	0.098621	0.063044	0.210041	0.233517	0.155050	0.138494	0.430393	0.535486	0.204496	0.178851	0.229191	0.374415
61	0.190217	0.206361	1.181170	1.079626	0.052245	0.061002	0.249044	0.142440	0.123999	0.195712	0.423463	1.023132	0.160356	0.112207	0.147887	0.192367	0.131640	0.133199	1.242786	0.950396	0.041792	0.065838	0.196825	0.389510	0.123300	0.127434	0.700701	0.669346	0.051632	0.034446	0.021444	0.100762	0.141253	0.117777	0.462388	0.517851	0.303447	0.201795	0.579289	0.405475	0.068167	0.072757	0.614278	0.482923	0.086447	0.103629	0.127519	0.181108	0.136254	0.133350	1.354337	0.936402	0.118794	0.093563	0.141354	0.097820	0.095609	0.111737	0.359929	0.556263	0.292708	0.150523	0.157976	0.144655	0.239102	0.154073	0.460196	0.726989	0.106981	0.099135	0.206260	0.230896	0.136271	0.124651	0.347378	0.481265	0.191247	0.178277	0.223310	0.374334
62	0.191806	0.205041	1.108161	0.998389	0.048561	0.054395	0.263370	0.141876	0.127942	0.197858	0.410689	0.992247	0.160369	0.100898	0.089932	0.170746	0.138375	0.136899	1.258421	0.980776	0.037264	0.037557	0.196042	0.387498	0.127621	0.127540	0.688619	0.669330	0.053063	0.030696	0.052319	0.085098	0.142560	0.122277	0.348118	0.570421	0.298012	0.207735	0.560297	0.370687	0.086378	0.079692	0.850760	0.537861	0.122831	0.122859	0.098337	0.180464	0.136269	0.133330	1.345971	0.906347	0.119944	0.105475	0.137417	0.108232	0.099451	0.118210	0.404964	0.573197	0.294353	0.144100	0.140985	0.121384	0.261995	0.160791	0.472486	0.727896	0.111542	0.116285	0.204856	0.225224	0.128158	0.115139	0.354316	0.482454	0.148406	0.166709	0.222994	0.362465
63	0.193003	0.205982	0.899556	0.879300	0.052190	0.052462	0.314973	0.170568	0.124432	0.194477	0.409971	0.928947	0.169654	0.089796	0.070507	0.152799	0.127561	0.135209	1.272127	1.011820	0.057429	0.049860	0.180914	0.359803	0.128415	0.128270	0.671403	0.668112	0.060484	0.034707	0.058626	0.109301	0.141149	0.124417	0.271051	0.544368	0.298188	0.209757	0.512379	0.318111	0.150638	0.101728	0.875418	0.532523	0.135868	0.129179	0.093517	0.169046	0.133392	0.130857	1.290019	0.877102	0.121102	0.111513	0.121320	0.109554	0.107946	0.124637	0.463243	0.576194	0.291234	0.134001	0.131052	0.116225	0.277171	0.167488	0.468271	0.722982	0.106737	0.118441	0.180124	0.225938	0.126443	0.106994	0.387452	0.457670	0.080721	0.140109	0.222142	0.321812
64	0.208229	0.210751	0.807289	0.831941	0.052442	0.054098	0.321509	0.186196	0.119893	0.189277	0.412303	0.853677	0.184988	0.079903	0.065723	0.140032	0.109784	0.129274	1.267139	1.021338	0.112943	0.069115	0.138850	0.307354	0.155047	0.137589	0.652821	0.662458	0.064118	0.038318	0.069239	0.114050	0.135477	0.121931	0.238337	0.511536	0.287392	0.195353	0.504584	0.291321	0.177982	0.120052	0.939032	0.520725	0.138502	0.129815	0.065783	0.150876	0.129212	0.128168	1.191478	0.855582	0.124796	0.114352	0.124511	0.108193	0.116185	0.128606	0.497157	0.550475	0.281528	0.123209	0.132028	0.116212	0.286885	0.174983	0.467569	0.741686	0.099670	0.128721	0.162418	0.243114	0.120407	0.094358	0.380221	0.445695	0.063494	0.122692	0.211952	0.281635
65	0.219653	0.214001	0.787914	0.824009	0.053171	0.055062	0.309711	0.186678	0.117902	0.183094	0.364723	0.807131	0.197095	0.076390	0.058931	0.141122	0.100657	0.121815	1.224845	0.974412	0.165724	0.081488	0.134995	0.240200	0.240607	0.160546	0.637444	0.616506	0.065980	0.041187	0.082552	0.112794	0.129677	0.112148	0.234892	0.483775	0.218441	0.160175	0.481729	0.288466	0.192236	0.126203	1.060910	0.531203	0.134002	0.119647	0.060370	0.140779	0.124881	0.126410	1.103875	0.837582	0.129310	0.114040	0.131997	0.108961	0.124855	0.133718	0.506291	0.512486	0.259194	0.116057	0.129882	0.116878	0.291329	0.176934	0.470518	0.801433	0.076470	0.156023	0.198798	0.247175	0.110571	0.081201	0.427095	0.445349	0.069349	0.114466	0.201280	0.263118
66	0.221287	0.212670	0.731217	0.826594	0.059018	0.055917	0.276479	0.178576	0.117764	0.161239	0.333941	0.790940	0.196545	0.075752	0.027220	0.143836	0.104012	0.121976	1.120603	0.868894	0.223960	0.088517	0.130841	0.188438	0.267737	0.170926	0.510549	0.524494	0.065919	0.042604	0.084746	0.114066	0.124437	0.104233	0.270670	0.475133	0.162747	0.129336	0.376978	0.288024	0.198801	0.128721	1.109795	0.545000	0.128824	0.120207	0.063549	0.142825	0.122793	0.126573	1.097876	0.835317	0.135367	0.117382	0.132522	0.111251	0.133767	0.139262	0.512849	0.497058	0.239679	0.111086	0.128391	0.117278	0.291609	0.178209	0.506767	0.872112	0.075352	0.156553	0.209023	0.245129	0.107629	0.079357	0.531095	0.450228	0.083342	0.109168	0.181781	0.260168
67	0.226430	0.210558	0.655717	0.812352	0.061000	0.055930	0.274909	0.172577	0.116739	0.148872	0.333623	0.793032	0.203237	0.076079	0.018043	0.141763	0.120101	0.128466	0.967995	0.754316	0.262069	0.086927	0.131111	0.185287	0.269850	0.174214	0.424434	0.507016	0.066499	0.050099	0.085812	0.120129	0.121446	0.100496	0.300706	0.492612	0.129423	0.114144	0.235750	0.292436	0.200831	0.128478	1.110036	0.554295	0.127020	0.139956	0.063193	0.147599	0.124625	0.130580	1.032588	0.865350	0.148183	0.118601	0.134532	0.113586	0.135849	0.140805	0.509248	0.494529	0.215361	0.106089	0.138321	0.119790	0.303292	0.194515	0.560841	0.914267	0.074796	0.159027	0.205915	0.242095	0.107436	0.079445	0.611381	0.455756	0.097454	0.106893	0.156184	0.259614
68	0.237615	0.211457	0.556557	0.728097	0.059863	0.056562	0.284471	0.180198	0.121741	0.149613	0.299427	0.780583	0.201439	0.089067	0.017656	0.134220	0.132744	0.134117	0.917412	0.721973	0.273011	0.088734	0.107693	0.205589	0.270455	0.175383	0.409553	0.495289	0.070070	0.070041	0.085975	0.127093	0.118044	0.099695	0.298743	0.511551	0.115877	0.108168	0.204015	0.299571	0.202171	0.131701	1.110691	0.555537	0.127214	0.147576	0.065998	0.150628	0.126702	0.136499	0.840890	0.887120	0.170123	0.125221	0.138313	0.111888	0.137429	0.139601	0.496206	0.487288	0.190371	0.103858	0.155511	0.126783	0.315454	0.211452	0.614033	0.932383	0.075989	0.164970	0.205012	0.234078	0.104001	0.078628	0.626139	0.461305	0.114467	0.106645	0.149411	0.257886
69	0.230599	0.192540	0.356759	0.589358	0.053900	0.063038	0.279361	0.188368	0.122795	0.149352	0.282141	0.747670	0.228471	0.111216	0.017446	0.124889	0.140285	0.134507	0.908227	0.721980	0.315509	0.114908	0.119543	0.203896	0.283179	0.175779	0.290970	0.461948	0.081583	0.090626	0.087502	0.131956	0.143132	0.100906	0.299721	0.514822	0.112822	0.107876	0.176123	0.305743	0.203791	0.136106	1.113579	0.557740	0.127405	0.163265	0.066808	0.151084	0.130119	0.145386	0.616926	0.873032	0.190074	0.130051	0.172701	0.108442	0.136134	0.136172	0.495134	0.466504	0.189483	0.099523	0.166010	0.133086	0.324583	0.221396	0.638953	0.935762	0.081025	0.165760	0.241732	0.215426	0.136264	0.079603	0.635476	0.469597	0.127919	0.106363	0.156844	0.257577
70	0.218391	0.167927	0.199128	0.470746	0.051878	0.076616	0.273930	0.192974	0.134263	0.148298	0.286402	0.701778	0.261074	0.114153	0.017174	0.110959	0.143342	0.130238	0.818301	0.707469	0.430782	0.154975	0.121071	0.186235	0.282931	0.175765	0.156907	0.415298	0.090948	0.108649	0.088226	0.141112	0.153466	0.100642	0.472156	0.513095	0.112870	0.109157	0.120775	0.296647	0.203925	0.140399	1.116584	0.577779	0.125095	0.176515	0.066552	0.150077	0.130131	0.151860	0.481199	0.850606	0.195353	0.128197	0.227659	0.127396	0.129979	0.131209	0.483832	0.461349	0.162770	0.076989	0.163793	0.127498	0.329373	0.226174	0.635756	0.934859	0.081995	0.165813	0.265353	0.206275	0.140647	0.078830	0.688422	0.467809	0.131546	0.102111	0.142618	0.256686
71	0.215064	0.151069	0.225325	0.406736	0.051384	0.088263	0.269846	0.193194	0.155037	0.143706	0.300333	0.659855	0.306953	0.113722	0.019574	0.070894	0.140065	0.125871	0.660245	0.685164	0.483211	0.169746	0.153656	0.185237	0.283737	0.174624	0.141945	0.351175	0.090633	0.109292	0.088961	0.143540	0.148530	0.092660	0.637536	0.507895	0.110155	0.109057	0.124622	0.288875	0.203800	0.144151	1.125227	0.609994	0.125554	0.174184	0.066344	0.148087	0.116879	0.145746	0.653458	0.817039	0.184615	0.126909	0.226955	0.155143	0.123081	0.127598	0.475027	0.462340	0.133924	0.055790	0.160930	0.108108	0.323118	0.226475	0.633621	0.932814	0.081101	0.165840	0.266381	0.205860	0.137678	0.079562	0.716025	0.465937	0.131236	0.082973	0.167239	0.240246
72	0.207970	0.135014	0.363198	0.374339	0.051993	0.090912	0.268502	0.192913	0.188722	0.134663	0.303280	0.601772	0.316413	0.132707	0.034938	0.061832	0.138989	0.125528	0.498127	0.714721	0.490224	0.171467	0.183667	0.185170	0.285046	0.166760	0.136335	0.265169	0.088949	0.120246	0.087616	0.141077	0.133957	0.081936	0.653785	0.500260	0.108702	0.109197	0.126942	0.308574	0.204782	0.147867	1.139369	0.626337	0.128339	0.171952	0.060337	0.142812	0.100197	0.137038	0.890969	0.775868	0.165301	0.126924	0.240425	0.194259	0.117980	0.126211	0.470735	0.459318	0.124539	0.048254	0.149702	0.094730	0.326837	0.228022	0.633409	0.915850	0.082579	0.175073	0.268042	0.205967	0.127155	0.077180	0.717467	0.467435	0.135810	0.057706	0.191992	0.208672
73	0.194740	0.122054	0.402754	0.364123	0.053410	0.094576	0.262131	0.192829	0.222240	0.120656	0.315783	0.539255	0.369984	0.178378	0.057487	0.080312	0.165515	0.131464	0.451731	0.753746	0.490430	0.171438	0.185483	0.192233	0.285081	0.149851	0.120540	0.202991	0.088850	0.123433	0.071766	0.129633	0.136128	0.080951	0.706718	0.490754	0.104990	0.107804	0.131621	0.306106	0.205029	0.150202	1.139803	0.623347	0.120375	0.167332	0.057856	0.123774	0.094575	0.131007	0.910858	0.748241	0.160963	0.106974	0.301733	0.205599	0.119333	0.125961	0.469769	0.449670	0.122786	0.047423	0.148472	0.093585	0.330603	0.226372	0.614849	0.843732	0.085766	0.199370	0.268103	0.206020	0.124640	0.072720	0.724005	0.480370	0.159952	0.046249	0.189999	0.190025
74	0.184972	0.118270	0.395341	0.361782	0.063922	0.117872	0.200153	0.167631	0.242455	0.109703	0.308478	0.519672	0.556406	0.235418	0.070651	0.091601	0.190407	0.140630	0.460595	0.765968	0.490457	0.172334	0.184644	0.203782	0.281091	0.133018	0.108378	0.256021	0.076668	0.131520	0.068655	0.111021	0.150852	0.081987	0.797630	0.417482	0.098767	0.104528	0.133212	0.283764	0.202787	0.151027	1.106803	0.610603	0.084851	0.156000	0.077844	0.102244	0.098255	0.126756	0.963265	0.781863	0.169504	0.112487	0.296970	0.202239	0.119529	0.125735	0.458762	0.434902	0.117480	0.045792	0.141786	0.109617	0.313045	0.214693	0.561520	0.696707	0.086887	0.220792	0.268164	0.212540	0.126110	0.068123	0.726087	0.445769	0.180391	0.049135	0.205865	0.179439
75	0.181391	0.120103	0.392773	0.362661	0.066521	0.122832	0.168228	0.134096	0.252241	0.136217	0.303308	0.521984	0.633243	0.256465	0.081371	0.092596	0.199765	0.145024	0.460888	0.760255	0.488576	0.171516	0.186475	0.211123	0.276847	0.126530	0.114665	0.358224	0.071571	0.161810	0.058092	0.108236	0.205744	0.110917	0.853296	0.307178	0.085300	0.097001	0.157237	0.268812	0.201717	0.148989	0.978231	0.537513	0.067947	0.152155	0.101153	0.108620	0.099383	0.123828	1.082566	0.858856	0.230428	0.143381	0.346978	0.202088	0.119584	0.124862	0.442835	0.403085	0.122070	0.045479	0.164999	0.121487	0.287240	0.202330	0.490026	0.629065	0.078326	0.215254	0.268187	0.217914	0.140466	0.068260	0.700908	0.380036	0.182994	0.070398	0.229174	0.176001
76	0.179863	0.120084	0.392819	0.376607	0.079682	0.124500	0.167675	0.131143	0.362103	0.202024	0.412238	0.526968	0.643229	0.258684	0.086883	0.091437	0.203901	0.147866	0.442912	0.736514	0.479487	0.166205	0.183362	0.212929	0.274479	0.130720	0.123817	0.455605	0.080900	0.168049	0.052650	0.109002	0.281064	0.159076	0.868411	0.308616	0.070686	0.081204	0.174326	0.270328	0.187971	0.139495	0.786671	0.473542	0.062938	0.154915	0.136448	0.126215	0.099254	0.125285	1.153940	0.939796	0.263463	0.150370	0.398948	0.205615	0.118562	0.119827	0.438836	0.354394	0.120101	0.044171	0.165956	0.123312	0.267053	0.192043	0.486048	0.620310	0.080817	0.234664	0.271772	0.221088	0.187598	0.083468	0.666165	0.362097	0.182879	0.089054	0.245766	0.177224
77	0.178418	0.121551	0.398833	0.400707	0.109304	0.141445	0.162055	0.124302	0.418184	0.224981	0.465065	0.535488	0.646283	0.258666	0.089708	0.085453	0.211820	0.154741	0.468560	0.725166	0.464622	0.161036	0.182835	0.210592	0.276495	0.139556	0.228019	0.521640	0.088150	0.167783	0.062477	0.118087	0.357905	0.203782	0.866602	0.314641	0.057863	0.063484	0.193902	0.277308	0.140462	0.119834	0.773161	0.473947	0.063220	0.159765	0.155869	0.146628	0.111890	0.140498	1.160195	0.986072	0.270752	0.150728	0.425364	0.239549	0.121731	0.123741	0.436468	0.342040	0.110762	0.036984	0.170275	0.122768	0.265994	0.187528	0.482457	0.618341	0.093937	0.268550	0.270047	0.215466	0.211306	0.098805	0.660883	0.350715	0.182140	0.094182	0.254877	0.178784
78	0.181183	0.137823	0.419140	0.413656	0.179360	0.170161	0.150336	0.107805	0.428995	0.229617	0.471262	0.534400	0.646639	0.259259	0.131245	0.097081	0.220413	0.160453	0.498210	0.702586	0.439719	0.156915	0.181835	0.206452	0.278273	0.144322	0.254339	0.530162	0.088583	0.163451	0.084414	0.128417	0.377424	0.219440	0.869683	0.321711	0.059640	0.098759	0.199645	0.290321	0.105765	0.099186	0.677236	0.477446	0.061618	0.150803	0.161120	0.151894	0.143310	0.166162	1.161498	1.006280	0.268813	0.149226	0.440501	0.295227	0.145047	0.142936	0.506882	0.419762	0.107655	0.030008	0.178293	0.121689	0.279740	0.185065	0.481904	0.588372	0.100001	0.284595	0.276658	0.200761	0.214009	0.099479	0.633274	0.344430	0.181967	0.101475	0.259727	0.185040
79	0.207838	0.159228	0.450702	0.410003	0.244879	0.186532	0.125647	0.088262	0.433036	0.230268	0.506713	0.531773	0.647460	0.260825	0.183642	0.112214	0.225482	0.163262	0.526808	0.687049	0.418293	0.163333	0.178631	0.189827	0.255622	0.140280	0.275521	0.533588	0.093444	0.159289	0.124701	0.127433	0.382529	0.221089	0.860214	0.400663	0.065714	0.133320	0.201273	0.295374	0.079100	0.090807	0.464874	0.457620	0.057097	0.131417	0.175488	0.152961	0.165680	0.180663	1.166499	1.011243	0.262607	0.151879	0.445167	0.332510	0.177950	0.163636	0.641310	0.603006	0.105051	0.030903	0.178057	0.121315	0.303227	0.187366	0.477258	0.497667	0.097800	0.270616	0.262191	0.181953	0.231243	0.101711	0.552917	0.342421	0.183289	0.130407	0.276467	0.206952
80	0.222219	0.167731	0.482208	0.403773	0.265951	0.186091	0.094963	0.066911	0.437088	0.229338	0.530437	0.527482	0.646129	0.257112	0.200194	0.118879	0.227133	0.163279	0.536017	0.657192	0.410224	0.167245	0.178392	0.166012	0.180911	0.126124	0.276278	0.566582	0.186308	0.164989	0.147006	0.122141	0.401971	0.242376	0.848219	0.503020	0.056347	0.138380	0.205368	0.294574	0.062471	0.086657	0.366229	0.443903	0.056097	0.126426	0.177531	0.151712	0.177702	0.186294	1.172589	1.009608	0.249265	0.154246	0.444530	0.351273	0.195080	0.179966	0.685236	0.726998	0.105850	0.037824	0.177812	0.117531	0.335882	0.188857	0.433521	0.364681	0.097270	0.266588	0.233060	0.177901	0.234726	0.102291	0.458757	0.335606	0.181190	0.150942	0.307657	0.228589
81	0.222918	0.172139	0.507922	0.402456	0.287253	0.183886	0.088721	0.056308	0.434440	0.227252	0.530565	0.519187	0.633272	0.253085	0.201198	0.123957	0.224865	0.158702	0.612100	0.639638	0.385759	0.153558	0.157874	0.141673	0.160258	0.117062	0.292462	0.631504	0.237949	0.181366	0.151345	0.110765	0.459581	0.289383	0.849523	0.626854	0.071127	0.176401	0.208722	0.288724	0.061265	0.086108	0.367308	0.437015	0.054535	0.102930	0.183045	0.170421	0.178133	0.185346	1.175004	0.991226	0.234867	0.161745	0.435004	0.354497	0.204973	0.188876	0.679319	0.752218	0.100722	0.040700	0.181598	0.109191	0.365626	0.177494	0.359238	0.257454	0.098713	0.265711	0.233054	0.180463	0.235974	0.105909	0.436831	0.325775	0.173902	0.153311	0.321726	0.230773
82	0.215883	0.171390	0.505270	0.396432	0.349606	0.195478	0.117812	0.074368	0.433868	0.227304	0.527158	0.492597	0.611966	0.253321	0.202160	0.126168	0.219085	0.154097	0.727182	0.645617	0.254211	0.124806	0.153965	0.134061	0.162137	0.115541	0.375273	0.685065	0.241195	0.182244	0.152003	0.108193	0.501952	0.342080	0.848236	0.684673	0.074471	0.189981	0.205004	0.282937	0.086936	0.084516	0.365283	0.436934	0.057601	0.117532	0.183271	0.203001	0.177804	0.181665	1.167788	0.949876	0.228630	0.167471	0.409938	0.347572	0.209001	0.191578	0.664675	0.752540	0.095600	0.045218	0.172966	0.107367	0.371158	0.158657	0.300978	0.244488	0.101270	0.262402	0.244294	0.184063	0.220256	0.105498	0.420816	0.308966	0.166672	0.153325	0.322208	0.233032
83	0.250258	0.175422	0.511943	0.389093	0.379804	0.226842	0.127458	0.091327	0.432803	0.226850	0.526912	0.451351	0.597792	0.251841	0.203427	0.128630	0.212989	0.149330	0.741574	0.684993	0.106972	0.104268	0.122290	0.133441	0.179739	0.159399	0.447401	0.725754	0.240797	0.173837	0.153542	0.110670	0.506455	0.368568	0.786290	0.696662	0.076145	0.189833	0.195503	0.278512	0.133100	0.086284	0.360206	0.464196	0.058426	0.142354	0.183350	0.229140	0.176989	0.175652	1.165146	0.904711	0.229070	0.168250	0.407627	0.335135	0.211104	0.191280	0.672592	0.758375	0.094550	0.062637	0.180777	0.114140	0.391169	0.154134	0.313913	0.333642	0.100914	0.263532	0.222509	0.192038	0.214374	0.106155	0.320811	0.308293	0.156900	0.153268	0.326928	0.243693
84	0.266937	0.183877	0.518713	0.401863	0.404735	0.251906	0.141267	0.095448	0.430585	0.226747	0.564023	0.408093	0.594496	0.232336	0.205855	0.122921	0.209832	0.147586	0.747387	0.737790	0.054470	0.100906	0.065206	0.128262	0.195315	0.210978	0.477741	0.751760	0.242066	0.173305	0.153837	0.111473	0.509025	0.376267	0.667761	0.706856	0.079872	0.190884	0.192846	0.272671	0.163036	0.081523	0.568284	0.623875	0.056846	0.146767	0.183584	0.240424	0.176512	0.167613	1.160871	0.850850	0.228983	0.166839	0.401909	0.313606	0.210075	0.190767	0.714845	0.781339	0.089426	0.063805	0.196214	0.115492	0.454866	0.176474	0.310185	0.406552	0.100919	0.265301	0.182968	0.191024	0.210068	0.114065	0.244118	0.323655	0.145271	0.153277	0.339913	0.259575
85	0.259722	0.185333	0.468767	0.405117	0.420467	0.252046	0.160543	0.096523	0.426327	0.235869	0.580660	0.362044	0.491482	0.181675	0.235253	0.185358	0.207162	0.149048	0.745600	0.761879	0.054088	0.100896	0.051980	0.109622	0.215038	0.244405	0.487688	0.762245	0.242561	0.156564	0.170975	0.112228	0.508988	0.376072	0.663781	0.776760	0.081486	0.190082	0.189954	0.244913	0.183713	0.074109	0.901628	0.840716	0.057319	0.174987	0.184146	0.244050	0.199526	0.171380	1.070626	0.795488	0.228306	0.164442	0.356357	0.303456	0.208765	0.190295	0.764092	0.819658	0.091199	0.063788	0.197010	0.116419	0.484040	0.189451	0.319943	0.455666	0.102717	0.267717	0.181674	0.181755	0.248267	0.143223	0.237726	0.458501	0.140453	0.153339	0.364093	0.267805
86	0.258212	0.182553	0.387299	0.394734	0.423089	0.248126	0.155970	0.097287	0.430081	0.258585	0.575326	0.370907	0.277334	0.115056	0.263022	0.241191	0.207191	0.153655	0.742214	0.745801	0.056235	0.099528	0.056795	0.080933	0.216766	0.255692	0.487614	0.763188	0.241613	0.129830	0.192542	0.113154	0.506541	0.374774	0.616668	0.868715	0.082083	0.188646	0.188671	0.197365	0.186602	0.069563	0.950527	0.939155	0.056744	0.180361	0.171321	0.239048	0.209198	0.174785	0.848747	0.789338	0.224143	0.152482	0.347890	0.304257	0.209936	0.193578	0.796254	0.868288	0.088507	0.060611	0.199337	0.114691	0.484111	0.189419	0.327874	0.522231	0.102806	0.266893	0.179922	0.173635	0.356004	0.186542	0.353017	0.630910	0.140963	0.153301	0.361092	0.269970
87	0.261789	0.184181	0.378020	0.395292	0.421692	0.248355	0.163911	0.113036	0.444849	0.282179	0.551577	0.365387	0.187148	0.095260	0.290149	0.252848	0.206979	0.156325	0.722407	0.678679	0.056850	0.096423	0.051361	0.105511	0.216741	0.256689	0.488261	0.761728	0.238821	0.127384	0.192932	0.110758	0.503613	0.374547	0.494296	0.934384	0.082183	0.187835	0.190317	0.177472	0.205150	0.086061	1.003774	0.940279	0.057307	0.180050	0.163289	0.232079	0.207890	0.172511	0.799564	0.807349	0.164229	0.118439	0.303079	0.305281	0.238859	0.223450	0.821546	0.916467	0.075649	0.059484	0.190243	0.111416	0.484184	0.188422	0.404592	0.560365	0.099004	0.251006	0.179635	0.174239	0.365284	0.191861	0.463447	0.670724	0.137340	0.152028	0.343568	0.277150
88	0.268258	0.191524	0.389687	0.401067	0.416913	0.244492	0.164075	0.133363	0.463850	0.293135	0.543167	0.349835	0.152068	0.098378	0.308859	0.253461	0.180439	0.150308	0.694559	0.634075	0.058022	0.093673	0.050572	0.144789	0.218937	0.263170	0.508770	0.753503	0.237774	0.131051	0.205407	0.094432	0.487477	0.368934	0.372986	0.958207	0.082089	0.187500	0.195583	0.176569	0.228416	0.107038	1.092368	0.944360	0.055313	0.175458	0.117118	0.220939	0.203700	0.169891	0.776409	0.797489	0.092223	0.103154	0.223775	0.305515	0.328612	0.283020	0.832961	0.951556	0.069418	0.062786	0.175087	0.122333	0.500520	0.198570	0.423929	0.556727	0.095195	0.231131	0.179564	0.168003	0.360901	0.190719	0.452781	0.672796	0.114375	0.151692	0.344992	0.281456
89	0.361737	0.230559	0.501199	0.403786	0.398167	0.230593	0.168159	0.144855	0.444462	0.273325	0.510028	0.356744	0.144723	0.105513	0.312110	0.255542	0.163942	0.144556	0.692337	0.626465	0.059208	0.092393	0.064200	0.155818	0.215051	0.263621	0.556010	0.744251	0.240185	0.136167	0.195254	0.082047	0.452910	0.351047	0.323834	0.954329	0.081855	0.187097	0.172605	0.169198	0.242755	0.122228	1.108508	1.009312	0.053313	0.171254	0.105691	0.208857	0.209423	0.170466	0.611895	0.727472	0.052311	0.102049	0.159051	0.283799	0.396747	0.324171	0.836125	0.973923	0.079184	0.069447	0.173615	0.136179	0.507903	0.206914	0.419607	0.581358	0.094177	0.221517	0.180279	0.162702	0.340114	0.184433	0.464058	0.679902	0.072402	0.152761	0.338201	0.283275
90	0.531040	0.277217	0.522507	0.418756	0.364518	0.217388	0.166011	0.148185	0.359363	0.241880	0.416102	0.394640	0.128869	0.103602	0.388952	0.274315	0.182257	0.156322	0.693914	0.626496	0.059001	0.091608	0.092572	0.156422	0.214430	0.263913	0.628062	0.754347	0.245880	0.140644	0.188760	0.093279	0.396650	0.328365	0.322462	0.951461	0.080719	0.186766	0.158322	0.155482	0.249492	0.125593	1.109805	1.118949	0.051839	0.169712	0.084767	0.203166	0.215815	0.171010	0.405209	0.621433	0.045241	0.100447	0.106951	0.224889	0.447056	0.346928	0.836169	0.985965	0.091551	0.075763	0.160239	0.143357	0.507382	0.207733	0.410249	0.623971	0.088366	0.205129	0.178057	0.157388	0.330948	0.183951	0.489844	0.685311	0.058382	0.145670	0.332296	0.324424
91	0.643681	0.306398	0.515840	0.411806	0.349112	0.217942	0.172171	0.148603	0.339520	0.235122	0.408328	0.450664	0.117194	0.102177	0.449603	0.305140	0.226476	0.170808	0.688972	0.612672	0.054178	0.081287	0.098971	0.163782	0.218891	0.269788	0.663664	0.717887	0.204876	0.124277	0.178520	0.103402	0.376477	0.320811	0.319786	0.951905	0.080287	0.185396	0.135014	0.174518	0.281681	0.127322	1.121246	1.202831	0.051486	0.169463	0.061662	0.200610	0.222687	0.165770	0.373931	0.547166	0.045873	0.101733	0.079503	0.160207	0.490540	0.355105	0.835518	0.989025	0.108204	0.080101	0.154359	0.148334	0.497317	0.201658	0.408616	0.668106	0.069830	0.144488	0.166445	0.155380	0.373477	0.216221	0.534670	0.744496	0.058215	0.134651	0.324097	0.391587
92	0.655818	0.297653	0.512346	0.399635	0.352597	0.218459	0.182944	0.147899	0.332226	0.241190	0.401502	0.484688	0.110015	0.108227	0.454427	0.320906	0.266358	0.178964	0.626263	0.576807	0.049648	0.070399	0.128419	0.187772	0.218818	0.272738	0.649593	0.685272	0.241767	0.127484	0.177639	0.105078	0.372542	0.321178	0.324064	0.924651	0.073449	0.163889	0.215488	0.254507	0.309486	0.130362	1.134607	1.250130	0.051136	0.169428	0.046088	0.197185	0.234040	0.155179	0.418821	0.525962	0.047011	0.121974	0.079777	0.105689	0.508336	0.356764	0.835476	0.987079	0.112253	0.079666	0.153471	0.150889	0.483900	0.197903	0.411772	0.707413	0.057995	0.096387	0.156221	0.153574	0.391656	0.237017	0.574173	0.810580	0.058932	0.128750	0.316135	0.408198
93	0.679128	0.347561	0.488062	0.421514	0.297271	0.207984	0.177987	0.139714	0.327775	0.255960	0.420841	0.515030	0.101115	0.109968	0.454707	0.323927	0.307117	0.186317	0.595348	0.546151	0.049132	0.074129	0.140041	0.209444	0.225315	0.278481	0.643898	0.690842	0.292603	0.140541	0.175866	0.104448	0.354208	0.307940	0.329035	0.866683	0.075274	0.140366	0.292234	0.308060	0.315995	0.131034	1.137074	1.268190	0.048974	0.164085	0.027320	0.180123	0.265348	0.164127	0.431559	0.514736	0.059008	0.133624	0.076423	0.092924	0.519369	0.357132	0.835260	0.976815	0.118529	0.076598	0.133700	0.150994	0.467943	0.196703	0.449089	0.732712	0.057610	0.079137	0.136883	0.146509	0.400703	0.243616	0.583124	0.855427	0.059975	0.125826	0.318494	0.407411
94	0.788580	0.456785	0.550750	0.474587	0.267160	0.171698	0.165917	0.127825	0.330757	0.268715	0.417915	0.542524	0.090944	0.108257	0.455116	0.322965	0.355935	0.195112	0.566503	0.504043	0.050502	0.064993	0.139975	0.221887	0.237867	0.283663	0.656352	0.703558	0.304463	0.141829	0.175026	0.101626	0.281082	0.267878	0.329456	0.767758	0.073768	0.135983	0.296407	0.315556	0.316952	0.140224	1.136218	1.270958	0.044467	0.139031	0.025751	0.154840	0.282212	0.174348	0.523847	0.502411	0.079823	0.127824	0.066449	0.093999	0.634629	0.381929	0.804988	0.944075	0.130812	0.075551	0.113940	0.149256	0.442572	0.191388	0.477128	0.743488	0.059681	0.078867	0.135361	0.134235	0.402025	0.242389	0.581450	0.880882	0.056398	0.099567	0.325860	0.402506
95	0.865369	0.496911	0.636136	0.508064	0.229115	0.125579	0.158045	0.123049	0.374275	0.290102	0.418578	0.548663	0.078904	0.107453	0.458910	0.322417	0.395964	0.201428	0.556276	0.496155	0.051028	0.058265	0.140677	0.226747	0.241125	0.282700	0.660193	0.673786	0.331830	0.159151	0.174424	0.101750	0.176257	0.195837	0.327937	0.707967	0.058416	0.080978	0.365527	0.315914	0.321483	0.151623	1.135523	1.271110	0.037102	0.115931	0.032700	0.139304	0.283791	0.173249	0.674079	0.505766	0.084124	0.190577	0.064861	0.098830	0.672120	0.391347	0.665311	0.845235	0.135434	0.069007	0.112668	0.140197	0.409000	0.183657	0.489631	0.747359	0.059643	0.078889	0.143491	0.130701	0.406275	0.242515	0.600982	0.894445	0.052981	0.054850	0.314550	0.401674
96	0.907796	0.504342	0.662677	0.515697	0.206108	0.099183	0.138317	0.121628	0.450584	0.316615	0.427333	0.541068	0.072379	0.108056	0.457685	0.310329	0.404999	0.202663	0.417881	0.494756	0.053018	0.059150	0.140605	0.227958	0.246487	0.282561	0.647233	0.653027	0.397447	0.182669	0.145591	0.101415	0.156268	0.132703	0.313052	0.692389	0.056035	0.064836	0.472777	0.315651	0.322615	0.158268	1.135148	1.270706	0.032885	0.108164	0.036769	0.132006	0.310877	0.182804	0.727918	0.527171	0.093191	0.257991	0.066555	0.102580	0.665436	0.381121	0.563321	0.715216	0.137563	0.062378	0.088470	0.133053	0.396568	0.182401	0.464528	0.728657	0.056908	0.078009	0.137100	0.136790	0.409754	0.242263	0.605831	0.897440	0.052935	0.048207	0.296946	0.413993
97	0.906101	0.500938	0.655324	0.488896	0.214758	0.096634	0.140068	0.125861	0.489889	0.330798	0.461482	0.532433	0.088977	0.114163	0.438322	0.257210	0.517996	0.235728	0.230671	0.483618	0.056175	0.062236	0.141259	0.228532	0.258589	0.287538	0.595668	0.610452	0.410587	0.189137	0.131394	0.104358	0.150091	0.104320	0.254136	0.684005	0.056856	0.068211	0.532676	0.314303	0.320299	0.160466	1.132232	1.253879	0.022357	0.031575	0.036782	0.126034	0.339628	0.196084	0.730807	0.537588	0.105264	0.260290	0.119660	0.099827	0.660935	0.374058	0.532456	0.666788	0.137799	0.062192	0.062570	0.131690	0.353567	0.169964	0.431394	0.686714	0.051088	0.070456	0.131331	0.127196	0.414981	0.241644	0.604740	0.892228	0.051953	0.078578	0.295593	0.425563
98	0.907222	0.497503	0.667706	0.461711	0.215302	0.096335	0.133587	0.115861	0.496465	0.327594	0.419457	0.509811	0.134984	0.122726	0.422090	0.232609	0.585942	0.276578	0.214891	0.456432	0.054365	0.063258	0.140128	0.233895	0.308039	0.295057	0.560182	0.567706	0.419207	0.191088	0.132442	0.109209	0.150877	0.105354	0.175497	0.611358	0.063139	0.080303	0.535571	0.324187	0.321664	0.163320	1.009716	1.158568	0.020910	0.014847	0.038409	0.125853	0.350340	0.201754	0.731465	0.526394	0.108055	0.260434	0.139589	0.093385	0.658969	0.368993	0.564671	0.666730	0.135365	0.064479	0.058650	0.132448	0.262026	0.140200	0.430056	0.647660	0.045238	0.062108	0.130370	0.120373	0.410097	0.229694	0.604354	0.838784	0.049283	0.108545	0.292223	0.428770
99	0.908528	0.496756	0.748644	0.490438	0.215034	0.089946	0.134440	0.094600	0.485573	0.313009	0.454477	0.495448	0.187077	0.127852	0.401850	0.233585	0.596365	0.285505	0.204207	0.413096	0.052355	0.064577	0.138141	0.222340	0.300535	0.276040	0.538099	0.557684	0.421307	0.188696	0.123432	0.119813	0.153023	0.109302	0.172003	0.474872	0.066857	0.109719	0.542266	0.344352	0.318261	0.164119	0.725152	0.992131	0.022999	0.019024	0.039190	0.132747	0.342631	0.200192	0.765443	0.507704	0.108833	0.260543	0.138447	0.087124	0.660804	0.367890	0.589273	0.671493	0.133594	0.066693	0.042023	0.129271	0.213197	0.124964	0.420194	0.615894	0.039362	0.052136	0.134773	0.119856	0.324569	0.195297	0.546477	0.698820	0.049726	0.110703	0.275789	0.419600
100	0.908436	0.497324	0.850600	0.554038	0.212240	0.079025	0.129421	0.085296	0.461202	0.297100	0.482832	0.512174	0.228071	0.125837	0.399450	0.238010	0.595977	0.283735	0.199843	0.375516	0.048701	0.064826	0.136850	0.195143	0.294441	0.253511	0.534130	0.551951	0.419133	0.184085	0.114887	0.118238	0.153427	0.108673	0.167433	0.307104	0.067214	0.112715	0.550419	0.358796	0.318348	0.162203	0.668854	0.899369	0.023989	0.020122	0.039637	0.138289	0.340989	0.201261	0.783066	0.473090	0.108758	0.260538	0.139208	0.080105	0.660817	0.368032	0.553754	0.653973	0.133544	0.066017	0.035427	0.116478	0.201761	0.121523	0.409534	0.563453	0.037307	0.038114	0.141045	0.123974	0.312038	0.197807	0.441678	0.635105	0.055947	0.118352	0.241000	0.401883
101	0.906976	0.497792	0.898770	0.609659	0.208573	0.069590	0.134463	0.149558	0.445916	0.290681	0.485593	0.551349	0.237957	0.122944	0.362728	0.225724	0.595847	0.282997	0.206962	0.351501	0.043839	0.064797	0.131937	0.184577	0.294461	0.251824	0.537948	0.551196	0.406421	0.175515	0.098612	0.104262	0.153861	0.101212	0.170334	0.178755	0.076169	0.118681	0.551943	0.365528	0.314158	0.153843	0.540239	0.894574	0.025437	0.022767	0.046921	0.140820	0.359496	0.207819	0.770166	0.438840	0.108487	0.260533	0.141448	0.074395	0.661101	0.369057	0.481239	0.611552	0.132351	0.061926	0.034724	0.095686	0.179062	0.113420	0.334341	0.536127	0.037238	0.036508	0.145427	0.126278	0.334537	0.223272	0.430890	0.622788	0.063205	0.147077	0.217545	0.385963
