	307_At_T1_sh_ND_01.c3d	307_At_T1_sh_ND_01.c3d	307_At_T1_sh_ND_01.c3d	307_At_T1_sh_ND_01.c3d	307_At_T1_sh_ND_01.c3d	307_At_T1_sh_ND_01.c3d	307_At_T1_sh_ND_01.c3d	307_At_T1_sh_ND_01.c3d	307_At_T1_sh_ND_02.c3d	307_At_T1_sh_ND_02.c3d	307_At_T1_sh_ND_02.c3d	307_At_T1_sh_ND_02.c3d	307_At_T1_sh_ND_02.c3d	307_At_T1_sh_ND_02.c3d	307_At_T1_sh_ND_02.c3d	307_At_T1_sh_ND_02.c3d	307_At_T1_sh_ND_03.c3d	307_At_T1_sh_ND_03.c3d	307_At_T1_sh_ND_03.c3d	307_At_T1_sh_ND_03.c3d	307_At_T1_sh_ND_03.c3d	307_At_T1_sh_ND_03.c3d	307_At_T1_sh_ND_03.c3d	307_At_T1_sh_ND_03.c3d	307_At_T1_sh_ND_04.c3d	307_At_T1_sh_ND_04.c3d	307_At_T1_sh_ND_04.c3d	307_At_T1_sh_ND_04.c3d	307_At_T1_sh_ND_04.c3d	307_At_T1_sh_ND_04.c3d	307_At_T1_sh_ND_04.c3d	307_At_T1_sh_ND_04.c3d	307_At_T1_sh_ND_05.c3d	307_At_T1_sh_ND_05.c3d	307_At_T1_sh_ND_05.c3d	307_At_T1_sh_ND_05.c3d	307_At_T1_sh_ND_05.c3d	307_At_T1_sh_ND_05.c3d	307_At_T1_sh_ND_05.c3d	307_At_T1_sh_ND_05.c3d	307_At_T1_sh_ND_06.c3d	307_At_T1_sh_ND_06.c3d	307_At_T1_sh_ND_06.c3d	307_At_T1_sh_ND_06.c3d	307_At_T1_sh_ND_06.c3d	307_At_T1_sh_ND_06.c3d	307_At_T1_sh_ND_06.c3d	307_At_T1_sh_ND_06.c3d	307_At_T1_sh_ND_07.c3d	307_At_T1_sh_ND_07.c3d	307_At_T1_sh_ND_07.c3d	307_At_T1_sh_ND_07.c3d	307_At_T1_sh_ND_07.c3d	307_At_T1_sh_ND_07.c3d	307_At_T1_sh_ND_07.c3d	307_At_T1_sh_ND_07.c3d	307_At_T1_sh_ND_08.c3d	307_At_T1_sh_ND_08.c3d	307_At_T1_sh_ND_08.c3d	307_At_T1_sh_ND_08.c3d	307_At_T1_sh_ND_08.c3d	307_At_T1_sh_ND_08.c3d	307_At_T1_sh_ND_08.c3d	307_At_T1_sh_ND_08.c3d	307_At_T1_sh_ND_09.c3d	307_At_T1_sh_ND_09.c3d	307_At_T1_sh_ND_09.c3d	307_At_T1_sh_ND_09.c3d	307_At_T1_sh_ND_09.c3d	307_At_T1_sh_ND_09.c3d	307_At_T1_sh_ND_09.c3d	307_At_T1_sh_ND_09.c3d	307_At_T1_sh_ND_10.c3d	307_At_T1_sh_ND_10.c3d	307_At_T1_sh_ND_10.c3d	307_At_T1_sh_ND_10.c3d	307_At_T1_sh_ND_10.c3d	307_At_T1_sh_ND_10.c3d	307_At_T1_sh_ND_10.c3d	307_At_T1_sh_ND_10.c3d
	Biceps femoris_lat	Semitendinosus_lat	Vastus lateralis_lat	Vastus medialis_lat	Biceps femoris_med	Semitendinosus_med	Vastus lateralis_med	Vastus medialis_med	Biceps femoris_lat	Semitendinosus_lat	Vastus lateralis_lat	Vastus medialis_lat	Biceps femoris_med	Semitendinosus_med	Vastus lateralis_med	Vastus medialis_med	Biceps femoris_lat	Semitendinosus_lat	Vastus lateralis_lat	Vastus medialis_lat	Biceps femoris_med	Semitendinosus_med	Vastus lateralis_med	Vastus medialis_med	Biceps femoris_lat	Semitendinosus_lat	Vastus lateralis_lat	Vastus medialis_lat	Biceps femoris_med	Semitendinosus_med	Vastus lateralis_med	Vastus medialis_med	Biceps femoris_lat	Semitendinosus_lat	Vastus lateralis_lat	Vastus medialis_lat	Biceps femoris_med	Semitendinosus_med	Vastus lateralis_med	Vastus medialis_med	Biceps femoris_lat	Semitendinosus_lat	Vastus lateralis_lat	Vastus medialis_lat	Biceps femoris_med	Semitendinosus_med	Vastus lateralis_med	Vastus medialis_med	Biceps femoris_lat	Semitendinosus_lat	Vastus lateralis_lat	Vastus medialis_lat	Biceps femoris_med	Semitendinosus_med	Vastus lateralis_med	Vastus medialis_med	Biceps femoris_lat	Semitendinosus_lat	Vastus lateralis_lat	Vastus medialis_lat	Biceps femoris_med	Semitendinosus_med	Vastus lateralis_med	Vastus medialis_med	Biceps femoris_lat	Semitendinosus_lat	Vastus lateralis_lat	Vastus medialis_lat	Biceps femoris_med	Semitendinosus_med	Vastus lateralis_med	Vastus medialis_med	Biceps femoris_lat	Semitendinosus_lat	Vastus lateralis_lat	Vastus medialis_lat	Biceps femoris_med	Semitendinosus_med	Vastus lateralis_med	Vastus medialis_med
	P2D	P2D	P2D	P2D	P2D	P2D	P2D	P2D	P2D	P2D	P2D	P2D	P2D	P2D	P2D	P2D	P2D	P2D	P2D	P2D	P2D	P2D	P2D	P2D	P2D	P2D	P2D	P2D	P2D	P2D	P2D	P2D	P2D	P2D	P2D	P2D	P2D	P2D	P2D	P2D	P2D	P2D	P2D	P2D	P2D	P2D	P2D	P2D	P2D	P2D	P2D	P2D	P2D	P2D	P2D	P2D	P2D	P2D	P2D	P2D	P2D	P2D	P2D	P2D	P2D	P2D	P2D	P2D	P2D	P2D	P2D	P2D	P2D	P2D	P2D	P2D	P2D	P2D	P2D	P2D
	EMG_lat	EMG_lat	EMG_lat	EMG_lat	EMG_med	EMG_med	EMG_med	EMG_med	EMG_lat	EMG_lat	EMG_lat	EMG_lat	EMG_med	EMG_med	EMG_med	EMG_med	EMG_lat	EMG_lat	EMG_lat	EMG_lat	EMG_med	EMG_med	EMG_med	EMG_med	EMG_lat	EMG_lat	EMG_lat	EMG_lat	EMG_med	EMG_med	EMG_med	EMG_med	EMG_lat	EMG_lat	EMG_lat	EMG_lat	EMG_med	EMG_med	EMG_med	EMG_med	EMG_lat	EMG_lat	EMG_lat	EMG_lat	EMG_med	EMG_med	EMG_med	EMG_med	EMG_lat	EMG_lat	EMG_lat	EMG_lat	EMG_med	EMG_med	EMG_med	EMG_med	EMG_lat	EMG_lat	EMG_lat	EMG_lat	EMG_med	EMG_med	EMG_med	EMG_med	EMG_lat	EMG_lat	EMG_lat	EMG_lat	EMG_med	EMG_med	EMG_med	EMG_med	EMG_lat	EMG_lat	EMG_lat	EMG_lat	EMG_med	EMG_med	EMG_med	EMG_med
ITEM	Y	Y	Y	Y	Y	Y	Y	Y	Y	Y	Y	Y	Y	Y	Y	Y	Y	Y	Y	Y	Y	Y	Y	Y	Y	Y	Y	Y	Y	Y	Y	Y	Y	Y	Y	Y	Y	Y	Y	Y	Y	Y	Y	Y	Y	Y	Y	Y	Y	Y	Y	Y	Y	Y	Y	Y	Y	Y	Y	Y	Y	Y	Y	Y	Y	Y	Y	Y	Y	Y	Y	Y	Y	Y	Y	Y	Y	Y	Y	Y
1	0.236518	0.462404	0.365891	0.311411	0.164689	0.323365	0.426106	0.230364	0.409070	0.573425	0.192466	0.214559	0.132380	0.259085	0.290958	0.177013	0.336725	0.488011	0.159168	0.211166	0.234748	0.263129	0.188114	0.103904	0.196110	0.295209	0.200571	0.212044	0.177117	0.257986	0.159356	0.148761	0.109056	0.128737	0.317071	0.339532	0.203793	0.361594	0.188550	0.069570	0.140202	0.223577	0.183519	0.253809	0.102827	0.182167	0.223735	0.073276	0.152525	0.202043	0.148967	0.162688	0.090559	0.210082	0.161269	0.101554	0.310318	0.262606	0.169721	0.194620	0.076483	0.148998	0.282614	0.209343	0.070571	0.185125	0.121836	0.174019	0.156834	0.196158	0.184060	0.081018	0.431331	0.172211	0.227037	0.169654	0.055194	0.095334	0.188050	0.165796
2	0.207929	0.430282	0.356136	0.297409	0.154868	0.294926	0.454895	0.223309	0.337902	0.481399	0.166866	0.152969	0.132103	0.263847	0.248819	0.163073	0.312821	0.473081	0.157851	0.163169	0.191369	0.266680	0.196646	0.105746	0.147228	0.214055	0.204319	0.223753	0.187434	0.358274	0.171813	0.148244	0.114345	0.137252	0.319382	0.344814	0.267911	0.346311	0.134683	0.064193	0.139458	0.217584	0.189885	0.302619	0.082209	0.169513	0.229758	0.073672	0.145487	0.155778	0.145412	0.161984	0.104677	0.263431	0.162367	0.096133	0.268712	0.259536	0.189599	0.249479	0.095471	0.166006	0.288041	0.212295	0.069580	0.182114	0.141298	0.188098	0.157874	0.204909	0.175228	0.078669	0.476092	0.168327	0.235022	0.179898	0.055256	0.095673	0.205137	0.146034
3	0.180879	0.360156	0.370323	0.294689	0.120643	0.225649	0.468563	0.226023	0.324279	0.445546	0.111196	0.131534	0.129938	0.267000	0.225510	0.155066	0.268088	0.441330	0.156242	0.121984	0.195409	0.259057	0.187399	0.103323	0.121175	0.184957	0.211123	0.247155	0.191628	0.409102	0.209166	0.158581	0.111235	0.128118	0.300784	0.337919	0.305233	0.375089	0.151024	0.065546	0.139547	0.208860	0.191450	0.318984	0.061003	0.143047	0.206773	0.070560	0.145164	0.131917	0.141116	0.147754	0.110355	0.304638	0.159113	0.079663	0.227873	0.257622	0.234463	0.303926	0.103393	0.168529	0.305193	0.206389	0.068160	0.187417	0.175275	0.226097	0.156670	0.202337	0.161523	0.071814	0.502214	0.161043	0.247330	0.183774	0.053550	0.094907	0.222329	0.155957
4	0.140684	0.310676	0.388779	0.297707	0.110193	0.198876	0.474439	0.228475	0.271928	0.417274	0.102417	0.130374	0.114766	0.266881	0.222204	0.155274	0.215978	0.390720	0.149985	0.107698	0.220512	0.248614	0.186661	0.103103	0.122904	0.183619	0.217770	0.270246	0.192615	0.414063	0.212917	0.172628	0.106929	0.118490	0.286785	0.335283	0.326832	0.420291	0.177110	0.066300	0.141829	0.205339	0.193392	0.320919	0.058699	0.147588	0.166768	0.069892	0.144130	0.135014	0.128167	0.118921	0.111429	0.314208	0.162464	0.076258	0.224588	0.272584	0.382079	0.348871	0.104282	0.166049	0.283738	0.190959	0.063075	0.187314	0.178621	0.233494	0.149111	0.203504	0.143696	0.072197	0.504632	0.156258	0.252223	0.184870	0.051685	0.095550	0.221967	0.177643
5	0.128930	0.290119	0.379598	0.286664	0.116642	0.230279	0.475873	0.228706	0.211911	0.322599	0.093828	0.130159	0.107172	0.249344	0.229608	0.144532	0.206119	0.354144	0.150230	0.103144	0.279811	0.247373	0.191078	0.098344	0.121413	0.179501	0.219121	0.283885	0.208098	0.448632	0.208410	0.176290	0.107017	0.116833	0.286567	0.336509	0.325463	0.426537	0.180804	0.057958	0.146399	0.213297	0.187221	0.324518	0.067726	0.154194	0.141880	0.072396	0.129308	0.160383	0.101394	0.105718	0.111855	0.314462	0.151907	0.075191	0.229610	0.296928	0.427740	0.370020	0.104556	0.165968	0.260311	0.188873	0.058733	0.178879	0.213960	0.235827	0.139650	0.203000	0.142376	0.072113	0.510161	0.163077	0.243569	0.181314	0.054160	0.099620	0.210301	0.176579
6	0.129242	0.289717	0.349192	0.271827	0.117068	0.228286	0.475906	0.228153	0.164113	0.217622	0.091760	0.131336	0.092367	0.191679	0.224917	0.121779	0.193585	0.351813	0.145670	0.088198	0.437754	0.268013	0.186304	0.073248	0.122716	0.179249	0.212548	0.296324	0.224102	0.520853	0.206943	0.157380	0.106599	0.123191	0.285000	0.330652	0.346142	0.423414	0.195451	0.058974	0.154722	0.224304	0.185851	0.324993	0.066644	0.159305	0.136192	0.095552	0.104202	0.163952	0.081146	0.160027	0.111673	0.318054	0.126158	0.073023	0.221457	0.301329	0.436022	0.369849	0.107183	0.173089	0.259454	0.240593	0.054702	0.165511	0.271556	0.246360	0.120617	0.184473	0.135796	0.071374	0.506792	0.170790	0.215318	0.174155	0.059766	0.115373	0.196554	0.175528
7	0.125305	0.288191	0.321749	0.254540	0.118282	0.217180	0.475415	0.192568	0.138173	0.172790	0.089301	0.145533	0.103255	0.223802	0.189558	0.119397	0.182715	0.353581	0.137857	0.102675	0.559939	0.281831	0.192784	0.071659	0.141717	0.186394	0.204264	0.300184	0.221559	0.565900	0.245223	0.154114	0.124728	0.142964	0.263063	0.324621	0.409247	0.416736	0.195129	0.083602	0.155170	0.226212	0.229794	0.330286	0.063867	0.162848	0.135950	0.103374	0.091824	0.154518	0.238654	0.245075	0.115105	0.336619	0.115754	0.071541	0.217810	0.304892	0.475725	0.364724	0.109609	0.175324	0.250401	0.287999	0.054348	0.154810	0.296942	0.262127	0.101599	0.153750	0.139808	0.068109	0.503545	0.172301	0.180899	0.172414	0.063816	0.112471	0.193502	0.184566
8	0.119025	0.274805	0.310031	0.249854	0.126402	0.223933	0.433736	0.131669	0.103684	0.145691	0.080151	0.156496	0.131261	0.286742	0.172794	0.129219	0.178763	0.330988	0.138347	0.109860	0.608135	0.250822	0.193277	0.073462	0.182374	0.187057	0.209907	0.300447	0.214670	0.572375	0.278436	0.148081	0.261124	0.196936	0.230759	0.322517	0.439823	0.410945	0.197479	0.109736	0.154999	0.217968	0.241013	0.342399	0.063826	0.162792	0.143403	0.108489	0.093177	0.158407	0.379555	0.265689	0.120962	0.347391	0.121615	0.073120	0.218034	0.306837	0.480539	0.366564	0.109775	0.169183	0.241719	0.315230	0.060899	0.157581	0.299710	0.284698	0.093512	0.138908	0.158230	0.045909	0.498848	0.173445	0.168581	0.172417	0.065486	0.129535	0.196217	0.197385
9	0.100965	0.226451	0.310164	0.295895	0.140679	0.244325	0.345577	0.114637	0.086366	0.135362	0.063180	0.156101	0.140479	0.296036	0.181176	0.127974	0.144775	0.271388	0.124908	0.111127	0.626441	0.246541	0.178513	0.068714	0.231297	0.187774	0.212213	0.303877	0.218341	0.568818	0.276988	0.134654	0.415861	0.254283	0.207437	0.317098	0.437656	0.417898	0.209770	0.112956	0.156979	0.200350	0.245171	0.356323	0.063137	0.155392	0.147512	0.110215	0.097382	0.169450	0.411844	0.270861	0.118566	0.336441	0.132054	0.091100	0.214922	0.304112	0.478984	0.398832	0.109914	0.167687	0.221948	0.320438	0.062796	0.156268	0.297189	0.295218	0.108722	0.141709	0.168106	0.042076	0.498067	0.177714	0.173740	0.174095	0.077677	0.172121	0.199344	0.206698
10	0.078782	0.154135	0.302789	0.388111	0.147467	0.257872	0.316882	0.128653	0.088379	0.135361	0.056696	0.155823	0.138320	0.288927	0.178616	0.115522	0.114704	0.178340	0.107543	0.111463	0.697877	0.267571	0.183931	0.060916	0.274976	0.203738	0.214404	0.305560	0.214511	0.552319	0.276649	0.137245	0.570357	0.310372	0.192658	0.316482	0.439611	0.373662	0.202172	0.120704	0.150663	0.177977	0.272970	0.369734	0.058448	0.136231	0.154600	0.112357	0.100537	0.185896	0.417264	0.271106	0.119109	0.337118	0.135325	0.098685	0.210147	0.290484	0.487881	0.451683	0.111975	0.169236	0.196908	0.311716	0.066175	0.148430	0.291529	0.302725	0.188346	0.143512	0.166956	0.049566	0.498613	0.180898	0.178066	0.174933	0.082114	0.178943	0.194328	0.214481
11	0.092058	0.126600	0.260672	0.382377	0.147734	0.262256	0.315188	0.131381	0.092500	0.146207	0.076705	0.158890	0.134687	0.282046	0.171295	0.110523	0.109729	0.128729	0.089735	0.112687	0.826885	0.284512	0.168562	0.070632	0.307917	0.226666	0.223374	0.301568	0.177840	0.494695	0.275383	0.147439	0.695775	0.356395	0.190107	0.283535	0.432860	0.369677	0.191592	0.141566	0.143312	0.154697	0.296833	0.378845	0.055895	0.126794	0.137556	0.150942	0.098904	0.202217	0.449303	0.271275	0.119364	0.340157	0.138565	0.099057	0.202904	0.270970	0.509848	0.500395	0.115626	0.171142	0.198268	0.314104	0.071487	0.137297	0.290266	0.306801	0.209762	0.143059	0.173631	0.075629	0.498780	0.181449	0.190705	0.211519	0.084553	0.223645	0.181229	0.215168
12	0.104971	0.123050	0.218431	0.377228	0.146966	0.261962	0.272397	0.119738	0.091637	0.176709	0.106603	0.151290	0.127399	0.270143	0.163895	0.115610	0.119466	0.131863	0.070506	0.116182	0.862912	0.265358	0.185550	0.095408	0.310820	0.235712	0.240198	0.324111	0.206134	0.429059	0.259963	0.144502	0.765227	0.375939	0.175234	0.205531	0.398212	0.364117	0.192996	0.157460	0.142145	0.139516	0.304824	0.384359	0.057038	0.122028	0.134396	0.189098	0.099007	0.207603	0.482789	0.281543	0.118191	0.341217	0.139722	0.102745	0.196757	0.258290	0.519730	0.525078	0.112100	0.157770	0.200823	0.332341	0.080483	0.124153	0.289946	0.307901	0.207203	0.122592	0.173327	0.081969	0.505816	0.190600	0.192041	0.244144	0.092121	0.253322	0.178399	0.210858
13	0.106447	0.096002	0.221830	0.414919	0.146412	0.267152	0.211594	0.109903	0.089114	0.194383	0.120461	0.133728	0.125309	0.269941	0.155520	0.129765	0.123223	0.138147	0.065212	0.122580	0.863425	0.264753	0.191276	0.096625	0.312325	0.236911	0.239032	0.330528	0.240712	0.412394	0.251062	0.127229	0.779233	0.381467	0.149450	0.182278	0.401218	0.330438	0.194730	0.164710	0.142341	0.129590	0.306429	0.385214	0.061059	0.123472	0.120016	0.202284	0.098936	0.208428	0.517057	0.313862	0.110501	0.322751	0.141135	0.106780	0.195506	0.253495	0.519540	0.532128	0.093618	0.125786	0.201265	0.356489	0.088909	0.121871	0.289728	0.307715	0.204764	0.117971	0.166653	0.081737	0.503045	0.200179	0.201239	0.248761	0.093889	0.253559	0.161519	0.205044
14	0.105457	0.073180	0.193409	0.458464	0.144542	0.291661	0.157506	0.100932	0.080719	0.186739	0.125083	0.125769	0.125346	0.269907	0.156279	0.153415	0.125862	0.139009	0.069143	0.125509	0.852413	0.265414	0.202674	0.105561	0.326078	0.251030	0.261563	0.331585	0.237252	0.392671	0.247901	0.114668	0.917305	0.414923	0.139659	0.179261	0.401211	0.241176	0.171596	0.164417	0.165338	0.125477	0.306561	0.385869	0.062345	0.123923	0.122398	0.203661	0.102452	0.208263	0.538011	0.352667	0.097286	0.280585	0.138776	0.172523	0.202499	0.261621	0.516945	0.522396	0.073570	0.098716	0.196169	0.368270	0.096643	0.126652	0.286272	0.304288	0.205678	0.097925	0.155631	0.084472	0.507563	0.214174	0.216438	0.252717	0.096806	0.253593	0.121417	0.193082
15	0.110620	0.066517	0.145995	0.484745	0.137045	0.295135	0.131891	0.096081	0.090574	0.204131	0.159096	0.133068	0.125234	0.264589	0.149837	0.160569	0.141587	0.138511	0.072019	0.124723	0.827426	0.265475	0.198688	0.118751	0.345136	0.275241	0.288773	0.329745	0.220932	0.322978	0.244393	0.123669	1.059810	0.438714	0.141812	0.166026	0.437899	0.230863	0.167115	0.175890	0.203605	0.126177	0.303835	0.372080	0.059146	0.101760	0.156715	0.206957	0.108444	0.207188	0.545608	0.387015	0.092012	0.237190	0.136138	0.227245	0.241910	0.285640	0.508142	0.493473	0.061589	0.091443	0.168394	0.371815	0.101152	0.130631	0.284123	0.298755	0.207354	0.106947	0.156308	0.108517	0.493963	0.232687	0.224523	0.266104	0.097060	0.253081	0.118164	0.170823
16	0.118414	0.066173	0.140973	0.488806	0.123972	0.268129	0.116667	0.099176	0.115430	0.237917	0.186861	0.312054	0.125880	0.269275	0.198580	0.193582	0.162179	0.141736	0.077447	0.123297	0.742251	0.240367	0.198373	0.138246	0.366258	0.294176	0.306957	0.331333	0.209866	0.186768	0.213868	0.130196	1.104520	0.441993	0.162272	0.172117	0.432279	0.229039	0.154325	0.270408	0.224391	0.127988	0.293783	0.331763	0.044900	0.076348	0.171012	0.210880	0.112552	0.203549	0.546073	0.409627	0.091095	0.220963	0.130425	0.235280	0.323547	0.331992	0.476707	0.459937	0.060622	0.091268	0.159929	0.371919	0.101359	0.128820	0.277771	0.296394	0.205361	0.114967	0.165609	0.114416	0.450580	0.233659	0.222428	0.277341	0.095655	0.252533	0.123635	0.162406
17	0.133417	0.071636	0.141606	0.486061	0.121509	0.250346	0.116037	0.101411	0.121478	0.255476	0.416333	0.480854	0.112692	0.227110	0.200171	0.191644	0.179682	0.161651	0.105560	0.168841	0.659590	0.226544	0.188755	0.143373	0.396298	0.307679	0.309649	0.342098	0.209644	0.115114	0.142175	0.130421	1.125635	0.448209	0.183105	0.180148	0.424816	0.252374	0.159219	0.381420	0.229190	0.129640	0.283808	0.281297	0.037403	0.058608	0.176383	0.200150	0.115854	0.183079	0.546085	0.416558	0.090631	0.220509	0.117237	0.258940	0.403355	0.368121	0.360930	0.429169	0.061399	0.087041	0.166810	0.369180	0.103686	0.121645	0.255041	0.284413	0.199949	0.139638	0.173041	0.115462	0.400977	0.231122	0.214874	0.284068	0.092851	0.246079	0.110927	0.161014
18	0.132983	0.084322	0.142203	0.484157	0.122206	0.248511	0.116485	0.102540	0.121731	0.257164	0.498511	0.490830	0.076973	0.136296	0.223233	0.194343	0.186489	0.167367	0.137848	0.260940	0.633353	0.221621	0.226423	0.149512	0.404100	0.310299	0.306601	0.362225	0.209438	0.105720	0.161153	0.178665	1.140604	0.465507	0.185213	0.174757	0.436218	0.267004	0.173323	0.386333	0.229811	0.130335	0.281632	0.264784	0.035421	0.067019	0.194511	0.192037	0.120634	0.170151	0.546018	0.399258	0.090348	0.217760	0.114835	0.312167	0.475456	0.397994	0.333990	0.414261	0.057145	0.065062	0.168172	0.341545	0.112754	0.115593	0.327253	0.386367	0.198578	0.164098	0.152957	0.120454	0.365992	0.234335	0.201398	0.289640	0.090077	0.242952	0.112791	0.148741
19	0.132396	0.090102	0.142294	0.483245	0.119130	0.248113	0.129159	0.111622	0.122149	0.257301	0.504814	0.489616	0.055236	0.105543	0.223313	0.216819	0.189516	0.163728	0.254910	0.320062	0.605564	0.180873	0.255037	0.215607	0.404444	0.310079	0.305720	0.374025	0.209758	0.135579	0.286461	0.195798	1.148725	0.485590	0.182203	0.172612	0.452612	0.250206	0.164344	0.412148	0.229546	0.129640	0.288203	0.306292	0.035121	0.083176	0.196970	0.189663	0.118598	0.171669	0.503321	0.349162	0.084314	0.184832	0.113325	0.352461	0.516076	0.417974	0.294976	0.413274	0.050267	0.051271	0.173756	0.302116	0.131234	0.120049	0.544512	0.611024	0.181023	0.169658	0.133352	0.124115	0.367823	0.238885	0.191760	0.293872	0.088671	0.243726	0.108448	0.128954
20	0.133211	0.088504	0.141217	0.473016	0.104373	0.227541	0.130016	0.120209	0.122884	0.258306	0.566881	0.509523	0.055807	0.108490	0.209284	0.238639	0.188317	0.161011	0.283608	0.338055	0.498233	0.136849	0.257432	0.238639	0.403144	0.310129	0.305682	0.380697	0.210485	0.138474	0.303306	0.186147	1.151107	0.494090	0.190387	0.181185	0.454757	0.238091	0.148666	0.470934	0.226927	0.119411	0.394939	0.431985	0.042001	0.101541	0.193706	0.188673	0.110059	0.162868	0.406241	0.329914	0.064484	0.119031	0.111619	0.372224	0.521064	0.418803	0.224075	0.414776	0.046876	0.061309	0.176260	0.271020	0.148685	0.125572	0.620293	0.701214	0.102337	0.206625	0.131045	0.120415	0.357576	0.236873	0.191445	0.295589	0.073941	0.247747	0.118214	0.109324
21	0.133561	0.085724	0.173720	0.447465	0.084597	0.201455	0.117847	0.127633	0.120780	0.256028	0.652079	0.601026	0.053392	0.122646	0.207578	0.244300	0.187320	0.162504	0.285526	0.345888	0.246526	0.119173	0.293350	0.235535	0.392332	0.307420	0.300147	0.387926	0.190289	0.189194	0.356111	0.216494	1.150309	0.491134	0.194693	0.193272	0.451973	0.238546	0.150830	0.509510	0.221147	0.093461	0.509220	0.531638	0.063713	0.146986	0.173108	0.191213	0.097171	0.143484	0.365465	0.327535	0.050213	0.098389	0.103558	0.372574	0.602267	0.437859	0.228435	0.413811	0.047988	0.095264	0.175585	0.260460	0.154295	0.129204	0.609053	0.703265	0.089008	0.229172	0.119063	0.107134	0.348507	0.232867	0.191020	0.295407	0.061999	0.258078	0.132422	0.091615
22	0.133627	0.093244	0.314146	0.525314	0.080058	0.190156	0.104297	0.143856	0.116864	0.238511	0.702292	0.682830	0.048776	0.120449	0.207575	0.241365	0.183275	0.164089	0.316200	0.347563	0.152810	0.147505	0.305917	0.237746	0.366175	0.299215	0.283312	0.381672	0.117349	0.194578	0.370023	0.271628	1.136410	0.477117	0.190535	0.206464	0.443861	0.230452	0.155825	0.516189	0.218815	0.073543	0.519216	0.555874	0.065127	0.148924	0.173415	0.167118	0.086677	0.118380	0.362669	0.335611	0.049613	0.099699	0.100873	0.371065	0.717641	0.509508	0.267139	0.413155	0.045760	0.107931	0.168229	0.259172	0.152694	0.127229	0.643720	0.700134	0.089411	0.242527	0.120515	0.105892	0.329632	0.231280	0.193265	0.306088	0.079213	0.295719	0.133379	0.142710
23	0.147036	0.139854	0.333076	0.558738	0.080583	0.192270	0.104031	0.147194	0.122353	0.214095	0.713383	0.721216	0.055854	0.129845	0.212180	0.234432	0.173401	0.162267	0.403511	0.374121	0.143009	0.186346	0.303523	0.242671	0.334652	0.285379	0.275448	0.380305	0.108873	0.232771	0.370915	0.304523	1.098678	0.453061	0.182678	0.206670	0.428853	0.213798	0.150733	0.513732	0.217865	0.066566	0.513257	0.549246	0.063982	0.148186	0.173862	0.136413	0.086275	0.086291	0.332115	0.352221	0.049950	0.097022	0.097679	0.371857	0.751451	0.565263	0.283894	0.426498	0.035729	0.105539	0.139969	0.240096	0.151807	0.132756	0.702505	0.715710	0.089377	0.243980	0.118468	0.113598	0.330861	0.231271	0.229779	0.347937	0.089170	0.316184	0.146216	0.266141
24	0.157643	0.175177	0.346684	0.537111	0.083408	0.207550	0.109964	0.150368	0.125871	0.206229	0.714864	0.736792	0.058741	0.139342	0.221001	0.219209	0.164190	0.156240	0.469851	0.427275	0.140962	0.240034	0.306221	0.239553	0.295520	0.265681	0.354798	0.437918	0.123852	0.268274	0.371431	0.307879	1.040421	0.421360	0.197920	0.227893	0.398576	0.193009	0.138866	0.513045	0.211318	0.065750	0.554961	0.538980	0.062501	0.148421	0.177285	0.124240	0.090119	0.069737	0.283116	0.358999	0.049048	0.093208	0.116386	0.379263	0.764124	0.592199	0.256449	0.451308	0.053258	0.116601	0.135703	0.208025	0.154434	0.146758	0.752581	0.755896	0.087775	0.241467	0.117443	0.106121	0.346088	0.228749	0.304269	0.415774	0.099736	0.350421	0.150672	0.316252
25	0.159293	0.187323	0.412933	0.503341	0.072173	0.191653	0.114535	0.163652	0.126727	0.201328	0.711070	0.739126	0.060513	0.137826	0.219532	0.215977	0.166028	0.150684	0.499538	0.471991	0.143721	0.242786	0.306667	0.231885	0.277655	0.253816	0.475783	0.542281	0.127572	0.269134	0.371566	0.302215	0.966299	0.384367	0.358383	0.383903	0.362653	0.180619	0.136426	0.512410	0.199237	0.062746	0.612003	0.534963	0.066399	0.148715	0.179283	0.129835	0.096279	0.071575	0.214508	0.344992	0.050557	0.093074	0.149316	0.400843	0.768000	0.601175	0.245544	0.445671	0.076899	0.119422	0.144191	0.175891	0.153633	0.145598	0.782893	0.804202	0.083941	0.231645	0.143879	0.081287	0.345304	0.225216	0.328323	0.456080	0.108285	0.418512	0.161453	0.320197
26	0.155709	0.189983	0.435707	0.509753	0.058194	0.167660	0.115846	0.184774	0.103182	0.159254	0.706663	0.725509	0.068257	0.139549	0.172490	0.185790	0.184761	0.158969	0.505649	0.496112	0.141678	0.242741	0.305544	0.222406	0.278947	0.251497	0.511840	0.610443	0.128298	0.293097	0.370994	0.302241	0.895315	0.356498	0.499006	0.558581	0.385646	0.188867	0.132255	0.486376	0.191937	0.060262	0.655097	0.546807	0.068209	0.148231	0.148218	0.123902	0.104240	0.117415	0.155615	0.317989	0.049555	0.089624	0.179358	0.403529	0.768962	0.605117	0.280814	0.436896	0.080982	0.119742	0.150106	0.234760	0.169030	0.147714	0.798072	0.833405	0.087228	0.230679	0.160977	0.076316	0.345969	0.225645	0.319879	0.448367	0.114192	0.432726	0.190110	0.343715
27	0.156233	0.191883	0.436634	0.555844	0.062640	0.199446	0.120349	0.189444	0.087579	0.110362	0.659008	0.613236	0.068585	0.141838	0.168000	0.178131	0.197098	0.171665	0.505424	0.509308	0.122112	0.239631	0.304803	0.219882	0.272256	0.250547	0.511594	0.624569	0.125581	0.303671	0.366927	0.289709	0.883514	0.353203	0.523598	0.635372	0.405703	0.169002	0.121440	0.398651	0.194564	0.061276	0.677579	0.570780	0.069230	0.148212	0.131380	0.120176	0.106732	0.139859	0.120574	0.275818	0.047888	0.085026	0.182949	0.381478	0.767119	0.602896	0.351972	0.446178	0.088561	0.131203	0.171675	0.303246	0.185479	0.155219	0.804282	0.844213	0.086926	0.227660	0.148591	0.082750	0.336183	0.222085	0.345258	0.426202	0.141578	0.505791	0.199750	0.392323
28	0.160780	0.206437	0.437155	0.590136	0.069191	0.208776	0.184700	0.187789	0.085954	0.097158	0.549472	0.564754	0.069928	0.153269	0.139818	0.168293	0.205448	0.183766	0.505327	0.514649	0.102571	0.247824	0.268013	0.211887	0.252203	0.252307	0.541020	0.626921	0.116316	0.294645	0.303493	0.263242	0.787238	0.321615	0.546652	0.643118	0.393939	0.136977	0.099925	0.372945	0.204781	0.072712	0.684837	0.593770	0.069168	0.148747	0.127837	0.133726	0.102867	0.142379	0.117735	0.245270	0.046263	0.086690	0.219613	0.375052	0.750601	0.587710	0.386924	0.455541	0.093518	0.146049	0.156751	0.313078	0.197715	0.162585	0.805968	0.848627	0.084274	0.211385	0.156842	0.078190	0.324451	0.211202	0.380798	0.432716	0.145933	0.534772	0.197235	0.432042
29	0.187232	0.224843	0.440077	0.603232	0.070373	0.224591	0.227797	0.185983	0.085683	0.099449	0.529468	0.565631	0.071525	0.154648	0.121439	0.133448	0.211628	0.176689	0.502330	0.511592	0.099510	0.283731	0.252174	0.136491	0.225052	0.252445	0.609163	0.644074	0.106024	0.290199	0.245864	0.263740	0.554289	0.273907	0.641545	0.652752	0.416707	0.128245	0.081248	0.360748	0.201045	0.078768	0.686937	0.612201	0.069232	0.141364	0.099522	0.151127	0.099975	0.147961	0.119826	0.239024	0.050006	0.086414	0.254403	0.366097	0.709067	0.556464	0.392104	0.460418	0.093497	0.159571	0.166977	0.318782	0.200471	0.165100	0.805969	0.850543	0.083149	0.200017	0.182802	0.080249	0.294398	0.188483	0.390808	0.450161	0.152559	0.536814	0.187598	0.447817
30	0.204867	0.243914	0.444368	0.606226	0.077267	0.275496	0.228463	0.183704	0.087141	0.098513	0.507287	0.567136	0.073382	0.157240	0.119086	0.084692	0.207253	0.159069	0.497324	0.478866	0.093247	0.301363	0.236914	0.118934	0.200752	0.236308	0.658779	0.669553	0.104577	0.275510	0.206579	0.263682	0.411880	0.260476	0.728606	0.688742	0.427603	0.136402	0.081970	0.294251	0.160979	0.075858	0.687396	0.627272	0.069213	0.133023	0.084525	0.167462	0.093154	0.145358	0.120132	0.246661	0.050495	0.082312	0.270010	0.331294	0.660126	0.519323	0.402558	0.468208	0.093451	0.182146	0.204658	0.342449	0.201369	0.168277	0.806007	0.851066	0.073705	0.156997	0.199438	0.104316	0.241540	0.145770	0.392624	0.461537	0.162890	0.538779	0.185003	0.451204
31	0.210610	0.259655	0.447276	0.605235	0.077940	0.280353	0.258172	0.177626	0.084539	0.101542	0.407246	0.514079	0.072981	0.146760	0.139105	0.154047	0.203194	0.149526	0.465243	0.431907	0.104851	0.342206	0.166363	0.131070	0.202331	0.227006	0.680483	0.689455	0.097909	0.254858	0.124673	0.238571	0.344844	0.250647	0.762215	0.747834	0.507187	0.178361	0.080411	0.189834	0.127688	0.074439	0.687417	0.637493	0.065130	0.118130	0.084676	0.179599	0.086892	0.142681	0.118370	0.256146	0.051024	0.078419	0.272327	0.294282	0.610028	0.479537	0.402775	0.483206	0.094470	0.184527	0.219730	0.364053	0.201818	0.172319	0.806354	0.848408	0.065505	0.133253	0.202565	0.126173	0.245974	0.134580	0.395348	0.468077	0.166205	0.523489	0.179316	0.451816
32	0.211014	0.264688	0.442509	0.589695	0.074268	0.276842	0.287115	0.172590	0.090289	0.127070	0.276092	0.379329	0.068731	0.147991	0.151303	0.220012	0.205117	0.141550	0.430416	0.403591	0.124953	0.393529	0.134639	0.140803	0.228574	0.227918	0.686440	0.695500	0.088918	0.240671	0.110541	0.177783	0.289102	0.224329	0.769366	0.806900	0.533128	0.189238	0.065613	0.136237	0.122231	0.075229	0.687596	0.642649	0.050806	0.061985	0.084291	0.177860	0.084969	0.141604	0.116242	0.261984	0.053420	0.082584	0.270278	0.269118	0.589092	0.458561	0.406017	0.494667	0.100811	0.187081	0.218673	0.382437	0.199199	0.175020	0.796761	0.822593	0.066576	0.104054	0.200766	0.133443	0.269663	0.152284	0.398721	0.474091	0.166541	0.510497	0.165918	0.451683
33	0.206435	0.266798	0.379267	0.533973	0.072912	0.275100	0.301108	0.149989	0.080964	0.122924	0.190576	0.260335	0.061381	0.141235	0.150858	0.223082	0.218805	0.137445	0.426432	0.395029	0.125063	0.368624	0.124934	0.149289	0.232747	0.226357	0.686788	0.695793	0.052995	0.190324	0.128431	0.159411	0.257115	0.191843	0.770384	0.840586	0.546185	0.191637	0.047495	0.132584	0.124187	0.075429	0.688079	0.641961	0.065259	0.063651	0.079529	0.172438	0.085709	0.142156	0.114552	0.259805	0.056367	0.082312	0.267974	0.260271	0.581187	0.457961	0.408191	0.493627	0.112748	0.186197	0.218056	0.391573	0.189450	0.172365	0.687973	0.694091	0.069794	0.105754	0.199567	0.129645	0.291321	0.162280	0.400829	0.478792	0.162875	0.496387	0.165103	0.444712
34	0.196559	0.275349	0.376635	0.499054	0.072976	0.274102	0.307570	0.135114	0.065891	0.118520	0.169849	0.174043	0.067133	0.145386	0.162060	0.230432	0.226955	0.135475	0.423715	0.394203	0.126898	0.342145	0.101328	0.150886	0.247182	0.219887	0.686793	0.692649	0.031041	0.165622	0.132289	0.173353	0.253187	0.176302	0.768204	0.851700	0.565429	0.192108	0.048966	0.140476	0.121877	0.074273	0.688133	0.628329	0.107883	0.073457	0.078291	0.160167	0.085174	0.142509	0.106547	0.249384	0.049488	0.073288	0.266895	0.258732	0.455270	0.424365	0.395769	0.479594	0.123881	0.180175	0.218881	0.395715	0.174581	0.167772	0.554618	0.559409	0.068851	0.111031	0.199291	0.239554	0.289878	0.160495	0.403105	0.481540	0.147894	0.440696	0.155880	0.388763
35	0.192527	0.271687	0.385071	0.494070	0.069416	0.267008	0.306187	0.134455	0.058448	0.115577	0.173365	0.141715	0.069595	0.145175	0.163478	0.237063	0.230771	0.136219	0.362317	0.385577	0.121166	0.341180	0.133339	0.215638	0.249865	0.208044	0.686906	0.691656	0.040894	0.140356	0.178138	0.183775	0.270396	0.184039	0.766353	0.851822	0.568990	0.188248	0.061953	0.148033	0.121137	0.073593	0.647916	0.560566	0.162436	0.079773	0.069871	0.160701	0.083826	0.140928	0.075009	0.225468	0.043796	0.060335	0.265412	0.258384	0.291675	0.329644	0.367377	0.439478	0.132293	0.179408	0.220249	0.398456	0.169319	0.164107	0.540612	0.533853	0.073231	0.107462	0.244323	0.426826	0.286701	0.159018	0.405077	0.483577	0.143654	0.425108	0.147815	0.336457
36	0.195921	0.271503	0.322625	0.497638	0.066003	0.257180	0.302885	0.121896	0.054094	0.124563	0.170772	0.137108	0.062216	0.135778	0.160327	0.273420	0.233022	0.140307	0.256877	0.333893	0.115475	0.340412	0.386344	0.398027	0.252915	0.194385	0.687488	0.691250	0.038966	0.083782	0.204307	0.184503	0.292802	0.191842	0.765461	0.848185	0.553494	0.177643	0.069216	0.163690	0.121135	0.073659	0.552118	0.457723	0.207036	0.082481	0.080047	0.205435	0.078096	0.139671	0.065350	0.209454	0.043017	0.059960	0.257107	0.246469	0.215727	0.239879	0.345264	0.367604	0.137203	0.174260	0.218773	0.396676	0.171697	0.163519	0.512309	0.531150	0.075664	0.104388	0.302467	0.453936	0.284836	0.156924	0.406557	0.484191	0.132890	0.358063	0.142313	0.344307
37	0.200260	0.273589	0.299063	0.487395	0.066392	0.251390	0.301705	0.091245	0.052578	0.128530	0.165048	0.163512	0.063712	0.130668	0.157278	0.301378	0.232550	0.142495	0.161252	0.258840	0.117503	0.339796	0.545404	0.517204	0.256590	0.184765	0.678922	0.680429	0.044210	0.064971	0.207263	0.222691	0.286106	0.187046	0.765034	0.846020	0.522913	0.169728	0.201981	0.199344	0.121229	0.073602	0.508730	0.412226	0.234756	0.083403	0.178534	0.249675	0.070550	0.138058	0.063936	0.190965	0.040787	0.058479	0.239918	0.210092	0.176089	0.180174	0.350661	0.309024	0.137648	0.174660	0.218068	0.387683	0.175522	0.164532	0.435418	0.504555	0.079062	0.092327	0.308797	0.454786	0.284018	0.155590	0.406531	0.480303	0.132257	0.336704	0.119615	0.364927
38	0.200344	0.273231	0.325287	0.447878	0.061869	0.229111	0.302393	0.043507	0.052198	0.130637	0.231873	0.454209	0.062572	0.119133	0.151781	0.305798	0.220948	0.135297	0.112180	0.186004	0.122622	0.331741	0.555840	0.547546	0.256018	0.179742	0.594438	0.611984	0.058177	0.068640	0.216735	0.272421	0.263474	0.179835	0.764293	0.846389	0.476408	0.164886	0.247780	0.200347	0.121365	0.073556	0.507971	0.413187	0.240024	0.084184	0.193222	0.258011	0.053768	0.105197	0.050847	0.172357	0.040674	0.057788	0.216908	0.155787	0.164922	0.154406	0.356755	0.311090	0.143210	0.175777	0.236937	0.350523	0.180326	0.167385	0.340622	0.459150	0.091511	0.100635	0.317386	0.456819	0.276627	0.155221	0.395471	0.459944	0.107194	0.235654	0.233993	0.347159
39	0.191393	0.265867	0.329386	0.404683	0.049457	0.202423	0.308567	0.078092	0.052626	0.133194	0.424405	0.622709	0.060539	0.118263	0.160892	0.326989	0.206303	0.120588	0.104743	0.134356	0.137539	0.297550	0.651728	0.565858	0.255121	0.176825	0.525088	0.512414	0.061889	0.068633	0.224680	0.268654	0.233844	0.173662	0.740900	0.818571	0.423777	0.165420	0.254245	0.193417	0.121394	0.074406	0.473970	0.418503	0.280690	0.111649	0.237059	0.298196	0.038068	0.065389	0.051265	0.183131	0.042642	0.056010	0.214176	0.134940	0.162500	0.138105	0.315804	0.311864	0.142626	0.168603	0.234446	0.312685	0.185563	0.172969	0.256301	0.395369	0.092088	0.101948	0.305487	0.463044	0.253303	0.154224	0.348234	0.406477	0.096437	0.097626	0.253697	0.295059
40	0.168817	0.248842	0.331855	0.397796	0.049374	0.199591	0.344286	0.172910	0.069180	0.148396	0.450467	0.638909	0.057268	0.114610	0.249192	0.434672	0.182587	0.100550	0.104484	0.093958	0.150680	0.284529	0.751057	0.632812	0.252378	0.175879	0.513654	0.460913	0.070557	0.071913	0.221933	0.269259	0.231784	0.172755	0.703929	0.736776	0.394505	0.164624	0.303621	0.187170	0.122261	0.077842	0.387304	0.415214	0.390613	0.152229	0.262750	0.330707	0.056104	0.061035	0.074959	0.180815	0.044254	0.051105	0.198130	0.156687	0.153025	0.127175	0.235356	0.300457	0.144323	0.156731	0.240568	0.317465	0.178053	0.175049	0.196812	0.323402	0.091688	0.104576	0.318760	0.481375	0.251419	0.154502	0.305248	0.348599	0.091461	0.086639	0.279176	0.262264
41	0.143391	0.226603	0.529240	0.600646	0.051544	0.136593	0.356881	0.181112	0.121549	0.211050	0.448814	0.639630	0.057717	0.114191	0.305736	0.465254	0.152959	0.081558	0.102273	0.104338	0.133483	0.195546	0.781622	0.682911	0.250190	0.153590	0.515583	0.457352	0.081690	0.074127	0.221455	0.280567	0.233788	0.173706	0.730765	0.672727	0.314441	0.116236	0.342602	0.185746	0.122828	0.082856	0.274107	0.389608	0.425330	0.161079	0.270050	0.325789	0.070312	0.043381	0.274290	0.268066	0.041135	0.060015	0.253435	0.240398	0.154149	0.126000	0.258856	0.419022	0.173742	0.147661	0.231497	0.320254	0.159126	0.167522	0.158775	0.285179	0.100019	0.110421	0.335961	0.499542	0.251178	0.154193	0.299047	0.330506	0.077125	0.064118	0.314689	0.259192
42	0.132672	0.205976	0.792714	0.786440	0.055157	0.058782	0.357744	0.191690	0.172374	0.257959	0.450736	0.657576	0.062769	0.115319	0.310108	0.438698	0.136224	0.077985	0.211477	0.292664	0.132296	0.106774	0.782634	0.702667	0.248004	0.090649	0.444375	0.443973	0.092155	0.076381	0.213657	0.304369	0.236101	0.175184	0.744703	0.661304	0.235922	0.074890	0.369848	0.212029	0.115423	0.087127	0.177877	0.343809	0.431084	0.160476	0.319863	0.342565	0.077594	0.039099	0.547786	0.458350	0.043703	0.066764	0.277393	0.308702	0.161343	0.125410	0.446338	0.618081	0.189012	0.123711	0.228397	0.297239	0.141310	0.159893	0.183489	0.280564	0.100854	0.112596	0.339137	0.519675	0.269139	0.153533	0.277910	0.331028	0.063549	0.059768	0.325412	0.270042
43	0.128544	0.195877	0.823392	0.812859	0.056441	0.058988	0.371366	0.209516	0.179110	0.260414	0.483052	0.730805	0.070940	0.106543	0.335536	0.439749	0.133731	0.076801	0.334874	0.468889	0.145346	0.136661	0.784527	0.706217	0.236123	0.039903	0.335698	0.401059	0.101659	0.081065	0.208726	0.306080	0.240934	0.175818	0.684756	0.657656	0.209706	0.067029	0.379309	0.250528	0.099324	0.082327	0.130416	0.295682	0.432888	0.158195	0.393376	0.366270	0.079169	0.038642	0.610483	0.547022	0.061360	0.072299	0.293924	0.323009	0.163746	0.118835	0.608880	0.732535	0.194228	0.121404	0.228581	0.268682	0.138540	0.157704	0.262641	0.321497	0.102308	0.114503	0.341613	0.530015	0.286395	0.150485	0.224461	0.319077	0.064710	0.069238	0.329299	0.280732
44	0.132696	0.195289	0.889922	0.795817	0.056809	0.058139	0.363545	0.216782	0.193368	0.269807	0.568415	0.790351	0.076425	0.086752	0.324910	0.436980	0.138520	0.084257	0.419291	0.633264	0.151268	0.147875	0.786917	0.705972	0.201707	0.037327	0.254434	0.335177	0.103788	0.083718	0.202130	0.296774	0.242131	0.170320	0.614179	0.634718	0.158367	0.071804	0.380957	0.277285	0.079875	0.074275	0.113265	0.253323	0.432403	0.155979	0.428755	0.399040	0.080176	0.054507	0.615479	0.578882	0.076483	0.077213	0.339367	0.325211	0.156814	0.111115	0.654518	0.762933	0.194780	0.115207	0.228185	0.241183	0.148300	0.159006	0.378074	0.412815	0.111137	0.118073	0.341669	0.470183	0.277613	0.144556	0.185548	0.302666	0.071269	0.080129	0.330614	0.287119
45	0.134939	0.169100	0.989697	0.812290	0.058882	0.056693	0.351363	0.217211	0.220014	0.279967	0.608092	0.844039	0.073970	0.083737	0.327392	0.433167	0.127286	0.092163	0.563848	0.804915	0.151384	0.152398	0.777244	0.678207	0.158798	0.037513	0.233597	0.272663	0.105077	0.083938	0.153693	0.295339	0.232540	0.163255	0.597949	0.583669	0.132011	0.081413	0.379614	0.281149	0.078501	0.074466	0.109528	0.210717	0.424005	0.154719	0.437480	0.430716	0.147747	0.110834	0.638553	0.582503	0.089306	0.084734	0.355922	0.324192	0.158108	0.115668	0.655748	0.759902	0.191707	0.092276	0.229413	0.226735	0.153445	0.157092	0.414852	0.479788	0.110599	0.117642	0.283845	0.325490	0.279463	0.145112	0.190233	0.388430	0.075004	0.085058	0.330523	0.289288
46	0.121785	0.128135	1.043390	0.904787	0.072897	0.050243	0.348771	0.221703	0.243335	0.290092	0.615916	0.884829	0.081086	0.087589	0.344657	0.421649	0.116903	0.101587	0.625221	0.826339	0.150770	0.154107	0.667919	0.584364	0.143016	0.032680	0.230737	0.269048	0.104605	0.081314	0.148132	0.287101	0.230598	0.163178	0.610342	0.515283	0.111498	0.082409	0.384540	0.277185	0.082725	0.086533	0.109615	0.172814	0.408831	0.159507	0.438428	0.447521	0.253967	0.162090	0.714173	0.592533	0.094191	0.084831	0.371203	0.324720	0.162762	0.124724	0.689462	0.789582	0.187171	0.083414	0.229347	0.228812	0.154103	0.154027	0.419908	0.486870	0.103791	0.102737	0.226891	0.307048	0.273736	0.138445	0.406061	0.592176	0.075385	0.083602	0.330568	0.289597
47	0.120498	0.115400	1.074326	0.975200	0.076956	0.049926	0.348987	0.226701	0.252751	0.295059	0.616661	0.898375	0.086390	0.096250	0.352546	0.426688	0.123511	0.113369	0.640220	0.863044	0.150035	0.155813	0.575476	0.490533	0.115871	0.032214	0.269182	0.451218	0.098758	0.075880	0.130785	0.241097	0.219863	0.149814	0.616180	0.459619	0.107047	0.077978	0.352755	0.246878	0.082195	0.108764	0.108725	0.148059	0.391661	0.162179	0.435624	0.433180	0.270890	0.172731	0.814525	0.641483	0.094276	0.083827	0.373052	0.332208	0.161464	0.124088	0.747278	0.856807	0.181155	0.082849	0.230493	0.225658	0.154501	0.152165	0.469965	0.496085	0.096837	0.097734	0.211972	0.303715	0.258679	0.121041	0.685335	0.739764	0.075352	0.082872	0.331152	0.279198
48	0.125058	0.114204	1.071997	0.997576	0.079171	0.055867	0.349095	0.231571	0.255461	0.296401	0.615410	0.860946	0.086673	0.093278	0.358328	0.452160	0.122854	0.111691	0.760924	0.950956	0.143990	0.153681	0.559544	0.470620	0.091930	0.032308	0.389231	0.591425	0.096018	0.076711	0.117858	0.208615	0.204857	0.122668	0.617064	0.431052	0.103351	0.075433	0.309604	0.241899	0.087672	0.139848	0.103635	0.138552	0.378457	0.163537	0.407288	0.411862	0.271597	0.173617	0.894591	0.723948	0.094762	0.082633	0.373073	0.360737	0.162830	0.123321	0.789720	0.907896	0.174051	0.080694	0.230563	0.238494	0.154556	0.150002	0.510118	0.530555	0.086018	0.090321	0.193613	0.303736	0.233723	0.101941	0.853543	0.786819	0.074746	0.083382	0.341211	0.230716
49	0.137901	0.128962	1.066290	0.994095	0.079077	0.055504	0.367097	0.259188	0.256576	0.294801	0.534233	0.708754	0.091275	0.094449	0.371385	0.471929	0.118973	0.107312	0.910189	1.045934	0.123202	0.146024	0.420344	0.437342	0.083120	0.038400	0.478720	0.702024	0.093247	0.075561	0.096588	0.200547	0.185401	0.098894	0.672413	0.529289	0.101733	0.067812	0.306264	0.252720	0.093807	0.165896	0.112613	0.196632	0.378739	0.166145	0.403353	0.405546	0.276898	0.181957	0.927696	0.795168	0.098908	0.084765	0.372617	0.393713	0.187618	0.144323	0.805541	0.925884	0.164984	0.077387	0.232505	0.260779	0.153653	0.149869	0.537589	0.588820	0.084977	0.089487	0.184190	0.287865	0.221158	0.097851	0.892730	0.785450	0.072603	0.086856	0.301519	0.182723
50	0.141143	0.134376	1.074526	0.987996	0.079117	0.056070	0.380633	0.291961	0.255039	0.292992	0.453277	0.649317	0.103061	0.112146	0.330542	0.396505	0.123436	0.121645	0.994329	1.139190	0.109698	0.143501	0.226634	0.337541	0.068279	0.050132	0.496638	0.751460	0.082582	0.094328	0.101528	0.166729	0.141367	0.077574	0.819359	0.719207	0.101794	0.063497	0.285306	0.259568	0.094513	0.179542	0.195739	0.383330	0.349967	0.147951	0.377906	0.370918	0.291213	0.199977	0.937704	0.845596	0.107093	0.091056	0.372195	0.410193	0.214851	0.167105	0.808459	0.932473	0.157899	0.073553	0.219357	0.272489	0.154457	0.154249	0.561154	0.648897	0.078550	0.082434	0.136759	0.248086	0.224502	0.106700	0.901528	0.790712	0.071718	0.093004	0.276887	0.171378
51	0.138084	0.132218	1.078982	0.985518	0.078805	0.054428	0.349412	0.307592	0.244155	0.269184	0.451520	0.650072	0.105450	0.115521	0.268203	0.332208	0.148721	0.154303	1.032399	1.195237	0.103248	0.135521	0.164743	0.262580	0.091444	0.073934	0.505506	0.748624	0.078975	0.117256	0.101752	0.132130	0.120553	0.072522	0.903198	0.826598	0.101802	0.061399	0.234778	0.260140	0.098477	0.181330	0.387552	0.608598	0.223435	0.106297	0.363945	0.337491	0.306452	0.219130	0.938618	0.871454	0.114482	0.103188	0.372226	0.413907	0.233435	0.182392	0.813000	0.938727	0.153930	0.077294	0.203363	0.248905	0.160584	0.163412	0.565484	0.704766	0.064158	0.074098	0.091814	0.204415	0.231862	0.129319	0.962307	0.804626	0.068923	0.093799	0.267699	0.169405
52	0.137894	0.131438	1.032420	0.905878	0.078888	0.062314	0.291956	0.296275	0.211472	0.209439	0.447072	0.658790	0.103761	0.122301	0.258835	0.330258	0.170920	0.173976	1.043498	1.216478	0.081959	0.116991	0.168873	0.230426	0.130002	0.103786	0.525142	0.764545	0.069719	0.121907	0.097661	0.093396	0.119146	0.077543	0.910989	0.846687	0.100644	0.061586	0.189270	0.245960	0.137136	0.208000	0.588374	0.767165	0.156066	0.092347	0.359575	0.335417	0.314180	0.230824	0.938081	0.881557	0.121523	0.133170	0.366120	0.408991	0.242809	0.188103	0.818388	0.943299	0.150712	0.078695	0.195060	0.227567	0.184182	0.171178	0.561659	0.737774	0.062642	0.082819	0.086793	0.163193	0.236763	0.145137	1.040624	0.819055	0.062609	0.103470	0.241013	0.158006
53	0.137716	0.132012	0.834700	0.731394	0.073616	0.064805	0.316169	0.314837	0.185778	0.169012	0.432672	0.613246	0.096858	0.120524	0.231101	0.340844	0.205187	0.194903	1.043920	1.223898	0.054582	0.080259	0.158584	0.227794	0.154082	0.121743	0.538533	0.823107	0.066622	0.124535	0.083318	0.094498	0.120166	0.089576	0.928671	0.841980	0.095090	0.058804	0.171401	0.208631	0.187200	0.281636	0.679795	0.824940	0.141981	0.092643	0.315278	0.315249	0.317699	0.236916	0.908726	0.863450	0.128215	0.173013	0.308534	0.367197	0.246129	0.188385	0.817412	0.937897	0.120784	0.081925	0.191031	0.216698	0.209397	0.176305	0.556866	0.739158	0.053218	0.078991	0.077481	0.137191	0.237351	0.146214	1.100031	0.843222	0.060098	0.103828	0.235045	0.135983
54	0.137581	0.132551	0.770715	0.670178	0.073194	0.068105	0.302081	0.357597	0.181121	0.162764	0.341373	0.526912	0.089559	0.124092	0.238453	0.355370	0.245290	0.214141	1.038483	1.211727	0.053430	0.066569	0.147299	0.234295	0.159253	0.124018	0.553264	0.894673	0.058988	0.126593	0.079883	0.093981	0.141415	0.115302	0.962627	0.837571	0.079544	0.051257	0.168065	0.161666	0.220258	0.335893	0.685905	0.825854	0.134571	0.096168	0.224407	0.319892	0.318894	0.239331	0.778738	0.778372	0.129294	0.192680	0.262083	0.302741	0.242600	0.187578	0.789329	0.869509	0.096937	0.079782	0.155848	0.211416	0.222340	0.179042	0.555761	0.738043	0.029022	0.070941	0.070996	0.134150	0.238752	0.152312	1.133950	0.877078	0.057890	0.099029	0.229234	0.111858
55	0.134952	0.131021	0.720141	0.672189	0.073770	0.068874	0.272582	0.393415	0.154993	0.135837	0.199145	0.437561	0.093437	0.128922	0.234338	0.359492	0.258969	0.218996	1.007877	1.159213	0.070004	0.069963	0.159199	0.244334	0.159372	0.127512	0.585489	0.941408	0.063309	0.167501	0.081031	0.091057	0.166638	0.138786	0.948937	0.836794	0.050977	0.036008	0.167358	0.138542	0.243861	0.362160	0.718577	0.844907	0.137197	0.103242	0.161512	0.333430	0.319197	0.239396	0.723387	0.711967	0.125245	0.201616	0.242709	0.276989	0.236317	0.185033	0.674698	0.731400	0.085755	0.074695	0.117462	0.212271	0.236461	0.185487	0.559502	0.739524	0.023068	0.083243	0.063933	0.137031	0.244155	0.163645	1.159341	0.916118	0.049005	0.086333	0.226761	0.115834
56	0.122908	0.120328	0.550164	0.655410	0.077706	0.070270	0.270187	0.414856	0.110826	0.103960	0.128909	0.328149	0.088382	0.123756	0.209163	0.348946	0.265962	0.217078	0.977863	1.098865	0.076604	0.107070	0.190426	0.270228	0.164349	0.136847	0.626051	0.969749	0.064323	0.171624	0.081923	0.077543	0.171806	0.140513	0.925376	0.846496	0.027552	0.031115	0.156277	0.138921	0.257606	0.373341	0.811816	0.914333	0.148020	0.104121	0.171375	0.333339	0.319057	0.236738	0.719598	0.688935	0.127185	0.236752	0.168919	0.270496	0.226792	0.181536	0.551478	0.637123	0.078241	0.090325	0.115980	0.212652	0.264121	0.196686	0.555299	0.737133	0.046187	0.132190	0.063975	0.141117	0.261583	0.180876	1.179651	0.953417	0.044191	0.087692	0.241752	0.280209
57	0.122035	0.119885	0.405821	0.562773	0.084891	0.074677	0.270424	0.419753	0.073779	0.076137	0.216055	0.268358	0.079495	0.111954	0.192768	0.319186	0.274279	0.213496	0.926174	0.972389	0.073874	0.108687	0.199760	0.292369	0.193735	0.159275	0.648304	0.984908	0.064120	0.173455	0.081119	0.078085	0.165632	0.140738	0.934340	0.858471	0.081497	0.057755	0.146924	0.140360	0.259886	0.374604	0.885626	1.000365	0.152332	0.094292	0.172872	0.317242	0.299439	0.218719	0.707073	0.702131	0.122566	0.254048	0.127799	0.270233	0.218692	0.175675	0.525240	0.608945	0.079686	0.176019	0.123133	0.210620	0.276143	0.199795	0.531883	0.723448	0.063666	0.201031	0.062216	0.139285	0.283926	0.198538	1.191518	0.982995	0.052187	0.088097	0.256360	0.351674
58	0.115788	0.112479	0.296429	0.436101	0.083058	0.077962	0.279680	0.421114	0.056960	0.057490	0.400423	0.276790	0.078613	0.109952	0.186614	0.278258	0.277356	0.210646	0.853693	0.914303	0.076682	0.107598	0.198732	0.301750	0.239427	0.187904	0.650226	0.992039	0.066038	0.174464	0.076461	0.077080	0.170325	0.157730	0.926459	0.856109	0.134902	0.092355	0.151587	0.132395	0.261653	0.375140	0.935041	1.071232	0.150159	0.091117	0.198541	0.312087	0.216884	0.184923	0.697872	0.753949	0.119388	0.253652	0.091227	0.272118	0.221684	0.167503	0.517094	0.611572	0.081047	0.226544	0.122079	0.201988	0.271418	0.196851	0.461989	0.684575	0.072167	0.206557	0.069231	0.134364	0.295072	0.210512	1.194849	1.003992	0.054265	0.089631	0.263078	0.354896
59	0.097758	0.096486	0.270127	0.351514	0.081903	0.074100	0.289884	0.438405	0.049688	0.046783	0.416749	0.278566	0.073292	0.108228	0.150544	0.216189	0.278105	0.213372	0.847458	0.905773	0.083603	0.109331	0.197893	0.299288	0.267086	0.202917	0.647799	0.994183	0.074434	0.170569	0.064735	0.076538	0.181243	0.175502	0.892386	0.846126	0.169009	0.095032	0.158731	0.107741	0.282478	0.384911	0.967024	1.113580	0.145135	0.089356	0.218584	0.323806	0.192454	0.175025	0.738783	0.822604	0.121280	0.253799	0.139707	0.268159	0.233684	0.160430	0.459431	0.561312	0.082649	0.240273	0.118614	0.213466	0.269108	0.194921	0.408892	0.633826	0.077236	0.210031	0.152536	0.178702	0.315333	0.223640	1.194884	1.013947	0.058180	0.090619	0.282274	0.369017
60	0.073936	0.072741	0.269432	0.319435	0.081359	0.073908	0.284489	0.435251	0.051687	0.047501	0.472340	0.273274	0.055597	0.091647	0.128513	0.175787	0.315944	0.227400	0.791576	0.866637	0.087381	0.109957	0.189700	0.281797	0.279593	0.207704	0.646570	0.956023	0.103741	0.153153	0.046605	0.063959	0.187936	0.183214	0.875807	0.841251	0.188908	0.128731	0.128303	0.074212	0.305697	0.396480	0.986694	1.132519	0.136905	0.083637	0.223966	0.342166	0.197382	0.178616	0.710482	0.822132	0.121422	0.253585	0.169648	0.233186	0.234430	0.161833	0.356042	0.459506	0.112874	0.348268	0.121736	0.204254	0.278271	0.194415	0.403888	0.628466	0.078221	0.210379	0.237233	0.227567	0.346339	0.243027	1.193766	0.991246	0.062381	0.086740	0.271360	0.398649
61	0.055869	0.052393	0.223302	0.312364	0.081289	0.073714	0.260457	0.417723	0.067754	0.057315	0.488832	0.272460	0.050006	0.086799	0.128073	0.169362	0.342696	0.235693	0.670797	0.857758	0.087575	0.109799	0.181653	0.255027	0.282751	0.208470	0.604179	0.866220	0.139362	0.147017	0.039258	0.050499	0.194423	0.185972	0.893531	0.850846	0.193349	0.145079	0.114070	0.066325	0.320258	0.403186	0.995339	1.141482	0.135632	0.090072	0.223925	0.357956	0.200316	0.177554	0.667999	0.772898	0.124994	0.252997	0.175940	0.174061	0.230722	0.158941	0.277945	0.388461	0.125156	0.384516	0.129514	0.173395	0.295084	0.193091	0.358703	0.632470	0.081206	0.213547	0.249992	0.222365	0.388586	0.268556	1.164266	0.886494	0.061988	0.080221	0.252706	0.434624
62	0.049084	0.044083	0.214736	0.330719	0.085211	0.078509	0.249170	0.388622	0.073834	0.060108	0.487763	0.246798	0.048406	0.069644	0.122045	0.167883	0.361655	0.237654	0.579683	0.817849	0.087649	0.107496	0.205861	0.242806	0.287527	0.208517	0.532193	0.782852	0.150125	0.132237	0.038111	0.040500	0.210961	0.194673	0.923356	0.874614	0.196799	0.146660	0.109844	0.080592	0.325642	0.403191	0.998092	1.144627	0.138529	0.099273	0.221489	0.367034	0.192056	0.164496	0.661244	0.715337	0.147789	0.250822	0.191163	0.131657	0.205408	0.136356	0.266871	0.393137	0.124969	0.385946	0.125635	0.141314	0.311615	0.206133	0.286834	0.615999	0.082326	0.213037	0.316133	0.216917	0.413879	0.279573	1.047127	0.756564	0.066706	0.078459	0.253904	0.454025
63	0.048051	0.044563	0.258150	0.358821	0.085593	0.079905	0.244117	0.367568	0.078704	0.069080	0.494017	0.214515	0.048728	0.069127	0.101707	0.139984	0.372077	0.227857	0.522719	0.748235	0.087510	0.106027	0.207912	0.231978	0.305616	0.207799	0.485289	0.700677	0.155455	0.132245	0.030102	0.046750	0.244546	0.208924	0.931937	0.862373	0.215225	0.148682	0.093056	0.098600	0.324706	0.396560	0.998564	1.145522	0.137154	0.102565	0.219161	0.370379	0.168554	0.138188	0.664218	0.681417	0.142139	0.245913	0.204840	0.118679	0.177183	0.110309	0.275221	0.394389	0.127694	0.389260	0.138644	0.120611	0.413075	0.242587	0.240265	0.573492	0.083216	0.213448	0.340300	0.234883	0.422616	0.279187	0.914722	0.682693	0.079238	0.069668	0.246927	0.454778
64	0.049873	0.045635	0.265397	0.379798	0.084368	0.073306	0.221890	0.367140	0.082577	0.074086	0.506845	0.212013	0.047689	0.072497	0.124834	0.213559	0.376070	0.215842	0.493533	0.701599	0.081102	0.107018	0.223453	0.230205	0.303023	0.205594	0.483709	0.690025	0.187932	0.110767	0.022448	0.047275	0.279909	0.220849	0.830165	0.741658	0.257935	0.157112	0.096958	0.101775	0.324299	0.387454	0.997636	1.140796	0.135517	0.105146	0.222678	0.368428	0.147696	0.117254	0.683750	0.694561	0.141343	0.232903	0.215189	0.114933	0.155565	0.092065	0.263481	0.390131	0.128201	0.389819	0.183403	0.124434	0.452111	0.258281	0.219170	0.522092	0.087313	0.212758	0.340075	0.258351	0.421520	0.278033	0.858140	0.676729	0.085476	0.067688	0.238893	0.455640
65	0.057621	0.047063	0.270786	0.387093	0.091279	0.075799	0.176748	0.329770	0.081588	0.073977	0.520569	0.271426	0.039131	0.068875	0.188685	0.323752	0.367547	0.205223	0.499254	0.683287	0.070044	0.088607	0.211911	0.219260	0.307954	0.205439	0.464267	0.682588	0.208582	0.067908	0.017667	0.044647	0.296495	0.226121	0.710707	0.590135	0.275584	0.161978	0.096871	0.102385	0.325265	0.380893	0.988323	1.103338	0.141839	0.109717	0.215302	0.337263	0.136899	0.106850	0.727399	0.726999	0.137237	0.205413	0.226036	0.118999	0.157805	0.096052	0.261966	0.411484	0.124823	0.388670	0.198461	0.136927	0.460359	0.258604	0.316651	0.470820	0.098160	0.211959	0.339246	0.270195	0.418440	0.277434	0.855660	0.677322	0.086053	0.070218	0.235691	0.455130
66	0.062901	0.048196	0.271708	0.380760	0.096953	0.078929	0.152859	0.268720	0.081549	0.074939	0.530200	0.341608	0.037058	0.075653	0.193357	0.342211	0.341940	0.184413	0.520503	0.697055	0.064817	0.051714	0.186010	0.186892	0.330441	0.206835	0.446795	0.637394	0.228604	0.061015	0.024788	0.107868	0.319761	0.231061	0.683618	0.533102	0.308932	0.168728	0.139309	0.146436	0.326023	0.379572	0.943077	1.006077	0.150728	0.111146	0.207123	0.282553	0.130352	0.104159	0.764307	0.759837	0.144171	0.196941	0.230829	0.120329	0.164523	0.103354	0.318494	0.451230	0.120807	0.387685	0.200966	0.143161	0.456705	0.250823	0.415284	0.425984	0.090827	0.172363	0.338279	0.270439	0.417201	0.280326	0.816362	0.671340	0.086037	0.070039	0.237385	0.453797
67	0.062193	0.046935	0.283339	0.397203	0.098870	0.081039	0.166691	0.226134	0.084778	0.079961	0.528462	0.383769	0.046725	0.088358	0.230159	0.350275	0.324440	0.170521	0.534073	0.733362	0.063891	0.045659	0.191008	0.152633	0.378336	0.214664	0.430937	0.547011	0.230689	0.055427	0.087474	0.208865	0.347090	0.228257	0.671127	0.530666	0.313029	0.165852	0.188882	0.185146	0.316166	0.371785	0.837450	0.884090	0.172450	0.112677	0.182486	0.234467	0.129664	0.103312	0.787899	0.789849	0.149756	0.191522	0.246480	0.136867	0.170021	0.105361	0.356904	0.466897	0.123175	0.390909	0.207971	0.142299	0.447356	0.240561	0.422869	0.392501	0.088925	0.108100	0.338611	0.269932	0.474994	0.298742	0.738700	0.672762	0.085769	0.058930	0.231544	0.394131
68	0.057593	0.042608	0.338349	0.460390	0.091276	0.078451	0.177532	0.227778	0.091321	0.085605	0.424130	0.380061	0.052450	0.091522	0.245783	0.370144	0.317534	0.177135	0.623598	0.771966	0.058543	0.058330	0.208492	0.173749	0.425983	0.219911	0.418773	0.466510	0.229860	0.056673	0.093672	0.223821	0.346845	0.218412	0.587357	0.517589	0.295850	0.147787	0.190522	0.191117	0.289630	0.325606	0.748648	0.812304	0.207891	0.112288	0.180172	0.222308	0.129925	0.104585	0.802249	0.805653	0.140947	0.148694	0.315555	0.181102	0.178639	0.110461	0.368130	0.490125	0.129002	0.398332	0.220498	0.148100	0.448519	0.237524	0.444105	0.378203	0.082957	0.097201	0.342754	0.283406	0.547034	0.315298	0.649770	0.671449	0.080641	0.056595	0.208606	0.307471
69	0.055244	0.040185	0.355834	0.474726	0.079948	0.073493	0.193432	0.244986	0.094820	0.086771	0.348801	0.375379	0.053242	0.101001	0.247589	0.394208	0.312538	0.183844	0.717462	0.803661	0.047735	0.056568	0.210258	0.224795	0.435308	0.218384	0.449622	0.423629	0.223116	0.063921	0.132588	0.225779	0.355332	0.202191	0.495817	0.491491	0.278464	0.144184	0.221345	0.217831	0.266376	0.264787	0.735236	0.806329	0.247019	0.108513	0.146446	0.218294	0.136096	0.104500	0.805780	0.799459	0.137430	0.148034	0.327520	0.190980	0.210200	0.120983	0.454100	0.580147	0.124702	0.372933	0.215878	0.158143	0.451625	0.234809	0.479180	0.371291	0.088117	0.093660	0.307382	0.261018	0.564987	0.317713	0.583774	0.676875	0.081299	0.099970	0.206127	0.297273
70	0.061110	0.045482	0.355732	0.487264	0.076518	0.071303	0.176039	0.222699	0.094824	0.086142	0.332651	0.375929	0.054118	0.110787	0.248074	0.421939	0.302389	0.186360	0.781339	0.825938	0.044352	0.055988	0.229692	0.228999	0.503812	0.261108	0.437530	0.392145	0.206710	0.070674	0.155680	0.238571	0.378170	0.196778	0.492184	0.463777	0.260831	0.129791	0.289057	0.236661	0.251042	0.221694	0.717672	0.796076	0.255459	0.112854	0.112612	0.218224	0.144867	0.101207	0.761732	0.752476	0.138102	0.160029	0.339898	0.190864	0.230029	0.125029	0.540504	0.673526	0.117992	0.342001	0.223379	0.157520	0.441813	0.224535	0.505675	0.376693	0.101709	0.103630	0.265464	0.226602	0.570430	0.313172	0.527230	0.666507	0.089546	0.178519	0.175778	0.289617
71	0.078404	0.060247	0.347853	0.485730	0.077394	0.071158	0.193915	0.195634	0.089457	0.083248	0.264714	0.383234	0.054828	0.118203	0.262103	0.442333	0.308108	0.190128	0.799158	0.833221	0.047077	0.057853	0.252862	0.216650	0.602166	0.312150	0.426700	0.370301	0.187236	0.072125	0.155898	0.267258	0.381094	0.206460	0.478183	0.446382	0.257825	0.094271	0.309391	0.250033	0.239369	0.196061	0.623181	0.733383	0.299889	0.134731	0.155997	0.223311	0.146835	0.096590	0.664443	0.708371	0.136704	0.160860	0.337965	0.203792	0.228856	0.123724	0.566548	0.729752	0.117479	0.334817	0.242140	0.155828	0.428229	0.215206	0.510206	0.378311	0.115234	0.108054	0.250351	0.224880	0.568687	0.304711	0.481235	0.632355	0.088319	0.187447	0.159719	0.257542
72	0.104205	0.076253	0.352827	0.497768	0.080257	0.072510	0.209711	0.197794	0.079396	0.079313	0.276506	0.431050	0.065968	0.119854	0.270911	0.447410	0.305041	0.179779	0.799874	0.819227	0.046568	0.058170	0.249662	0.225465	0.620128	0.325507	0.474156	0.360861	0.194871	0.083047	0.156116	0.281796	0.479773	0.254609	0.469680	0.492900	0.259314	0.097630	0.309004	0.255585	0.237512	0.189645	0.504790	0.636899	0.341939	0.145900	0.210371	0.210079	0.143256	0.089107	0.669159	0.735731	0.140648	0.163164	0.334809	0.234185	0.257181	0.121754	0.572081	0.751338	0.092645	0.227299	0.240922	0.155895	0.428137	0.214740	0.566860	0.378816	0.118950	0.101168	0.162446	0.217402	0.557285	0.292607	0.451449	0.600237	0.123614	0.249707	0.182936	0.219615
73	0.106278	0.077275	0.365567	0.537049	0.082888	0.073963	0.198997	0.203447	0.079218	0.079858	0.370189	0.533486	0.082186	0.123628	0.272044	0.447677	0.302333	0.172020	0.780028	0.748163	0.042781	0.056866	0.250774	0.243127	0.620811	0.327135	0.513602	0.357771	0.181142	0.085615	0.157074	0.284464	0.640491	0.298047	0.488951	0.632983	0.256241	0.105791	0.308597	0.251729	0.239928	0.190072	0.418929	0.561858	0.373975	0.150331	0.213266	0.197601	0.130701	0.075967	0.691055	0.726959	0.141247	0.165307	0.340066	0.274608	0.259651	0.127060	0.572178	0.753595	0.069428	0.137935	0.232138	0.163541	0.430338	0.215961	0.653583	0.373944	0.119225	0.103001	0.122621	0.200185	0.542255	0.281460	0.451468	0.568923	0.152990	0.318292	0.196689	0.180475
74	0.111628	0.087453	0.340040	0.564488	0.077833	0.064179	0.197697	0.202086	0.093116	0.098992	0.396374	0.591595	0.085776	0.118256	0.254692	0.408150	0.293245	0.163136	0.719627	0.703178	0.046212	0.058193	0.242242	0.241909	0.620470	0.326596	0.525987	0.375208	0.162109	0.085943	0.157617	0.285875	0.695526	0.310625	0.518456	0.740916	0.219287	0.099486	0.304731	0.249835	0.224700	0.174536	0.396450	0.534998	0.391099	0.152494	0.227695	0.192314	0.117645	0.072320	0.691207	0.728008	0.109454	0.165583	0.347873	0.278753	0.267492	0.138254	0.565227	0.735574	0.068732	0.134240	0.223344	0.171887	0.428525	0.217882	0.676117	0.360947	0.117051	0.110190	0.122067	0.175168	0.525064	0.269971	0.450372	0.546524	0.148383	0.318049	0.188840	0.176877
75	0.116553	0.092191	0.399446	0.587598	0.077420	0.061025	0.200814	0.206916	0.119836	0.120993	0.410144	0.619072	0.085656	0.114056	0.227907	0.332438	0.282910	0.154490	0.684545	0.667242	0.064796	0.068405	0.239808	0.246273	0.620148	0.327078	0.527024	0.407110	0.124658	0.086776	0.157872	0.282913	0.710346	0.314751	0.526528	0.758854	0.195038	0.089610	0.304496	0.249282	0.194770	0.146549	0.460693	0.549931	0.398253	0.153342	0.224564	0.194990	0.166945	0.101123	0.689268	0.731585	0.108537	0.165625	0.341597	0.280427	0.275259	0.140618	0.547811	0.709597	0.063795	0.121350	0.222390	0.172009	0.416570	0.218342	0.677594	0.345703	0.111549	0.114811	0.123962	0.158899	0.506180	0.254359	0.458281	0.543555	0.143760	0.318348	0.212347	0.180201
76	0.118490	0.094354	0.474246	0.599955	0.068572	0.055592	0.243208	0.248841	0.145433	0.139143	0.397779	0.608640	0.084446	0.107763	0.266626	0.343135	0.259711	0.148326	0.673725	0.654558	0.075844	0.070993	0.237435	0.252577	0.614892	0.327285	0.526011	0.430426	0.111175	0.086225	0.143665	0.227071	0.717639	0.314137	0.502205	0.734039	0.164165	0.078300	0.296170	0.234892	0.168935	0.120226	0.523436	0.560999	0.397723	0.148058	0.224816	0.215285	0.206973	0.113234	0.673397	0.726210	0.104532	0.166304	0.338342	0.335793	0.277168	0.138926	0.534769	0.697099	0.061504	0.117681	0.228124	0.169435	0.411895	0.213046	0.696430	0.337802	0.140354	0.117481	0.125557	0.154706	0.474787	0.226410	0.484626	0.580319	0.144443	0.318819	0.239520	0.185251
77	0.123456	0.098385	0.497769	0.609189	0.055661	0.044919	0.251304	0.254032	0.153872	0.144763	0.476228	0.600478	0.079293	0.097304	0.240080	0.341335	0.282763	0.165258	0.667308	0.654920	0.076709	0.068069	0.223724	0.254475	0.615535	0.327982	0.523724	0.435100	0.109384	0.086197	0.136486	0.197362	0.714208	0.307794	0.451784	0.712170	0.156437	0.077167	0.264747	0.192053	0.155350	0.102116	0.548022	0.555971	0.391601	0.141840	0.228493	0.226346	0.206790	0.113537	0.629602	0.713004	0.103319	0.163972	0.345530	0.407441	0.275108	0.136393	0.533570	0.688538	0.061157	0.114041	0.263128	0.203448	0.329056	0.173326	0.734433	0.351528	0.202005	0.128509	0.124668	0.153643	0.449239	0.211493	0.525493	0.636105	0.145587	0.320499	0.250560	0.191033
78	0.127933	0.101594	0.497518	0.603360	0.056607	0.041556	0.267852	0.252216	0.151013	0.141405	0.609776	0.645210	0.075496	0.094473	0.248815	0.319863	0.309460	0.172382	0.650645	0.655905	0.076480	0.059335	0.212458	0.223711	0.613775	0.323862	0.522362	0.430105	0.108577	0.082257	0.126939	0.205949	0.705064	0.300485	0.469791	0.719196	0.202109	0.088387	0.259582	0.187624	0.156917	0.096312	0.554404	0.561735	0.377818	0.135837	0.226929	0.231755	0.212774	0.128314	0.604846	0.689834	0.095187	0.150310	0.346283	0.437383	0.268679	0.130521	0.545839	0.673334	0.066694	0.114523	0.285725	0.265125	0.242836	0.137585	0.768803	0.375315	0.259424	0.130990	0.124556	0.140021	0.441073	0.213678	0.563519	0.699647	0.148243	0.326616	0.253947	0.195774
79	0.131334	0.103074	0.510731	0.585275	0.067163	0.048217	0.273987	0.248315	0.148340	0.139272	0.617217	0.653631	0.075113	0.084279	0.269462	0.296839	0.316625	0.176377	0.645262	0.649336	0.076480	0.057675	0.211631	0.175502	0.605973	0.315688	0.521374	0.426020	0.105961	0.071297	0.088013	0.200106	0.698302	0.295870	0.525457	0.738279	0.244993	0.094679	0.244104	0.159367	0.159041	0.092462	0.584668	0.591586	0.353549	0.131946	0.230151	0.233827	0.231065	0.142605	0.590545	0.657369	0.092849	0.152215	0.338265	0.452449	0.266442	0.129026	0.555645	0.667562	0.069764	0.108649	0.285831	0.311547	0.210893	0.120326	0.768966	0.382928	0.307271	0.134455	0.114882	0.139806	0.443793	0.215121	0.580607	0.756345	0.150852	0.331565	0.256708	0.199444
80	0.131746	0.103512	0.607547	0.679505	0.069928	0.053041	0.267477	0.235944	0.153712	0.147773	0.616121	0.659595	0.074238	0.075063	0.269997	0.269395	0.350362	0.199390	0.588564	0.632677	0.074894	0.056690	0.170576	0.169923	0.586382	0.306961	0.522584	0.420408	0.109143	0.070506	0.100499	0.168776	0.691051	0.292065	0.544212	0.757412	0.258426	0.095786	0.161267	0.130214	0.157196	0.089835	0.601811	0.642604	0.323964	0.132483	0.240581	0.251310	0.244646	0.143936	0.572012	0.629528	0.105557	0.163681	0.284357	0.450299	0.266489	0.129587	0.569985	0.684256	0.058372	0.062301	0.273656	0.332950	0.201956	0.113418	0.723501	0.372766	0.334431	0.121811	0.115173	0.145397	0.443016	0.212015	0.584455	0.792741	0.150754	0.329363	0.255924	0.200874
81	0.132964	0.105451	0.646215	0.730397	0.071740	0.053645	0.257149	0.231416	0.172985	0.161162	0.621415	0.665734	0.073476	0.070740	0.257482	0.242256	0.372362	0.218322	0.466294	0.605443	0.073400	0.055198	0.111814	0.167326	0.551070	0.300330	0.515479	0.402110	0.100610	0.062126	0.103244	0.130450	0.678229	0.297172	0.545624	0.770509	0.280769	0.113616	0.080397	0.105322	0.159265	0.098641	0.615363	0.687814	0.317254	0.128170	0.239180	0.234703	0.251822	0.144954	0.588393	0.628096	0.109710	0.138636	0.283229	0.453297	0.255210	0.123236	0.553119	0.663672	0.056144	0.048353	0.274877	0.331945	0.208553	0.121124	0.712950	0.373062	0.339219	0.124389	0.100610	0.146548	0.444382	0.210465	0.565165	0.803948	0.144887	0.314750	0.253031	0.197278
82	0.136371	0.110408	0.673588	0.731768	0.071156	0.052337	0.255701	0.239000	0.180803	0.166511	0.620516	0.655343	0.064343	0.070270	0.249650	0.232765	0.410340	0.240646	0.320044	0.573718	0.073969	0.055221	0.085028	0.142998	0.528835	0.299093	0.459114	0.362601	0.076897	0.043961	0.107573	0.122665	0.680623	0.307526	0.571773	0.774402	0.333287	0.128434	0.075827	0.107415	0.181164	0.121106	0.625574	0.716051	0.273068	0.103580	0.202398	0.211073	0.265861	0.148261	0.640975	0.649542	0.107936	0.120552	0.274979	0.452328	0.243063	0.128668	0.497417	0.573031	0.056871	0.055956	0.281688	0.334619	0.226658	0.143789	0.705188	0.376223	0.461088	0.166805	0.099129	0.143969	0.410145	0.190752	0.530528	0.794877	0.143366	0.306302	0.244767	0.188107
83	0.136626	0.118828	0.745713	0.765096	0.069823	0.050954	0.238656	0.235997	0.181593	0.167054	0.605804	0.588116	0.051687	0.077953	0.250018	0.231094	0.449633	0.251418	0.242732	0.548534	0.074087	0.055085	0.070366	0.119112	0.515250	0.283133	0.394586	0.340835	0.059992	0.036360	0.114400	0.121656	0.682818	0.317008	0.580280	0.772353	0.351175	0.128383	0.077374	0.112778	0.206960	0.139014	0.640741	0.729631	0.214372	0.078153	0.147592	0.222573	0.278436	0.149331	0.601613	0.598447	0.107427	0.120709	0.252992	0.446659	0.273755	0.142181	0.443053	0.458899	0.057962	0.065533	0.327652	0.346816	0.238450	0.160944	0.680076	0.375448	0.546428	0.182172	0.102042	0.134575	0.318464	0.172696	0.516788	0.774197	0.123563	0.279830	0.227532	0.156573
84	0.145662	0.127245	0.768808	0.791086	0.064592	0.047537	0.230256	0.233043	0.179017	0.160972	0.586181	0.517051	0.051286	0.086452	0.248883	0.231242	0.443534	0.246842	0.448966	0.581945	0.065446	0.068232	0.046709	0.115452	0.369670	0.208424	0.387304	0.342942	0.051808	0.033359	0.116459	0.121488	0.669667	0.321326	0.579594	0.768444	0.377077	0.131152	0.079175	0.113362	0.225245	0.152124	0.659258	0.732222	0.148628	0.061482	0.141871	0.234372	0.278734	0.151408	0.492940	0.440810	0.102335	0.119172	0.245309	0.432245	0.286430	0.151683	0.423535	0.370061	0.056546	0.069840	0.385353	0.366801	0.270835	0.180084	0.656796	0.370781	0.557847	0.179961	0.124879	0.130773	0.291191	0.170036	0.514183	0.735696	0.068673	0.170512	0.209905	0.121298
85	0.145631	0.125745	0.770203	0.791510	0.063706	0.046855	0.230811	0.229925	0.172659	0.151355	0.555578	0.469627	0.049663	0.086029	0.231572	0.220502	0.448903	0.270476	0.741735	0.710550	0.046415	0.064212	0.046142	0.095901	0.275038	0.144313	0.361507	0.355083	0.049531	0.032867	0.116459	0.121372	0.666728	0.320327	0.576730	0.763098	0.383459	0.131564	0.080921	0.111767	0.238572	0.161010	0.669113	0.730924	0.111998	0.064029	0.121165	0.240483	0.289441	0.162468	0.456484	0.399584	0.098278	0.126838	0.241257	0.405194	0.287841	0.156057	0.417449	0.329907	0.056584	0.070368	0.391583	0.370259	0.318523	0.200079	0.648222	0.366886	0.559165	0.174319	0.141516	0.131873	0.289118	0.172763	0.516781	0.693471	0.061395	0.163459	0.205908	0.124101
86	0.159861	0.147969	0.744430	0.765365	0.063423	0.046957	0.229473	0.227908	0.155692	0.135793	0.582862	0.419931	0.049280	0.086092	0.181371	0.165706	0.502162	0.300692	0.822726	0.814467	0.052597	0.113512	0.044902	0.079622	0.292440	0.145451	0.304003	0.359292	0.050833	0.032790	0.116058	0.112021	0.633663	0.289336	0.569466	0.740749	0.376591	0.129992	0.080119	0.111950	0.264864	0.169525	0.671199	0.725863	0.109814	0.065233	0.130786	0.236349	0.288316	0.164873	0.447551	0.397524	0.096379	0.129079	0.218994	0.399283	0.283711	0.145134	0.417717	0.321413	0.055837	0.071191	0.398201	0.366870	0.346047	0.205324	0.623134	0.369324	0.550040	0.168138	0.144168	0.136431	0.284186	0.172724	0.518285	0.680342	0.060345	0.162225	0.173337	0.117747
87	0.166122	0.159750	0.696531	0.747536	0.064174	0.046854	0.212397	0.188172	0.138242	0.123034	0.590889	0.415056	0.050132	0.085530	0.178184	0.147196	0.564860	0.325861	0.837523	0.823915	0.057229	0.138673	0.043458	0.067511	0.338002	0.164984	0.269580	0.356891	0.051357	0.034729	0.106178	0.083366	0.466393	0.223600	0.554767	0.650074	0.368269	0.128141	0.075689	0.112756	0.288245	0.175791	0.672415	0.709960	0.119537	0.067082	0.145044	0.219452	0.267124	0.151393	0.448258	0.387457	0.095671	0.129749	0.214243	0.398289	0.296883	0.154081	0.418501	0.321449	0.054773	0.072355	0.401751	0.367245	0.348571	0.204064	0.528418	0.388412	0.528264	0.159986	0.144393	0.136457	0.277001	0.172839	0.525435	0.691074	0.065370	0.215525	0.129509	0.108614
88	0.161742	0.158551	0.677070	0.750892	0.067422	0.049144	0.173911	0.155071	0.133956	0.118796	0.469161	0.322801	0.050806	0.086028	0.134867	0.146712	0.587016	0.346428	0.934375	0.816361	0.056716	0.138377	0.041835	0.062470	0.375650	0.180927	0.280272	0.361286	0.049371	0.036011	0.126945	0.122344	0.334906	0.185215	0.534434	0.488122	0.355806	0.128197	0.074862	0.114963	0.315935	0.183170	0.666387	0.666952	0.124104	0.068137	0.159396	0.215534	0.284296	0.143894	0.462757	0.351508	0.093726	0.130489	0.210154	0.359361	0.397278	0.190802	0.418875	0.320621	0.056661	0.072314	0.381386	0.365757	0.359344	0.220233	0.485317	0.407202	0.501504	0.155926	0.149606	0.125712	0.274110	0.173423	0.531530	0.723656	0.069544	0.262830	0.095902	0.097814
89	0.156579	0.156125	0.740438	0.778186	0.063508	0.048204	0.165179	0.155027	0.133459	0.118330	0.466541	0.309011	0.050626	0.085779	0.079734	0.134542	0.588998	0.355739	1.008949	0.818719	0.058239	0.138521	0.042953	0.080163	0.379731	0.182417	0.278349	0.352906	0.043027	0.050034	0.129903	0.141740	0.294101	0.172144	0.522405	0.395924	0.354387	0.133105	0.069932	0.114963	0.336282	0.188701	0.637891	0.608020	0.126136	0.068291	0.170974	0.214170	0.311784	0.142124	0.460923	0.304908	0.093567	0.131442	0.186026	0.270472	0.435213	0.195454	0.419235	0.317573	0.060747	0.075644	0.349798	0.345670	0.433125	0.261403	0.488306	0.421045	0.472970	0.153994	0.162911	0.114691	0.274457	0.173498	0.566685	0.764873	0.064939	0.262381	0.075586	0.085662
90	0.153879	0.155726	0.751599	0.777158	0.051300	0.042299	0.116505	0.149248	0.130623	0.113341	0.516878	0.350204	0.051071	0.078313	0.075914	0.105353	0.586636	0.355096	1.035932	0.833184	0.058852	0.140095	0.059732	0.091020	0.380775	0.183789	0.287309	0.356683	0.033030	0.053780	0.135609	0.141290	0.272458	0.165907	0.506172	0.377502	0.363445	0.138699	0.066336	0.113526	0.343888	0.191260	0.559954	0.550904	0.131109	0.072066	0.166516	0.214496	0.310981	0.126300	0.451746	0.295123	0.091817	0.128981	0.177354	0.212144	0.440789	0.193209	0.411593	0.311126	0.056019	0.076989	0.328174	0.297890	0.471127	0.284047	0.483100	0.429345	0.454275	0.153863	0.163520	0.106609	0.283784	0.173310	0.596923	0.781988	0.078254	0.331646	0.059863	0.076254
91	0.156247	0.158203	0.657749	0.686661	0.042665	0.035774	0.102091	0.130658	0.113444	0.095811	0.516715	0.341821	0.052799	0.069899	0.101459	0.086394	0.591706	0.354709	1.044047	0.842868	0.058480	0.141755	0.088415	0.103165	0.398015	0.199477	0.306996	0.375432	0.031725	0.057731	0.168845	0.136285	0.260158	0.161974	0.512739	0.373370	0.361533	0.134120	0.065243	0.110141	0.355579	0.192571	0.479116	0.515423	0.149962	0.078070	0.156079	0.192902	0.302991	0.108605	0.440597	0.291527	0.082324	0.121761	0.178161	0.167860	0.441020	0.190700	0.375024	0.287299	0.044902	0.080697	0.326745	0.248470	0.481466	0.291033	0.437280	0.418780	0.442849	0.139264	0.170844	0.108080	0.282290	0.176111	0.587051	0.763440	0.082967	0.347033	0.058951	0.073638
92	0.160353	0.160457	0.613000	0.582496	0.040021	0.035565	0.104505	0.107129	0.087707	0.078984	0.560044	0.344616	0.052520	0.068529	0.135994	0.127692	0.582104	0.347156	1.054554	0.862866	0.061115	0.150704	0.094417	0.105368	0.429998	0.226354	0.314106	0.385835	0.030404	0.059506	0.169652	0.142142	0.253985	0.159993	0.488432	0.336697	0.313954	0.115168	0.065661	0.088878	0.358335	0.193350	0.428798	0.514540	0.154877	0.081508	0.155594	0.191346	0.294099	0.105021	0.434870	0.290169	0.064498	0.100989	0.167484	0.124720	0.440305	0.189573	0.292616	0.221549	0.054182	0.092536	0.335460	0.213895	0.484899	0.294847	0.352570	0.378970	0.280494	0.081325	0.172355	0.116359	0.281398	0.179356	0.526801	0.715351	0.090423	0.336063	0.055186	0.073696
93	0.157829	0.159154	0.618648	0.608020	0.039799	0.043059	0.104720	0.099264	0.099885	0.086439	0.617816	0.353723	0.041926	0.054098	0.145200	0.191202	0.565735	0.337802	1.065336	0.888344	0.063468	0.153775	0.144972	0.104735	0.471164	0.258747	0.312446	0.378810	0.029995	0.060242	0.166897	0.164503	0.259919	0.167597	0.421756	0.274433	0.303383	0.118719	0.064762	0.056419	0.361908	0.198366	0.424000	0.517075	0.155080	0.082294	0.156367	0.180358	0.298309	0.109647	0.406719	0.270741	0.049811	0.082603	0.138000	0.091307	0.439731	0.189182	0.263468	0.155672	0.072008	0.113991	0.340889	0.206768	0.486672	0.296297	0.267327	0.333976	0.135662	0.046663	0.169455	0.126131	0.275469	0.173100	0.468158	0.653986	0.094076	0.330003	0.049517	0.073323
94	0.142794	0.145549	0.540635	0.608719	0.057685	0.055506	0.084236	0.082145	0.101414	0.086844	0.595055	0.356219	0.028981	0.036423	0.202430	0.197363	0.551177	0.328578	1.069442	0.917113	0.063305	0.144578	0.162928	0.121684	0.486904	0.266226	0.302111	0.384740	0.031545	0.061383	0.168284	0.174086	0.287205	0.180886	0.382606	0.213948	0.296724	0.122163	0.059544	0.043549	0.366490	0.207873	0.383626	0.496443	0.155124	0.081734	0.161035	0.152558	0.308453	0.113486	0.311233	0.210894	0.049214	0.084151	0.128262	0.090248	0.439607	0.187899	0.246046	0.120349	0.075422	0.111425	0.334341	0.202342	0.489635	0.296568	0.218073	0.295872	0.116172	0.047730	0.150072	0.126978	0.281360	0.174417	0.461244	0.593616	0.094681	0.332779	0.062069	0.101659
95	0.132736	0.141711	0.496472	0.559324	0.081073	0.071609	0.072007	0.081772	0.094131	0.079191	0.649433	0.362834	0.042932	0.047199	0.269568	0.193007	0.518889	0.321078	1.067638	0.939136	0.060306	0.151566	0.166474	0.149066	0.487727	0.267230	0.286436	0.421760	0.036757	0.066900	0.169126	0.176882	0.302450	0.178385	0.378372	0.147975	0.292242	0.122980	0.058681	0.043161	0.422919	0.236597	0.354854	0.449734	0.153343	0.078572	0.170301	0.130869	0.324837	0.115338	0.290814	0.154080	0.049912	0.084182	0.146687	0.090651	0.426750	0.176556	0.167014	0.116234	0.077207	0.116351	0.278711	0.169287	0.487536	0.292820	0.227003	0.274992	0.119117	0.050476	0.135723	0.123774	0.284429	0.174693	0.472835	0.544015	0.104147	0.342636	0.137238	0.198263
96	0.137824	0.145735	0.495566	0.538627	0.117347	0.100279	0.066081	0.073282	0.088115	0.070531	0.696994	0.414245	0.052101	0.052774	0.287615	0.207697	0.509589	0.326257	1.033092	0.941311	0.042671	0.112151	0.169214	0.169221	0.487220	0.267299	0.277949	0.454146	0.041327	0.071886	0.167149	0.177332	0.296764	0.161545	0.342690	0.102432	0.292895	0.123511	0.055343	0.041900	0.504165	0.262214	0.332619	0.391775	0.183798	0.084880	0.171628	0.118935	0.352306	0.113658	0.284479	0.146164	0.050319	0.085165	0.137401	0.132066	0.400562	0.169384	0.103704	0.112709	0.079077	0.116641	0.181781	0.104714	0.472749	0.279940	0.293016	0.264437	0.120162	0.050779	0.135190	0.118539	0.323615	0.177455	0.482049	0.512156	0.119132	0.356916	0.164029	0.229570
97	0.127161	0.124786	0.549677	0.599597	0.172180	0.139937	0.061292	0.072264	0.096079	0.076145	0.668800	0.429259	0.053594	0.056096	0.286671	0.239538	0.502124	0.320643	0.879906	0.876461	0.041367	0.108017	0.170251	0.180150	0.485911	0.266727	0.300332	0.457398	0.040238	0.071504	0.160753	0.162137	0.297803	0.143120	0.310449	0.089995	0.291514	0.123050	0.052542	0.039776	0.542928	0.270310	0.323258	0.331308	0.237316	0.093943	0.161487	0.117603	0.357265	0.097517	0.259353	0.147070	0.046143	0.072162	0.124408	0.206107	0.384475	0.166467	0.086712	0.092698	0.097232	0.124336	0.163244	0.079896	0.457853	0.266139	0.301219	0.263912	0.139741	0.054509	0.143400	0.121560	0.353166	0.170427	0.485894	0.503221	0.122722	0.359003	0.179745	0.229108
98	0.124976	0.100638	0.642703	0.627457	0.208123	0.160581	0.056979	0.074181	0.099751	0.077020	0.663759	0.426609	0.067001	0.074590	0.294348	0.267705	0.453999	0.291674	0.721184	0.732893	0.048966	0.114874	0.169017	0.183893	0.474432	0.259945	0.305862	0.442488	0.040363	0.067442	0.134087	0.133448	0.327741	0.130416	0.303469	0.093783	0.285244	0.118409	0.046371	0.035106	0.539168	0.266528	0.297977	0.291153	0.286326	0.105084	0.146394	0.118371	0.361153	0.087321	0.253593	0.146241	0.045666	0.068574	0.128005	0.287287	0.393054	0.164820	0.085163	0.068641	0.107005	0.123970	0.152953	0.079916	0.438465	0.251390	0.318731	0.264888	0.149347	0.054550	0.154449	0.108626	0.329441	0.151545	0.484672	0.502832	0.124650	0.342587	0.237866	0.237036
99	0.146296	0.095482	0.700087	0.626275	0.221948	0.162639	0.047182	0.074651	0.102624	0.076318	0.628195	0.411936	0.104255	0.100943	0.303154	0.277093	0.352086	0.261378	0.710554	0.620241	0.062192	0.142732	0.166772	0.176589	0.453110	0.246475	0.287407	0.432800	0.042003	0.058446	0.140414	0.150642	0.330855	0.130473	0.312429	0.109256	0.258377	0.106354	0.064401	0.032566	0.531454	0.260030	0.247569	0.288367	0.342512	0.112334	0.123362	0.105769	0.440532	0.099598	0.246471	0.147802	0.045406	0.067420	0.165582	0.314839	0.397023	0.163500	0.074774	0.063263	0.109671	0.123211	0.134860	0.076701	0.403742	0.235095	0.364274	0.268089	0.149641	0.052814	0.149290	0.103459	0.314461	0.155766	0.479848	0.502291	0.122023	0.300247	0.267646	0.254480
100	0.161566	0.098171	0.670798	0.606457	0.223026	0.181131	0.044658	0.074551	0.103403	0.076109	0.600118	0.381650	0.141477	0.120769	0.304141	0.277971	0.285835	0.232770	0.611676	0.608862	0.065880	0.150114	0.162004	0.169290	0.413382	0.229485	0.293309	0.432473	0.048116	0.055432	0.111080	0.164968	0.373779	0.164379	0.331752	0.131490	0.218479	0.098844	0.065806	0.030023	0.523016	0.253275	0.207295	0.298657	0.358193	0.113491	0.107675	0.100177	0.451119	0.098883	0.212838	0.149680	0.042872	0.073528	0.203281	0.316232	0.362196	0.134055	0.072711	0.059571	0.109223	0.123741	0.134010	0.074604	0.386832	0.228050	0.389109	0.283488	0.151093	0.052945	0.159984	0.103368	0.307457	0.167953	0.475572	0.499627	0.121824	0.289315	0.269515	0.272290
101	0.172106	0.097989	0.741154	0.654136	0.229710	0.210945	0.055795	0.077046	0.106017	0.077695	0.631256	0.413459	0.165024	0.128436	0.295573	0.276388	0.260344	0.201587	0.452031	0.615593	0.068659	0.151736	0.148881	0.161615	0.370075	0.216828	0.284187	0.415077	0.054204	0.052009	0.088201	0.163655	0.474478	0.214043	0.341096	0.148976	0.217103	0.094704	0.073602	0.025788	0.509832	0.247295	0.195922	0.306548	0.430272	0.150143	0.108824	0.101117	0.427839	0.097268	0.208201	0.141413	0.042616	0.119226	0.220552	0.333502	0.253271	0.089886	0.066396	0.056741	0.106519	0.122388	0.129432	0.073744	0.381620	0.227359	0.393483	0.288740	0.156622	0.053735	0.172764	0.098753	0.314009	0.175443	0.470412	0.491903	0.115486	0.234194	0.271654	0.277666
