	308_At_T1_sh_ND_01.c3d	308_At_T1_sh_ND_01.c3d	308_At_T1_sh_ND_01.c3d	308_At_T1_sh_ND_01.c3d	308_At_T1_sh_ND_01.c3d	308_At_T1_sh_ND_01.c3d	308_At_T1_sh_ND_01.c3d	308_At_T1_sh_ND_01.c3d	308_At_T1_sh_ND_02.c3d	308_At_T1_sh_ND_02.c3d	308_At_T1_sh_ND_02.c3d	308_At_T1_sh_ND_02.c3d	308_At_T1_sh_ND_02.c3d	308_At_T1_sh_ND_02.c3d	308_At_T1_sh_ND_02.c3d	308_At_T1_sh_ND_02.c3d	308_At_T1_sh_ND_03.c3d	308_At_T1_sh_ND_03.c3d	308_At_T1_sh_ND_03.c3d	308_At_T1_sh_ND_03.c3d	308_At_T1_sh_ND_03.c3d	308_At_T1_sh_ND_03.c3d	308_At_T1_sh_ND_03.c3d	308_At_T1_sh_ND_03.c3d	308_At_T1_sh_ND_04.c3d	308_At_T1_sh_ND_04.c3d	308_At_T1_sh_ND_04.c3d	308_At_T1_sh_ND_04.c3d	308_At_T1_sh_ND_04.c3d	308_At_T1_sh_ND_04.c3d	308_At_T1_sh_ND_04.c3d	308_At_T1_sh_ND_04.c3d	308_At_T1_sh_ND_05.c3d	308_At_T1_sh_ND_05.c3d	308_At_T1_sh_ND_05.c3d	308_At_T1_sh_ND_05.c3d	308_At_T1_sh_ND_05.c3d	308_At_T1_sh_ND_05.c3d	308_At_T1_sh_ND_05.c3d	308_At_T1_sh_ND_05.c3d	308_At_T1_sh_ND_06.c3d	308_At_T1_sh_ND_06.c3d	308_At_T1_sh_ND_06.c3d	308_At_T1_sh_ND_06.c3d	308_At_T1_sh_ND_06.c3d	308_At_T1_sh_ND_06.c3d	308_At_T1_sh_ND_06.c3d	308_At_T1_sh_ND_06.c3d	308_At_T1_sh_ND_07.c3d	308_At_T1_sh_ND_07.c3d	308_At_T1_sh_ND_07.c3d	308_At_T1_sh_ND_07.c3d	308_At_T1_sh_ND_07.c3d	308_At_T1_sh_ND_07.c3d	308_At_T1_sh_ND_07.c3d	308_At_T1_sh_ND_07.c3d	308_At_T1_sh_ND_08.c3d	308_At_T1_sh_ND_08.c3d	308_At_T1_sh_ND_08.c3d	308_At_T1_sh_ND_08.c3d	308_At_T1_sh_ND_08.c3d	308_At_T1_sh_ND_08.c3d	308_At_T1_sh_ND_08.c3d	308_At_T1_sh_ND_08.c3d	308_At_T1_sh_ND_09.c3d	308_At_T1_sh_ND_09.c3d	308_At_T1_sh_ND_09.c3d	308_At_T1_sh_ND_09.c3d	308_At_T1_sh_ND_09.c3d	308_At_T1_sh_ND_09.c3d	308_At_T1_sh_ND_09.c3d	308_At_T1_sh_ND_09.c3d	308_At_T1_sh_ND_10.c3d	308_At_T1_sh_ND_10.c3d	308_At_T1_sh_ND_10.c3d	308_At_T1_sh_ND_10.c3d	308_At_T1_sh_ND_10.c3d	308_At_T1_sh_ND_10.c3d	308_At_T1_sh_ND_10.c3d	308_At_T1_sh_ND_10.c3d
	Biceps femoris_lat	Semitendinosus_lat	Vastus lateralis_lat	Vastus medialis_lat	Biceps femoris_med	Semitendinosus_med	Vastus lateralis_med	Vastus medialis_med	Biceps femoris_lat	Semitendinosus_lat	Vastus lateralis_lat	Vastus medialis_lat	Biceps femoris_med	Semitendinosus_med	Vastus lateralis_med	Vastus medialis_med	Biceps femoris_lat	Semitendinosus_lat	Vastus lateralis_lat	Vastus medialis_lat	Biceps femoris_med	Semitendinosus_med	Vastus lateralis_med	Vastus medialis_med	Biceps femoris_lat	Semitendinosus_lat	Vastus lateralis_lat	Vastus medialis_lat	Biceps femoris_med	Semitendinosus_med	Vastus lateralis_med	Vastus medialis_med	Biceps femoris_lat	Semitendinosus_lat	Vastus lateralis_lat	Vastus medialis_lat	Biceps femoris_med	Semitendinosus_med	Vastus lateralis_med	Vastus medialis_med	Biceps femoris_lat	Semitendinosus_lat	Vastus lateralis_lat	Vastus medialis_lat	Biceps femoris_med	Semitendinosus_med	Vastus lateralis_med	Vastus medialis_med	Biceps femoris_lat	Semitendinosus_lat	Vastus lateralis_lat	Vastus medialis_lat	Biceps femoris_med	Semitendinosus_med	Vastus lateralis_med	Vastus medialis_med	Biceps femoris_lat	Semitendinosus_lat	Vastus lateralis_lat	Vastus medialis_lat	Biceps femoris_med	Semitendinosus_med	Vastus lateralis_med	Vastus medialis_med	Biceps femoris_lat	Semitendinosus_lat	Vastus lateralis_lat	Vastus medialis_lat	Biceps femoris_med	Semitendinosus_med	Vastus lateralis_med	Vastus medialis_med	Biceps femoris_lat	Semitendinosus_lat	Vastus lateralis_lat	Vastus medialis_lat	Biceps femoris_med	Semitendinosus_med	Vastus lateralis_med	Vastus medialis_med
	P2D	P2D	P2D	P2D	P2D	P2D	P2D	P2D	P2D	P2D	P2D	P2D	P2D	P2D	P2D	P2D	P2D	P2D	P2D	P2D	P2D	P2D	P2D	P2D	P2D	P2D	P2D	P2D	P2D	P2D	P2D	P2D	P2D	P2D	P2D	P2D	P2D	P2D	P2D	P2D	P2D	P2D	P2D	P2D	P2D	P2D	P2D	P2D	P2D	P2D	P2D	P2D	P2D	P2D	P2D	P2D	P2D	P2D	P2D	P2D	P2D	P2D	P2D	P2D	P2D	P2D	P2D	P2D	P2D	P2D	P2D	P2D	P2D	P2D	P2D	P2D	P2D	P2D	P2D	P2D
	EMG_lat	EMG_lat	EMG_lat	EMG_lat	EMG_med	EMG_med	EMG_med	EMG_med	EMG_lat	EMG_lat	EMG_lat	EMG_lat	EMG_med	EMG_med	EMG_med	EMG_med	EMG_lat	EMG_lat	EMG_lat	EMG_lat	EMG_med	EMG_med	EMG_med	EMG_med	EMG_lat	EMG_lat	EMG_lat	EMG_lat	EMG_med	EMG_med	EMG_med	EMG_med	EMG_lat	EMG_lat	EMG_lat	EMG_lat	EMG_med	EMG_med	EMG_med	EMG_med	EMG_lat	EMG_lat	EMG_lat	EMG_lat	EMG_med	EMG_med	EMG_med	EMG_med	EMG_lat	EMG_lat	EMG_lat	EMG_lat	EMG_med	EMG_med	EMG_med	EMG_med	EMG_lat	EMG_lat	EMG_lat	EMG_lat	EMG_med	EMG_med	EMG_med	EMG_med	EMG_lat	EMG_lat	EMG_lat	EMG_lat	EMG_med	EMG_med	EMG_med	EMG_med	EMG_lat	EMG_lat	EMG_lat	EMG_lat	EMG_med	EMG_med	EMG_med	EMG_med
ITEM	Y	Y	Y	Y	Y	Y	Y	Y	Y	Y	Y	Y	Y	Y	Y	Y	Y	Y	Y	Y	Y	Y	Y	Y	Y	Y	Y	Y	Y	Y	Y	Y	Y	Y	Y	Y	Y	Y	Y	Y	Y	Y	Y	Y	Y	Y	Y	Y	Y	Y	Y	Y	Y	Y	Y	Y	Y	Y	Y	Y	Y	Y	Y	Y	Y	Y	Y	Y	Y	Y	Y	Y	Y	Y	Y	Y	Y	Y	Y	Y
1	0.556736	0.475964	0.578136	0.262541	0.146243	0.170764	0.893235	0.195069	0.289135	0.432794	0.362197	0.265265	0.079305	0.093373	0.653173	0.291635	0.130632	0.709491	0.169067	0.173304	0.127294	0.133443	0.251950	0.221408	0.203456	0.272180	0.671496	0.267407	0.078975	0.065843	0.377232	0.088897	0.105644	0.156621	0.218243	0.128107	0.325297	0.128202	0.218770	0.103746	0.132330	0.199055	0.311289	0.267639	0.120120	0.257438	0.182062	0.141951	0.167655	0.170868	0.539679	0.242192	0.110937	0.099341	0.373378	0.566038	0.750808	0.612520	0.334636	0.380806	0.116700	0.172254	0.477967	0.279699	0.129973	0.126890	0.326538	0.161272	0.060853	0.072542	0.374286	0.147452	0.264652	0.237867	0.292868	0.153097	0.202054	0.165493	0.609945	0.263840
2	0.299166	0.376817	0.579223	0.301897	0.158126	0.162201	0.915433	0.218419	0.284997	0.334060	0.356420	0.260247	0.098005	0.087808	0.603397	0.297022	0.129071	0.475516	0.242533	0.174766	0.127546	0.134780	0.254409	0.222097	0.185138	0.242732	0.711628	0.298581	0.104897	0.080614	0.369586	0.116912	0.102026	0.175034	0.240164	0.114108	0.323070	0.125328	0.375930	0.103373	0.132197	0.197537	0.229186	0.271114	0.091807	0.254771	0.180839	0.141825	0.159592	0.105475	0.433947	0.234404	0.111756	0.101430	0.359421	0.576808	0.718558	0.586016	0.350636	0.387491	0.105757	0.158380	0.506276	0.278859	0.129793	0.123870	0.272050	0.134185	0.066150	0.076825	0.386487	0.138187	0.258083	0.247169	0.289668	0.171767	0.194439	0.154576	0.599523	0.261582
3	0.249372	0.350605	0.549472	0.290301	0.159828	0.154396	0.927707	0.262950	0.283736	0.214987	0.362737	0.246494	0.103125	0.088464	0.630616	0.311248	0.128399	0.394568	0.247402	0.180820	0.127796	0.138468	0.267834	0.233975	0.185203	0.188814	0.720293	0.305890	0.097112	0.076993	0.338342	0.122744	0.104479	0.207664	0.247270	0.110979	0.317973	0.096545	0.421209	0.111452	0.139281	0.201124	0.178361	0.252467	0.077439	0.250450	0.164221	0.152810	0.223657	0.117474	0.358068	0.241511	0.112732	0.109891	0.294774	0.569306	0.640987	0.527593	0.364334	0.384587	0.105471	0.156628	0.464001	0.275143	0.129076	0.124375	0.289687	0.138153	0.065687	0.075663	0.380365	0.173097	0.293364	0.261883	0.304841	0.252348	0.167223	0.135531	0.561269	0.262978
4	0.332762	0.403563	0.466766	0.296651	0.162409	0.151402	0.920422	0.290722	0.278981	0.203082	0.365342	0.219862	0.108535	0.094892	0.684151	0.295774	0.122122	0.359104	0.252153	0.191956	0.126295	0.139426	0.290951	0.232658	0.170977	0.184711	0.708817	0.303571	0.097344	0.077039	0.326405	0.131625	0.102636	0.197288	0.234399	0.110542	0.308220	0.088948	0.440666	0.109498	0.157657	0.245598	0.175613	0.254900	0.069362	0.223836	0.135382	0.154801	0.252511	0.116480	0.377721	0.252893	0.113366	0.112247	0.289082	0.549003	0.531087	0.441814	0.378985	0.369520	0.097484	0.141913	0.412293	0.261557	0.126161	0.106643	0.297666	0.133803	0.108723	0.100763	0.369014	0.358185	0.303675	0.261601	0.332655	0.318268	0.155037	0.125461	0.494153	0.291581
5	0.371735	0.419188	0.468421	0.327218	0.163089	0.146169	0.920616	0.298262	0.261974	0.154497	0.365264	0.223942	0.110904	0.098794	0.724021	0.294637	0.120625	0.355183	0.279128	0.197156	0.130571	0.137588	0.307843	0.179182	0.162462	0.183505	0.707134	0.348051	0.100284	0.074181	0.315243	0.183669	0.098246	0.188264	0.239576	0.135726	0.303287	0.088832	0.458040	0.162825	0.153053	0.245288	0.193625	0.284094	0.065750	0.203880	0.155873	0.182617	0.239297	0.112880	0.353599	0.261728	0.115313	0.099422	0.278430	0.534031	0.425656	0.395668	0.376503	0.352948	0.106268	0.135735	0.408902	0.397493	0.115533	0.094371	0.319557	0.126951	0.180220	0.140252	0.390202	0.544756	0.295772	0.251024	0.339353	0.337770	0.163274	0.117008	0.439000	0.377611
6	0.376898	0.480978	0.524441	0.352268	0.159771	0.112429	0.935708	0.297508	0.259048	0.148220	0.346653	0.347297	0.117502	0.106592	0.728842	0.277328	0.118725	0.343015	0.299727	0.204027	0.127439	0.130436	0.317349	0.171031	0.139293	0.183477	0.726758	0.385207	0.116806	0.078401	0.327103	0.207024	0.090657	0.179976	0.241141	0.218936	0.303415	0.090031	0.458702	0.192263	0.147097	0.233447	0.253533	0.305603	0.062529	0.201527	0.137339	0.302178	0.230726	0.111346	0.346187	0.255910	0.124519	0.095728	0.282834	0.530470	0.403648	0.387938	0.356891	0.335674	0.170403	0.160419	0.419650	0.570402	0.113262	0.085628	0.342592	0.137866	0.202334	0.148339	0.369157	0.586184	0.298426	0.229377	0.354731	0.342316	0.161314	0.105029	0.419755	0.463896
7	0.413111	0.503969	0.543479	0.353692	0.163017	0.102845	0.918609	0.302117	0.160718	0.133524	0.335389	0.503269	0.126432	0.120216	0.727695	0.253624	0.137386	0.334914	0.327895	0.202024	0.116957	0.125790	0.333297	0.184428	0.126376	0.170075	0.667906	0.387790	0.126742	0.093799	0.364860	0.230175	0.095417	0.177776	0.251019	0.236930	0.293587	0.091375	0.445579	0.193465	0.133739	0.220482	0.297743	0.294923	0.084125	0.188041	0.143593	0.359689	0.229032	0.107014	0.330855	0.237696	0.121896	0.102363	0.235923	0.539246	0.405486	0.385607	0.319834	0.329286	0.177022	0.149145	0.432675	0.603504	0.112230	0.081626	0.346889	0.152188	0.213717	0.149773	0.386072	0.596134	0.300811	0.218320	0.351944	0.342033	0.160223	0.098475	0.419389	0.482522
8	0.478435	0.527620	0.533202	0.378278	0.154124	0.092742	0.847600	0.329032	0.138691	0.155410	0.504647	0.547298	0.143162	0.135476	0.751705	0.321310	0.174462	0.332896	0.332974	0.198566	0.133410	0.142847	0.374023	0.197086	0.114443	0.159430	0.638258	0.377413	0.124248	0.098618	0.377840	0.252021	0.097384	0.178431	0.262127	0.237533	0.270141	0.086384	0.436350	0.233416	0.135210	0.210988	0.282910	0.310467	0.093669	0.113553	0.155190	0.361418	0.219772	0.103049	0.289694	0.231074	0.121057	0.111141	0.249125	0.531091	0.406123	0.381071	0.299962	0.331125	0.188338	0.149618	0.472314	0.598014	0.113315	0.081921	0.382501	0.155902	0.215325	0.150190	0.368318	0.655959	0.315813	0.224120	0.410464	0.350695	0.159693	0.098300	0.409887	0.479197
9	0.517830	0.524355	0.546365	0.468699	0.134733	0.076941	0.780684	0.334944	0.192681	0.198309	0.524381	0.558537	0.161366	0.149681	0.721694	0.382563	0.175701	0.322415	0.329279	0.202194	0.168151	0.141758	0.372992	0.205186	0.125786	0.139325	0.613943	0.369183	0.159540	0.106407	0.361930	0.279868	0.095173	0.178376	0.292161	0.245212	0.241876	0.079945	0.445070	0.299669	0.135127	0.202400	0.292565	0.311486	0.114313	0.072758	0.172862	0.367696	0.216013	0.102726	0.263549	0.224501	0.118483	0.122830	0.267194	0.512999	0.403635	0.376279	0.344566	0.336092	0.193050	0.149263	0.434136	0.629075	0.113555	0.078730	0.407698	0.156170	0.237751	0.161760	0.418968	0.740087	0.343375	0.222098	0.486574	0.370129	0.167262	0.102301	0.386753	0.499642
10	0.524253	0.523334	0.518794	0.511116	0.132174	0.080006	0.778368	0.331287	0.213170	0.209903	0.640635	0.633195	0.167435	0.149156	0.612356	0.356660	0.178395	0.275674	0.344526	0.197716	0.159264	0.121421	0.397845	0.217361	0.131684	0.134954	0.506624	0.354332	0.177548	0.107883	0.363724	0.325276	0.102400	0.168983	0.296617	0.268595	0.156266	0.064660	0.421010	0.345090	0.137636	0.194753	0.300961	0.342031	0.133185	0.093496	0.193011	0.388254	0.218184	0.102890	0.263324	0.218118	0.116103	0.129717	0.280874	0.482789	0.392535	0.374274	0.361245	0.338696	0.195048	0.145065	0.494294	0.679107	0.101232	0.075494	0.398675	0.154767	0.266857	0.172346	0.402987	0.780104	0.335588	0.197664	0.506608	0.385006	0.198946	0.112725	0.294983	0.539941
11	0.521236	0.506717	0.513803	0.507224	0.143961	0.082166	0.771062	0.328298	0.221074	0.210065	0.716323	0.747446	0.177085	0.143243	0.584787	0.372880	0.177818	0.171581	0.345786	0.189501	0.150554	0.119888	0.415763	0.245601	0.115789	0.094521	0.437399	0.324397	0.183125	0.107919	0.355114	0.345745	0.117649	0.147897	0.317782	0.293932	0.182253	0.102609	0.298954	0.353209	0.143472	0.198584	0.357696	0.365509	0.172364	0.113810	0.201659	0.415064	0.227065	0.103532	0.288703	0.237206	0.126032	0.157351	0.251199	0.460596	0.374819	0.364210	0.362411	0.327289	0.201443	0.144311	0.508752	0.726107	0.080487	0.072111	0.355578	0.156017	0.269992	0.172294	0.373814	0.788936	0.323997	0.178870	0.490745	0.382930	0.226686	0.126154	0.265919	0.586628
12	0.492447	0.454399	0.533442	0.497729	0.136254	0.071735	0.667784	0.335014	0.230073	0.211202	0.722470	0.826102	0.180404	0.143780	0.607914	0.389480	0.186580	0.100117	0.391097	0.189765	0.153377	0.120229	0.428862	0.265626	0.090141	0.053406	0.408280	0.307493	0.186301	0.106769	0.308910	0.374578	0.125814	0.115863	0.312849	0.307463	0.212861	0.115329	0.265836	0.399809	0.173589	0.211883	0.415732	0.396083	0.180171	0.114161	0.202206	0.435281	0.150915	0.089449	0.326093	0.331926	0.130420	0.160852	0.236492	0.444347	0.338980	0.350839	0.382150	0.306064	0.229274	0.161350	0.484224	0.740745	0.075217	0.080055	0.327496	0.161568	0.269829	0.171872	0.373822	0.794008	0.323258	0.179338	0.493202	0.374265	0.230238	0.129835	0.274997	0.622014
13	0.480208	0.447211	0.537946	0.503385	0.132450	0.074362	0.521737	0.356074	0.242445	0.217317	0.725799	0.856718	0.201287	0.156573	0.589916	0.420968	0.200687	0.098891	0.385587	0.196141	0.161196	0.119267	0.430358	0.267464	0.089256	0.049010	0.404356	0.313038	0.180988	0.110308	0.256204	0.370156	0.143984	0.139806	0.309866	0.325779	0.240549	0.120927	0.213682	0.430505	0.167205	0.156189	0.434655	0.418750	0.183518	0.115294	0.217234	0.453862	0.148757	0.100367	0.286153	0.429546	0.132943	0.154930	0.232249	0.440181	0.307159	0.331010	0.387710	0.295498	0.235208	0.162021	0.453974	0.742436	0.095486	0.092259	0.321487	0.168795	0.266926	0.167365	0.369862	0.791011	0.325277	0.195438	0.504555	0.373030	0.231371	0.129557	0.248285	0.637705
14	0.459857	0.424788	0.539383	0.527736	0.131630	0.075019	0.434078	0.353611	0.248081	0.222616	0.723841	0.858961	0.196296	0.152075	0.529263	0.447858	0.233960	0.109310	0.385071	0.216130	0.163679	0.117545	0.417862	0.277823	0.087883	0.041687	0.407529	0.291206	0.174527	0.131139	0.216443	0.395147	0.149211	0.146181	0.302264	0.316080	0.259761	0.131706	0.175175	0.420328	0.157813	0.148046	0.431229	0.415780	0.186313	0.116841	0.213198	0.447224	0.141098	0.096708	0.257905	0.434686	0.132509	0.154863	0.232199	0.438125	0.262293	0.284875	0.383254	0.306746	0.234915	0.159935	0.451334	0.740042	0.102488	0.091067	0.316622	0.173997	0.231712	0.136497	0.343004	0.679332	0.324150	0.207645	0.523959	0.376858	0.232244	0.129172	0.191741	0.641220
15	0.406650	0.388445	0.535350	0.517980	0.132464	0.086255	0.430736	0.344572	0.247280	0.218392	0.721410	0.856462	0.195362	0.152072	0.496382	0.458721	0.245263	0.112672	0.382515	0.228821	0.178967	0.123903	0.421271	0.341383	0.081707	0.043116	0.324460	0.214899	0.178478	0.139356	0.092810	0.430396	0.158138	0.185580	0.292008	0.266035	0.292532	0.137224	0.172460	0.439625	0.160886	0.140001	0.423196	0.398820	0.184663	0.117130	0.203760	0.413676	0.141204	0.096430	0.250690	0.435510	0.118790	0.158654	0.232046	0.411676	0.226886	0.232278	0.368406	0.326624	0.230669	0.153476	0.447541	0.748167	0.103466	0.089279	0.294335	0.178934	0.196028	0.115696	0.323776	0.622658	0.310649	0.204597	0.558234	0.371214	0.232653	0.129271	0.179327	0.641332
16	0.394064	0.354965	0.484628	0.493894	0.154157	0.105531	0.433673	0.349940	0.247243	0.215501	0.719360	0.838895	0.189600	0.144057	0.486015	0.496011	0.303577	0.127811	0.365697	0.235729	0.176443	0.122691	0.474264	0.460271	0.087350	0.041617	0.248297	0.189321	0.172997	0.139095	0.139030	0.484111	0.165546	0.188652	0.264601	0.265975	0.294820	0.143229	0.171397	0.446698	0.159860	0.139972	0.365708	0.405785	0.184666	0.121688	0.206049	0.367933	0.140745	0.095493	0.243616	0.435822	0.092883	0.150343	0.212263	0.334960	0.208152	0.213168	0.355258	0.343157	0.204709	0.128359	0.450259	0.624436	0.102660	0.088927	0.287248	0.182775	0.179916	0.112381	0.271539	0.641557	0.286030	0.186832	0.561710	0.329845	0.233040	0.128045	0.180082	0.637873
17	0.383458	0.264793	0.440156	0.478987	0.164386	0.110823	0.441962	0.372042	0.251169	0.215879	0.718302	0.770701	0.181739	0.127379	0.475627	0.498619	0.314375	0.168415	0.340969	0.237618	0.180169	0.127250	0.519276	0.602183	0.105516	0.055769	0.261007	0.189031	0.171693	0.131334	0.132965	0.483853	0.165643	0.188873	0.272601	0.270411	0.297783	0.143636	0.166429	0.436890	0.168897	0.139337	0.380275	0.434451	0.193963	0.137528	0.199040	0.388250	0.139609	0.098937	0.241689	0.425275	0.100494	0.146329	0.243547	0.313365	0.206993	0.213788	0.344450	0.343977	0.170474	0.104986	0.449167	0.546716	0.105192	0.088934	0.257214	0.182882	0.184033	0.111359	0.262875	0.635017	0.263007	0.177708	0.544525	0.276332	0.230719	0.120272	0.191599	0.618524
18	0.322492	0.221647	0.427222	0.479142	0.165142	0.111140	0.462857	0.400095	0.270370	0.216921	0.668208	0.693509	0.161473	0.098759	0.415475	0.442172	0.317984	0.191488	0.325650	0.236638	0.183503	0.132322	0.522126	0.610187	0.106577	0.057837	0.225218	0.189158	0.170615	0.131832	0.152910	0.471556	0.162482	0.185600	0.391775	0.269019	0.319812	0.145974	0.140354	0.427615	0.175236	0.150651	0.381758	0.441881	0.198328	0.143394	0.179070	0.438085	0.136953	0.102663	0.226316	0.439660	0.123042	0.142178	0.221051	0.336303	0.207602	0.200015	0.364304	0.335749	0.162601	0.100339	0.408282	0.551171	0.106202	0.088769	0.231439	0.190528	0.172485	0.106311	0.222822	0.589791	0.264812	0.196144	0.541165	0.269194	0.217381	0.109422	0.224382	0.556115
19	0.222575	0.157716	0.421419	0.435612	0.162901	0.109579	0.453248	0.411562	0.274180	0.198083	0.606696	0.696444	0.157139	0.092787	0.405830	0.416092	0.313750	0.200228	0.312041	0.210420	0.168370	0.109007	0.494177	0.606867	0.107194	0.069797	0.235199	0.220468	0.164717	0.133465	0.149501	0.503232	0.165729	0.175994	0.387136	0.236398	0.327643	0.146695	0.136513	0.421029	0.171987	0.169179	0.374972	0.422016	0.234391	0.134512	0.166952	0.484509	0.133015	0.110558	0.241827	0.502306	0.138412	0.132192	0.210442	0.353590	0.196866	0.163702	0.339998	0.317278	0.163846	0.098682	0.415420	0.541456	0.108745	0.088883	0.223895	0.196739	0.190884	0.114920	0.239112	0.527579	0.261071	0.197169	0.538112	0.277200	0.219148	0.108495	0.232046	0.486970
20	0.137224	0.137219	0.326922	0.340505	0.159160	0.108881	0.460775	0.413925	0.251576	0.173234	0.596107	0.694537	0.145217	0.093479	0.327238	0.451160	0.336696	0.203838	0.308788	0.194937	0.142001	0.088196	0.493196	0.635872	0.179106	0.133108	0.301541	0.282915	0.169423	0.141597	0.157089	0.563518	0.166800	0.175519	0.389822	0.217157	0.316340	0.131778	0.120380	0.415244	0.165463	0.170846	0.339489	0.391940	0.247040	0.146158	0.176007	0.497991	0.116513	0.108443	0.217836	0.516283	0.138442	0.124877	0.178571	0.397631	0.213918	0.165337	0.323178	0.294454	0.164911	0.099115	0.345607	0.508651	0.097702	0.087706	0.143139	0.190867	0.216557	0.123162	0.260792	0.506759	0.252310	0.195325	0.555575	0.285716	0.231761	0.113956	0.239964	0.477805
21	0.136575	0.134509	0.273019	0.317599	0.159060	0.109184	0.460148	0.412044	0.231255	0.161442	0.411164	0.609890	0.129259	0.101833	0.312315	0.454721	0.449827	0.254977	0.285457	0.202229	0.190922	0.136813	0.470197	0.648736	0.217081	0.158710	0.300536	0.313267	0.160992	0.121103	0.156635	0.556790	0.161344	0.159764	0.422090	0.200019	0.308292	0.128869	0.083345	0.377158	0.140036	0.150559	0.261771	0.366328	0.319260	0.200680	0.171913	0.481610	0.082765	0.083245	0.166898	0.435567	0.123789	0.087230	0.196194	0.456739	0.226696	0.175181	0.339683	0.282706	0.163742	0.106549	0.275120	0.438815	0.092369	0.093016	0.094760	0.194821	0.223307	0.129574	0.269318	0.499905	0.229321	0.197379	0.543745	0.277966	0.236250	0.114522	0.240903	0.492595
22	0.138851	0.133684	0.253263	0.315363	0.156158	0.107664	0.458365	0.413578	0.221381	0.158563	0.312622	0.466715	0.132682	0.107575	0.199645	0.457748	0.497800	0.294624	0.282108	0.271086	0.260410	0.188975	0.424674	0.644636	0.233686	0.169564	0.377500	0.316389	0.159302	0.097089	0.158442	0.533627	0.149947	0.135633	0.432190	0.171955	0.386470	0.191444	0.095453	0.348827	0.110924	0.142155	0.213318	0.326164	0.347650	0.224144	0.148031	0.469503	0.062161	0.073911	0.171868	0.373458	0.118262	0.080320	0.206979	0.468434	0.225700	0.174258	0.323219	0.277341	0.161335	0.120309	0.271828	0.417250	0.105878	0.112121	0.099920	0.193084	0.229642	0.139006	0.269292	0.466859	0.171310	0.193438	0.501525	0.253732	0.233537	0.113395	0.245255	0.487998
23	0.139216	0.130520	0.258537	0.294896	0.141977	0.101350	0.437581	0.432602	0.210956	0.155985	0.301228	0.336223	0.172512	0.117293	0.164196	0.444433	0.711031	0.393521	0.258208	0.450555	0.335431	0.219307	0.410004	0.639001	0.239743	0.171150	0.414047	0.303126	0.162636	0.085761	0.143234	0.475507	0.146468	0.128576	0.441038	0.171895	0.372510	0.197559	0.114256	0.332157	0.125616	0.168266	0.216062	0.295219	0.362018	0.232975	0.134768	0.471312	0.080418	0.085881	0.181296	0.417751	0.114326	0.083526	0.237968	0.474970	0.225632	0.183366	0.296467	0.262257	0.162363	0.139536	0.277677	0.423040	0.137445	0.143357	0.095974	0.192451	0.238338	0.142281	0.268028	0.483348	0.149505	0.193066	0.466006	0.226586	0.208729	0.104721	0.243109	0.457864
24	0.133849	0.130200	0.284598	0.277681	0.131497	0.100444	0.435425	0.456666	0.199724	0.142524	0.289221	0.281259	0.183050	0.120919	0.154570	0.430508	0.782510	0.409410	0.290693	0.600193	0.400432	0.230095	0.411414	0.638821	0.243483	0.171468	0.413890	0.332874	0.126256	0.093459	0.147719	0.424340	0.132219	0.057777	0.440206	0.169563	0.355756	0.195138	0.180389	0.289251	0.120825	0.165968	0.209592	0.277768	0.363909	0.232651	0.164004	0.432841	0.108328	0.101032	0.197854	0.468289	0.114765	0.082182	0.264676	0.502419	0.230160	0.183313	0.294627	0.254402	0.179097	0.145294	0.294324	0.420923	0.186087	0.200269	0.118028	0.282711	0.246248	0.154390	0.269399	0.495852	0.149033	0.192962	0.463414	0.220763	0.172231	0.088032	0.219348	0.405744
25	0.123521	0.134808	0.285010	0.305253	0.129913	0.096248	0.405040	0.475531	0.198483	0.140168	0.285213	0.278202	0.185739	0.122167	0.159068	0.418144	0.798917	0.431345	0.375160	0.639604	0.409131	0.240358	0.412374	0.630076	0.242682	0.171177	0.407737	0.371614	0.088689	0.129814	0.158973	0.426784	0.121845	0.050959	0.437211	0.152785	0.355969	0.190654	0.192080	0.287652	0.120782	0.165075	0.279529	0.272477	0.359779	0.227287	0.185902	0.435897	0.117801	0.110711	0.218232	0.529222	0.115090	0.064327	0.274454	0.510860	0.267798	0.209804	0.270149	0.262237	0.185259	0.151081	0.324122	0.392603	0.214757	0.218963	0.122785	0.370011	0.248994	0.160925	0.271380	0.496205	0.148473	0.188939	0.457382	0.246538	0.165343	0.081261	0.204952	0.347767
26	0.089622	0.116076	0.291686	0.366610	0.127970	0.093723	0.393739	0.476156	0.200714	0.142755	0.293649	0.282508	0.185874	0.122922	0.178710	0.378776	0.799526	0.438934	0.378090	0.639828	0.498473	0.297174	0.388911	0.594715	0.238485	0.171636	0.403230	0.389324	0.127315	0.214509	0.156086	0.404262	0.127295	0.054764	0.412472	0.140336	0.350872	0.194562	0.193407	0.296878	0.111452	0.165356	0.272616	0.202418	0.351012	0.216524	0.198506	0.417831	0.121917	0.120492	0.221503	0.533968	0.114525	0.063839	0.278333	0.528508	0.327668	0.248382	0.261848	0.280620	0.190970	0.155933	0.325559	0.367479	0.219345	0.217500	0.137797	0.390982	0.250506	0.168641	0.268121	0.532862	0.143434	0.166805	0.450306	0.276389	0.175705	0.082118	0.211961	0.321245
27	0.133104	0.147840	0.295702	0.424693	0.121917	0.088466	0.362334	0.477380	0.199748	0.138563	0.307392	0.291781	0.182727	0.125601	0.192345	0.415144	0.779341	0.436544	0.462053	0.692888	0.589355	0.397572	0.301479	0.507390	0.233456	0.174150	0.405008	0.387759	0.134066	0.226816	0.157159	0.286071	0.132840	0.062083	0.298256	0.124377	0.331258	0.194797	0.222414	0.320039	0.092048	0.161342	0.258553	0.199755	0.339028	0.214790	0.228943	0.351646	0.121899	0.116558	0.222226	0.506373	0.115295	0.074851	0.263582	0.534203	0.356523	0.261766	0.265675	0.289627	0.190331	0.158069	0.294215	0.368213	0.224926	0.224581	0.161704	0.388779	0.244592	0.168593	0.261005	0.494198	0.139903	0.147380	0.427352	0.292530	0.176374	0.082398	0.214830	0.333927
28	0.185696	0.177004	0.302825	0.431251	0.110069	0.076375	0.306740	0.461051	0.184948	0.128726	0.311665	0.300046	0.192423	0.134867	0.187847	0.475268	0.779146	0.416206	0.546359	0.779193	0.636704	0.497373	0.202189	0.342697	0.231452	0.173041	0.399294	0.367629	0.133440	0.224530	0.179960	0.212747	0.105890	0.059184	0.289875	0.125969	0.316069	0.200478	0.256996	0.296961	0.128594	0.150300	0.258826	0.279773	0.309470	0.216873	0.239934	0.257492	0.118500	0.108265	0.186975	0.443218	0.101207	0.086659	0.311080	0.532707	0.373714	0.269570	0.398904	0.300413	0.202151	0.164307	0.289153	0.376038	0.231544	0.228998	0.163212	0.416389	0.221208	0.149503	0.193137	0.447445	0.137793	0.136947	0.370808	0.300418	0.177314	0.085155	0.221603	0.381602
29	0.203525	0.174367	0.316960	0.441668	0.093912	0.060323	0.289432	0.437149	0.139430	0.102815	0.281124	0.282382	0.189587	0.138107	0.176670	0.497927	0.776302	0.414516	0.588192	0.847567	0.672065	0.517581	0.162097	0.335077	0.198246	0.144512	0.339955	0.320418	0.136567	0.225510	0.237449	0.214512	0.095159	0.059833	0.238166	0.110334	0.303700	0.195516	0.260629	0.305665	0.137567	0.146978	0.255800	0.290634	0.275375	0.198303	0.244929	0.188479	0.121583	0.108892	0.172261	0.467573	0.083778	0.089582	0.340044	0.507229	0.392768	0.279636	0.607891	0.303479	0.211047	0.171701	0.246460	0.387451	0.230420	0.228902	0.163055	0.458332	0.161477	0.135886	0.136405	0.439585	0.121534	0.135214	0.340676	0.304177	0.182269	0.098932	0.231574	0.428269
30	0.220964	0.175628	0.376063	0.469321	0.105250	0.071644	0.260426	0.434898	0.095645	0.077105	0.255254	0.227544	0.190339	0.139486	0.180884	0.463483	0.778879	0.414232	0.602657	0.878153	0.675700	0.518454	0.165569	0.322496	0.141077	0.110630	0.331181	0.286283	0.141248	0.223960	0.333255	0.215927	0.100641	0.067297	0.182347	0.153745	0.282178	0.194504	0.287131	0.307140	0.139771	0.150399	0.257494	0.291956	0.172296	0.139176	0.248811	0.211487	0.175021	0.171713	0.392139	0.593611	0.083079	0.089078	0.347268	0.458724	0.407950	0.288338	0.717170	0.312110	0.201853	0.180426	0.232139	0.384790	0.232186	0.230877	0.160594	0.478703	0.131922	0.126938	0.105002	0.451770	0.128566	0.141334	0.343291	0.328804	0.184357	0.112313	0.224487	0.449473
31	0.231448	0.177179	0.388438	0.504563	0.105908	0.073384	0.211234	0.435250	0.075906	0.064287	0.261144	0.173452	0.202994	0.126546	0.179452	0.443673	0.765982	0.415097	0.607710	0.889203	0.674102	0.518315	0.159517	0.246997	0.115636	0.096215	0.271038	0.282357	0.148472	0.228475	0.338728	0.217958	0.097915	0.068221	0.186151	0.280457	0.112755	0.139070	0.288799	0.315142	0.139282	0.145867	0.277345	0.331448	0.116826	0.117026	0.274055	0.210546	0.204439	0.200195	0.494866	0.661682	0.094658	0.087641	0.373373	0.389589	0.405477	0.286239	0.713118	0.311677	0.212491	0.187901	0.242246	0.377978	0.233776	0.234714	0.236502	0.492352	0.121059	0.115706	0.099519	0.462934	0.136435	0.118659	0.393304	0.337057	0.182900	0.116355	0.194155	0.457161
32	0.232498	0.176753	0.413227	0.553692	0.116545	0.074546	0.170870	0.429643	0.075776	0.063180	0.261346	0.155970	0.182855	0.111101	0.177968	0.425713	0.696362	0.383489	0.643245	0.888784	0.661463	0.507114	0.173688	0.195421	0.103830	0.093972	0.159302	0.277103	0.165922	0.242134	0.341752	0.247457	0.097226	0.069282	0.281770	0.300229	0.110799	0.120731	0.292068	0.326477	0.126906	0.105258	0.294630	0.347910	0.069633	0.105443	0.290324	0.252166	0.208790	0.202383	0.534127	0.648879	0.103473	0.107607	0.386011	0.370601	0.392259	0.276172	0.778917	0.313560	0.211894	0.185550	0.244279	0.352566	0.238613	0.239026	0.323527	0.496062	0.113239	0.113123	0.090718	0.457666	0.144950	0.118033	0.445597	0.343170	0.165288	0.108854	0.185538	0.442474
33	0.239422	0.175429	0.441396	0.601859	0.121622	0.073353	0.183112	0.415106	0.078905	0.061987	0.264629	0.151318	0.152808	0.104263	0.170551	0.438150	0.627470	0.327325	0.655876	0.860266	0.636796	0.493704	0.170492	0.187300	0.091924	0.092535	0.137793	0.261341	0.150497	0.189173	0.361259	0.274008	0.094506	0.068209	0.370124	0.299919	0.104556	0.120848	0.290915	0.327547	0.142017	0.106156	0.291673	0.350047	0.061675	0.106773	0.320959	0.288159	0.202963	0.199688	0.535762	0.610406	0.126531	0.142093	0.374067	0.361739	0.371240	0.255134	0.863805	0.330096	0.195945	0.170273	0.241754	0.317035	0.245280	0.244474	0.387404	0.494085	0.078599	0.103615	0.102571	0.479313	0.145872	0.123240	0.472643	0.355868	0.147262	0.102987	0.175537	0.431868
34	0.243051	0.173968	0.409528	0.604681	0.123743	0.073107	0.203892	0.422165	0.085209	0.065336	0.265020	0.156218	0.142314	0.096084	0.212119	0.482340	0.383841	0.238561	0.626686	0.773806	0.601876	0.501801	0.169282	0.233861	0.111335	0.093815	0.276990	0.379358	0.147616	0.200608	0.365792	0.269051	0.117952	0.065780	0.384257	0.329642	0.104145	0.119288	0.293311	0.326340	0.159877	0.121210	0.231745	0.363397	0.118547	0.133521	0.308118	0.282600	0.209896	0.195677	0.572097	0.593633	0.141186	0.158306	0.367861	0.318940	0.361729	0.246161	0.903768	0.355906	0.170428	0.160109	0.238073	0.318610	0.238071	0.237951	0.393700	0.493844	0.068915	0.090174	0.113540	0.467248	0.143840	0.111125	0.447256	0.355629	0.135926	0.104258	0.172369	0.439591
35	0.243075	0.161461	0.404256	0.580432	0.125339	0.075775	0.207052	0.438687	0.092536	0.072495	0.271500	0.161134	0.143024	0.093363	0.257353	0.496579	0.256433	0.207317	0.600484	0.674548	0.563279	0.500813	0.163404	0.291944	0.137557	0.102601	0.515902	0.528526	0.149483	0.217528	0.373397	0.259952	0.125081	0.084520	0.509844	0.408386	0.104481	0.112465	0.296184	0.298368	0.186354	0.135104	0.218210	0.405236	0.117870	0.133709	0.346954	0.287858	0.209224	0.189568	0.767762	0.643090	0.141263	0.160928	0.366671	0.254271	0.370494	0.260944	0.915531	0.406577	0.161669	0.156236	0.192007	0.325277	0.220093	0.217139	0.392215	0.491120	0.056112	0.072299	0.097940	0.416237	0.125078	0.095804	0.427786	0.391663	0.127385	0.101847	0.164113	0.442457
36	0.241452	0.154835	0.443940	0.552705	0.125628	0.078483	0.212134	0.460691	0.090611	0.076717	0.276978	0.188242	0.144486	0.092764	0.251952	0.482888	0.199650	0.161270	0.578337	0.651921	0.558508	0.502394	0.182486	0.362574	0.149347	0.113467	0.540318	0.546125	0.169062	0.235579	0.355733	0.270767	0.160307	0.100511	0.626580	0.465237	0.099357	0.110236	0.297865	0.218258	0.205373	0.147789	0.218773	0.408377	0.118433	0.127063	0.327047	0.305418	0.212823	0.192420	0.834838	0.684585	0.141813	0.161082	0.364123	0.210717	0.388049	0.268725	0.914521	0.430983	0.163477	0.152185	0.201280	0.328382	0.170863	0.155283	0.390266	0.447537	0.052848	0.062972	0.089614	0.345150	0.135238	0.101543	0.466696	0.494167	0.130641	0.102556	0.157959	0.446006
37	0.239232	0.150334	0.469249	0.513931	0.130441	0.087543	0.211445	0.476997	0.092255	0.072842	0.333791	0.289287	0.144698	0.092296	0.293580	0.445428	0.193043	0.146462	0.574792	0.636628	0.475081	0.483816	0.204852	0.365578	0.149598	0.111554	0.553741	0.569300	0.163142	0.236674	0.261561	0.265206	0.176208	0.111129	0.631478	0.479864	0.090259	0.088545	0.305753	0.218336	0.195881	0.141861	0.224848	0.353421	0.123462	0.119327	0.317878	0.306826	0.222372	0.201113	0.841335	0.698335	0.138076	0.157667	0.364317	0.209167	0.388501	0.272360	0.914102	0.441332	0.181736	0.155929	0.211603	0.344296	0.137002	0.136281	0.403103	0.436825	0.055783	0.058980	0.098826	0.343813	0.140654	0.104366	0.536539	0.630397	0.136528	0.104121	0.158798	0.458822
38	0.207685	0.102440	0.461841	0.483565	0.138168	0.094773	0.210077	0.462048	0.105123	0.128048	0.439387	0.319053	0.134727	0.083264	0.299771	0.359468	0.184038	0.142872	0.502601	0.563500	0.360963	0.406206	0.200407	0.374594	0.146724	0.108003	0.601469	0.608165	0.157196	0.234957	0.297455	0.259500	0.191482	0.135476	0.638205	0.481668	0.102476	0.099022	0.311369	0.214463	0.217851	0.158614	0.260467	0.363229	0.124533	0.117465	0.304161	0.319927	0.213918	0.193658	0.836000	0.642252	0.141977	0.149980	0.325623	0.193346	0.365827	0.256819	0.914224	0.467345	0.174820	0.151325	0.219251	0.341453	0.134996	0.136175	0.398359	0.447879	0.063807	0.055252	0.125572	0.339003	0.142003	0.105074	0.582641	0.680690	0.163344	0.132350	0.166513	0.476018
39	0.164460	0.075260	0.459749	0.495268	0.141697	0.095892	0.208456	0.453165	0.120798	0.173487	0.443912	0.318657	0.136989	0.080619	0.297660	0.376572	0.179179	0.157472	0.429724	0.478333	0.268634	0.277540	0.244566	0.367444	0.152936	0.108315	0.630695	0.638775	0.146899	0.215341	0.392674	0.246775	0.185896	0.136382	0.639192	0.479106	0.086448	0.084517	0.346148	0.200555	0.220225	0.155228	0.293079	0.452198	0.125211	0.112946	0.299367	0.327567	0.172156	0.151524	0.740597	0.530054	0.140934	0.153251	0.282047	0.203530	0.314784	0.224635	0.924284	0.465784	0.183917	0.167024	0.219622	0.312351	0.118703	0.118118	0.408376	0.443725	0.064213	0.056811	0.138834	0.329982	0.147138	0.109552	0.581116	0.687885	0.169287	0.149637	0.160716	0.479156
40	0.153219	0.079063	0.475675	0.524214	0.141992	0.096313	0.208716	0.453482	0.123575	0.173772	0.431435	0.319333	0.128653	0.077620	0.304271	0.394777	0.187322	0.195657	0.459639	0.472668	0.163967	0.247930	0.313658	0.362573	0.153353	0.102726	0.667060	0.663884	0.132320	0.211356	0.391864	0.232157	0.185969	0.135204	0.629342	0.423504	0.087977	0.079005	0.388762	0.201899	0.225275	0.154096	0.295242	0.499213	0.122461	0.102041	0.276604	0.323379	0.150630	0.136146	0.705566	0.450791	0.141046	0.203822	0.270946	0.188604	0.279991	0.209993	0.942446	0.442147	0.208686	0.161064	0.249772	0.269949	0.114806	0.115910	0.447894	0.413311	0.071232	0.054499	0.178140	0.338712	0.155834	0.117712	0.580999	0.682185	0.169076	0.149702	0.161986	0.466284
41	0.163914	0.114943	0.491430	0.583531	0.136673	0.095473	0.210467	0.455673	0.129794	0.176722	0.405547	0.327367	0.098463	0.076275	0.304129	0.389899	0.187858	0.204201	0.609516	0.564130	0.151970	0.250802	0.319060	0.366159	0.168969	0.104242	0.687175	0.678022	0.128433	0.143590	0.390543	0.239695	0.186909	0.135179	0.594076	0.411562	0.083490	0.079131	0.384654	0.248294	0.226748	0.155505	0.260095	0.493270	0.120109	0.098590	0.248700	0.273573	0.129976	0.131607	0.677129	0.434779	0.135542	0.227225	0.218597	0.181601	0.255353	0.197187	0.919782	0.414462	0.218725	0.153583	0.248621	0.242761	0.119172	0.115948	0.475247	0.385134	0.070730	0.055533	0.286814	0.364193	0.155865	0.119663	0.580688	0.679421	0.167516	0.148458	0.166501	0.432117
42	0.185654	0.141019	0.640579	0.597065	0.119606	0.088279	0.210687	0.446535	0.140180	0.180723	0.404198	0.335005	0.077048	0.119307	0.301589	0.372424	0.186192	0.200035	0.701865	0.589966	0.154356	0.253504	0.349785	0.367203	0.174530	0.108858	0.693654	0.678306	0.118151	0.138282	0.429718	0.258261	0.189341	0.138132	0.564220	0.412857	0.095953	0.126970	0.377833	0.285997	0.220554	0.154505	0.286600	0.494915	0.116948	0.091707	0.190872	0.237398	0.138174	0.131279	0.676176	0.427263	0.129012	0.227685	0.186168	0.180625	0.225544	0.181335	0.816329	0.401485	0.210299	0.143668	0.263024	0.237723	0.112607	0.115370	0.480857	0.378840	0.077614	0.063048	0.321856	0.372780	0.171253	0.125225	0.582537	0.686624	0.162989	0.140515	0.175227	0.391676
43	0.184624	0.157030	0.648368	0.571693	0.126605	0.083090	0.214189	0.408959	0.141512	0.181021	0.447317	0.351362	0.076248	0.149977	0.302132	0.321608	0.183269	0.195590	0.673795	0.601979	0.155739	0.260923	0.366118	0.367819	0.181988	0.150318	0.673671	0.630688	0.089310	0.070415	0.453346	0.267036	0.177703	0.149975	0.554087	0.397262	0.146706	0.193208	0.376802	0.330755	0.211061	0.147618	0.367727	0.556100	0.057798	0.050188	0.177993	0.234351	0.146279	0.161429	0.595597	0.391315	0.108503	0.291138	0.175778	0.185982	0.192838	0.163312	0.711032	0.404762	0.224425	0.131443	0.269268	0.246154	0.109193	0.119287	0.435176	0.367419	0.091519	0.083489	0.317735	0.377436	0.198250	0.129097	0.594270	0.682540	0.160678	0.129548	0.225976	0.379091
44	0.178495	0.156938	0.643278	0.527621	0.174402	0.083721	0.217825	0.392637	0.141552	0.181904	0.478627	0.385175	0.081885	0.210128	0.243580	0.267207	0.181940	0.192146	0.745837	0.673524	0.156165	0.264726	0.372236	0.361433	0.161942	0.167880	0.519242	0.471527	0.083588	0.068714	0.456052	0.257936	0.172381	0.149036	0.422530	0.319727	0.192592	0.216060	0.382888	0.331319	0.186542	0.134520	0.521558	0.579269	0.058447	0.058787	0.064688	0.219234	0.158317	0.196392	0.306679	0.349242	0.089797	0.301969	0.150130	0.220416	0.193095	0.161769	0.711133	0.420684	0.245543	0.124389	0.275557	0.283530	0.100638	0.113977	0.391865	0.366408	0.100804	0.086277	0.335358	0.372590	0.204955	0.130598	0.601508	0.679968	0.156779	0.122565	0.239773	0.377342
45	0.175606	0.156203	0.681045	0.568742	0.247442	0.130459	0.206022	0.396264	0.138967	0.184839	0.478533	0.434058	0.089915	0.245185	0.253120	0.263445	0.202355	0.198933	0.797714	0.766962	0.144516	0.242837	0.368614	0.333797	0.147874	0.195118	0.448528	0.422801	0.082433	0.068397	0.462924	0.258233	0.138135	0.140625	0.319079	0.239829	0.254078	0.227714	0.362889	0.342593	0.173165	0.136251	0.540937	0.564162	0.095361	0.086965	0.162073	0.189951	0.165169	0.214075	0.210455	0.291629	0.113047	0.311485	0.143035	0.239135	0.195759	0.173961	0.645337	0.424258	0.255841	0.125731	0.279812	0.325517	0.083656	0.095843	0.351323	0.366409	0.100407	0.086460	0.344510	0.379635	0.198209	0.127543	0.569222	0.688606	0.156948	0.122082	0.248021	0.376173
46	0.182538	0.156921	0.731884	0.674432	0.281835	0.145775	0.166125	0.410128	0.130862	0.187393	0.484326	0.468337	0.086878	0.244684	0.235100	0.268494	0.220970	0.212250	0.810226	0.831233	0.131239	0.243548	0.366359	0.296673	0.146388	0.244955	0.440459	0.404823	0.083418	0.078304	0.354145	0.252260	0.138055	0.160448	0.339741	0.215893	0.281620	0.250407	0.342397	0.361639	0.165557	0.136592	0.605926	0.578554	0.180334	0.122131	0.195761	0.223439	0.169573	0.229418	0.199748	0.284274	0.126923	0.314614	0.152048	0.254410	0.212762	0.192127	0.529738	0.412711	0.258527	0.125481	0.282223	0.334842	0.082507	0.089291	0.349962	0.366767	0.100013	0.086834	0.341933	0.394378	0.200110	0.132469	0.525658	0.695514	0.157612	0.122595	0.265442	0.364510
47	0.200090	0.160352	0.745249	0.759337	0.287570	0.147090	0.214173	0.409848	0.149161	0.200728	0.500863	0.454599	0.082568	0.248233	0.185588	0.276247	0.234564	0.225001	0.806533	0.858997	0.136547	0.289955	0.359141	0.252391	0.153159	0.255350	0.382171	0.348912	0.075338	0.076904	0.342270	0.236534	0.121495	0.143263	0.355656	0.212655	0.336779	0.280644	0.354609	0.363291	0.115541	0.133539	0.653035	0.580535	0.221339	0.128581	0.213181	0.213848	0.246810	0.305935	0.195250	0.321681	0.132940	0.315069	0.143140	0.243236	0.220883	0.195493	0.466052	0.391686	0.247152	0.121760	0.260557	0.327227	0.083186	0.090119	0.359402	0.362093	0.150221	0.104834	0.338387	0.410055	0.211854	0.139332	0.517029	0.704194	0.155919	0.121848	0.267707	0.336276
48	0.206947	0.167252	0.752572	0.792473	0.289800	0.154187	0.232209	0.379515	0.149350	0.201750	0.429068	0.393371	0.115614	0.266412	0.185913	0.273643	0.246151	0.233123	0.801404	0.863491	0.130692	0.345883	0.354128	0.322635	0.170906	0.266113	0.325588	0.330903	0.103674	0.094187	0.313256	0.201035	0.120320	0.141311	0.507128	0.214746	0.337619	0.283203	0.306280	0.372554	0.106779	0.136054	0.655007	0.536765	0.230060	0.132625	0.262992	0.175512	0.259181	0.316849	0.156939	0.349456	0.129574	0.316231	0.144578	0.227754	0.199973	0.176029	0.425886	0.340680	0.240447	0.119942	0.270952	0.311710	0.090579	0.096601	0.354151	0.337106	0.208678	0.112110	0.335985	0.436874	0.218263	0.138419	0.513459	0.699782	0.156200	0.123464	0.272306	0.316162
49	0.207835	0.167815	0.752912	0.796008	0.312701	0.161526	0.237070	0.325821	0.145557	0.148562	0.356242	0.376163	0.170330	0.266666	0.171342	0.245034	0.251773	0.237129	0.800366	0.854667	0.126017	0.383949	0.383021	0.359650	0.190981	0.271395	0.314660	0.343482	0.117680	0.099422	0.310489	0.204182	0.120562	0.149045	0.712484	0.221821	0.358668	0.289742	0.252464	0.359548	0.101260	0.143556	0.650519	0.477459	0.314949	0.161529	0.265682	0.209766	0.271897	0.316952	0.142952	0.346602	0.126994	0.314243	0.168566	0.232147	0.156803	0.150805	0.426011	0.314941	0.236120	0.102958	0.265697	0.308401	0.094925	0.106092	0.341079	0.274446	0.219915	0.116567	0.363161	0.439290	0.211164	0.134683	0.487270	0.656217	0.149079	0.121029	0.274899	0.293839
50	0.207491	0.166156	0.744423	0.783883	0.331720	0.161481	0.298629	0.263734	0.167019	0.134197	0.354682	0.371797	0.217172	0.266667	0.161319	0.227048	0.240730	0.216274	0.791098	0.820447	0.120557	0.390317	0.368255	0.363944	0.250270	0.309504	0.328777	0.486434	0.120960	0.097453	0.239341	0.179054	0.128027	0.189454	0.716644	0.221788	0.401669	0.322368	0.242388	0.317230	0.113942	0.153822	0.647802	0.463452	0.380961	0.181369	0.286890	0.214473	0.302649	0.324101	0.190019	0.379546	0.123961	0.286087	0.180769	0.244449	0.150266	0.143345	0.474959	0.311082	0.212052	0.083154	0.253520	0.308419	0.126706	0.117114	0.337590	0.247547	0.225483	0.144938	0.326073	0.408606	0.214409	0.138435	0.458230	0.532548	0.144567	0.119998	0.316474	0.260982
51	0.201162	0.164878	0.721360	0.753183	0.339252	0.160815	0.330942	0.274644	0.190456	0.177395	0.356920	0.371545	0.247243	0.267976	0.165327	0.225543	0.218275	0.166560	0.756405	0.759547	0.115436	0.385039	0.314792	0.357657	0.288985	0.337558	0.502694	0.547503	0.150635	0.107248	0.267028	0.242692	0.124745	0.201869	0.736013	0.215373	0.413332	0.313306	0.227130	0.282942	0.118291	0.159125	0.647876	0.464096	0.416659	0.191386	0.409901	0.232681	0.351389	0.339642	0.198530	0.486701	0.122100	0.266062	0.249933	0.251188	0.158306	0.149502	0.489975	0.264100	0.177001	0.072488	0.217416	0.305522	0.142697	0.117974	0.312904	0.245071	0.226141	0.165802	0.266202	0.374418	0.217810	0.139741	0.394530	0.444992	0.115883	0.098049	0.334572	0.228056
52	0.167750	0.131508	0.661585	0.690511	0.342071	0.160777	0.332955	0.298295	0.192489	0.229562	0.375357	0.364834	0.286419	0.258073	0.165768	0.225868	0.197369	0.168409	0.671363	0.680593	0.120000	0.382931	0.309786	0.361230	0.291296	0.333131	0.524262	0.549330	0.155971	0.106029	0.298963	0.282461	0.128276	0.202577	0.765444	0.200932	0.401334	0.283675	0.226154	0.223488	0.133989	0.166405	0.628664	0.418865	0.435971	0.194362	0.439970	0.241162	0.364120	0.325352	0.230327	0.537540	0.123341	0.260753	0.288351	0.252743	0.160903	0.141650	0.479016	0.234036	0.173154	0.069440	0.207984	0.294528	0.146533	0.117385	0.266656	0.270465	0.226163	0.177709	0.290727	0.304733	0.214828	0.137945	0.385585	0.411330	0.088392	0.081992	0.335012	0.217707
53	0.153778	0.125903	0.534648	0.654570	0.350631	0.179582	0.332122	0.310171	0.190426	0.244810	0.371600	0.357839	0.394332	0.272037	0.161316	0.227427	0.205805	0.195658	0.621344	0.695695	0.117319	0.381126	0.275293	0.377822	0.316308	0.342253	0.588994	0.575030	0.163622	0.109865	0.334111	0.290380	0.194856	0.252347	0.813816	0.220239	0.382992	0.273554	0.229465	0.219536	0.139538	0.168024	0.518915	0.353294	0.437371	0.191738	0.459849	0.243447	0.372840	0.311102	0.219975	0.515449	0.132539	0.162380	0.290990	0.250212	0.158989	0.134505	0.490479	0.236915	0.161595	0.062091	0.199117	0.293383	0.143531	0.124745	0.340846	0.299822	0.224963	0.179224	0.288842	0.287522	0.210835	0.132259	0.387784	0.417210	0.084452	0.082938	0.333247	0.224817
54	0.149055	0.103874	0.518836	0.639460	0.357244	0.219302	0.333305	0.309316	0.241820	0.272167	0.284595	0.349388	0.415082	0.221367	0.146525	0.224054	0.208109	0.196150	0.587676	0.683758	0.114719	0.376845	0.236948	0.413473	0.327707	0.316543	0.668544	0.631685	0.159911	0.104814	0.319752	0.294142	0.197148	0.262056	0.815361	0.231340	0.347039	0.263878	0.225478	0.222087	0.147377	0.173542	0.474386	0.387237	0.430042	0.178985	0.438834	0.244306	0.394553	0.308840	0.211617	0.542623	0.144241	0.120382	0.290135	0.221665	0.174809	0.148164	0.549333	0.235776	0.118608	0.050401	0.189758	0.269758	0.149675	0.120911	0.430424	0.296413	0.225795	0.197137	0.263782	0.282233	0.215818	0.132804	0.388120	0.421653	0.084221	0.084935	0.336073	0.231419
55	0.147761	0.113907	0.501497	0.634519	0.357176	0.226264	0.336795	0.308101	0.277855	0.274856	0.262874	0.366761	0.432164	0.210392	0.130340	0.196122	0.207606	0.196240	0.472445	0.601920	0.113158	0.368532	0.221297	0.514939	0.340231	0.297323	0.670763	0.702574	0.153773	0.093620	0.320802	0.277829	0.184527	0.254616	0.805734	0.232063	0.322679	0.233207	0.218047	0.196427	0.158291	0.175976	0.487119	0.407108	0.411474	0.169323	0.458995	0.237516	0.407048	0.289187	0.282273	0.578568	0.127154	0.087681	0.290482	0.188339	0.202834	0.165222	0.591564	0.238629	0.083968	0.040204	0.188578	0.218432	0.172853	0.126237	0.467360	0.292774	0.226309	0.228211	0.267606	0.273107	0.213907	0.135337	0.389690	0.408295	0.093183	0.094420	0.351225	0.220370
56	0.148320	0.134853	0.432616	0.570577	0.349249	0.269806	0.328938	0.318080	0.283431	0.278909	0.260560	0.401124	0.445339	0.220041	0.159022	0.196045	0.202207	0.190611	0.402030	0.523119	0.113446	0.357582	0.218771	0.539658	0.347086	0.285841	0.670682	0.730781	0.135392	0.083199	0.304110	0.270568	0.187035	0.287025	0.791545	0.216598	0.278132	0.202114	0.169695	0.180237	0.175085	0.171300	0.443918	0.390039	0.404996	0.171714	0.475578	0.304726	0.402075	0.241541	0.363513	0.585096	0.112402	0.074745	0.302477	0.167243	0.204201	0.165738	0.592046	0.237237	0.067204	0.037611	0.180690	0.163958	0.193597	0.166833	0.456312	0.292879	0.217808	0.227116	0.266893	0.248657	0.188728	0.130503	0.381301	0.409164	0.094252	0.096378	0.356975	0.192581
57	0.167882	0.336363	0.327962	0.426635	0.331549	0.351834	0.329596	0.352261	0.300447	0.318603	0.275991	0.447368	0.452750	0.217087	0.170806	0.166472	0.212231	0.187980	0.377544	0.465011	0.111459	0.356906	0.224133	0.531098	0.338531	0.274653	0.670390	0.716448	0.129054	0.081964	0.304324	0.327864	0.199922	0.296836	0.672987	0.181346	0.298908	0.203486	0.154468	0.169795	0.188242	0.180872	0.438625	0.372537	0.409215	0.172207	0.457758	0.347377	0.406851	0.235783	0.370559	0.575302	0.104126	0.075673	0.301644	0.173897	0.197672	0.166312	0.630148	0.245727	0.060918	0.038279	0.174696	0.159376	0.195408	0.170162	0.452380	0.293222	0.154201	0.225403	0.267749	0.211368	0.177565	0.136395	0.325173	0.409353	0.099129	0.097064	0.362478	0.244346
58	0.226740	0.498141	0.239388	0.272743	0.276857	0.335248	0.327985	0.373874	0.305662	0.337310	0.253122	0.457268	0.438420	0.204202	0.256562	0.111539	0.196396	0.173038	0.376927	0.430896	0.087809	0.308389	0.219357	0.514392	0.332152	0.272630	0.643758	0.688169	0.120337	0.086307	0.300319	0.324988	0.254454	0.321551	0.494146	0.215651	0.286480	0.198735	0.167870	0.180812	0.227848	0.195226	0.475005	0.353298	0.351424	0.146353	0.457132	0.342429	0.395818	0.230562	0.368531	0.573287	0.093078	0.070426	0.299640	0.175469	0.202331	0.164351	0.686274	0.305268	0.071465	0.043887	0.155174	0.130420	0.197496	0.174811	0.495650	0.293305	0.110827	0.233856	0.238439	0.148923	0.223847	0.172510	0.362429	0.383542	0.107186	0.097774	0.357688	0.307728
59	0.296601	0.548583	0.190128	0.182713	0.252501	0.334906	0.325986	0.371250	0.321479	0.352252	0.319503	0.456471	0.418433	0.206309	0.346513	0.180014	0.184839	0.165148	0.403734	0.431050	0.070031	0.214950	0.235233	0.472993	0.293521	0.235173	0.621984	0.591375	0.084200	0.082168	0.265491	0.285789	0.267165	0.316510	0.472761	0.328626	0.240458	0.148028	0.167112	0.188830	0.223349	0.187171	0.509477	0.333686	0.291881	0.125719	0.438044	0.337620	0.366434	0.212299	0.344957	0.538730	0.112963	0.086267	0.287086	0.153889	0.216860	0.164289	0.689726	0.313347	0.066149	0.038272	0.154489	0.106881	0.204903	0.193189	0.538765	0.292229	0.097031	0.234680	0.197465	0.137765	0.295415	0.207427	0.436178	0.372850	0.110385	0.107346	0.384962	0.338351
60	0.304788	0.550057	0.188159	0.174317	0.252026	0.335051	0.313169	0.386482	0.315795	0.353210	0.425034	0.457027	0.396103	0.207786	0.348150	0.189650	0.188362	0.166736	0.452340	0.448931	0.060551	0.131525	0.221009	0.448861	0.242239	0.181723	0.498018	0.502324	0.080078	0.104620	0.242229	0.263051	0.280936	0.318474	0.424276	0.426973	0.214262	0.130073	0.156088	0.198201	0.225234	0.189350	0.521738	0.343099	0.240904	0.110973	0.325271	0.326867	0.311278	0.185232	0.338580	0.436209	0.125505	0.095578	0.291227	0.140398	0.210418	0.168061	0.681682	0.332019	0.060389	0.036500	0.153797	0.148431	0.218091	0.197223	0.551746	0.282195	0.089005	0.206271	0.191690	0.131643	0.364430	0.228093	0.456049	0.403623	0.133895	0.124720	0.479250	0.347198
61	0.320464	0.594339	0.187040	0.169832	0.249402	0.332902	0.369428	0.390069	0.304565	0.349524	0.443499	0.468134	0.392789	0.206204	0.346773	0.199253	0.189913	0.166898	0.457064	0.497336	0.063070	0.105772	0.200707	0.464559	0.228852	0.171258	0.447874	0.492617	0.063092	0.108819	0.219978	0.266344	0.286175	0.313909	0.363178	0.450563	0.206494	0.114177	0.143705	0.199368	0.220044	0.183961	0.507238	0.366534	0.211622	0.106957	0.297224	0.327557	0.300402	0.182200	0.322112	0.383521	0.127145	0.098881	0.252992	0.151782	0.211899	0.184085	0.678074	0.403810	0.060357	0.036433	0.154624	0.159662	0.210852	0.195290	0.551886	0.276741	0.081795	0.197585	0.156419	0.110531	0.380518	0.230988	0.449611	0.437135	0.153170	0.137976	0.508884	0.356572
62	0.404045	0.721373	0.127265	0.153550	0.214152	0.329054	0.395123	0.392459	0.313664	0.327601	0.453785	0.502035	0.333530	0.166672	0.347525	0.210849	0.206888	0.172609	0.397877	0.540630	0.068599	0.105042	0.197773	0.473060	0.182877	0.126396	0.403770	0.472907	0.066298	0.118138	0.219801	0.268055	0.245947	0.270472	0.221094	0.440106	0.202249	0.106929	0.136616	0.207673	0.218297	0.179702	0.499434	0.380322	0.209249	0.108779	0.263148	0.329990	0.268114	0.165727	0.322649	0.381990	0.131632	0.105282	0.201143	0.161469	0.212686	0.193731	0.677255	0.471141	0.059156	0.036781	0.147974	0.158123	0.193694	0.193938	0.555385	0.280225	0.071604	0.185387	0.156301	0.084922	0.387710	0.232569	0.441967	0.458732	0.169107	0.150708	0.510195	0.366544
63	0.415355	0.762861	0.113881	0.144200	0.185786	0.327973	0.349324	0.403234	0.316498	0.294737	0.502091	0.546139	0.253613	0.149164	0.351677	0.212534	0.223338	0.154922	0.391906	0.540928	0.054993	0.100800	0.196481	0.469403	0.160017	0.112731	0.211691	0.402758	0.062989	0.117462	0.264385	0.266249	0.263635	0.266751	0.144370	0.472471	0.196691	0.106105	0.186871	0.198193	0.228760	0.168658	0.497918	0.353780	0.207185	0.109155	0.247836	0.332024	0.232941	0.154952	0.318590	0.320965	0.130244	0.119807	0.196894	0.160565	0.215957	0.205475	0.659573	0.503220	0.058453	0.036887	0.144963	0.158184	0.192771	0.206338	0.553435	0.282978	0.062266	0.174257	0.169584	0.073292	0.393742	0.239733	0.406832	0.486498	0.189699	0.156318	0.498280	0.366601
64	0.431349	0.770690	0.115119	0.149061	0.175653	0.327636	0.355804	0.417207	0.313478	0.288243	0.572129	0.575332	0.227031	0.146993	0.384806	0.217400	0.217242	0.140758	0.538178	0.515415	0.051184	0.098319	0.203416	0.456353	0.132054	0.093034	0.184191	0.271727	0.086223	0.127446	0.271493	0.223389	0.292943	0.281442	0.308417	0.523879	0.195783	0.105807	0.192052	0.189368	0.217552	0.160625	0.455472	0.302839	0.178386	0.084567	0.183620	0.304657	0.174517	0.111462	0.214365	0.224456	0.117292	0.123765	0.196838	0.158066	0.216108	0.202281	0.651264	0.508641	0.059058	0.037478	0.133202	0.158739	0.201607	0.209110	0.557983	0.274436	0.056635	0.131198	0.185437	0.060118	0.404223	0.247689	0.411763	0.504849	0.203767	0.155187	0.507469	0.373006
65	0.439873	0.772008	0.130194	0.153221	0.174746	0.327282	0.411719	0.435566	0.262984	0.258848	0.639691	0.567681	0.195972	0.143526	0.431936	0.220050	0.216042	0.140645	0.563931	0.502327	0.057817	0.096413	0.247520	0.427987	0.113997	0.067186	0.187261	0.161552	0.094367	0.129955	0.262822	0.130655	0.309816	0.272062	0.393081	0.561631	0.183017	0.097825	0.231602	0.185565	0.205219	0.143229	0.393827	0.297828	0.151354	0.073485	0.105283	0.225360	0.097892	0.062524	0.154770	0.272485	0.116792	0.123874	0.191397	0.156400	0.214030	0.201698	0.654876	0.508387	0.059815	0.038173	0.127763	0.155457	0.218564	0.205245	0.522316	0.279239	0.054337	0.113116	0.188589	0.038404	0.408811	0.266770	0.414992	0.509196	0.207515	0.145643	0.520828	0.386179
66	0.441166	0.771820	0.180071	0.188676	0.157538	0.310427	0.452906	0.447250	0.239520	0.259424	0.691610	0.519768	0.175562	0.125984	0.433702	0.227049	0.215295	0.143855	0.574640	0.484096	0.060208	0.097268	0.290512	0.295497	0.130803	0.062628	0.194115	0.220231	0.088829	0.120309	0.242336	0.107840	0.299254	0.264257	0.405452	0.560713	0.145108	0.085996	0.252944	0.174922	0.198426	0.114669	0.380722	0.304318	0.121370	0.061754	0.088408	0.148970	0.090810	0.052279	0.239241	0.405265	0.117569	0.125316	0.164914	0.149579	0.237344	0.227538	0.631027	0.519554	0.054312	0.038650	0.148891	0.150122	0.227031	0.205656	0.462381	0.308590	0.054555	0.113179	0.208001	0.047794	0.450631	0.289310	0.412617	0.497991	0.209553	0.144261	0.526059	0.405461
67	0.447380	0.760076	0.320323	0.275369	0.145636	0.286828	0.460888	0.447718	0.227098	0.245574	0.694057	0.444879	0.166130	0.116987	0.428554	0.239117	0.194645	0.133519	0.582718	0.434343	0.063537	0.094172	0.294986	0.248896	0.131851	0.061506	0.204688	0.231427	0.086472	0.101853	0.192272	0.108762	0.260830	0.237457	0.422520	0.542355	0.092681	0.055090	0.250897	0.167774	0.148572	0.079317	0.341773	0.307746	0.086657	0.050283	0.089630	0.122950	0.101126	0.046669	0.257293	0.433036	0.166845	0.142430	0.150261	0.144831	0.278989	0.238381	0.572374	0.535876	0.049139	0.040142	0.203823	0.153867	0.209912	0.187789	0.436766	0.319914	0.057281	0.092817	0.243920	0.089077	0.460154	0.353792	0.412356	0.491959	0.215001	0.154661	0.521369	0.407983
68	0.451938	0.676217	0.455705	0.304654	0.145007	0.284132	0.461539	0.447121	0.209515	0.183049	0.682165	0.389683	0.165252	0.112301	0.342826	0.215904	0.167718	0.116465	0.579082	0.414690	0.069199	0.080824	0.305824	0.260059	0.120403	0.059242	0.205288	0.231277	0.093382	0.100351	0.190996	0.177975	0.252216	0.222826	0.452751	0.482765	0.074108	0.044491	0.253749	0.197062	0.134343	0.078779	0.298909	0.313281	0.070498	0.048719	0.089559	0.123617	0.102205	0.065638	0.377513	0.434062	0.186969	0.159995	0.142971	0.143094	0.283253	0.228089	0.503310	0.599592	0.039330	0.030128	0.224635	0.160008	0.195226	0.155094	0.482488	0.334972	0.058581	0.069791	0.256723	0.122056	0.495671	0.545950	0.408259	0.494452	0.244490	0.172952	0.511777	0.413082
69	0.427953	0.609478	0.469363	0.325195	0.136997	0.198390	0.462017	0.434990	0.196668	0.158553	0.679284	0.398903	0.166320	0.111354	0.307579	0.174379	0.168979	0.117993	0.575550	0.415482	0.074467	0.069355	0.355290	0.278765	0.126348	0.076198	0.180428	0.227940	0.120726	0.108361	0.203553	0.184440	0.239266	0.216517	0.462270	0.411638	0.067911	0.049071	0.259389	0.230397	0.139186	0.074721	0.261358	0.313971	0.078059	0.053452	0.098958	0.110739	0.102977	0.074832	0.429050	0.463675	0.179482	0.159105	0.138687	0.142180	0.296947	0.230160	0.498904	0.671748	0.031015	0.025766	0.238297	0.171715	0.225098	0.174946	0.516503	0.371378	0.053662	0.065857	0.255537	0.135512	0.680471	0.593424	0.399061	0.480586	0.249222	0.173962	0.494354	0.414475
70	0.393612	0.616141	0.551506	0.399836	0.114132	0.090116	0.461559	0.408737	0.184359	0.131677	0.629822	0.407905	0.166608	0.107808	0.308418	0.170962	0.165690	0.117158	0.543756	0.407121	0.086486	0.066909	0.360325	0.318855	0.126598	0.071612	0.168770	0.228014	0.122572	0.114386	0.179732	0.184680	0.228110	0.213164	0.487525	0.390523	0.066770	0.049978	0.263262	0.233393	0.133509	0.064617	0.256398	0.275430	0.087063	0.054623	0.133537	0.093257	0.102309	0.076221	0.429043	0.529581	0.172971	0.157937	0.112025	0.133753	0.299454	0.231710	0.484103	0.690905	0.035444	0.026023	0.238439	0.171159	0.272882	0.187198	0.463621	0.421243	0.052490	0.064050	0.253008	0.135996	0.732561	0.592109	0.424038	0.480851	0.250951	0.175883	0.488935	0.380914
71	0.393035	0.616662	0.694582	0.474860	0.113321	0.081234	0.462145	0.383551	0.180408	0.130875	0.581531	0.405333	0.144404	0.093525	0.305892	0.153632	0.166803	0.111030	0.516422	0.380776	0.095403	0.176535	0.342120	0.350745	0.125657	0.068129	0.149926	0.229903	0.120297	0.121071	0.112193	0.190151	0.226015	0.212534	0.493253	0.387085	0.066260	0.047079	0.279169	0.227672	0.128178	0.066909	0.248830	0.220481	0.087381	0.055645	0.140981	0.080387	0.104756	0.090396	0.445897	0.546620	0.173621	0.155085	0.060392	0.118187	0.296680	0.230717	0.471602	0.684630	0.049536	0.038339	0.236114	0.173497	0.287303	0.174773	0.414364	0.453497	0.052050	0.059559	0.231752	0.143006	0.794152	0.605544	0.417397	0.536574	0.250489	0.180805	0.491516	0.331841
72	0.360035	0.536807	0.710138	0.520134	0.113089	0.082025	0.463184	0.354365	0.169639	0.127444	0.629667	0.394990	0.117899	0.085575	0.306415	0.146175	0.162346	0.110841	0.502374	0.312346	0.109845	0.200037	0.341400	0.335056	0.126643	0.069107	0.132202	0.230936	0.101911	0.110981	0.118610	0.188866	0.209450	0.209177	0.502866	0.367894	0.067789	0.044876	0.260027	0.238471	0.106458	0.070168	0.247968	0.173903	0.087760	0.057873	0.147255	0.067650	0.119978	0.107285	0.446823	0.545061	0.177545	0.148039	0.074956	0.155358	0.274643	0.215598	0.462432	0.686159	0.055032	0.047085	0.238818	0.198440	0.278566	0.171049	0.404034	0.458078	0.056251	0.066189	0.230781	0.217790	0.874461	0.620195	0.356009	0.608020	0.253237	0.179841	0.466177	0.299431
73	0.285089	0.372062	0.710275	0.525025	0.123912	0.089359	0.439024	0.322768	0.124638	0.111121	0.728470	0.364524	0.115714	0.086701	0.287276	0.151308	0.159850	0.104361	0.498785	0.342076	0.106536	0.208651	0.340758	0.323003	0.131309	0.071000	0.320011	0.240360	0.135582	0.133771	0.152778	0.192000	0.219327	0.205077	0.473842	0.492216	0.064884	0.045831	0.285459	0.269088	0.090926	0.073754	0.243661	0.166184	0.086542	0.055942	0.145354	0.103309	0.127473	0.108842	0.451088	0.543767	0.186265	0.138728	0.118227	0.217785	0.275674	0.214304	0.483525	0.687716	0.058101	0.048091	0.266223	0.201711	0.281074	0.168837	0.406024	0.462913	0.062585	0.071053	0.233447	0.270321	0.875364	0.617694	0.390660	0.700762	0.243603	0.168970	0.370560	0.283575
74	0.281824	0.347080	0.710359	0.525255	0.120114	0.086736	0.390877	0.321952	0.122086	0.114468	0.693819	0.326388	0.138562	0.100493	0.220986	0.185365	0.145230	0.101769	0.410200	0.348816	0.104417	0.210151	0.348473	0.330111	0.140045	0.104329	0.379401	0.229086	0.144831	0.132814	0.158060	0.210433	0.280508	0.237682	0.427678	0.600953	0.055647	0.051687	0.283030	0.278003	0.092814	0.084788	0.213105	0.163214	0.091001	0.055923	0.138499	0.175041	0.118621	0.111211	0.735912	0.511270	0.188978	0.134723	0.127789	0.231411	0.327980	0.235710	0.491761	0.695282	0.065758	0.048702	0.269287	0.220100	0.294824	0.173796	0.488669	0.474044	0.073038	0.073227	0.225343	0.300526	0.877744	0.618622	0.471413	0.795868	0.228815	0.157354	0.324847	0.263202
75	0.261427	0.360167	0.712807	0.532421	0.141250	0.097472	0.361352	0.315024	0.119040	0.114899	0.639819	0.295958	0.137164	0.101520	0.114852	0.226104	0.195184	0.131922	0.265325	0.351732	0.109113	0.216180	0.373372	0.344564	0.122239	0.111862	0.422055	0.158765	0.150853	0.144622	0.158527	0.204244	0.299597	0.242910	0.429156	0.667137	0.055805	0.051617	0.263909	0.276230	0.094278	0.093513	0.158009	0.159306	0.101340	0.066640	0.144007	0.182120	0.108444	0.115676	0.805490	0.443928	0.204919	0.141929	0.188273	0.235366	0.362389	0.249749	0.510115	0.723797	0.093428	0.052820	0.292920	0.227085	0.302785	0.169527	0.548354	0.477347	0.088417	0.071879	0.249861	0.306281	0.882807	0.618927	0.482247	0.800845	0.218506	0.151789	0.341403	0.246645
76	0.270961	0.355004	0.709467	0.541591	0.172819	0.115924	0.359314	0.283760	0.131745	0.118063	0.570706	0.314452	0.133088	0.097612	0.107084	0.227054	0.225371	0.137520	0.287583	0.419342	0.109085	0.218594	0.349113	0.347702	0.122327	0.122486	0.449763	0.135688	0.133353	0.138213	0.154505	0.158522	0.307947	0.239280	0.424171	0.676731	0.060859	0.076437	0.259269	0.270850	0.099351	0.093787	0.148315	0.159233	0.104511	0.071739	0.160186	0.189257	0.107841	0.124750	0.831911	0.429404	0.206831	0.141052	0.215282	0.257678	0.374313	0.251046	0.549857	0.761421	0.099330	0.052602	0.308892	0.231679	0.298277	0.167470	0.529430	0.454625	0.097929	0.075751	0.282397	0.301310	0.880501	0.618597	0.509124	0.783583	0.202511	0.148849	0.358656	0.250402
77	0.277367	0.359409	0.695734	0.524072	0.174106	0.120428	0.324926	0.232239	0.167952	0.134215	0.522915	0.343844	0.130625	0.095910	0.094040	0.216668	0.219512	0.144306	0.338076	0.464750	0.110957	0.222481	0.321577	0.349205	0.121583	0.121726	0.451002	0.168342	0.126399	0.129973	0.181495	0.179204	0.320570	0.241104	0.428347	0.748664	0.063235	0.082698	0.258333	0.240557	0.123999	0.093544	0.179798	0.181320	0.108077	0.080360	0.179638	0.190422	0.107189	0.115903	0.815416	0.425261	0.173445	0.122917	0.217344	0.283004	0.390952	0.264533	0.548369	0.799640	0.125730	0.062996	0.278278	0.264515	0.292564	0.167480	0.529554	0.415802	0.095111	0.071646	0.297897	0.288513	0.877647	0.618898	0.570974	0.811728	0.186516	0.146400	0.325596	0.252293
78	0.251496	0.365407	0.620559	0.485131	0.179960	0.126167	0.292606	0.191456	0.176203	0.142376	0.540398	0.357580	0.128110	0.094806	0.096836	0.212801	0.223896	0.152583	0.342873	0.469794	0.108907	0.221911	0.339138	0.346753	0.114108	0.114126	0.456207	0.189528	0.123951	0.125113	0.176553	0.193564	0.339570	0.247959	0.438576	0.846657	0.060428	0.108610	0.259373	0.204823	0.117277	0.086378	0.183164	0.171161	0.099429	0.079485	0.172649	0.234633	0.120668	0.123024	0.832697	0.374589	0.155360	0.101527	0.218653	0.297901	0.396179	0.265512	0.542655	0.825651	0.144618	0.072988	0.293626	0.283443	0.283029	0.165838	0.559947	0.381848	0.095305	0.071034	0.298078	0.283659	0.897257	0.624823	0.590919	0.864929	0.177251	0.147948	0.295829	0.274535
79	0.220883	0.358595	0.553028	0.480678	0.201968	0.129648	0.308149	0.233276	0.176546	0.153137	0.560186	0.354463	0.124844	0.091428	0.100657	0.213997	0.241160	0.160929	0.365175	0.503869	0.110665	0.220506	0.393275	0.341423	0.121807	0.126009	0.459904	0.193803	0.127022	0.137966	0.176430	0.202278	0.348791	0.251837	0.480468	0.886700	0.067611	0.117472	0.255813	0.211789	0.142805	0.093275	0.181630	0.164175	0.098361	0.081263	0.157031	0.263609	0.139392	0.141497	0.888856	0.278477	0.153308	0.093233	0.224431	0.309269	0.390896	0.247371	0.530659	0.826031	0.149123	0.073702	0.270438	0.283493	0.281645	0.165575	0.597197	0.374240	0.097338	0.074052	0.301658	0.307958	0.906947	0.628180	0.593196	0.911786	0.177400	0.152352	0.290340	0.260249
80	0.187109	0.281213	0.542382	0.453674	0.213330	0.129072	0.318104	0.293366	0.171617	0.151196	0.563397	0.340995	0.122495	0.091952	0.099303	0.219086	0.289075	0.179632	0.358020	0.548088	0.108189	0.219025	0.367594	0.339332	0.148009	0.158887	0.461901	0.190986	0.106446	0.120692	0.156587	0.203350	0.352325	0.253797	0.514064	0.891022	0.072618	0.181582	0.219501	0.203838	0.143367	0.097335	0.203361	0.176532	0.094823	0.077419	0.149358	0.263181	0.170631	0.174479	0.889643	0.301596	0.159794	0.089679	0.297335	0.320968	0.359242	0.227178	0.516157	0.815341	0.148885	0.073848	0.279902	0.275367	0.282617	0.162462	0.574430	0.359463	0.109189	0.081013	0.307012	0.345579	0.924501	0.623055	0.594635	0.940039	0.175614	0.145803	0.301771	0.248016
81	0.188925	0.244662	0.416960	0.388055	0.213124	0.127561	0.315113	0.310940	0.185676	0.154523	0.575046	0.335244	0.124808	0.091860	0.099794	0.221968	0.334129	0.187859	0.358806	0.569384	0.103436	0.216032	0.360418	0.309986	0.153669	0.167091	0.461723	0.192031	0.078675	0.113094	0.178852	0.197641	0.346932	0.247536	0.483563	0.896314	0.071416	0.195583	0.221942	0.172840	0.137969	0.094293	0.226082	0.186667	0.094686	0.075118	0.197431	0.265681	0.173092	0.177322	0.889262	0.361707	0.161089	0.091376	0.354216	0.318811	0.336389	0.225547	0.507915	0.773359	0.151264	0.079469	0.281436	0.262449	0.251316	0.136886	0.555411	0.317279	0.114014	0.087336	0.323257	0.343146	0.919997	0.472772	0.598903	0.946291	0.126238	0.116024	0.292828	0.277387
82	0.200365	0.244249	0.176176	0.292742	0.210416	0.125482	0.339234	0.313360	0.188757	0.154328	0.575724	0.341238	0.128470	0.091158	0.098816	0.262404	0.347274	0.193725	0.358136	0.569429	0.108906	0.141998	0.392341	0.268853	0.155508	0.167575	0.389679	0.183427	0.063110	0.122481	0.193274	0.182386	0.314900	0.216222	0.442047	0.805854	0.072958	0.215687	0.185464	0.131855	0.142676	0.104640	0.257687	0.188430	0.100971	0.075385	0.216175	0.248433	0.171301	0.245444	0.867528	0.393456	0.170304	0.096163	0.356428	0.297291	0.323648	0.228127	0.509457	0.709425	0.154233	0.081566	0.284049	0.242328	0.204787	0.120216	0.554352	0.252999	0.119299	0.089795	0.332171	0.314152	0.799691	0.397456	0.618270	0.945824	0.107502	0.110815	0.284829	0.320869
83	0.210055	0.245708	0.214075	0.251429	0.210504	0.124849	0.339746	0.313797	0.203094	0.160330	0.474064	0.343457	0.108007	0.080275	0.104339	0.288399	0.380576	0.222471	0.357619	0.572711	0.093484	0.112877	0.402069	0.270312	0.146808	0.153722	0.286334	0.170135	0.048986	0.100922	0.198069	0.177308	0.254439	0.164700	0.439223	0.707192	0.073160	0.220206	0.148860	0.112267	0.149236	0.106606	0.369597	0.242148	0.093337	0.076126	0.217123	0.226842	0.166859	0.254027	0.574913	0.369420	0.153980	0.091089	0.373711	0.255616	0.343285	0.237864	0.478670	0.703518	0.154654	0.083584	0.274687	0.230574	0.186877	0.117921	0.553522	0.243729	0.115139	0.088038	0.330471	0.286999	0.744695	0.395806	0.607482	0.939035	0.098213	0.108509	0.268891	0.335303
84	0.238955	0.241819	0.211801	0.286525	0.211303	0.125067	0.341460	0.338600	0.213554	0.164381	0.405386	0.385655	0.074471	0.060193	0.121365	0.271257	0.463019	0.292091	0.358057	0.589951	0.096327	0.098383	0.424582	0.271319	0.143971	0.146212	0.239759	0.164865	0.048486	0.102711	0.172682	0.170682	0.238393	0.156426	0.438555	0.668524	0.072939	0.229290	0.146886	0.122369	0.154463	0.102867	0.396821	0.291937	0.083289	0.064267	0.221006	0.249772	0.170507	0.263541	0.529432	0.366347	0.154708	0.095164	0.385974	0.249589	0.368230	0.248539	0.395718	0.704519	0.152130	0.083924	0.263386	0.224109	0.192337	0.116960	0.553195	0.284922	0.106072	0.082074	0.310945	0.269331	0.678423	0.367212	0.578452	0.912406	0.095499	0.106075	0.257449	0.338000
85	0.235467	0.192787	0.242982	0.282750	0.210286	0.119472	0.337659	0.364740	0.224729	0.172319	0.518540	0.425743	0.070474	0.055846	0.142975	0.243217	0.491895	0.323092	0.350249	0.641658	0.097134	0.095853	0.426824	0.290665	0.129427	0.135614	0.142589	0.161600	0.051733	0.103435	0.159940	0.146583	0.222634	0.154310	0.411842	0.665758	0.067448	0.223142	0.152597	0.122239	0.156499	0.112572	0.422639	0.293819	0.078374	0.057587	0.216909	0.246791	0.172484	0.268238	0.470306	0.366925	0.150340	0.100476	0.367740	0.267216	0.397952	0.269954	0.391555	0.704574	0.143982	0.082562	0.246183	0.205029	0.189180	0.113601	0.543920	0.299535	0.092419	0.072745	0.281398	0.270830	0.527673	0.313714	0.571069	0.863745	0.086437	0.101831	0.257621	0.336843
86	0.215937	0.162352	0.244370	0.263485	0.201316	0.110402	0.330435	0.383205	0.289107	0.211587	0.533442	0.448201	0.071422	0.051050	0.154898	0.247687	0.477878	0.319971	0.351939	0.642187	0.096261	0.081899	0.404756	0.317653	0.133671	0.144330	0.121648	0.131925	0.048267	0.089897	0.164759	0.122755	0.190570	0.135201	0.412659	0.573517	0.059534	0.220563	0.183482	0.120831	0.177853	0.143841	0.425682	0.278031	0.074838	0.051956	0.205785	0.257294	0.181893	0.271123	0.414376	0.375550	0.148590	0.104710	0.366252	0.255212	0.417159	0.278467	0.354405	0.700076	0.130905	0.081180	0.211931	0.204610	0.161218	0.091509	0.454027	0.282525	0.090015	0.072146	0.195832	0.274851	0.470124	0.297274	0.533531	0.775108	0.081501	0.100217	0.280404	0.338310
87	0.221877	0.173380	0.261805	0.282252	0.202560	0.111796	0.347526	0.398398	0.362350	0.262675	0.547844	0.464367	0.072125	0.050920	0.157281	0.265389	0.475857	0.317737	0.291735	0.600727	0.098402	0.074306	0.416167	0.340296	0.138490	0.150956	0.107659	0.098655	0.039773	0.076820	0.164827	0.110027	0.168858	0.122952	0.470316	0.472622	0.058323	0.208044	0.184474	0.112873	0.195053	0.159810	0.444134	0.299349	0.076914	0.048060	0.208229	0.257765	0.192573	0.267588	0.341969	0.400303	0.145573	0.106321	0.365915	0.220396	0.386540	0.256690	0.334500	0.661870	0.122528	0.078767	0.206687	0.179866	0.140501	0.081818	0.414896	0.278419	0.088913	0.071605	0.185388	0.278812	0.444882	0.290592	0.466108	0.639606	0.079407	0.097749	0.339193	0.346748
88	0.263421	0.185427	0.263894	0.391826	0.181563	0.095929	0.365419	0.404849	0.380638	0.272949	0.605854	0.471879	0.080802	0.052514	0.170401	0.268249	0.475488	0.312495	0.252606	0.625756	0.103678	0.063586	0.430140	0.359550	0.138350	0.156243	0.077662	0.076880	0.038910	0.079029	0.181224	0.105716	0.146091	0.114936	0.414112	0.428850	0.048277	0.203959	0.203902	0.096389	0.198727	0.176974	0.457839	0.342853	0.070774	0.045881	0.214511	0.253814	0.186529	0.260069	0.195271	0.432227	0.138494	0.111466	0.373377	0.195516	0.350269	0.232746	0.340010	0.578889	0.078135	0.063829	0.169969	0.131808	0.160794	0.130431	0.420609	0.313730	0.089493	0.103667	0.177320	0.264632	0.427434	0.288031	0.448210	0.599328	0.075306	0.085788	0.337157	0.370170
89	0.294685	0.198681	0.287793	0.489866	0.163334	0.078358	0.371528	0.408895	0.383693	0.266900	0.593731	0.468027	0.082742	0.051047	0.188565	0.267200	0.474882	0.315943	0.251648	0.676049	0.116829	0.072169	0.421238	0.366955	0.111924	0.135343	0.061585	0.073866	0.060997	0.091511	0.225085	0.096839	0.141676	0.115979	0.463777	0.421365	0.040859	0.146024	0.203655	0.095909	0.199486	0.178082	0.451351	0.360615	0.070425	0.046305	0.274347	0.257906	0.154828	0.233423	0.197892	0.424098	0.136466	0.111657	0.373578	0.177800	0.335938	0.223399	0.298791	0.486029	0.065655	0.061474	0.150103	0.116881	0.224714	0.187040	0.442094	0.376828	0.080877	0.121091	0.172725	0.218557	0.432997	0.287580	0.421799	0.613216	0.073448	0.078358	0.312397	0.398783
90	0.298047	0.205727	0.290774	0.495948	0.158043	0.072680	0.367510	0.408560	0.381704	0.255878	0.585190	0.466471	0.081421	0.042247	0.196495	0.261783	0.477459	0.325879	0.247984	0.654797	0.117662	0.076467	0.356831	0.362261	0.110851	0.123863	0.053088	0.071823	0.076781	0.109498	0.231988	0.110324	0.165185	0.135401	0.544791	0.367003	0.045732	0.127892	0.199799	0.100828	0.204032	0.209634	0.437711	0.355556	0.068619	0.045893	0.270816	0.263047	0.142232	0.226068	0.194933	0.377072	0.126890	0.104655	0.321525	0.152294	0.312041	0.207769	0.293485	0.408113	0.066552	0.061542	0.125487	0.114264	0.311550	0.234744	0.394087	0.427207	0.070850	0.121338	0.142990	0.176939	0.435715	0.283706	0.319361	0.593382	0.076168	0.076387	0.312791	0.412633
91	0.303812	0.208431	0.347333	0.515231	0.140050	0.062826	0.317176	0.388516	0.374973	0.253903	0.574952	0.466722	0.073143	0.038956	0.196733	0.254089	0.460930	0.329622	0.283944	0.622644	0.117262	0.074160	0.338471	0.344371	0.107230	0.127858	0.048191	0.071861	0.080516	0.113392	0.258636	0.102435	0.157056	0.136933	0.560241	0.379154	0.043205	0.094316	0.187301	0.095392	0.204120	0.222972	0.429203	0.355424	0.060034	0.047487	0.264457	0.268661	0.137776	0.147802	0.217952	0.347705	0.123779	0.103448	0.256238	0.149013	0.302582	0.204927	0.295850	0.347210	0.068501	0.061039	0.105061	0.111747	0.341574	0.249919	0.333108	0.456924	0.045109	0.134593	0.056213	0.138715	0.399333	0.260193	0.271068	0.540210	0.075962	0.073480	0.313277	0.386521
92	0.303814	0.206146	0.366440	0.532880	0.103909	0.056940	0.258686	0.342003	0.374953	0.262337	0.569294	0.466598	0.079234	0.046784	0.200956	0.196871	0.449474	0.339658	0.310938	0.614479	0.113996	0.074256	0.320156	0.334277	0.163808	0.149268	0.037696	0.095459	0.090830	0.119046	0.266580	0.093199	0.142221	0.117921	0.547956	0.390005	0.043313	0.083947	0.196435	0.092144	0.201803	0.221391	0.357474	0.336855	0.069430	0.053138	0.267273	0.262993	0.139057	0.128709	0.248921	0.345077	0.097181	0.095873	0.249797	0.147999	0.296051	0.202040	0.301782	0.323111	0.089434	0.057526	0.099693	0.109735	0.338921	0.249809	0.321299	0.454785	0.044686	0.151391	0.030052	0.108528	0.330313	0.223890	0.273550	0.456800	0.070900	0.064262	0.310682	0.371180
93	0.304006	0.206273	0.370508	0.540207	0.088406	0.056881	0.249403	0.300148	0.376691	0.266080	0.557024	0.463092	0.094219	0.054552	0.197730	0.156072	0.444949	0.340096	0.316414	0.614838	0.114088	0.069760	0.277701	0.322525	0.223442	0.155859	0.044550	0.108126	0.089404	0.119161	0.274643	0.094966	0.171215	0.144485	0.556757	0.366397	0.040585	0.052754	0.202847	0.079612	0.203282	0.259465	0.296710	0.276066	0.077088	0.061254	0.264032	0.239558	0.133100	0.104715	0.277806	0.344964	0.097512	0.095733	0.202710	0.144485	0.294913	0.208578	0.336474	0.323025	0.096257	0.052681	0.082443	0.121254	0.347782	0.252043	0.326302	0.470827	0.043288	0.169141	0.025887	0.106613	0.248763	0.162591	0.272409	0.407912	0.069294	0.061137	0.305700	0.374700
94	0.308612	0.217525	0.417041	0.525188	0.085902	0.056476	0.243435	0.290177	0.369448	0.262760	0.569009	0.439392	0.101298	0.058298	0.186316	0.142456	0.386169	0.305306	0.326040	0.596731	0.117436	0.070245	0.264092	0.312772	0.231327	0.155312	0.050425	0.108191	0.092187	0.122492	0.282286	0.109712	0.198892	0.151741	0.570392	0.348475	0.047912	0.058527	0.193639	0.081640	0.205116	0.267635	0.266393	0.266390	0.098977	0.074813	0.263036	0.237440	0.129029	0.102197	0.285038	0.353661	0.089949	0.091103	0.168875	0.133715	0.313583	0.224807	0.337097	0.320316	0.100095	0.050991	0.077510	0.155649	0.357644	0.250515	0.332486	0.475205	0.045772	0.179817	0.022978	0.104711	0.217696	0.145234	0.271772	0.452367	0.083041	0.063939	0.309110	0.351537
95	0.332111	0.241047	0.485103	0.507597	0.085949	0.052665	0.204923	0.289827	0.368277	0.260045	0.498608	0.366776	0.104000	0.058078	0.150088	0.140482	0.313433	0.247540	0.337008	0.553043	0.120317	0.073540	0.225913	0.314600	0.229961	0.151232	0.074425	0.107921	0.096658	0.124043	0.277504	0.163244	0.198213	0.150716	0.550020	0.349642	0.050925	0.062185	0.171960	0.079246	0.175126	0.259524	0.211589	0.266048	0.111931	0.078914	0.261229	0.217451	0.120640	0.102688	0.289539	0.409909	0.061781	0.080993	0.152280	0.083874	0.347907	0.240121	0.354403	0.305200	0.102507	0.052073	0.124533	0.170438	0.353785	0.247962	0.373399	0.456971	0.055088	0.220825	0.033047	0.094800	0.236067	0.169644	0.247122	0.509026	0.095804	0.071655	0.306591	0.308873
96	0.335508	0.242917	0.504751	0.514335	0.088519	0.055830	0.200707	0.283730	0.362989	0.254149	0.410122	0.318794	0.101671	0.061046	0.148356	0.107332	0.277489	0.217206	0.334904	0.506446	0.127326	0.080314	0.207754	0.295902	0.225476	0.148823	0.077063	0.109894	0.092230	0.119784	0.232750	0.176506	0.186178	0.146133	0.507233	0.292952	0.057662	0.104237	0.164567	0.079327	0.148688	0.253544	0.155565	0.244080	0.110576	0.079111	0.255234	0.162928	0.093428	0.100955	0.318597	0.477738	0.055207	0.074647	0.109134	0.050487	0.400109	0.264917	0.375614	0.241191	0.102706	0.053311	0.127957	0.169367	0.351136	0.248845	0.383726	0.448299	0.056071	0.222487	0.033060	0.079088	0.265565	0.190695	0.240257	0.545547	0.095966	0.071823	0.351689	0.294027
97	0.335748	0.243503	0.514501	0.533207	0.091388	0.056991	0.192324	0.250281	0.299369	0.210417	0.457959	0.327383	0.101955	0.067093	0.138716	0.075437	0.281970	0.230740	0.397816	0.497892	0.135875	0.093179	0.200630	0.256062	0.224087	0.140545	0.081533	0.131950	0.079157	0.095543	0.236381	0.233358	0.204062	0.179909	0.555646	0.282521	0.090391	0.125838	0.142079	0.076306	0.122078	0.242862	0.090811	0.216520	0.116300	0.080405	0.359290	0.135790	0.093903	0.097507	0.328522	0.489665	0.058088	0.088963	0.104993	0.052285	0.511130	0.312835	0.386972	0.158352	0.105234	0.056222	0.159639	0.181195	0.359239	0.270053	0.403250	0.437263	0.058537	0.230308	0.034065	0.063749	0.284897	0.200167	0.235879	0.561815	0.090431	0.063756	0.364089	0.296580
98	0.318125	0.234231	0.557614	0.507253	0.085023	0.056318	0.190499	0.218837	0.224006	0.146608	0.460753	0.317918	0.093240	0.084417	0.116300	0.076257	0.290839	0.239028	0.410880	0.495537	0.146102	0.104329	0.178123	0.218244	0.228334	0.135654	0.088027	0.157919	0.102253	0.089083	0.208754	0.266614	0.203277	0.187069	0.529746	0.324072	0.105985	0.130256	0.141356	0.115151	0.124121	0.239264	0.115271	0.294272	0.121006	0.085493	0.338980	0.131764	0.095860	0.097020	0.325605	0.474799	0.067215	0.111299	0.074375	0.055551	0.529801	0.301910	0.386234	0.107913	0.108588	0.056880	0.170377	0.202662	0.394885	0.302975	0.408170	0.437738	0.064465	0.298811	0.037244	0.048995	0.292030	0.201386	0.229496	0.561764	0.087570	0.059458	0.373731	0.301020
99	0.281572	0.213017	0.682264	0.434385	0.086160	0.095749	0.184199	0.195867	0.199718	0.120647	0.489906	0.387994	0.089130	0.097202	0.076571	0.078836	0.292816	0.238319	0.526801	0.420390	0.139945	0.101701	0.142561	0.183049	0.225024	0.125994	0.088681	0.166528	0.093852	0.074089	0.197441	0.274615	0.189611	0.178141	0.502549	0.339446	0.104553	0.131726	0.134647	0.128069	0.124188	0.224403	0.152647	0.348609	0.125408	0.088645	0.351309	0.139255	0.097126	0.098731	0.336000	0.480677	0.079475	0.109216	0.062288	0.092991	0.512057	0.296404	0.383776	0.112981	0.111279	0.059284	0.171497	0.224697	0.394961	0.303423	0.395515	0.437719	0.065223	0.340074	0.037796	0.035154	0.289987	0.202593	0.234123	0.558098	0.087101	0.058494	0.396762	0.299045
100	0.270071	0.202995	0.740105	0.429798	0.100452	0.149350	0.141116	0.172046	0.213712	0.123906	0.489600	0.427908	0.087243	0.105374	0.070851	0.078455	0.282610	0.222186	0.559956	0.360893	0.130135	0.095650	0.122176	0.169845	0.223431	0.121475	0.093185	0.164602	0.088491	0.070483	0.191214	0.274800	0.193022	0.177887	0.524419	0.343489	0.105675	0.130073	0.190291	0.132185	0.124635	0.195596	0.153338	0.350258	0.124843	0.088356	0.405821	0.141124	0.125930	0.106787	0.347312	0.568600	0.093094	0.109284	0.102574	0.136333	0.506460	0.303423	0.383120	0.119993	0.118765	0.064318	0.172503	0.240786	0.386363	0.282754	0.369368	0.442206	0.066337	0.376028	0.037593	0.023640	0.297713	0.209722	0.228101	0.557920	0.092246	0.069826	0.368018	0.304722
101	0.262744	0.186403	0.753425	0.468913	0.104901	0.154974	0.090858	0.154042	0.226508	0.147358	0.547182	0.425628	0.086400	0.105623	0.074178	0.078568	0.268069	0.201612	0.552573	0.388962	0.127229	0.092638	0.125000	0.172678	0.196600	0.100134	0.108733	0.162233	0.099579	0.077336	0.168192	0.279654	0.201428	0.179485	0.621969	0.418685	0.106859	0.130033	0.183941	0.131959	0.121311	0.193305	0.149587	0.350752	0.118836	0.084128	0.418324	0.130562	0.162273	0.111359	0.451569	0.617462	0.098339	0.110810	0.123139	0.150221	0.542493	0.348612	0.361501	0.118236	0.126207	0.067560	0.173433	0.244242	0.349162	0.250781	0.381094	0.452020	0.068376	0.392011	0.038184	0.015542	0.312243	0.216003	0.228336	0.547512	0.122747	0.122431	0.348224	0.321440
