	308_At_T2_sh_ND_01.c3d	308_At_T2_sh_ND_01.c3d	308_At_T2_sh_ND_01.c3d	308_At_T2_sh_ND_01.c3d	308_At_T2_sh_ND_01.c3d	308_At_T2_sh_ND_01.c3d	308_At_T2_sh_ND_01.c3d	308_At_T2_sh_ND_01.c3d	308_At_T2_sh_ND_02.c3d	308_At_T2_sh_ND_02.c3d	308_At_T2_sh_ND_02.c3d	308_At_T2_sh_ND_02.c3d	308_At_T2_sh_ND_02.c3d	308_At_T2_sh_ND_02.c3d	308_At_T2_sh_ND_02.c3d	308_At_T2_sh_ND_02.c3d	308_At_T2_sh_ND_03.c3d	308_At_T2_sh_ND_03.c3d	308_At_T2_sh_ND_03.c3d	308_At_T2_sh_ND_03.c3d	308_At_T2_sh_ND_03.c3d	308_At_T2_sh_ND_03.c3d	308_At_T2_sh_ND_03.c3d	308_At_T2_sh_ND_03.c3d	308_At_T2_sh_ND_04.c3d	308_At_T2_sh_ND_04.c3d	308_At_T2_sh_ND_04.c3d	308_At_T2_sh_ND_04.c3d	308_At_T2_sh_ND_04.c3d	308_At_T2_sh_ND_04.c3d	308_At_T2_sh_ND_04.c3d	308_At_T2_sh_ND_04.c3d	308_At_T2_sh_ND_05.c3d	308_At_T2_sh_ND_05.c3d	308_At_T2_sh_ND_05.c3d	308_At_T2_sh_ND_05.c3d	308_At_T2_sh_ND_05.c3d	308_At_T2_sh_ND_05.c3d	308_At_T2_sh_ND_05.c3d	308_At_T2_sh_ND_05.c3d	308_At_T2_sh_ND_06.c3d	308_At_T2_sh_ND_06.c3d	308_At_T2_sh_ND_06.c3d	308_At_T2_sh_ND_06.c3d	308_At_T2_sh_ND_06.c3d	308_At_T2_sh_ND_06.c3d	308_At_T2_sh_ND_06.c3d	308_At_T2_sh_ND_06.c3d	308_At_T2_sh_ND_07.c3d	308_At_T2_sh_ND_07.c3d	308_At_T2_sh_ND_07.c3d	308_At_T2_sh_ND_07.c3d	308_At_T2_sh_ND_07.c3d	308_At_T2_sh_ND_07.c3d	308_At_T2_sh_ND_07.c3d	308_At_T2_sh_ND_07.c3d	308_At_T2_sh_ND_08.c3d	308_At_T2_sh_ND_08.c3d	308_At_T2_sh_ND_08.c3d	308_At_T2_sh_ND_08.c3d	308_At_T2_sh_ND_08.c3d	308_At_T2_sh_ND_08.c3d	308_At_T2_sh_ND_08.c3d	308_At_T2_sh_ND_08.c3d	308_At_T2_sh_ND_09.c3d	308_At_T2_sh_ND_09.c3d	308_At_T2_sh_ND_09.c3d	308_At_T2_sh_ND_09.c3d	308_At_T2_sh_ND_09.c3d	308_At_T2_sh_ND_09.c3d	308_At_T2_sh_ND_09.c3d	308_At_T2_sh_ND_09.c3d	308_At_T2_sh_ND_10.c3d	308_At_T2_sh_ND_10.c3d	308_At_T2_sh_ND_10.c3d	308_At_T2_sh_ND_10.c3d	308_At_T2_sh_ND_10.c3d	308_At_T2_sh_ND_10.c3d	308_At_T2_sh_ND_10.c3d	308_At_T2_sh_ND_10.c3d
	Biceps femoris_lat	Semitendinosus_lat	Vastus lateralis_lat	Vastus medialis_lat	Biceps femoris_med	Semitendinosus_med	Vastus lateralis_med	Vastus medialis_med	Biceps femoris_lat	Semitendinosus_lat	Vastus lateralis_lat	Vastus medialis_lat	Biceps femoris_med	Semitendinosus_med	Vastus lateralis_med	Vastus medialis_med	Biceps femoris_lat	Semitendinosus_lat	Vastus lateralis_lat	Vastus medialis_lat	Biceps femoris_med	Semitendinosus_med	Vastus lateralis_med	Vastus medialis_med	Biceps femoris_lat	Semitendinosus_lat	Vastus lateralis_lat	Vastus medialis_lat	Biceps femoris_med	Semitendinosus_med	Vastus lateralis_med	Vastus medialis_med	Biceps femoris_lat	Semitendinosus_lat	Vastus lateralis_lat	Vastus medialis_lat	Biceps femoris_med	Semitendinosus_med	Vastus lateralis_med	Vastus medialis_med	Biceps femoris_lat	Semitendinosus_lat	Vastus lateralis_lat	Vastus medialis_lat	Biceps femoris_med	Semitendinosus_med	Vastus lateralis_med	Vastus medialis_med	Biceps femoris_lat	Semitendinosus_lat	Vastus lateralis_lat	Vastus medialis_lat	Biceps femoris_med	Semitendinosus_med	Vastus lateralis_med	Vastus medialis_med	Biceps femoris_lat	Semitendinosus_lat	Vastus lateralis_lat	Vastus medialis_lat	Biceps femoris_med	Semitendinosus_med	Vastus lateralis_med	Vastus medialis_med	Biceps femoris_lat	Semitendinosus_lat	Vastus lateralis_lat	Vastus medialis_lat	Biceps femoris_med	Semitendinosus_med	Vastus lateralis_med	Vastus medialis_med	Biceps femoris_lat	Semitendinosus_lat	Vastus lateralis_lat	Vastus medialis_lat	Biceps femoris_med	Semitendinosus_med	Vastus lateralis_med	Vastus medialis_med
	P2D	P2D	P2D	P2D	P2D	P2D	P2D	P2D	P2D	P2D	P2D	P2D	P2D	P2D	P2D	P2D	P2D	P2D	P2D	P2D	P2D	P2D	P2D	P2D	P2D	P2D	P2D	P2D	P2D	P2D	P2D	P2D	P2D	P2D	P2D	P2D	P2D	P2D	P2D	P2D	P2D	P2D	P2D	P2D	P2D	P2D	P2D	P2D	P2D	P2D	P2D	P2D	P2D	P2D	P2D	P2D	P2D	P2D	P2D	P2D	P2D	P2D	P2D	P2D	P2D	P2D	P2D	P2D	P2D	P2D	P2D	P2D	P2D	P2D	P2D	P2D	P2D	P2D	P2D	P2D
	EMG_lat	EMG_lat	EMG_lat	EMG_lat	EMG_med	EMG_med	EMG_med	EMG_med	EMG_lat	EMG_lat	EMG_lat	EMG_lat	EMG_med	EMG_med	EMG_med	EMG_med	EMG_lat	EMG_lat	EMG_lat	EMG_lat	EMG_med	EMG_med	EMG_med	EMG_med	EMG_lat	EMG_lat	EMG_lat	EMG_lat	EMG_med	EMG_med	EMG_med	EMG_med	EMG_lat	EMG_lat	EMG_lat	EMG_lat	EMG_med	EMG_med	EMG_med	EMG_med	EMG_lat	EMG_lat	EMG_lat	EMG_lat	EMG_med	EMG_med	EMG_med	EMG_med	EMG_lat	EMG_lat	EMG_lat	EMG_lat	EMG_med	EMG_med	EMG_med	EMG_med	EMG_lat	EMG_lat	EMG_lat	EMG_lat	EMG_med	EMG_med	EMG_med	EMG_med	EMG_lat	EMG_lat	EMG_lat	EMG_lat	EMG_med	EMG_med	EMG_med	EMG_med	EMG_lat	EMG_lat	EMG_lat	EMG_lat	EMG_med	EMG_med	EMG_med	EMG_med
ITEM	Y	Y	Y	Y	Y	Y	Y	Y	Y	Y	Y	Y	Y	Y	Y	Y	Y	Y	Y	Y	Y	Y	Y	Y	Y	Y	Y	Y	Y	Y	Y	Y	Y	Y	Y	Y	Y	Y	Y	Y	Y	Y	Y	Y	Y	Y	Y	Y	Y	Y	Y	Y	Y	Y	Y	Y	Y	Y	Y	Y	Y	Y	Y	Y	Y	Y	Y	Y	Y	Y	Y	Y	Y	Y	Y	Y	Y	Y	Y	Y
1	0.267808	0.251020	0.184935	0.180262	0.208727	0.240874	0.244968	0.118468	0.206837	0.280871	0.406491	0.208745	0.100283	0.155584	0.325414	0.186203	0.241194	0.298114	0.285019	0.149974	0.256223	0.455329	0.303728	0.175547	0.341959	0.650097	0.315898	0.129409	0.170561	0.119603	0.140002	0.132272	0.129884	0.149482	0.254128	0.177629	0.057637	0.094044	0.400528	0.270015	0.168961	0.257267	0.462223	0.168963	0.099044	0.153246	0.275031	0.334394	0.110880	0.113375	0.293016	0.165378	0.118037	0.117403	0.186391	0.096738	0.204340	0.382118	0.340624	0.246669	0.045202	0.052518	0.246997	0.256135	0.137810	0.175190	0.258819	0.167983	0.090428	0.080670	0.384353	0.246485	0.327290	0.094128	0.231378	0.160998	0.042433	0.081211	0.163528	0.196067
2	0.163204	0.250567	0.184648	0.179931	0.209011	0.240449	0.290704	0.124922	0.150644	0.235734	0.328258	0.199768	0.104924	0.155707	0.333750	0.177666	0.240586	0.290742	0.316047	0.145405	0.249438	0.486284	0.242228	0.165059	0.327088	0.586543	0.322407	0.130597	0.171940	0.110494	0.170734	0.130220	0.066745	0.133711	0.303735	0.184876	0.070659	0.113710	0.421910	0.278545	0.178353	0.238725	0.439870	0.153541	0.102838	0.143919	0.282315	0.343867	0.078670	0.099237	0.295816	0.165341	0.115999	0.093581	0.172136	0.103659	0.195412	0.377439	0.325696	0.256415	0.052112	0.062685	0.236806	0.255376	0.145558	0.176117	0.239866	0.157439	0.070558	0.075383	0.305834	0.208435	0.272354	0.072547	0.227216	0.166893	0.038647	0.049795	0.162003	0.186777
3	0.154164	0.232869	0.192828	0.181423	0.208779	0.239502	0.356147	0.135844	0.136486	0.212997	0.336041	0.189667	0.092927	0.147739	0.336368	0.161520	0.226336	0.253042	0.412927	0.141211	0.245044	0.522139	0.178819	0.159764	0.297489	0.418182	0.320690	0.129146	0.170290	0.109935	0.209168	0.129009	0.051723	0.088683	0.299217	0.186415	0.074791	0.115162	0.487396	0.284119	0.167436	0.155751	0.424407	0.150130	0.089959	0.107471	0.347607	0.344355	0.063190	0.090765	0.270515	0.190921	0.116095	0.085184	0.170970	0.098154	0.182493	0.351216	0.330968	0.250029	0.057279	0.067187	0.225284	0.232592	0.147330	0.172148	0.242519	0.156964	0.067996	0.072435	0.256210	0.216790	0.273178	0.079423	0.221384	0.172695	0.036330	0.045259	0.118773	0.188847
4	0.171000	0.231782	0.173241	0.179932	0.192533	0.232232	0.372876	0.142719	0.121813	0.191248	0.256502	0.163000	0.071483	0.130589	0.286683	0.172295	0.201632	0.151309	0.426410	0.159988	0.322120	0.577597	0.177134	0.112570	0.280948	0.225176	0.297320	0.128204	0.192303	0.110972	0.210783	0.118249	0.051790	0.076985	0.296324	0.212341	0.076722	0.110257	0.489397	0.334342	0.163992	0.138933	0.422833	0.151641	0.082162	0.106696	0.426600	0.344569	0.059511	0.086315	0.259982	0.210918	0.116858	0.091245	0.196593	0.180154	0.184490	0.325003	0.323735	0.247075	0.056542	0.065812	0.174727	0.219250	0.141821	0.165196	0.244910	0.164780	0.058555	0.064864	0.254354	0.225408	0.267656	0.084222	0.224061	0.175964	0.030616	0.050377	0.090079	0.188591
5	0.164823	0.207630	0.184242	0.185323	0.164460	0.201149	0.370355	0.157862	0.121137	0.172585	0.227412	0.186670	0.085959	0.151696	0.251410	0.159706	0.190485	0.105230	0.456906	0.201447	0.377509	0.604387	0.176909	0.099904	0.216332	0.186298	0.234271	0.132012	0.191205	0.120220	0.207683	0.086169	0.051293	0.079841	0.338219	0.222834	0.093197	0.119840	0.487429	0.438081	0.129385	0.131175	0.409358	0.148850	0.084188	0.107419	0.479967	0.338608	0.053926	0.075344	0.262640	0.213162	0.117964	0.097021	0.239638	0.201656	0.179507	0.322954	0.311275	0.247377	0.056815	0.066617	0.156333	0.228088	0.134799	0.159429	0.267939	0.175598	0.053404	0.067397	0.267099	0.270272	0.261659	0.086799	0.224736	0.173735	0.028389	0.055266	0.093739	0.242343
6	0.168768	0.212765	0.194553	0.179968	0.154122	0.177227	0.433161	0.185695	0.121597	0.153902	0.260514	0.202744	0.089536	0.161163	0.242165	0.161303	0.167445	0.098196	0.436980	0.231302	0.376023	0.599500	0.171727	0.138418	0.167255	0.187334	0.238777	0.149735	0.188397	0.117906	0.220864	0.091639	0.049868	0.059393	0.373274	0.225319	0.100614	0.130275	0.489391	0.523414	0.124350	0.116928	0.340451	0.133319	0.084123	0.107159	0.490669	0.328150	0.039420	0.054105	0.286912	0.206362	0.117078	0.098480	0.261162	0.272388	0.177461	0.322595	0.277314	0.243621	0.057268	0.066991	0.156091	0.282464	0.142087	0.185353	0.291967	0.205738	0.055242	0.067658	0.353922	0.263034	0.232965	0.080629	0.293667	0.175308	0.037245	0.072365	0.166772	0.241592
7	0.168527	0.165573	0.190535	0.167387	0.139692	0.176401	0.460550	0.212206	0.108267	0.137369	0.254656	0.235804	0.091040	0.153745	0.204106	0.163425	0.122372	0.091741	0.456067	0.249706	0.354863	0.579673	0.190715	0.152876	0.122344	0.183697	0.282662	0.154886	0.187149	0.115392	0.251505	0.160351	0.051881	0.050404	0.368148	0.264690	0.101530	0.125934	0.409662	0.511200	0.124998	0.117685	0.300758	0.139846	0.083752	0.103936	0.490454	0.327287	0.039407	0.037784	0.310169	0.205011	0.095536	0.087456	0.282122	0.291133	0.176713	0.314949	0.232023	0.236663	0.058069	0.068473	0.177435	0.310852	0.162524	0.188317	0.307427	0.222581	0.052985	0.057429	0.374144	0.251075	0.114797	0.072223	0.291740	0.195026	0.042260	0.092939	0.182645	0.244129
8	0.154049	0.156718	0.187357	0.147249	0.130685	0.182603	0.486965	0.204882	0.113048	0.145363	0.294399	0.240870	0.099220	0.158275	0.206864	0.165219	0.109665	0.080886	0.475120	0.245846	0.336835	0.554150	0.191393	0.166427	0.129467	0.154408	0.248630	0.155159	0.185869	0.113407	0.253190	0.162681	0.050707	0.050258	0.389907	0.373149	0.102834	0.127590	0.405827	0.545694	0.126286	0.120913	0.308172	0.138344	0.084749	0.102238	0.479445	0.300862	0.062706	0.061766	0.312826	0.197422	0.080797	0.079119	0.282396	0.296869	0.174332	0.301506	0.264795	0.236306	0.058263	0.068652	0.210262	0.350768	0.194525	0.188301	0.280848	0.226178	0.061509	0.055851	0.341718	0.298262	0.080550	0.072473	0.301583	0.187966	0.057036	0.107431	0.192155	0.247510
9	0.151077	0.132886	0.168064	0.134425	0.128780	0.160090	0.498971	0.219144	0.119071	0.145328	0.351631	0.232370	0.099480	0.160853	0.232687	0.182355	0.083385	0.068554	0.457471	0.242961	0.317502	0.500926	0.187472	0.172281	0.134127	0.132372	0.271303	0.151919	0.181952	0.113064	0.251920	0.214633	0.070110	0.080512	0.416008	0.387748	0.101899	0.137795	0.398986	0.641552	0.128007	0.122030	0.281512	0.135817	0.087168	0.116012	0.476314	0.273945	0.082165	0.098137	0.312851	0.198618	0.070674	0.076894	0.358978	0.301065	0.144929	0.192377	0.384673	0.236386	0.060370	0.077453	0.215065	0.350790	0.207390	0.193056	0.266337	0.284684	0.066352	0.071253	0.340161	0.310174	0.074468	0.072271	0.307733	0.172668	0.063222	0.116602	0.240743	0.288050
10	0.154286	0.138229	0.182298	0.127555	0.104950	0.126145	0.499854	0.264934	0.112826	0.136091	0.366816	0.232717	0.094294	0.156327	0.231734	0.187135	0.065037	0.066266	0.451577	0.250803	0.316056	0.440466	0.205147	0.177825	0.115494	0.124599	0.301442	0.200849	0.138241	0.104350	0.266317	0.242029	0.093424	0.104957	0.410394	0.387118	0.100668	0.144782	0.400193	0.685832	0.128913	0.117981	0.237735	0.118453	0.084867	0.117095	0.539863	0.271889	0.086850	0.118980	0.326659	0.219800	0.070049	0.080244	0.448229	0.301774	0.116887	0.161867	0.528955	0.224618	0.075599	0.095286	0.209744	0.381931	0.219146	0.211204	0.285594	0.406881	0.074557	0.088589	0.341295	0.329474	0.069398	0.074347	0.307798	0.161753	0.079875	0.133857	0.304333	0.314156
11	0.156347	0.140479	0.186924	0.174592	0.103239	0.117999	0.509714	0.271198	0.093938	0.120614	0.368756	0.244607	0.090223	0.156648	0.237200	0.179035	0.069018	0.071335	0.455888	0.297603	0.345936	0.445453	0.201250	0.177221	0.102950	0.106808	0.313760	0.246438	0.124196	0.103568	0.292225	0.257124	0.092462	0.103542	0.380328	0.438046	0.083579	0.125523	0.384135	0.689830	0.127139	0.111353	0.231455	0.116663	0.086174	0.116467	0.602151	0.270728	0.090127	0.118080	0.301665	0.216818	0.071237	0.123378	0.453822	0.324313	0.099989	0.147601	0.556571	0.209496	0.086371	0.119649	0.203888	0.418766	0.230805	0.223541	0.325428	0.427897	0.091538	0.109733	0.340195	0.398441	0.087923	0.075100	0.304552	0.167928	0.138037	0.133052	0.315677	0.314342
12	0.149207	0.134412	0.186674	0.202340	0.102835	0.123161	0.479372	0.269984	0.088861	0.113513	0.369977	0.259451	0.093583	0.163868	0.221261	0.163091	0.068788	0.068499	0.449678	0.351149	0.371943	0.431888	0.204628	0.174973	0.097182	0.095234	0.332330	0.270981	0.136201	0.105397	0.280183	0.314388	0.089549	0.101321	0.422596	0.491402	0.080022	0.122742	0.289871	0.689847	0.121379	0.111702	0.268528	0.112176	0.086798	0.116463	0.594248	0.275469	0.092925	0.119978	0.269730	0.218624	0.108953	0.170692	0.473969	0.372284	0.072688	0.130849	0.568803	0.206162	0.088592	0.154694	0.197649	0.428802	0.228643	0.217138	0.321004	0.422807	0.124900	0.125973	0.333533	0.452183	0.105110	0.077805	0.300652	0.230466	0.162615	0.151669	0.323354	0.317973
13	0.124369	0.113835	0.187138	0.210664	0.099980	0.137211	0.431600	0.289915	0.089589	0.113291	0.373227	0.241883	0.111029	0.164328	0.222016	0.159513	0.066556	0.070385	0.371006	0.370198	0.384526	0.390817	0.226879	0.180415	0.094832	0.089988	0.356382	0.284209	0.116550	0.103272	0.271529	0.375531	0.097427	0.111075	0.419986	0.505708	0.077042	0.122566	0.265858	0.674269	0.115841	0.107345	0.263363	0.135811	0.085935	0.114551	0.582502	0.295592	0.092512	0.120023	0.257996	0.237639	0.110479	0.196015	0.470776	0.384601	0.080471	0.137316	0.601654	0.194053	0.108849	0.156622	0.200368	0.432227	0.225527	0.214287	0.323420	0.446656	0.156802	0.146563	0.323077	0.469787	0.107836	0.075273	0.300826	0.312231	0.204362	0.190446	0.352000	0.291190
14	0.099917	0.086541	0.162160	0.207280	0.114696	0.143168	0.417465	0.332115	0.081026	0.109370	0.353434	0.230797	0.106670	0.152634	0.232421	0.144630	0.066521	0.072753	0.354377	0.365045	0.397463	0.323932	0.242953	0.199490	0.094109	0.078395	0.383869	0.300459	0.125916	0.100179	0.299016	0.403060	0.109814	0.117736	0.382085	0.507020	0.065470	0.127436	0.261526	0.619512	0.105501	0.095826	0.261749	0.147099	0.081964	0.110353	0.585626	0.333457	0.093780	0.119322	0.260244	0.249485	0.107038	0.193726	0.465094	0.362065	0.080809	0.137260	0.619013	0.171026	0.171038	0.243370	0.189770	0.428079	0.220104	0.212403	0.333767	0.487583	0.164655	0.161963	0.317007	0.467448	0.104938	0.076634	0.300652	0.351121	0.240928	0.204441	0.327444	0.263833
15	0.090081	0.074571	0.129565	0.202698	0.139218	0.142822	0.408978	0.379408	0.092018	0.110456	0.360172	0.230079	0.111857	0.157953	0.260349	0.148568	0.063446	0.071838	0.303473	0.338628	0.326495	0.218609	0.248823	0.232070	0.093520	0.076888	0.366717	0.331835	0.142567	0.092274	0.304338	0.410895	0.114598	0.119485	0.386821	0.507326	0.072189	0.144474	0.249439	0.552036	0.097283	0.091569	0.264635	0.154800	0.075009	0.106593	0.568845	0.371863	0.120117	0.145952	0.255779	0.250067	0.105390	0.190777	0.445627	0.359844	0.080367	0.134176	0.645115	0.256777	0.324346	0.379035	0.188796	0.425022	0.215115	0.212263	0.349996	0.543579	0.200370	0.179922	0.309702	0.456272	0.099397	0.079156	0.300419	0.353285	0.261260	0.224522	0.318858	0.275147
16	0.090352	0.081551	0.135307	0.205253	0.140642	0.140574	0.335624	0.395457	0.079036	0.088809	0.337317	0.224411	0.113289	0.161916	0.262821	0.172218	0.065067	0.075245	0.290253	0.316587	0.308237	0.190384	0.254233	0.228183	0.089579	0.088991	0.365380	0.384101	0.142572	0.080148	0.280878	0.402498	0.114432	0.120277	0.370274	0.460291	0.083300	0.154911	0.240787	0.543693	0.097018	0.094157	0.288695	0.188259	0.074794	0.107784	0.521040	0.388521	0.166933	0.207472	0.243160	0.250109	0.107869	0.189351	0.444166	0.365015	0.103377	0.147186	0.668906	0.328862	0.411080	0.473061	0.183323	0.389503	0.217226	0.216480	0.370193	0.595720	0.209329	0.181077	0.309097	0.450863	0.097935	0.079805	0.305818	0.366421	0.260122	0.221674	0.311742	0.264248
17	0.087731	0.088659	0.145062	0.231364	0.154198	0.127102	0.276665	0.391106	0.077786	0.094208	0.248263	0.267196	0.111807	0.158733	0.289896	0.254638	0.120927	0.161266	0.247058	0.302946	0.302380	0.193035	0.233576	0.229568	0.073926	0.098587	0.365779	0.403888	0.148524	0.125874	0.259936	0.401749	0.118093	0.118352	0.404218	0.413157	0.089573	0.199343	0.144501	0.531142	0.091403	0.100410	0.308396	0.215153	0.070554	0.107691	0.460757	0.389917	0.177150	0.222648	0.232675	0.252771	0.110418	0.188259	0.442261	0.353092	0.134465	0.168713	0.675031	0.370703	0.442876	0.487585	0.165696	0.382342	0.225025	0.223319	0.379550	0.626301	0.211009	0.181174	0.297573	0.436402	0.100379	0.084123	0.229792	0.426598	0.258851	0.216929	0.285410	0.200981
18	0.045288	0.089083	0.145185	0.227490	0.156779	0.114155	0.225453	0.392711	0.078744	0.094047	0.225450	0.289156	0.123456	0.156119	0.295025	0.279695	0.145942	0.231395	0.211435	0.311987	0.303269	0.217315	0.239359	0.254689	0.073495	0.130337	0.317892	0.384973	0.152017	0.146844	0.257730	0.401987	0.127097	0.122048	0.461347	0.442549	0.096399	0.204228	0.153224	0.443808	0.087393	0.102885	0.336899	0.220918	0.069139	0.108577	0.435605	0.389521	0.180427	0.239188	0.210892	0.253022	0.116390	0.189237	0.442051	0.376467	0.175866	0.206323	0.668973	0.377635	0.674634	0.690804	0.112904	0.327062	0.233806	0.228839	0.368429	0.640572	0.215650	0.178723	0.279844	0.416448	0.111184	0.104654	0.202570	0.450422	0.256976	0.209579	0.209766	0.153584
19	0.057805	0.073264	0.118546	0.241122	0.156248	0.139179	0.189400	0.386075	0.079086	0.094388	0.192323	0.289545	0.142043	0.184768	0.283041	0.262801	0.156461	0.269113	0.211140	0.317168	0.305270	0.247408	0.248291	0.270482	0.059476	0.136509	0.308661	0.361067	0.168071	0.174464	0.240387	0.388674	0.137507	0.152940	0.469073	0.457743	0.099484	0.203584	0.341690	0.390293	0.095543	0.113582	0.358648	0.213652	0.069904	0.110904	0.441038	0.389648	0.182456	0.271006	0.220610	0.273774	0.178861	0.189485	0.386082	0.410637	0.220913	0.257629	0.667939	0.378498	0.829639	0.736800	0.098459	0.338148	0.231487	0.219891	0.350077	0.649824	0.217843	0.178354	0.128224	0.415973	0.115141	0.157659	0.287083	0.470245	0.265159	0.211087	0.183154	0.148286
20	0.068109	0.086515	0.124090	0.242891	0.149514	0.148566	0.186859	0.360511	0.079118	0.094915	0.187105	0.273425	0.167620	0.190545	0.280989	0.277021	0.180346	0.274005	0.205851	0.330065	0.305021	0.256032	0.240203	0.278742	0.068977	0.170386	0.291595	0.336357	0.175776	0.241567	0.213458	0.409593	0.143766	0.155341	0.509044	0.454571	0.102423	0.202025	0.356140	0.386300	0.105292	0.142586	0.354452	0.206153	0.069333	0.116777	0.447176	0.381844	0.183998	0.259933	0.223321	0.273795	0.206519	0.196309	0.269384	0.441610	0.246718	0.281286	0.651676	0.380888	0.834655	0.745734	0.115572	0.362551	0.222498	0.219794	0.336636	0.646311	0.217136	0.182311	0.081474	0.433211	0.180819	0.195325	0.332788	0.481746	0.269543	0.219824	0.170311	0.169373
21	0.099561	0.185499	0.164195	0.256361	0.145972	0.146099	0.176126	0.386492	0.089416	0.124789	0.181949	0.292049	0.178975	0.182349	0.279490	0.298536	0.203282	0.278681	0.189445	0.325636	0.281354	0.255527	0.230884	0.302961	0.082894	0.173002	0.290749	0.345812	0.201086	0.242304	0.182285	0.386528	0.143267	0.151213	0.482718	0.421491	0.102944	0.207165	0.397115	0.383141	0.115203	0.170025	0.357666	0.204133	0.062342	0.131068	0.445867	0.368942	0.202773	0.250367	0.229517	0.259387	0.208691	0.203896	0.257946	0.453238	0.261393	0.278528	0.604086	0.383290	0.859844	0.779557	0.161283	0.350471	0.200406	0.219641	0.336386	0.653003	0.216059	0.182672	0.104743	0.397246	0.185397	0.193510	0.342386	0.485808	0.249144	0.199856	0.078308	0.182402
22	0.100000	0.202077	0.165831	0.328002	0.149111	0.159036	0.186488	0.401333	0.084551	0.117485	0.230317	0.345930	0.181846	0.202890	0.277627	0.360100	0.239288	0.377124	0.165822	0.315385	0.273357	0.257843	0.237413	0.321896	0.080034	0.172999	0.285241	0.327308	0.204770	0.248362	0.203025	0.335140	0.133907	0.143351	0.534420	0.468501	0.109882	0.217544	0.423167	0.381452	0.115607	0.180369	0.378661	0.207347	0.053875	0.131860	0.415699	0.359311	0.203651	0.260899	0.249612	0.258938	0.198927	0.188218	0.217872	0.429567	0.267407	0.298791	0.492704	0.394318	0.862230	0.783397	0.167270	0.386489	0.189287	0.215114	0.332161	0.632248	0.217670	0.175882	0.155806	0.410145	0.184283	0.191842	0.350940	0.485524	0.225636	0.183663	0.096450	0.191742
23	0.112364	0.215510	0.170481	0.344548	0.150127	0.171933	0.190084	0.403093	0.069982	0.105222	0.277268	0.329231	0.218174	0.256972	0.285635	0.394088	0.334705	0.472159	0.138714	0.353357	0.258954	0.250700	0.237848	0.332348	0.093584	0.196406	0.248701	0.312448	0.202592	0.252387	0.181630	0.274725	0.127429	0.141507	0.591794	0.563853	0.118509	0.222917	0.427722	0.377289	0.121526	0.189224	0.386022	0.209495	0.053956	0.129257	0.275597	0.363295	0.202864	0.266347	0.287033	0.276498	0.219751	0.159407	0.200931	0.422056	0.311189	0.355062	0.421289	0.495413	0.861062	0.785740	0.167753	0.398975	0.171703	0.191591	0.312666	0.633818	0.250883	0.167025	0.207012	0.402494	0.170328	0.191087	0.383762	0.475075	0.184683	0.143189	0.081424	0.200225
24	0.128633	0.224703	0.175931	0.362184	0.140376	0.169958	0.210864	0.380736	0.073232	0.106825	0.257974	0.324591	0.236456	0.262816	0.276310	0.416337	0.350618	0.487299	0.135974	0.356491	0.264114	0.257473	0.228325	0.335364	0.094631	0.201601	0.226131	0.256656	0.180073	0.252641	0.171858	0.280263	0.124912	0.140088	0.606087	0.650796	0.111951	0.208817	0.424989	0.354441	0.121333	0.199026	0.364485	0.227546	0.062805	0.131254	0.230677	0.364911	0.203679	0.271698	0.318644	0.269474	0.270064	0.161703	0.203384	0.416222	0.391993	0.424866	0.421635	0.550853	0.857007	0.771593	0.163053	0.402547	0.156991	0.177342	0.361369	0.674137	0.285482	0.153576	0.234898	0.331826	0.176702	0.194213	0.419887	0.445056	0.183659	0.134119	0.090858	0.215624
25	0.129932	0.223410	0.177993	0.383408	0.122781	0.174949	0.230822	0.331786	0.068511	0.106620	0.287639	0.295785	0.237336	0.248361	0.271131	0.442748	0.352585	0.492347	0.144647	0.357295	0.225481	0.280239	0.226670	0.365732	0.107954	0.197314	0.217884	0.199812	0.177457	0.248289	0.179789	0.330307	0.124162	0.139443	0.599177	0.657053	0.097824	0.194825	0.425432	0.394077	0.143700	0.218924	0.366916	0.248829	0.065575	0.131368	0.224855	0.344763	0.211563	0.283563	0.323679	0.249578	0.292145	0.203066	0.199799	0.408945	0.425381	0.465970	0.426131	0.612585	0.821168	0.724568	0.158860	0.444779	0.180341	0.181501	0.425194	0.692508	0.283802	0.144378	0.247183	0.283894	0.175372	0.193225	0.443968	0.407089	0.185147	0.132423	0.100565	0.231221
26	0.132523	0.220497	0.185572	0.392093	0.126575	0.181521	0.233902	0.307449	0.063541	0.104623	0.312334	0.310337	0.240111	0.254596	0.278465	0.428512	0.355376	0.495508	0.146602	0.365514	0.221797	0.287015	0.223794	0.360276	0.109821	0.182905	0.222168	0.197770	0.177643	0.247324	0.182628	0.330708	0.106290	0.130967	0.513911	0.638038	0.094450	0.166594	0.427393	0.434316	0.150634	0.230563	0.372714	0.316780	0.064613	0.131067	0.201285	0.285866	0.214311	0.293873	0.339536	0.231227	0.295916	0.210295	0.184965	0.366951	0.430108	0.471704	0.435394	0.685481	0.775048	0.654573	0.157281	0.483551	0.217688	0.216905	0.444183	0.689368	0.278561	0.149081	0.252199	0.324572	0.176423	0.191696	0.463357	0.413835	0.184613	0.132744	0.114414	0.230890
27	0.133599	0.220452	0.294714	0.431091	0.101800	0.209476	0.239692	0.343079	0.064797	0.106862	0.306635	0.417037	0.235899	0.252060	0.246735	0.383831	0.341780	0.476404	0.150157	0.384348	0.248542	0.312831	0.231109	0.357511	0.109677	0.175548	0.240975	0.229211	0.174935	0.219717	0.186196	0.315615	0.057538	0.046208	0.507690	0.619629	0.088260	0.128579	0.427942	0.408919	0.165645	0.249669	0.371703	0.338082	0.067013	0.131977	0.196042	0.281149	0.181234	0.260756	0.378152	0.232876	0.298377	0.209603	0.165532	0.366631	0.431978	0.472993	0.423728	0.676712	0.752766	0.642905	0.156485	0.506751	0.234650	0.263218	0.435511	0.661816	0.283291	0.157485	0.262759	0.357113	0.176790	0.187811	0.476027	0.436128	0.135794	0.131106	0.119985	0.242958
28	0.122747	0.222180	0.335077	0.417882	0.104172	0.223498	0.244002	0.384125	0.094584	0.168941	0.307463	0.438571	0.226530	0.239039	0.278318	0.413381	0.331650	0.446119	0.139247	0.399363	0.252858	0.310283	0.214737	0.351371	0.104566	0.130917	0.259434	0.232463	0.174658	0.218592	0.187448	0.314413	0.040045	0.037101	0.452072	0.579615	0.079781	0.127736	0.326249	0.351749	0.180224	0.261409	0.354762	0.326744	0.068864	0.134098	0.171363	0.363329	0.163686	0.240362	0.433110	0.230044	0.296227	0.208583	0.162202	0.344421	0.433827	0.472520	0.390350	0.643487	0.661356	0.483503	0.160891	0.514461	0.236720	0.270952	0.425992	0.612866	0.275702	0.160078	0.326281	0.358587	0.176903	0.187640	0.477113	0.411453	0.102241	0.108572	0.161085	0.404153
29	0.117271	0.205114	0.363803	0.399857	0.123988	0.220363	0.257947	0.398240	0.089254	0.190133	0.309193	0.445126	0.220759	0.226558	0.280760	0.440255	0.328882	0.423015	0.131243	0.426098	0.278885	0.319234	0.196782	0.314479	0.097467	0.127143	0.212613	0.269399	0.155136	0.151036	0.188334	0.254733	0.052261	0.043880	0.421461	0.608275	0.076670	0.141051	0.292517	0.321149	0.180731	0.262538	0.341492	0.324325	0.096229	0.138162	0.169650	0.409531	0.162078	0.234333	0.455888	0.233850	0.263780	0.208474	0.159062	0.317099	0.427249	0.465628	0.369505	0.647513	0.270062	0.316388	0.180723	0.506073	0.231203	0.265760	0.419846	0.572032	0.280204	0.165232	0.376191	0.365923	0.171772	0.188064	0.468522	0.380614	0.064980	0.113740	0.230216	0.515995
30	0.103564	0.150640	0.375624	0.371772	0.122285	0.214783	0.284732	0.398112	0.098836	0.235368	0.302114	0.490871	0.211342	0.224107	0.290715	0.449190	0.322188	0.425609	0.133532	0.436205	0.282373	0.302844	0.199079	0.311236	0.087463	0.133547	0.189236	0.328370	0.143744	0.112432	0.187548	0.253816	0.068651	0.057949	0.461865	0.656894	0.074794	0.152196	0.250891	0.324821	0.178376	0.261762	0.313488	0.320691	0.115539	0.142437	0.171912	0.410776	0.153610	0.183230	0.448295	0.217010	0.239770	0.200330	0.157312	0.279867	0.415324	0.453671	0.364326	0.691928	0.268544	0.310822	0.189605	0.479627	0.221668	0.256141	0.417344	0.558336	0.279400	0.165231	0.391139	0.377934	0.168288	0.156537	0.440613	0.354713	0.066839	0.125543	0.288613	0.524380
31	0.131812	0.195831	0.389269	0.324893	0.125418	0.214793	0.273507	0.369030	0.128635	0.263007	0.317818	0.502519	0.210900	0.223186	0.309816	0.449386	0.314182	0.441600	0.137038	0.411019	0.286414	0.303027	0.208264	0.297614	0.088177	0.116564	0.237118	0.518834	0.137303	0.128261	0.158568	0.265066	0.069081	0.059437	0.593608	0.680873	0.065920	0.158270	0.190456	0.336748	0.173932	0.258118	0.288182	0.322356	0.116379	0.144470	0.165123	0.413090	0.150920	0.183235	0.468655	0.246941	0.237649	0.170269	0.144471	0.231325	0.394153	0.429131	0.363524	0.738690	0.165078	0.240210	0.159476	0.446174	0.212496	0.241519	0.413005	0.564260	0.274365	0.164126	0.393005	0.380028	0.125495	0.097662	0.381075	0.340416	0.069072	0.125743	0.296950	0.515011
32	0.120620	0.204057	0.417977	0.607717	0.121277	0.204905	0.263945	0.350636	0.145133	0.276120	0.406328	0.497562	0.185603	0.178134	0.328887	0.507712	0.292134	0.378296	0.107094	0.375815	0.283913	0.282631	0.221198	0.274778	0.081620	0.080119	0.262752	0.564076	0.190089	0.112003	0.155067	0.265828	0.089253	0.109538	0.601776	0.681840	0.044778	0.155656	0.170933	0.355060	0.170161	0.241461	0.281660	0.323537	0.127197	0.143184	0.147488	0.412612	0.109387	0.183223	0.519148	0.317052	0.234726	0.145660	0.146102	0.209301	0.376424	0.405222	0.381064	0.764793	0.135194	0.189878	0.150715	0.409630	0.204411	0.229112	0.424451	0.577912	0.272919	0.160526	0.395387	0.378442	0.085392	0.066892	0.362358	0.331233	0.076267	0.131769	0.304360	0.529564
33	0.114176	0.199045	0.496868	0.764940	0.122121	0.186626	0.282048	0.339181	0.189655	0.355679	0.399576	0.498160	0.140900	0.134626	0.322707	0.498721	0.181972	0.252776	0.113406	0.315775	0.242767	0.268190	0.210261	0.253991	0.073360	0.071719	0.267128	0.568604	0.209209	0.119413	0.177293	0.281490	0.101285	0.117781	0.618768	0.651386	0.037668	0.153074	0.176811	0.358552	0.170190	0.221457	0.276796	0.324998	0.166298	0.138051	0.148627	0.413626	0.121959	0.178897	0.555831	0.383072	0.225739	0.162926	0.227865	0.202803	0.364880	0.396696	0.405479	0.778078	0.122242	0.191788	0.148548	0.381245	0.196541	0.229269	0.444854	0.586989	0.272230	0.155916	0.393437	0.357030	0.076085	0.069995	0.359641	0.340315	0.122152	0.138654	0.358718	0.565237
34	0.127267	0.224218	0.519255	0.767405	0.133586	0.188431	0.282044	0.341871	0.191720	0.359671	0.448905	0.484673	0.117536	0.129781	0.333407	0.469446	0.154761	0.240998	0.139855	0.313132	0.248866	0.255334	0.197978	0.260061	0.071273	0.095495	0.385529	0.593382	0.223096	0.132176	0.158111	0.268110	0.105580	0.120445	0.629359	0.710992	0.035850	0.152744	0.187446	0.336567	0.171985	0.211714	0.274095	0.323895	0.198441	0.110743	0.223389	0.419085	0.137565	0.190134	0.559022	0.404766	0.174074	0.190815	0.242661	0.213943	0.356645	0.392799	0.422985	0.783740	0.118134	0.204040	0.191174	0.433146	0.196765	0.226293	0.449570	0.575972	0.272101	0.154886	0.392110	0.353779	0.083853	0.102742	0.334705	0.426319	0.208319	0.135120	0.391681	0.603326
35	0.128010	0.242401	0.507307	0.811104	0.126249	0.183715	0.283166	0.345237	0.192974	0.359374	0.502482	0.397675	0.107655	0.109375	0.332290	0.461578	0.170129	0.269948	0.161016	0.352746	0.234900	0.246143	0.178895	0.268464	0.087924	0.127276	0.408891	0.729361	0.225034	0.133380	0.153577	0.232886	0.109591	0.123261	0.631558	0.837706	0.044956	0.154391	0.197766	0.240510	0.169905	0.206332	0.262686	0.344081	0.207833	0.111545	0.265198	0.414087	0.139163	0.187741	0.539949	0.403765	0.142803	0.156120	0.262585	0.234195	0.345520	0.350766	0.431227	0.754656	0.101625	0.210030	0.215410	0.455306	0.201348	0.227720	0.449962	0.552181	0.263659	0.154724	0.376148	0.335473	0.075230	0.114444	0.289074	0.570791	0.303274	0.136981	0.412839	0.628645
36	0.128260	0.242796	0.530841	0.937025	0.119523	0.192262	0.323477	0.357573	0.181409	0.338865	0.506120	0.369586	0.102526	0.103565	0.319789	0.552240	0.168086	0.269972	0.175514	0.459029	0.224310	0.219164	0.175396	0.274625	0.095666	0.145539	0.481573	0.848998	0.226629	0.136232	0.183601	0.238285	0.125399	0.146128	0.642431	0.866727	0.048197	0.155520	0.204283	0.233948	0.172826	0.196638	0.243899	0.360165	0.204287	0.106184	0.269337	0.421595	0.132706	0.182859	0.534462	0.426844	0.135996	0.146644	0.270925	0.226390	0.259376	0.276137	0.426908	0.694884	0.094060	0.211910	0.233861	0.433696	0.207819	0.232587	0.439645	0.488714	0.223197	0.154835	0.353325	0.327099	0.100691	0.154528	0.257099	0.796365	0.309690	0.150896	0.410874	0.560108
37	0.127807	0.240330	0.533622	1.018845	0.119692	0.188172	0.318378	0.342604	0.178412	0.314935	0.506895	0.360752	0.101828	0.120876	0.301976	0.805786	0.212280	0.286956	0.238359	0.521825	0.209173	0.196184	0.160642	0.274672	0.099044	0.143901	0.545951	0.888487	0.227620	0.155940	0.209787	0.240670	0.134725	0.165844	0.692662	0.853201	0.096174	0.155952	0.228947	0.238266	0.156027	0.174647	0.227021	0.375576	0.203510	0.109164	0.295081	0.430341	0.128401	0.185879	0.533854	0.569540	0.129252	0.149655	0.264070	0.227113	0.158275	0.157692	0.411818	0.661319	0.086264	0.212221	0.262215	0.406644	0.211711	0.237701	0.375808	0.440097	0.173194	0.156422	0.341904	0.340320	0.174279	0.257420	0.323623	0.876104	0.326166	0.127665	0.384593	0.439919
38	0.128133	0.239213	0.507342	1.040393	0.112004	0.182067	0.315239	0.327216	0.173616	0.287393	0.496287	0.233858	0.104269	0.113240	0.300913	0.902061	0.234749	0.315798	0.343986	0.527198	0.190841	0.183839	0.155441	0.294609	0.099181	0.132190	0.580278	0.876442	0.230028	0.165135	0.214335	0.252884	0.131426	0.177147	0.701597	0.813601	0.170174	0.148804	0.238124	0.247386	0.147006	0.159966	0.219177	0.347784	0.206287	0.113531	0.326226	0.437999	0.126149	0.179462	0.538534	0.664453	0.126618	0.151716	0.262776	0.227874	0.117730	0.094553	0.401422	0.572621	0.099384	0.211392	0.272189	0.402509	0.183032	0.229205	0.325191	0.406527	0.161984	0.151434	0.341212	0.328503	0.175174	0.264131	0.394805	0.877161	0.351291	0.142210	0.334447	0.423131
39	0.115237	0.221466	0.502312	1.041612	0.086532	0.162673	0.304792	0.317658	0.155336	0.263460	0.465538	0.199662	0.079210	0.112765	0.305859	0.892846	0.245786	0.318060	0.402826	0.507317	0.162293	0.131221	0.187145	0.400466	0.097899	0.135157	0.568754	0.812402	0.235721	0.168213	0.219688	0.261565	0.131277	0.184966	0.537269	0.777559	0.176939	0.135009	0.226333	0.267198	0.132838	0.129039	0.237322	0.326878	0.205622	0.113940	0.341287	0.426418	0.129110	0.177829	0.541680	0.694377	0.128988	0.151690	0.272247	0.208129	0.124128	0.105848	0.379779	0.529294	0.104652	0.211509	0.268441	0.452347	0.134914	0.178894	0.306781	0.378883	0.138538	0.120173	0.358648	0.297195	0.176602	0.264136	0.487284	0.873530	0.366462	0.148288	0.333562	0.424607
40	0.086551	0.167543	0.498830	1.026173	0.088642	0.159377	0.278359	0.313289	0.149586	0.254760	0.376592	0.222264	0.050343	0.115892	0.293978	0.919895	0.240807	0.310885	0.407948	0.491929	0.147734	0.099212	0.222244	0.495855	0.099499	0.136131	0.551004	0.728393	0.247955	0.163535	0.222351	0.291227	0.132933	0.166575	0.411437	0.715806	0.190203	0.136242	0.228702	0.287847	0.121402	0.102285	0.256324	0.413555	0.205662	0.113876	0.342320	0.348950	0.130938	0.179954	0.529792	0.712842	0.133905	0.151750	0.306996	0.220902	0.108583	0.099965	0.357502	0.527821	0.102811	0.205094	0.271027	0.519505	0.113015	0.118589	0.307481	0.381722	0.111609	0.088629	0.359555	0.274157	0.180817	0.267619	0.497232	0.917098	0.374501	0.163061	0.334013	0.404805
41	0.084988	0.157105	0.487811	0.849927	0.084113	0.159815	0.271476	0.317316	0.103261	0.208639	0.366411	0.218144	0.051425	0.113646	0.270602	0.939920	0.232200	0.282540	0.443622	0.544990	0.149379	0.098216	0.218585	0.516848	0.096835	0.136056	0.551374	0.726727	0.206963	0.157466	0.222749	0.315536	0.123209	0.166435	0.400661	0.695288	0.191232	0.120185	0.264611	0.276884	0.119220	0.095746	0.324161	0.586010	0.200182	0.108324	0.341231	0.238367	0.132501	0.180191	0.542823	0.714842	0.135791	0.150552	0.325512	0.232842	0.094921	0.092792	0.359546	0.512166	0.104365	0.181005	0.278427	0.599697	0.112811	0.115044	0.313761	0.403609	0.080337	0.064574	0.297205	0.275282	0.181084	0.269591	0.510501	0.981867	0.382259	0.238893	0.273161	0.347547
42	0.091153	0.141901	0.411514	0.749893	0.098495	0.156580	0.269517	0.320560	0.104980	0.237373	0.284617	0.222028	0.078554	0.101536	0.260720	0.905926	0.234334	0.267628	0.459505	0.612815	0.145919	0.093892	0.195840	0.517024	0.093255	0.130279	0.528204	0.721373	0.173803	0.156166	0.216838	0.314924	0.137766	0.187098	0.370981	0.684269	0.199988	0.124188	0.294896	0.266737	0.120586	0.094580	0.512113	0.683204	0.186441	0.109494	0.339849	0.233310	0.130466	0.186066	0.537136	0.732329	0.132338	0.149711	0.327158	0.229980	0.111969	0.115402	0.362014	0.461669	0.104120	0.152374	0.311401	0.610313	0.122365	0.124804	0.325203	0.456186	0.047370	0.068735	0.243270	0.254534	0.185285	0.276534	0.560386	1.052157	0.357745	0.304035	0.222527	0.283689
43	0.106552	0.147891	0.406263	0.739818	0.098281	0.153341	0.247528	0.311381	0.125601	0.273875	0.259243	0.215140	0.095248	0.095210	0.249362	0.909041	0.228844	0.261380	0.457578	0.652991	0.153202	0.099209	0.187759	0.552128	0.076799	0.100443	0.467119	0.626767	0.140463	0.139766	0.186080	0.271450	0.175374	0.252196	0.373123	0.580024	0.201623	0.130652	0.311527	0.257561	0.122300	0.093281	0.586057	0.722260	0.186131	0.104814	0.344565	0.256922	0.138801	0.198727	0.490551	0.738034	0.110526	0.130139	0.278149	0.226422	0.116365	0.119726	0.367727	0.490108	0.108761	0.138339	0.322502	0.608458	0.148762	0.158859	0.320363	0.467967	0.046397	0.080993	0.232630	0.248474	0.188777	0.281210	0.610292	1.111009	0.331110	0.344693	0.170175	0.256725
44	0.109442	0.141095	0.397027	0.636571	0.085642	0.147672	0.222856	0.288267	0.129895	0.281553	0.306269	0.229834	0.106214	0.097511	0.223419	0.911013	0.225227	0.247371	0.477022	0.680485	0.143679	0.099869	0.203259	0.588766	0.056193	0.063245	0.403829	0.420823	0.133010	0.139714	0.186041	0.276542	0.178026	0.314532	0.383962	0.500205	0.206040	0.142503	0.304749	0.265550	0.125770	0.093612	0.608828	0.727242	0.195356	0.124231	0.338583	0.269707	0.129275	0.192939	0.427297	0.713842	0.087761	0.081082	0.250791	0.216179	0.123807	0.152994	0.362665	0.501728	0.112766	0.146744	0.309729	0.588898	0.164145	0.174264	0.358104	0.487398	0.047200	0.083251	0.230032	0.279224	0.193016	0.284578	0.647933	1.141563	0.334159	0.358912	0.153743	0.452264
45	0.133176	0.175753	0.273927	0.411278	0.082808	0.147967	0.202680	0.293202	0.159660	0.311846	0.306524	0.325924	0.121953	0.099434	0.267952	0.905543	0.213639	0.221293	0.479027	0.664979	0.130812	0.098726	0.245738	0.604764	0.079372	0.076894	0.318305	0.264644	0.129550	0.136188	0.185935	0.276583	0.188687	0.304677	0.339946	0.532470	0.205275	0.143007	0.304386	0.267748	0.141249	0.105730	0.608907	0.726709	0.183524	0.132929	0.344003	0.294123	0.108902	0.175819	0.386895	0.706402	0.071211	0.060809	0.230207	0.192616	0.123132	0.156430	0.345705	0.485348	0.119470	0.139800	0.295851	0.536270	0.165246	0.174747	0.397265	0.469638	0.044541	0.083369	0.231109	0.328116	0.193224	0.281016	0.662147	1.144297	0.360575	0.370147	0.286517	0.629548
46	0.158609	0.191840	0.279834	0.257057	0.083561	0.129365	0.122830	0.326030	0.159966	0.310858	0.330429	0.386863	0.132896	0.111699	0.322824	0.869133	0.212722	0.255478	0.478767	0.593547	0.124522	0.099780	0.265777	0.581338	0.113107	0.099338	0.215814	0.361912	0.132225	0.136637	0.120842	0.272601	0.185942	0.293782	0.323208	0.541461	0.193843	0.142205	0.283689	0.264227	0.144827	0.105212	0.599609	0.736374	0.151338	0.147254	0.326313	0.303137	0.104355	0.164398	0.384905	0.740993	0.064842	0.058000	0.215848	0.196606	0.124654	0.163611	0.341178	0.478544	0.122739	0.181686	0.303365	0.516887	0.175063	0.182862	0.389865	0.469298	0.044275	0.083665	0.230180	0.351959	0.190570	0.269769	0.665546	1.102677	0.365880	0.403607	0.352772	0.667114
47	0.158716	0.204102	0.283724	0.311244	0.083547	0.087441	0.125818	0.302725	0.171728	0.318597	0.330402	0.433215	0.132582	0.102844	0.309820	0.624284	0.168922	0.264459	0.455966	0.525210	0.122568	0.097928	0.283628	0.580283	0.113558	0.100599	0.232584	0.483500	0.126050	0.118751	0.112218	0.269017	0.205924	0.294952	0.397610	0.512413	0.146371	0.134347	0.272904	0.256590	0.145874	0.102715	0.588979	0.764333	0.122454	0.147417	0.280079	0.294773	0.110279	0.169151	0.406545	0.745767	0.063356	0.049747	0.211703	0.190580	0.124027	0.166245	0.324154	0.508708	0.115620	0.183195	0.288113	0.519732	0.190874	0.190194	0.410233	0.503348	0.044137	0.083806	0.227061	0.355063	0.188233	0.267733	0.675531	0.986900	0.372496	0.411141	0.358634	0.677616
48	0.158916	0.204418	0.336174	0.329797	0.086300	0.058387	0.119247	0.278774	0.178586	0.325152	0.350254	0.417892	0.163677	0.143153	0.318885	0.551930	0.137777	0.226513	0.386673	0.503755	0.119630	0.080743	0.289049	0.575095	0.192930	0.132801	0.251230	0.551580	0.124378	0.111240	0.104688	0.256171	0.206365	0.299311	0.396027	0.469628	0.141932	0.133347	0.283225	0.237671	0.140310	0.098477	0.601704	0.806832	0.124767	0.151967	0.265910	0.289999	0.110158	0.134901	0.410316	0.677062	0.066001	0.044371	0.213307	0.173070	0.120557	0.164841	0.312574	0.530736	0.106041	0.189644	0.270501	0.532966	0.186071	0.186800	0.443701	0.545585	0.044552	0.084023	0.237564	0.354997	0.130465	0.187335	0.662134	0.896296	0.367157	0.407762	0.478635	0.764085
49	0.165803	0.208979	0.356402	0.327248	0.088462	0.060767	0.116248	0.274591	0.167764	0.286761	0.394156	0.418942	0.172686	0.160293	0.332672	0.541993	0.118714	0.228885	0.337754	0.505277	0.119278	0.077144	0.298713	0.546024	0.295153	0.155941	0.376540	0.554423	0.105883	0.098387	0.102705	0.237576	0.201540	0.299914	0.415167	0.480321	0.122560	0.117341	0.297689	0.231716	0.140476	0.099297	0.627193	0.812776	0.133670	0.154513	0.260695	0.271277	0.107998	0.125828	0.393176	0.612185	0.089660	0.054031	0.199232	0.162680	0.119669	0.167201	0.303135	0.537520	0.099341	0.192884	0.269357	0.506921	0.179273	0.182531	0.441219	0.587127	0.047374	0.084054	0.239840	0.346100	0.093220	0.121056	0.609728	0.884500	0.348787	0.372573	0.511063	0.836898
50	0.165999	0.209710	0.344776	0.340893	0.085921	0.061064	0.120856	0.277561	0.172682	0.254732	0.400806	0.436289	0.195927	0.217145	0.348775	0.452715	0.118681	0.230262	0.333416	0.507185	0.118415	0.081477	0.275023	0.446725	0.302840	0.160955	0.395293	0.584213	0.086637	0.086357	0.125956	0.170097	0.199689	0.282713	0.403556	0.500658	0.121783	0.109180	0.269280	0.214704	0.143662	0.105600	0.683742	0.799439	0.133194	0.150729	0.248083	0.260468	0.106702	0.126548	0.378424	0.622638	0.116474	0.057616	0.138547	0.130358	0.133742	0.179444	0.251814	0.536940	0.128374	0.194316	0.257517	0.438923	0.173068	0.177137	0.434340	0.610601	0.071937	0.086113	0.271733	0.353367	0.093307	0.121292	0.539781	0.886915	0.342424	0.334036	0.538724	0.857796
51	0.145528	0.190340	0.370142	0.341118	0.082527	0.058660	0.134898	0.276615	0.159757	0.224277	0.443073	0.437883	0.199994	0.263159	0.345952	0.401486	0.113375	0.229984	0.308894	0.452913	0.102077	0.079079	0.263214	0.403915	0.303753	0.169696	0.420354	0.641820	0.086170	0.084410	0.128538	0.145314	0.170863	0.274495	0.399494	0.459777	0.110145	0.103733	0.247906	0.232372	0.160634	0.128100	0.716302	0.803156	0.143143	0.149812	0.235445	0.269506	0.122448	0.130975	0.390164	0.633388	0.128572	0.061187	0.082241	0.125506	0.147209	0.191990	0.220978	0.538837	0.132305	0.194051	0.245814	0.335376	0.174000	0.175501	0.440440	0.615411	0.083628	0.093005	0.341246	0.355703	0.094294	0.127167	0.487993	0.860697	0.289312	0.278017	0.543474	0.854298
52	0.140267	0.182579	0.375278	0.342937	0.064777	0.058247	0.141350	0.272040	0.153984	0.208791	0.439786	0.438924	0.196404	0.328860	0.346157	0.394866	0.105102	0.230156	0.313585	0.372992	0.093178	0.097916	0.267703	0.414069	0.308833	0.206999	0.480708	0.671988	0.086549	0.083562	0.129048	0.145957	0.150298	0.142421	0.384189	0.413800	0.108608	0.096720	0.211799	0.236416	0.153531	0.139927	0.723119	0.786627	0.149505	0.148066	0.232717	0.289989	0.143211	0.141852	0.404715	0.640452	0.151037	0.090643	0.077666	0.156742	0.151520	0.192713	0.220919	0.540366	0.130286	0.203371	0.207005	0.235196	0.175958	0.174396	0.456857	0.635583	0.083001	0.097063	0.332364	0.335094	0.091091	0.124821	0.484879	0.792003	0.273757	0.254732	0.571239	0.778588
53	0.132146	0.184792	0.374690	0.348989	0.061792	0.062636	0.142042	0.281168	0.125033	0.159379	0.457175	0.385824	0.195642	0.330042	0.375116	0.389639	0.112644	0.231795	0.314415	0.338464	0.087908	0.103208	0.274697	0.401346	0.309251	0.220150	0.490616	0.685681	0.088117	0.079499	0.131864	0.126829	0.131216	0.121016	0.384757	0.368303	0.104393	0.079562	0.220475	0.224784	0.153676	0.157483	0.702158	0.681812	0.161857	0.147701	0.267564	0.305687	0.151019	0.141222	0.414593	0.619596	0.220133	0.117529	0.133181	0.221774	0.151684	0.193234	0.253460	0.540544	0.130898	0.212614	0.177577	0.233791	0.181796	0.175673	0.456978	0.647059	0.081322	0.104685	0.321244	0.355171	0.090927	0.120899	0.458540	0.694087	0.221371	0.241473	0.539342	0.634527
54	0.102059	0.176760	0.373431	0.333014	0.061058	0.073452	0.145742	0.288514	0.124273	0.156964	0.445585	0.346918	0.183981	0.330567	0.380393	0.384285	0.111089	0.229936	0.279450	0.295148	0.066194	0.099891	0.274798	0.337072	0.299013	0.270056	0.491252	0.644255	0.095357	0.080908	0.130514	0.083248	0.112851	0.120097	0.377756	0.336556	0.106021	0.064152	0.216248	0.222118	0.153150	0.166206	0.580523	0.591467	0.163066	0.143852	0.305575	0.331107	0.144431	0.120878	0.406267	0.596298	0.239812	0.123024	0.198009	0.245294	0.146393	0.191934	0.268443	0.535544	0.124634	0.192690	0.174712	0.232785	0.191067	0.182361	0.437267	0.625695	0.080578	0.109864	0.328155	0.400515	0.099341	0.113838	0.412284	0.582705	0.173517	0.165850	0.495122	0.576143
55	0.078028	0.190933	0.468024	0.294853	0.104002	0.122628	0.156052	0.271685	0.111428	0.146779	0.452636	0.260256	0.174565	0.326540	0.358506	0.324283	0.118699	0.243039	0.258866	0.287937	0.064140	0.099211	0.246268	0.271004	0.306791	0.271550	0.470883	0.563038	0.092570	0.071751	0.136881	0.057796	0.109993	0.122319	0.248406	0.317324	0.120577	0.059317	0.209271	0.259031	0.152873	0.166902	0.497956	0.552596	0.161622	0.144380	0.319148	0.326081	0.148319	0.119829	0.408782	0.588494	0.246517	0.122949	0.205458	0.245629	0.135608	0.210798	0.266997	0.472644	0.125895	0.187378	0.216307	0.241495	0.187733	0.175205	0.428887	0.587811	0.080499	0.110757	0.365777	0.433767	0.178710	0.128267	0.337823	0.487567	0.085840	0.117836	0.482706	0.567685
56	0.087207	0.186527	0.507560	0.212501	0.122149	0.133497	0.161481	0.208198	0.086958	0.127650	0.454496	0.256844	0.171369	0.321153	0.328554	0.196691	0.132547	0.215499	0.256890	0.289883	0.075961	0.118750	0.220437	0.231827	0.303017	0.277869	0.456925	0.467278	0.083381	0.049379	0.139856	0.060364	0.098066	0.113264	0.249556	0.333850	0.113379	0.058899	0.242572	0.259372	0.149210	0.172078	0.463543	0.543613	0.153965	0.133617	0.332024	0.339608	0.156900	0.125551	0.414357	0.583882	0.248979	0.122497	0.213465	0.258545	0.139981	0.208614	0.268831	0.373771	0.136653	0.152576	0.207706	0.253287	0.175570	0.146024	0.451823	0.554230	0.080181	0.122431	0.385688	0.444341	0.231249	0.129799	0.280144	0.433997	0.076511	0.113582	0.380012	0.466892
57	0.130798	0.251493	0.461710	0.205293	0.129667	0.189689	0.168194	0.404331	0.087104	0.135471	0.415821	0.257171	0.169013	0.318960	0.325191	0.214433	0.135513	0.188564	0.290008	0.286461	0.136612	0.165747	0.199310	0.222803	0.150360	0.262812	0.420153	0.450909	0.090938	0.060810	0.129400	0.063157	0.111088	0.110502	0.355470	0.297592	0.105602	0.059190	0.313220	0.238848	0.131830	0.171791	0.469166	0.556170	0.149994	0.122290	0.342223	0.330546	0.174752	0.135960	0.420519	0.527518	0.249982	0.130595	0.238910	0.300075	0.174006	0.241671	0.282244	0.336955	0.147002	0.141050	0.197744	0.235193	0.166559	0.138407	0.423276	0.519485	0.082100	0.125144	0.385086	0.424545	0.234927	0.139582	0.288638	0.428332	0.069451	0.094094	0.303794	0.318041
58	0.137909	0.262362	0.496672	0.191029	0.143343	0.265731	0.168387	0.411620	0.063027	0.113689	0.420440	0.222163	0.136889	0.305951	0.301154	0.207485	0.141104	0.191481	0.289022	0.285409	0.202890	0.197912	0.173257	0.241514	0.130254	0.264609	0.355793	0.429847	0.089194	0.072592	0.128388	0.058796	0.126922	0.111951	0.361041	0.235103	0.101489	0.056235	0.347806	0.214542	0.125559	0.182633	0.482826	0.570193	0.142547	0.096477	0.343320	0.310140	0.174532	0.131079	0.410790	0.514277	0.253868	0.137988	0.251867	0.325983	0.189581	0.289543	0.288599	0.334285	0.150115	0.132896	0.205279	0.195248	0.165848	0.135892	0.371219	0.522056	0.132749	0.210667	0.390336	0.389153	0.283572	0.185895	0.275160	0.447814	0.069444	0.082295	0.258781	0.319921
59	0.153278	0.271855	0.545772	0.179500	0.151710	0.291005	0.176831	0.407048	0.068022	0.110048	0.405718	0.245393	0.169979	0.294572	0.267970	0.202920	0.139764	0.198077	0.282044	0.302644	0.214310	0.203378	0.162819	0.238101	0.124461	0.262973	0.357329	0.348880	0.083630	0.074644	0.127328	0.062531	0.126686	0.104097	0.505879	0.251797	0.100944	0.052601	0.352956	0.224780	0.120281	0.182644	0.550580	0.551991	0.141370	0.084545	0.338559	0.304431	0.164235	0.126902	0.392477	0.517389	0.259212	0.139493	0.259173	0.336908	0.217285	0.287467	0.278333	0.291949	0.152487	0.124874	0.218379	0.168490	0.147033	0.124983	0.378936	0.506150	0.169929	0.279287	0.402821	0.373743	0.370870	0.226865	0.251219	0.414677	0.064146	0.067035	0.252630	0.318750
60	0.164008	0.295559	0.528037	0.191120	0.186324	0.367707	0.194590	0.408995	0.068268	0.101505	0.342519	0.284383	0.149132	0.268959	0.260083	0.204754	0.141683	0.198143	0.301638	0.329377	0.231450	0.204445	0.132444	0.228674	0.128602	0.253975	0.268890	0.260261	0.082368	0.076124	0.086315	0.096593	0.130363	0.095261	0.765610	0.264176	0.101418	0.044431	0.386148	0.259608	0.151601	0.249548	0.570403	0.525025	0.153096	0.084878	0.342130	0.295769	0.163124	0.125632	0.383849	0.467020	0.249477	0.140626	0.260862	0.337955	0.249664	0.288787	0.284360	0.225832	0.131874	0.124066	0.221165	0.184022	0.134617	0.132897	0.356883	0.464239	0.170608	0.280051	0.398452	0.371291	0.401346	0.239015	0.289796	0.345222	0.054377	0.077799	0.204348	0.312793
61	0.170469	0.299397	0.521177	0.204178	0.280910	0.405398	0.185110	0.412481	0.065070	0.098282	0.321619	0.292186	0.151082	0.204699	0.258845	0.189544	0.150091	0.200776	0.286302	0.345528	0.234933	0.202717	0.125715	0.206019	0.154942	0.235668	0.230190	0.190795	0.081429	0.075754	0.083956	0.097973	0.142660	0.128407	0.774380	0.362532	0.107106	0.049769	0.411583	0.277424	0.160130	0.275706	0.608090	0.576289	0.187025	0.213132	0.354329	0.294970	0.163262	0.127338	0.344412	0.385424	0.241996	0.140856	0.261334	0.330800	0.264978	0.288967	0.289735	0.233402	0.113051	0.120440	0.240506	0.188899	0.164040	0.161211	0.339938	0.405419	0.174552	0.281376	0.388366	0.363501	0.427194	0.250859	0.305106	0.445125	0.054696	0.142376	0.114344	0.315023
62	0.183214	0.285263	0.521953	0.201524	0.287311	0.432953	0.181169	0.433206	0.072850	0.099261	0.320169	0.274151	0.149340	0.210074	0.249414	0.205204	0.149447	0.197127	0.260152	0.331121	0.254926	0.196826	0.156447	0.171630	0.166633	0.199027	0.220409	0.136723	0.081307	0.075770	0.081377	0.098519	0.151890	0.143773	0.778320	0.453226	0.112900	0.043748	0.418186	0.292667	0.159928	0.272422	0.616353	0.632155	0.209551	0.321920	0.347767	0.291195	0.155574	0.125352	0.263105	0.314756	0.230810	0.126655	0.260179	0.312038	0.268499	0.300914	0.348789	0.269549	0.111630	0.109660	0.261172	0.191647	0.272919	0.187730	0.413510	0.370495	0.182241	0.282097	0.385982	0.360387	0.434708	0.252479	0.306232	0.458771	0.071195	0.166855	0.111828	0.327508
63	0.192759	0.267519	0.522841	0.215497	0.288393	0.437448	0.178926	0.453019	0.090389	0.096918	0.315946	0.298810	0.152530	0.212829	0.223937	0.205838	0.142154	0.192876	0.265796	0.296603	0.322943	0.226262	0.145619	0.132254	0.168180	0.174781	0.218380	0.126787	0.076258	0.073654	0.082679	0.098633	0.160594	0.158961	0.808502	0.490096	0.122602	0.053116	0.416852	0.322117	0.149935	0.261924	0.588615	0.653097	0.219749	0.322093	0.331362	0.294343	0.138688	0.132542	0.194028	0.282642	0.172494	0.102503	0.237528	0.269918	0.330760	0.324595	0.433002	0.274858	0.108455	0.069582	0.261419	0.196650	0.296463	0.208977	0.448917	0.344527	0.188854	0.280464	0.343320	0.335740	0.434391	0.247733	0.362128	0.458216	0.125461	0.279537	0.111740	0.330806
64	0.196546	0.257970	0.400621	0.216162	0.287893	0.436131	0.191455	0.461305	0.092013	0.083564	0.310174	0.366706	0.156271	0.224295	0.209173	0.198425	0.140143	0.190105	0.261754	0.301805	0.454416	0.256005	0.145822	0.131603	0.162382	0.168750	0.210671	0.117415	0.070393	0.071927	0.083577	0.096574	0.166654	0.164003	0.818225	0.492479	0.118074	0.061177	0.424617	0.311578	0.164732	0.256561	0.583165	0.640453	0.221428	0.322771	0.330598	0.323766	0.128161	0.194720	0.143657	0.283422	0.161258	0.098108	0.190147	0.247518	0.350408	0.327233	0.477663	0.319369	0.107996	0.066095	0.259493	0.206104	0.387477	0.271102	0.450366	0.335730	0.214428	0.281119	0.275891	0.328022	0.434440	0.247825	0.404588	0.486736	0.142708	0.291406	0.109476	0.320612
65	0.188095	0.237689	0.378441	0.186162	0.275955	0.426233	0.183590	0.482709	0.086639	0.065294	0.307325	0.370138	0.157264	0.224880	0.142215	0.197676	0.130848	0.150958	0.265906	0.312412	0.463151	0.256827	0.150843	0.139711	0.177197	0.173699	0.202609	0.128992	0.072657	0.072811	0.075707	0.108210	0.168264	0.162300	0.787944	0.474695	0.120368	0.070224	0.414074	0.302961	0.164734	0.245620	0.708816	0.699128	0.210164	0.324307	0.322692	0.399645	0.128306	0.217028	0.156756	0.277020	0.157482	0.098222	0.190760	0.249124	0.350058	0.326043	0.477923	0.351042	0.105829	0.062736	0.234930	0.201034	0.395187	0.272160	0.551994	0.287507	0.261530	0.282605	0.270517	0.327761	0.446861	0.251532	0.387372	0.506668	0.160692	0.304438	0.108923	0.298117
66	0.187307	0.201904	0.358466	0.188290	0.270103	0.424773	0.190458	0.483530	0.087013	0.076029	0.300715	0.369605	0.158868	0.227194	0.135873	0.154608	0.116682	0.123223	0.290608	0.318756	0.464775	0.254001	0.153473	0.147392	0.179544	0.169535	0.171273	0.126546	0.081090	0.078532	0.100543	0.112531	0.157126	0.158981	0.759310	0.472973	0.114815	0.079356	0.358065	0.303212	0.163708	0.238106	0.851614	0.726745	0.207512	0.325364	0.321770	0.424177	0.149033	0.306788	0.190207	0.314948	0.174206	0.105486	0.182915	0.241601	0.349990	0.326017	0.467608	0.359189	0.083900	0.059310	0.200792	0.175335	0.395143	0.269927	0.571018	0.257935	0.302047	0.279888	0.276918	0.297955	0.445182	0.254316	0.474091	0.509145	0.160531	0.316811	0.105784	0.212135
67	0.204126	0.213908	0.297789	0.189284	0.269679	0.407204	0.177786	0.329043	0.082252	0.076529	0.236730	0.355632	0.159516	0.225471	0.129539	0.152538	0.112988	0.107281	0.258359	0.328405	0.469802	0.233908	0.156713	0.150458	0.182784	0.174274	0.163387	0.148389	0.087709	0.072966	0.099579	0.143117	0.153940	0.160493	0.736349	0.453088	0.114563	0.083182	0.332503	0.302891	0.164464	0.238575	0.907570	0.721408	0.214286	0.342600	0.377899	0.428933	0.161528	0.343122	0.276542	0.362526	0.180627	0.104518	0.145840	0.234495	0.351010	0.316764	0.470057	0.357790	0.062293	0.038323	0.202420	0.173992	0.396745	0.265307	0.574062	0.258033	0.307643	0.284101	0.265421	0.278288	0.413556	0.250219	0.563386	0.509234	0.161164	0.320369	0.081713	0.158904
68	0.186229	0.193662	0.362552	0.186366	0.271816	0.359303	0.197133	0.311130	0.082413	0.080363	0.184366	0.319337	0.135248	0.217388	0.130347	0.162753	0.097250	0.103354	0.309022	0.354901	0.454059	0.202978	0.171317	0.123601	0.180806	0.166749	0.233123	0.175167	0.102404	0.080157	0.095967	0.152040	0.154840	0.167549	0.473479	0.456712	0.121639	0.086449	0.337344	0.300778	0.167538	0.235090	0.909769	0.739167	0.216377	0.361415	0.464886	0.409977	0.239780	0.351385	0.290451	0.368424	0.177431	0.095128	0.119302	0.206897	0.354299	0.314120	0.526496	0.352929	0.043513	0.042430	0.197586	0.182924	0.396235	0.266740	0.580855	0.254041	0.365228	0.294241	0.202994	0.287434	0.404761	0.253519	0.573019	0.503183	0.158334	0.318173	0.060618	0.155937
69	0.182939	0.169595	0.376716	0.168785	0.278721	0.341965	0.201617	0.345246	0.077312	0.113812	0.182509	0.291125	0.104406	0.211243	0.150207	0.170664	0.085635	0.074965	0.341847	0.336903	0.436802	0.194663	0.181022	0.137264	0.158979	0.151176	0.236643	0.187210	0.126730	0.085517	0.095557	0.151099	0.152421	0.156550	0.322284	0.418688	0.136354	0.110721	0.305554	0.284384	0.165362	0.230758	0.922203	0.734329	0.212846	0.368180	0.476050	0.403880	0.285928	0.370693	0.294070	0.362044	0.158906	0.089590	0.115215	0.195217	0.347413	0.314779	0.557658	0.363535	0.042834	0.045280	0.198394	0.195663	0.402804	0.287997	0.559596	0.245885	0.406678	0.294301	0.178780	0.281488	0.399161	0.241579	0.580190	0.493432	0.157777	0.295319	0.061365	0.148598
70	0.181684	0.159995	0.453478	0.197362	0.257953	0.255290	0.186536	0.373261	0.086153	0.134894	0.159455	0.285852	0.100731	0.199922	0.159990	0.168530	0.083795	0.071022	0.517517	0.309189	0.428528	0.197293	0.201682	0.184965	0.142543	0.144035	0.261505	0.211727	0.148822	0.107963	0.100804	0.132757	0.143898	0.137915	0.311939	0.337937	0.134016	0.120838	0.274761	0.266053	0.165478	0.219601	0.939599	0.734523	0.217686	0.380349	0.478769	0.422680	0.296010	0.373478	0.299694	0.351407	0.154117	0.086349	0.125948	0.190348	0.327507	0.242708	0.547510	0.364175	0.040166	0.038780	0.211985	0.189554	0.406132	0.289549	0.577011	0.226797	0.422958	0.294719	0.180324	0.277224	0.332436	0.194354	0.587468	0.467165	0.153236	0.284171	0.061982	0.123040
71	0.164721	0.161388	0.542511	0.205829	0.149947	0.189830	0.195065	0.378198	0.072226	0.160271	0.141700	0.254653	0.074922	0.143596	0.169521	0.148944	0.068880	0.084176	0.541112	0.296378	0.425896	0.197222	0.205386	0.199236	0.111733	0.137218	0.287167	0.245717	0.157848	0.156874	0.109123	0.133290	0.142073	0.146849	0.341370	0.346855	0.126590	0.122195	0.259553	0.272648	0.175639	0.222533	0.930849	0.732089	0.225628	0.383212	0.512236	0.443248	0.295867	0.373876	0.367073	0.352166	0.154470	0.084195	0.171860	0.190300	0.320959	0.237469	0.539724	0.366238	0.040389	0.037864	0.195260	0.186730	0.408153	0.289394	0.620077	0.246277	0.412617	0.206460	0.158359	0.278106	0.272761	0.173615	0.619006	0.461444	0.104510	0.163841	0.083480	0.114091
72	0.161497	0.176324	0.558611	0.235857	0.133670	0.117336	0.196320	0.357558	0.080118	0.168304	0.098209	0.138899	0.073369	0.100616	0.166717	0.128310	0.068130	0.089144	0.540988	0.312814	0.416550	0.195955	0.191946	0.237167	0.104271	0.136869	0.305241	0.260708	0.166326	0.210524	0.109691	0.143879	0.120713	0.136409	0.332156	0.356979	0.115829	0.123878	0.251313	0.233702	0.160652	0.158101	0.915716	0.702696	0.233413	0.391670	0.542971	0.465765	0.363473	0.395854	0.488560	0.353264	0.161468	0.085046	0.180936	0.189851	0.291651	0.234714	0.538747	0.369228	0.042107	0.033277	0.158279	0.181850	0.423287	0.287972	0.614324	0.287731	0.407928	0.159436	0.132884	0.311160	0.227901	0.160684	0.608430	0.366057	0.088952	0.147901	0.109156	0.116915
73	0.157850	0.187640	0.567120	0.258057	0.133573	0.093529	0.200856	0.329014	0.092148	0.170389	0.125175	0.168755	0.057947	0.071856	0.169289	0.128351	0.067430	0.098129	0.538736	0.368086	0.406924	0.190407	0.195651	0.261331	0.078504	0.104848	0.313263	0.263250	0.173640	0.231824	0.101193	0.150902	0.112958	0.133160	0.327551	0.361656	0.105121	0.122464	0.246376	0.207993	0.148979	0.078831	0.881258	0.633158	0.220725	0.383020	0.576182	0.477370	0.418383	0.420338	0.518553	0.354435	0.171999	0.086810	0.179165	0.208286	0.272866	0.236402	0.537221	0.362030	0.054117	0.033355	0.143855	0.178860	0.427392	0.280735	0.702400	0.295839	0.408201	0.157950	0.134965	0.315632	0.194414	0.150093	0.615143	0.296971	0.102323	0.115254	0.115696	0.128307
74	0.156028	0.189784	0.581347	0.248381	0.135817	0.115972	0.196194	0.316314	0.109637	0.192213	0.135735	0.215863	0.057639	0.057871	0.166545	0.113197	0.065971	0.107154	0.540324	0.409482	0.253436	0.123471	0.202615	0.260389	0.063384	0.090212	0.365575	0.263246	0.185007	0.295991	0.101311	0.152213	0.106204	0.136792	0.370283	0.376128	0.101442	0.123467	0.250293	0.212678	0.150254	0.092867	0.828733	0.584627	0.175551	0.252148	0.575688	0.478814	0.420129	0.421428	0.520604	0.354384	0.155296	0.112735	0.175248	0.222441	0.268689	0.226844	0.524011	0.315094	0.055915	0.034523	0.147816	0.168623	0.411305	0.262242	0.811021	0.283801	0.407641	0.159751	0.136080	0.324537	0.193587	0.147728	0.614497	0.314407	0.137497	0.101709	0.133143	0.137192
75	0.114079	0.163918	0.584532	0.251692	0.134297	0.119475	0.201101	0.283801	0.197492	0.237643	0.181845	0.356461	0.064106	0.056992	0.188529	0.099661	0.065298	0.111987	0.549800	0.419849	0.143031	0.115584	0.259891	0.255546	0.058931	0.085130	0.373368	0.290564	0.194219	0.295009	0.084636	0.167628	0.106382	0.144990	0.401433	0.421732	0.099716	0.119754	0.249499	0.224063	0.146527	0.105901	0.831637	0.555780	0.166778	0.241213	0.574097	0.476635	0.419217	0.396883	0.524461	0.352987	0.154651	0.155194	0.164639	0.225766	0.214860	0.182013	0.481232	0.320551	0.055798	0.035470	0.159054	0.161725	0.355309	0.252402	0.813174	0.247212	0.406462	0.167459	0.142466	0.328881	0.198339	0.146701	0.569477	0.296183	0.161107	0.114399	0.133284	0.130936
76	0.090950	0.140195	0.526223	0.255582	0.131380	0.112207	0.184368	0.292321	0.250386	0.323077	0.302293	0.422473	0.060278	0.043685	0.192123	0.101803	0.060209	0.125080	0.535474	0.413539	0.141333	0.115191	0.282919	0.255984	0.048588	0.079717	0.333923	0.300335	0.190311	0.292885	0.091745	0.172896	0.103516	0.145554	0.421042	0.454808	0.099354	0.117115	0.223901	0.225406	0.123990	0.096285	0.868446	0.565217	0.146927	0.241147	0.580284	0.457864	0.419723	0.379078	0.520263	0.339435	0.130220	0.154518	0.164660	0.220789	0.134445	0.150970	0.422532	0.325275	0.055535	0.035722	0.161886	0.160883	0.337150	0.212403	0.810040	0.238571	0.403073	0.174372	0.146370	0.328257	0.199545	0.144437	0.597069	0.246638	0.180983	0.124240	0.138023	0.130854
77	0.095798	0.140618	0.489909	0.255439	0.125486	0.104417	0.179248	0.319375	0.252099	0.325624	0.324428	0.426313	0.057547	0.037864	0.192202	0.090286	0.065419	0.190213	0.539951	0.415472	0.119934	0.117446	0.277713	0.266783	0.053408	0.079605	0.312385	0.272317	0.178675	0.288235	0.097550	0.154409	0.093521	0.137484	0.421978	0.462797	0.096186	0.115875	0.209418	0.217079	0.149451	0.100044	0.781180	0.478179	0.145928	0.238692	0.579123	0.397145	0.414670	0.340223	0.513075	0.293644	0.123675	0.153520	0.170243	0.169228	0.184469	0.150901	0.420066	0.284368	0.057472	0.035471	0.159332	0.177294	0.245708	0.153822	0.806593	0.237863	0.387330	0.171669	0.145307	0.327884	0.173323	0.127725	0.632402	0.256150	0.182475	0.127588	0.138485	0.134822
78	0.096588	0.139364	0.488310	0.250671	0.099949	0.104696	0.191996	0.317688	0.251078	0.320086	0.326565	0.464105	0.065594	0.041870	0.191572	0.066188	0.111417	0.267295	0.513348	0.447121	0.077393	0.121137	0.272994	0.294464	0.051139	0.078824	0.304113	0.270678	0.187452	0.289034	0.128945	0.150960	0.088482	0.136506	0.423996	0.450250	0.071648	0.099796	0.220134	0.195112	0.202077	0.121637	0.644225	0.405940	0.146702	0.239234	0.573241	0.334060	0.409196	0.266366	0.474562	0.183760	0.120683	0.153210	0.174112	0.155570	0.196604	0.150446	0.467480	0.287584	0.058108	0.034678	0.157691	0.196529	0.253055	0.159585	0.892713	0.238299	0.352875	0.167634	0.137788	0.335578	0.152609	0.109974	0.538203	0.252197	0.182645	0.129432	0.150044	0.133213
79	0.081705	0.133151	0.407503	0.220385	0.059984	0.099147	0.192650	0.279575	0.252077	0.305645	0.326918	0.541997	0.075280	0.054049	0.169839	0.055367	0.114750	0.276437	0.508863	0.538346	0.077067	0.115127	0.274276	0.314128	0.054895	0.075993	0.292646	0.231939	0.168749	0.285245	0.153193	0.160800	0.083078	0.144507	0.384950	0.395461	0.055730	0.077018	0.204672	0.174708	0.202858	0.124514	0.576046	0.395807	0.141617	0.225692	0.531194	0.292926	0.368406	0.264970	0.486494	0.180021	0.118408	0.152600	0.167925	0.151016	0.202326	0.148872	0.547021	0.293967	0.059370	0.036809	0.154839	0.194420	0.258309	0.172218	1.019258	0.330278	0.330759	0.166000	0.120500	0.328832	0.147274	0.120915	0.519335	0.255229	0.183547	0.134587	0.160056	0.140499
80	0.081540	0.130294	0.313244	0.208513	0.061900	0.109693	0.189372	0.236045	0.264280	0.314269	0.345034	0.607976	0.085292	0.075063	0.164584	0.058139	0.113370	0.308430	0.396356	0.588323	0.079581	0.104240	0.300361	0.292652	0.058939	0.086348	0.330041	0.225502	0.161543	0.279831	0.151743	0.178337	0.058549	0.120341	0.304608	0.361059	0.055048	0.074407	0.190446	0.144483	0.200656	0.124711	0.596966	0.392697	0.134068	0.189984	0.448589	0.293167	0.327864	0.289556	0.500095	0.282910	0.116180	0.155817	0.160778	0.151968	0.207583	0.135158	0.531641	0.304522	0.054446	0.037841	0.117049	0.176945	0.257863	0.178319	1.023941	0.455556	0.317225	0.145146	0.107626	0.286410	0.148550	0.130638	0.522761	0.279810	0.183066	0.136562	0.157171	0.142810
81	0.066481	0.107031	0.322928	0.173307	0.074798	0.119437	0.180373	0.217646	0.263112	0.317630	0.355993	0.613498	0.089437	0.084192	0.180195	0.057604	0.118722	0.326888	0.359833	0.594514	0.080821	0.101090	0.300840	0.276752	0.087331	0.110893	0.339056	0.218078	0.152927	0.235776	0.183536	0.183286	0.052867	0.130474	0.307081	0.393681	0.056257	0.065338	0.201322	0.144173	0.207468	0.126672	0.594379	0.446038	0.133497	0.161304	0.392753	0.295332	0.321055	0.340055	0.494250	0.321018	0.116485	0.160863	0.112851	0.152272	0.200095	0.112155	0.464826	0.322911	0.053702	0.040097	0.120757	0.173439	0.251979	0.164560	1.027068	0.468747	0.239882	0.116093	0.106964	0.236937	0.144127	0.130199	0.523128	0.317685	0.158300	0.138666	0.164282	0.139550
82	0.064957	0.099389	0.302654	0.159485	0.086797	0.121944	0.220704	0.212799	0.254698	0.301836	0.354309	0.599996	0.089134	0.093293	0.187090	0.057527	0.201556	0.389181	0.355895	0.583064	0.081777	0.101430	0.300837	0.260750	0.093114	0.128721	0.334259	0.215191	0.156194	0.219063	0.250774	0.177168	0.039793	0.125954	0.292973	0.420744	0.058436	0.060805	0.202082	0.143635	0.236007	0.155268	0.571381	0.436249	0.119275	0.140066	0.387557	0.278516	0.339508	0.358620	0.487367	0.312644	0.104421	0.160186	0.094807	0.152319	0.199426	0.103038	0.466178	0.342842	0.053060	0.039678	0.124781	0.181463	0.238987	0.127710	1.032736	0.483613	0.176959	0.108956	0.107411	0.228881	0.141014	0.132887	0.490358	0.308563	0.139771	0.154030	0.156311	0.124114
83	0.081016	0.100401	0.283584	0.160622	0.097299	0.122719	0.222155	0.215447	0.212612	0.283032	0.328487	0.535983	0.090764	0.099234	0.190922	0.085763	0.255613	0.407121	0.369750	0.553590	0.080932	0.093837	0.297944	0.220388	0.101366	0.146857	0.314967	0.197751	0.137943	0.151882	0.257570	0.181026	0.056011	0.121838	0.237813	0.388170	0.049648	0.048710	0.180328	0.157520	0.266607	0.189933	0.527125	0.437086	0.110953	0.122025	0.344453	0.244075	0.325967	0.346325	0.397985	0.312242	0.071493	0.158052	0.100795	0.127868	0.199342	0.100047	0.481608	0.350075	0.046085	0.043222	0.128258	0.205541	0.235171	0.124824	1.016980	0.497656	0.135321	0.108521	0.101158	0.228669	0.136465	0.128826	0.468862	0.313714	0.158548	0.263374	0.155499	0.136681
84	0.084045	0.090648	0.279800	0.154716	0.095204	0.100654	0.214929	0.225656	0.128235	0.172088	0.236206	0.469087	0.089336	0.108590	0.191535	0.121644	0.263562	0.405566	0.442877	0.538623	0.079355	0.087970	0.286514	0.215798	0.137392	0.166570	0.335606	0.149054	0.131618	0.111017	0.261622	0.178546	0.075560	0.111492	0.268311	0.348584	0.048149	0.041756	0.181260	0.148741	0.281091	0.205614	0.605191	0.443937	0.073686	0.084716	0.291963	0.202200	0.242375	0.315296	0.370415	0.324502	0.067929	0.143118	0.105359	0.126670	0.200787	0.099137	0.486816	0.353155	0.043757	0.043778	0.135736	0.205920	0.225547	0.124401	1.003484	0.485768	0.116538	0.108432	0.101327	0.214735	0.135796	0.123938	0.509777	0.313824	0.157177	0.332561	0.171825	0.137788
85	0.081836	0.088420	0.274868	0.151733	0.095164	0.092920	0.217554	0.257624	0.144593	0.155880	0.185685	0.462122	0.097561	0.143711	0.186474	0.128479	0.279496	0.409187	0.511208	0.561108	0.074331	0.068699	0.265473	0.222631	0.146029	0.166488	0.388351	0.155804	0.133862	0.112560	0.261483	0.155656	0.083893	0.138999	0.294430	0.348246	0.049283	0.043663	0.171056	0.145598	0.293464	0.220926	0.678299	0.438718	0.049220	0.052560	0.215022	0.156536	0.276827	0.322802	0.449930	0.360764	0.052945	0.093338	0.104080	0.130406	0.205995	0.097220	0.496567	0.348315	0.044949	0.046261	0.118905	0.207739	0.197785	0.118927	0.999704	0.468578	0.109315	0.111191	0.083322	0.166528	0.136023	0.131815	0.498382	0.308119	0.187199	0.365737	0.174032	0.144796
86	0.076374	0.084513	0.262584	0.323392	0.103072	0.091596	0.232357	0.238377	0.157076	0.216647	0.181639	0.433147	0.103569	0.152879	0.186220	0.163440	0.279396	0.406617	0.542712	0.571854	0.073433	0.071787	0.200435	0.238811	0.160453	0.167467	0.433842	0.153210	0.157278	0.133858	0.258764	0.170586	0.105339	0.161609	0.293767	0.380489	0.050553	0.051856	0.155805	0.196941	0.307954	0.242067	0.690902	0.434399	0.036962	0.033602	0.166243	0.156649	0.285637	0.334803	0.491611	0.362849	0.051312	0.093386	0.121264	0.125476	0.218401	0.097558	0.584832	0.353480	0.045398	0.049025	0.107115	0.218557	0.185531	0.116262	0.913164	0.467156	0.107854	0.111240	0.080849	0.166465	0.123505	0.134085	0.503510	0.322724	0.196524	0.380763	0.188015	0.149887
87	0.076769	0.089350	0.226640	0.381212	0.118682	0.086634	0.240789	0.201410	0.236794	0.216293	0.182848	0.360028	0.109398	0.159273	0.194195	0.172752	0.278552	0.382332	0.542299	0.568730	0.071240	0.071349	0.190811	0.231461	0.184722	0.169932	0.433961	0.151982	0.160790	0.151832	0.254771	0.187304	0.133596	0.192755	0.297838	0.392334	0.051331	0.053116	0.153072	0.215921	0.310557	0.243363	0.674392	0.459439	0.038086	0.039424	0.195047	0.180372	0.285262	0.336838	0.503311	0.370980	0.040300	0.091790	0.146870	0.127140	0.218669	0.095122	0.664527	0.351923	0.044481	0.048435	0.108756	0.211358	0.191106	0.127859	0.829489	0.462422	0.095235	0.102018	0.076659	0.149439	0.100002	0.141812	0.493337	0.356926	0.223357	0.405722	0.204883	0.164532
88	0.072144	0.085360	0.224925	0.383748	0.118885	0.085329	0.215815	0.207958	0.269928	0.212796	0.159623	0.273508	0.102265	0.156922	0.240092	0.207231	0.268866	0.334981	0.591069	0.541921	0.055855	0.060635	0.192110	0.217323	0.336166	0.200846	0.396664	0.138391	0.142783	0.162396	0.240811	0.197728	0.144297	0.212125	0.302303	0.434149	0.054570	0.055033	0.153052	0.207404	0.310782	0.243608	0.636680	0.472371	0.038774	0.043934	0.189556	0.214675	0.285011	0.338013	0.542794	0.372460	0.032382	0.092627	0.148757	0.130191	0.213417	0.084853	0.664953	0.333423	0.044784	0.048402	0.110232	0.188414	0.188462	0.147099	0.812296	0.468374	0.074577	0.083424	0.065306	0.157091	0.083621	0.164497	0.414027	0.352813	0.294949	0.495232	0.188620	0.172748
89	0.076065	0.091429	0.197145	0.380375	0.120105	0.083988	0.202663	0.228811	0.270159	0.210217	0.166615	0.271119	0.096324	0.153400	0.252638	0.231872	0.271730	0.327691	0.641879	0.450613	0.052317	0.062509	0.192099	0.176772	0.342793	0.192258	0.384837	0.136114	0.148617	0.182856	0.235043	0.183986	0.179788	0.214914	0.299661	0.396211	0.055256	0.053356	0.139147	0.203725	0.303393	0.244658	0.712456	0.505851	0.039073	0.042578	0.183023	0.228566	0.287143	0.341202	0.559528	0.371285	0.036623	0.111518	0.146084	0.126272	0.186700	0.072334	0.700145	0.331342	0.036380	0.045541	0.109117	0.162259	0.197277	0.160345	0.820071	0.493162	0.049486	0.066023	0.062086	0.170633	0.079604	0.174266	0.367721	0.381213	0.303993	0.506828	0.181243	0.170317
90	0.092855	0.130562	0.159933	0.389592	0.116357	0.068143	0.201563	0.234541	0.306758	0.234229	0.185626	0.280391	0.088958	0.146819	0.253120	0.236114	0.273709	0.297028	0.606521	0.371086	0.046158	0.059152	0.147387	0.157266	0.339893	0.173058	0.361797	0.139617	0.166642	0.246553	0.234201	0.179646	0.211004	0.317165	0.313023	0.359857	0.049601	0.053033	0.126102	0.210780	0.273238	0.237355	0.725266	0.531729	0.040307	0.040608	0.210213	0.223118	0.288520	0.338760	0.588898	0.401860	0.039962	0.108669	0.142522	0.132786	0.144444	0.068219	0.765459	0.332772	0.036976	0.047886	0.092476	0.160177	0.214085	0.165849	0.787520	0.527313	0.036348	0.061783	0.069727	0.161772	0.096957	0.170700	0.357315	0.404777	0.312806	0.502503	0.175784	0.177563
91	0.095725	0.138330	0.204273	0.453415	0.108235	0.048140	0.200869	0.232315	0.335603	0.236827	0.263100	0.285507	0.085867	0.144191	0.280373	0.242957	0.272834	0.271836	0.603680	0.347552	0.043822	0.059182	0.094297	0.157956	0.341172	0.167264	0.341037	0.135314	0.158418	0.242537	0.182082	0.180273	0.217921	0.316329	0.347187	0.379517	0.039714	0.051944	0.123477	0.216959	0.272334	0.240177	0.702084	0.544567	0.037229	0.038144	0.220796	0.224405	0.285675	0.301615	0.611077	0.349052	0.041280	0.103212	0.146237	0.143751	0.144260	0.067895	0.732008	0.308716	0.036680	0.045293	0.090468	0.152742	0.197636	0.157311	0.554423	0.527102	0.036019	0.067986	0.067000	0.139636	0.104972	0.153727	0.304883	0.413554	0.319925	0.469758	0.173719	0.206905
92	0.094710	0.135564	0.233551	0.463094	0.100381	0.039919	0.154004	0.231815	0.333345	0.234090	0.298524	0.291323	0.084545	0.135027	0.343758	0.261672	0.240939	0.171690	0.651574	0.375708	0.043668	0.057757	0.089725	0.157665	0.346239	0.150073	0.331381	0.130754	0.161683	0.245673	0.140740	0.178217	0.213428	0.316118	0.329319	0.388733	0.039047	0.052646	0.118438	0.201888	0.278910	0.252942	0.693356	0.529182	0.033484	0.037254	0.225425	0.222530	0.279594	0.234455	0.615704	0.318584	0.043597	0.101523	0.149449	0.149222	0.141631	0.087457	0.708673	0.305659	0.037111	0.045237	0.082999	0.148069	0.183922	0.142045	0.375944	0.465507	0.031699	0.075702	0.061886	0.130837	0.096791	0.145730	0.303868	0.374496	0.356746	0.483356	0.156143	0.239516
93	0.141062	0.143251	0.254613	0.476716	0.089764	0.033424	0.142804	0.235369	0.329443	0.227584	0.324446	0.293737	0.084315	0.135071	0.341809	0.271765	0.180505	0.119804	0.654224	0.380702	0.039313	0.058720	0.093317	0.158475	0.379399	0.178928	0.310314	0.124507	0.159946	0.244007	0.138025	0.180673	0.210577	0.311036	0.263278	0.381682	0.038172	0.052709	0.128302	0.188317	0.290557	0.261349	0.706924	0.491370	0.034552	0.038428	0.244122	0.215877	0.254448	0.182235	0.618446	0.334789	0.043490	0.102308	0.148176	0.148916	0.147530	0.103072	0.720465	0.272965	0.034232	0.042940	0.086363	0.104568	0.185948	0.143859	0.368471	0.425736	0.030264	0.078768	0.064449	0.127761	0.135862	0.144717	0.407846	0.433047	0.372364	0.529494	0.149292	0.236443
94	0.143400	0.164271	0.321931	0.494951	0.087613	0.058840	0.149711	0.230739	0.323882	0.168650	0.327844	0.294209	0.076331	0.110690	0.334929	0.275135	0.186194	0.140574	0.635420	0.348106	0.045196	0.063954	0.097984	0.158729	0.409399	0.185814	0.241764	0.125902	0.152753	0.242320	0.135643	0.191366	0.203660	0.294814	0.270413	0.412814	0.036480	0.050762	0.132779	0.186370	0.274248	0.249043	0.764498	0.508438	0.041384	0.040838	0.252231	0.209441	0.226039	0.173701	0.605279	0.350240	0.045536	0.100645	0.147724	0.131484	0.154375	0.116151	0.717134	0.227607	0.028996	0.044935	0.073591	0.098276	0.191721	0.151147	0.337693	0.459074	0.037090	0.078094	0.064939	0.134846	0.160877	0.161819	0.458986	0.526807	0.371956	0.522330	0.129408	0.230087
95	0.147814	0.169749	0.315132	0.391414	0.091054	0.099935	0.148138	0.191349	0.280692	0.195635	0.327869	0.312240	0.065374	0.085265	0.337053	0.272901	0.183429	0.164511	0.573821	0.299904	0.077783	0.087335	0.105530	0.159786	0.420350	0.228692	0.261332	0.136644	0.131563	0.239319	0.140634	0.191757	0.190644	0.286491	0.350837	0.489648	0.030654	0.038796	0.136259	0.148819	0.247709	0.222419	0.773122	0.498857	0.041905	0.040754	0.252756	0.210839	0.197020	0.169744	0.602924	0.359853	0.047205	0.101455	0.148752	0.114098	0.154419	0.121209	0.721203	0.224129	0.032500	0.044654	0.080988	0.105409	0.192114	0.162428	0.323959	0.459954	0.037930	0.068393	0.064118	0.139498	0.160514	0.164653	0.420074	0.585613	0.364836	0.515229	0.059744	0.227929
96	0.153933	0.185906	0.321977	0.395387	0.085739	0.106552	0.136024	0.191442	0.224087	0.211289	0.347062	0.297858	0.079401	0.067668	0.344250	0.256847	0.184697	0.172783	0.559338	0.284771	0.099648	0.117794	0.106951	0.138300	0.397639	0.229277	0.265996	0.159537	0.112778	0.228848	0.139571	0.165378	0.182117	0.250271	0.357133	0.450604	0.031546	0.037219	0.112858	0.093780	0.250833	0.204928	0.706948	0.478025	0.043303	0.040789	0.252761	0.221843	0.113266	0.133744	0.557488	0.344247	0.047756	0.097949	0.131351	0.109745	0.153205	0.120962	0.718023	0.213828	0.035937	0.042903	0.098114	0.130703	0.196740	0.178822	0.309027	0.450022	0.041407	0.068235	0.063989	0.136967	0.167933	0.166003	0.457344	0.586871	0.316090	0.438992	0.065046	0.312731
97	0.157177	0.188907	0.343080	0.414775	0.082357	0.155301	0.125342	0.194606	0.224646	0.212426	0.361207	0.276176	0.115897	0.107859	0.329668	0.253457	0.186688	0.171286	0.562507	0.391041	0.109828	0.117229	0.106362	0.128216	0.366819	0.216691	0.327642	0.293682	0.109566	0.215533	0.146831	0.156310	0.173782	0.250218	0.391007	0.440857	0.022171	0.038607	0.110879	0.120588	0.269085	0.188917	0.640925	0.478204	0.042813	0.044689	0.260729	0.253510	0.098048	0.096608	0.504380	0.343967	0.048501	0.091434	0.091522	0.108090	0.149609	0.120751	0.717140	0.262421	0.036227	0.044330	0.098341	0.131890	0.201171	0.185538	0.383719	0.445478	0.042704	0.065352	0.062759	0.136559	0.178801	0.172920	0.495613	0.616716	0.353740	0.448202	0.104393	0.354446
98	0.154968	0.182416	0.343367	0.419310	0.087641	0.187175	0.149690	0.183613	0.191589	0.190729	0.349166	0.310152	0.133743	0.121706	0.303377	0.212647	0.184321	0.182714	0.521258	0.538082	0.144630	0.154025	0.108749	0.116407	0.371711	0.217974	0.332921	0.295551	0.110820	0.208303	0.140483	0.149183	0.176938	0.175515	0.382573	0.440372	0.060259	0.064639	0.149662	0.161338	0.274564	0.154722	0.639585	0.476581	0.043100	0.047133	0.264136	0.260134	0.091796	0.083303	0.516405	0.341947	0.052934	0.095225	0.079144	0.105395	0.132106	0.118174	0.681918	0.263420	0.042068	0.067368	0.101269	0.131192	0.204223	0.185912	0.415775	0.445041	0.042627	0.061154	0.053970	0.134787	0.181399	0.169910	0.499456	0.615703	0.407439	0.551320	0.111364	0.352382
99	0.148558	0.155868	0.349525	0.376725	0.100209	0.203418	0.181003	0.157169	0.117636	0.188267	0.305251	0.311732	0.188414	0.174024	0.301966	0.200527	0.182917	0.196897	0.471780	0.604421	0.146342	0.161279	0.109697	0.094211	0.393583	0.229958	0.346529	0.309779	0.072152	0.142872	0.134822	0.147223	0.175787	0.136389	0.344554	0.421596	0.082302	0.083610	0.182308	0.174047	0.273670	0.147566	0.641572	0.446262	0.043001	0.044264	0.237968	0.249448	0.104473	0.094039	0.588884	0.342502	0.048902	0.072281	0.079384	0.107472	0.125929	0.119119	0.591615	0.276144	0.050306	0.093292	0.111578	0.134035	0.205767	0.185449	0.407621	0.449207	0.041559	0.060956	0.051983	0.130294	0.183264	0.153814	0.500418	0.605078	0.415001	0.592335	0.123606	0.336141
100	0.155549	0.176056	0.324613	0.327951	0.105675	0.216825	0.182973	0.144998	0.124965	0.192355	0.299972	0.323084	0.195804	0.194481	0.297309	0.202922	0.201324	0.203568	0.493294	0.613978	0.147422	0.163292	0.102101	0.090071	0.392677	0.236551	0.355433	0.326728	0.058675	0.109687	0.134472	0.134053	0.172724	0.143437	0.359178	0.411176	0.085668	0.087547	0.192895	0.175015	0.299700	0.177477	0.624609	0.408582	0.048513	0.040713	0.228824	0.230176	0.101623	0.088841	0.639315	0.349920	0.045509	0.068792	0.078426	0.113069	0.127628	0.119859	0.549908	0.275311	0.058959	0.096169	0.118828	0.145301	0.194818	0.173940	0.454431	0.443329	0.040565	0.060744	0.052605	0.124623	0.184784	0.133935	0.502669	0.591172	0.371073	0.544975	0.121926	0.313652
101	0.152456	0.178389	0.311039	0.326587	0.123893	0.221724	0.182373	0.142500	0.120502	0.201829	0.274131	0.355158	0.198628	0.201822	0.224944	0.192078	0.215915	0.273085	0.503849	0.669569	0.147720	0.166458	0.097705	0.087858	0.359932	0.218433	0.349631	0.352558	0.054746	0.106878	0.111958	0.133060	0.173722	0.144453	0.362650	0.414964	0.089845	0.090954	0.193563	0.177298	0.411971	0.200186	0.532650	0.357311	0.052454	0.040678	0.224908	0.197504	0.099327	0.086403	0.607253	0.359168	0.041558	0.064156	0.065326	0.124659	0.118846	0.120674	0.534670	0.251850	0.069040	0.104555	0.115902	0.158417	0.177781	0.155470	0.475233	0.441833	0.044960	0.064906	0.050980	0.104332	0.184778	0.130282	0.503550	0.576743	0.341362	0.475391	0.126120	0.324540
