	309_At_T1_sh_ND_01.c3d	309_At_T1_sh_ND_01.c3d	309_At_T1_sh_ND_01.c3d	309_At_T1_sh_ND_01.c3d	309_At_T1_sh_ND_01.c3d	309_At_T1_sh_ND_01.c3d	309_At_T1_sh_ND_01.c3d	309_At_T1_sh_ND_01.c3d	309_At_T1_sh_ND_02.c3d	309_At_T1_sh_ND_02.c3d	309_At_T1_sh_ND_02.c3d	309_At_T1_sh_ND_02.c3d	309_At_T1_sh_ND_02.c3d	309_At_T1_sh_ND_02.c3d	309_At_T1_sh_ND_02.c3d	309_At_T1_sh_ND_02.c3d	309_At_T1_sh_ND_03.c3d	309_At_T1_sh_ND_03.c3d	309_At_T1_sh_ND_03.c3d	309_At_T1_sh_ND_03.c3d	309_At_T1_sh_ND_03.c3d	309_At_T1_sh_ND_03.c3d	309_At_T1_sh_ND_03.c3d	309_At_T1_sh_ND_03.c3d	309_At_T1_sh_ND_04.c3d	309_At_T1_sh_ND_04.c3d	309_At_T1_sh_ND_04.c3d	309_At_T1_sh_ND_04.c3d	309_At_T1_sh_ND_04.c3d	309_At_T1_sh_ND_04.c3d	309_At_T1_sh_ND_04.c3d	309_At_T1_sh_ND_04.c3d	309_At_T1_sh_ND_05.c3d	309_At_T1_sh_ND_05.c3d	309_At_T1_sh_ND_05.c3d	309_At_T1_sh_ND_05.c3d	309_At_T1_sh_ND_05.c3d	309_At_T1_sh_ND_05.c3d	309_At_T1_sh_ND_05.c3d	309_At_T1_sh_ND_05.c3d	309_At_T1_sh_ND_06.c3d	309_At_T1_sh_ND_06.c3d	309_At_T1_sh_ND_06.c3d	309_At_T1_sh_ND_06.c3d	309_At_T1_sh_ND_06.c3d	309_At_T1_sh_ND_06.c3d	309_At_T1_sh_ND_06.c3d	309_At_T1_sh_ND_06.c3d	309_At_T1_sh_ND_07.c3d	309_At_T1_sh_ND_07.c3d	309_At_T1_sh_ND_07.c3d	309_At_T1_sh_ND_07.c3d	309_At_T1_sh_ND_07.c3d	309_At_T1_sh_ND_07.c3d	309_At_T1_sh_ND_07.c3d	309_At_T1_sh_ND_07.c3d	309_At_T1_sh_ND_08.c3d	309_At_T1_sh_ND_08.c3d	309_At_T1_sh_ND_08.c3d	309_At_T1_sh_ND_08.c3d	309_At_T1_sh_ND_08.c3d	309_At_T1_sh_ND_08.c3d	309_At_T1_sh_ND_08.c3d	309_At_T1_sh_ND_08.c3d	309_At_T1_sh_ND_09.c3d	309_At_T1_sh_ND_09.c3d	309_At_T1_sh_ND_09.c3d	309_At_T1_sh_ND_09.c3d	309_At_T1_sh_ND_09.c3d	309_At_T1_sh_ND_09.c3d	309_At_T1_sh_ND_09.c3d	309_At_T1_sh_ND_09.c3d	309_At_T1_sh_ND_10.c3d	309_At_T1_sh_ND_10.c3d	309_At_T1_sh_ND_10.c3d	309_At_T1_sh_ND_10.c3d	309_At_T1_sh_ND_10.c3d	309_At_T1_sh_ND_10.c3d	309_At_T1_sh_ND_10.c3d	309_At_T1_sh_ND_10.c3d
	Biceps femoris_lat	Semitendinosus_lat	Vastus lateralis_lat	Vastus medialis_lat	Biceps femoris_med	Semitendinosus_med	Vastus lateralis_med	Vastus medialis_med	Biceps femoris_lat	Semitendinosus_lat	Vastus lateralis_lat	Vastus medialis_lat	Biceps femoris_med	Semitendinosus_med	Vastus lateralis_med	Vastus medialis_med	Biceps femoris_lat	Semitendinosus_lat	Vastus lateralis_lat	Vastus medialis_lat	Biceps femoris_med	Semitendinosus_med	Vastus lateralis_med	Vastus medialis_med	Biceps femoris_lat	Semitendinosus_lat	Vastus lateralis_lat	Vastus medialis_lat	Biceps femoris_med	Semitendinosus_med	Vastus lateralis_med	Vastus medialis_med	Biceps femoris_lat	Semitendinosus_lat	Vastus lateralis_lat	Vastus medialis_lat	Biceps femoris_med	Semitendinosus_med	Vastus lateralis_med	Vastus medialis_med	Biceps femoris_lat	Semitendinosus_lat	Vastus lateralis_lat	Vastus medialis_lat	Biceps femoris_med	Semitendinosus_med	Vastus lateralis_med	Vastus medialis_med	Biceps femoris_lat	Semitendinosus_lat	Vastus lateralis_lat	Vastus medialis_lat	Biceps femoris_med	Semitendinosus_med	Vastus lateralis_med	Vastus medialis_med	Biceps femoris_lat	Semitendinosus_lat	Vastus lateralis_lat	Vastus medialis_lat	Biceps femoris_med	Semitendinosus_med	Vastus lateralis_med	Vastus medialis_med	Biceps femoris_lat	Semitendinosus_lat	Vastus lateralis_lat	Vastus medialis_lat	Biceps femoris_med	Semitendinosus_med	Vastus lateralis_med	Vastus medialis_med	Biceps femoris_lat	Semitendinosus_lat	Vastus lateralis_lat	Vastus medialis_lat	Biceps femoris_med	Semitendinosus_med	Vastus lateralis_med	Vastus medialis_med
	P2D	P2D	P2D	P2D	P2D	P2D	P2D	P2D	P2D	P2D	P2D	P2D	P2D	P2D	P2D	P2D	P2D	P2D	P2D	P2D	P2D	P2D	P2D	P2D	P2D	P2D	P2D	P2D	P2D	P2D	P2D	P2D	P2D	P2D	P2D	P2D	P2D	P2D	P2D	P2D	P2D	P2D	P2D	P2D	P2D	P2D	P2D	P2D	P2D	P2D	P2D	P2D	P2D	P2D	P2D	P2D	P2D	P2D	P2D	P2D	P2D	P2D	P2D	P2D	P2D	P2D	P2D	P2D	P2D	P2D	P2D	P2D	P2D	P2D	P2D	P2D	P2D	P2D	P2D	P2D
	EMG_lat	EMG_lat	EMG_lat	EMG_lat	EMG_med	EMG_med	EMG_med	EMG_med	EMG_lat	EMG_lat	EMG_lat	EMG_lat	EMG_med	EMG_med	EMG_med	EMG_med	EMG_lat	EMG_lat	EMG_lat	EMG_lat	EMG_med	EMG_med	EMG_med	EMG_med	EMG_lat	EMG_lat	EMG_lat	EMG_lat	EMG_med	EMG_med	EMG_med	EMG_med	EMG_lat	EMG_lat	EMG_lat	EMG_lat	EMG_med	EMG_med	EMG_med	EMG_med	EMG_lat	EMG_lat	EMG_lat	EMG_lat	EMG_med	EMG_med	EMG_med	EMG_med	EMG_lat	EMG_lat	EMG_lat	EMG_lat	EMG_med	EMG_med	EMG_med	EMG_med	EMG_lat	EMG_lat	EMG_lat	EMG_lat	EMG_med	EMG_med	EMG_med	EMG_med	EMG_lat	EMG_lat	EMG_lat	EMG_lat	EMG_med	EMG_med	EMG_med	EMG_med	EMG_lat	EMG_lat	EMG_lat	EMG_lat	EMG_med	EMG_med	EMG_med	EMG_med
ITEM	Y	Y	Y	Y	Y	Y	Y	Y	Y	Y	Y	Y	Y	Y	Y	Y	Y	Y	Y	Y	Y	Y	Y	Y	Y	Y	Y	Y	Y	Y	Y	Y	Y	Y	Y	Y	Y	Y	Y	Y	Y	Y	Y	Y	Y	Y	Y	Y	Y	Y	Y	Y	Y	Y	Y	Y	Y	Y	Y	Y	Y	Y	Y	Y	Y	Y	Y	Y	Y	Y	Y	Y	Y	Y	Y	Y	Y	Y	Y	Y
1	0.379041	0.890286	0.376529	0.226367	0.238809	0.451257	0.737043	0.223829	0.147536	0.199704	0.400858	0.226994	0.595703	0.361642	0.223356	0.273328	0.786160	0.834730	0.209451	0.252759	0.539078	0.590746	0.215552	0.167232	0.475781	0.661948	0.142283	0.161455	0.356369	0.294771	0.648345	0.153750	0.223572	0.316343	0.225712	0.168224	0.471782	0.335859	0.283291	0.216084	0.238537	0.269352	0.336209	0.273693	0.356205	0.314177	0.247788	0.101909	0.112615	0.182655	0.239680	0.165854	0.398326	0.379091	0.349494	0.179574	0.329386	0.324342	0.156260	0.148613	0.464090	0.242531	0.201404	0.266624	0.261352	0.414949	0.146071	0.159892	0.380689	0.316861	0.367343	0.255743	0.412792	0.324848	0.190269	0.109714	0.204124	0.450678	0.285236	0.141227
2	0.367257	0.935397	0.359383	0.230587	0.230374	0.449742	0.736018	0.264486	0.150407	0.202007	0.408277	0.215596	0.596264	0.346133	0.244046	0.272260	0.767577	0.827974	0.202639	0.244733	0.538997	0.591425	0.211406	0.145412	0.370875	0.576626	0.173230	0.151008	0.365094	0.291442	0.645301	0.160930	0.223270	0.289281	0.200534	0.211541	0.381488	0.309574	0.265124	0.219702	0.183759	0.266400	0.336438	0.265151	0.354178	0.324791	0.232595	0.103369	0.112061	0.180840	0.241483	0.169983	0.398260	0.347666	0.348684	0.175535	0.351326	0.389322	0.187768	0.143849	0.413017	0.253104	0.244041	0.268310	0.294006	0.409996	0.145953	0.194033	0.413209	0.302002	0.366922	0.243012	0.412401	0.325849	0.237054	0.151187	0.204843	0.442066	0.275055	0.138229
3	0.367762	0.939492	0.328742	0.246842	0.217012	0.458558	0.749397	0.269737	0.148551	0.208972	0.406652	0.234847	0.587193	0.349912	0.251381	0.265977	0.742446	0.812171	0.193293	0.233010	0.538820	0.595506	0.205013	0.147854	0.247842	0.457024	0.166457	0.153595	0.387455	0.286336	0.623432	0.163207	0.217702	0.285256	0.250660	0.222879	0.368392	0.308955	0.273261	0.234505	0.183607	0.252891	0.336839	0.249250	0.359887	0.343234	0.230005	0.111128	0.103082	0.164443	0.223572	0.177479	0.397838	0.305950	0.335436	0.176959	0.367851	0.477664	0.195073	0.135602	0.380858	0.259336	0.241038	0.272578	0.312262	0.414912	0.145597	0.213054	0.452269	0.295781	0.332648	0.238580	0.411481	0.333883	0.264592	0.197956	0.202399	0.449265	0.217517	0.133834
4	0.341603	0.924433	0.311987	0.229813	0.227495	0.478787	0.770857	0.275727	0.145231	0.206125	0.395341	0.231372	0.545543	0.338858	0.248889	0.260550	0.716531	0.815537	0.188264	0.231292	0.534090	0.596407	0.195612	0.148922	0.155891	0.343473	0.164664	0.171654	0.393976	0.280029	0.581670	0.150353	0.192653	0.267787	0.278961	0.222341	0.360496	0.285706	0.268991	0.224061	0.156014	0.203368	0.343128	0.250910	0.356392	0.328200	0.228012	0.125080	0.102284	0.109839	0.196182	0.180584	0.397635	0.281180	0.303737	0.181725	0.349428	0.457835	0.194497	0.188266	0.381347	0.313249	0.274914	0.275000	0.308527	0.417508	0.144985	0.212623	0.444198	0.214861	0.243370	0.235235	0.405632	0.338149	0.266804	0.198463	0.199061	0.450015	0.174005	0.122291
5	0.338763	0.904841	0.308415	0.195883	0.241082	0.483361	0.792214	0.290282	0.139701	0.206481	0.402135	0.215724	0.250906	0.245823	0.248527	0.259612	0.723601	0.828132	0.192641	0.242324	0.507711	0.564018	0.198844	0.148955	0.156266	0.288140	0.204198	0.193331	0.398577	0.278080	0.545727	0.141307	0.191265	0.255959	0.284056	0.244192	0.348497	0.285032	0.285364	0.204469	0.105777	0.111029	0.288750	0.269691	0.353783	0.334676	0.208583	0.128077	0.112475	0.099353	0.193252	0.184713	0.393481	0.243319	0.280681	0.179196	0.317517	0.439331	0.213111	0.249172	0.379512	0.313760	0.294707	0.295651	0.307016	0.400788	0.155486	0.215749	0.435201	0.181060	0.197091	0.234008	0.402619	0.342668	0.266567	0.197464	0.191220	0.438934	0.184729	0.127425
6	0.363038	0.826198	0.250676	0.157549	0.248346	0.486236	0.777223	0.319557	0.143323	0.211156	0.388717	0.214869	0.224713	0.209185	0.251018	0.250391	0.724103	0.754742	0.190938	0.240794	0.410141	0.470816	0.223261	0.141860	0.180609	0.285215	0.279808	0.195239	0.449708	0.260380	0.539415	0.137145	0.213251	0.241296	0.279230	0.277243	0.353577	0.292235	0.299880	0.190086	0.098031	0.089660	0.214382	0.294539	0.321845	0.318298	0.167634	0.131928	0.113035	0.083985	0.202985	0.267380	0.369692	0.180981	0.291137	0.170264	0.293180	0.424014	0.232569	0.266726	0.363516	0.314431	0.299197	0.288793	0.291162	0.340059	0.177748	0.216842	0.425839	0.179543	0.191944	0.212010	0.366889	0.333071	0.272443	0.210105	0.198720	0.460825	0.185477	0.195271
7	0.355652	0.760899	0.163224	0.156548	0.251963	0.489008	0.737469	0.338267	0.121641	0.189943	0.332937	0.273354	0.225782	0.208834	0.271996	0.221955	0.664018	0.657676	0.193588	0.243309	0.301527	0.379095	0.261199	0.141340	0.174225	0.258862	0.293403	0.195833	0.455536	0.265105	0.546462	0.124520	0.255347	0.263855	0.291319	0.281778	0.366125	0.318134	0.300249	0.189447	0.113256	0.138353	0.222036	0.290090	0.313300	0.313676	0.125187	0.139918	0.105375	0.090664	0.201035	0.304047	0.333612	0.150551	0.299423	0.162948	0.250582	0.407992	0.259036	0.266180	0.346754	0.397845	0.301394	0.287639	0.264259	0.302027	0.198306	0.213688	0.431502	0.200774	0.219399	0.204898	0.295758	0.304013	0.277571	0.222630	0.228940	0.488301	0.211251	0.203778
8	0.352363	0.743772	0.111402	0.164149	0.286548	0.513480	0.719178	0.342977	0.130313	0.182164	0.369558	0.365347	0.229825	0.206431	0.294557	0.206448	0.492014	0.560633	0.193773	0.254956	0.253037	0.347161	0.277282	0.143392	0.169816	0.254657	0.291233	0.193982	0.444019	0.266187	0.514059	0.115607	0.263387	0.246545	0.313867	0.271890	0.374627	0.321124	0.297876	0.179288	0.113922	0.167624	0.203382	0.301680	0.309205	0.309478	0.121625	0.151757	0.098498	0.095935	0.177410	0.304999	0.307717	0.142218	0.259511	0.162880	0.239396	0.430793	0.267455	0.260835	0.340280	0.429175	0.313960	0.286566	0.265454	0.296642	0.209526	0.214158	0.432361	0.204604	0.251422	0.204711	0.282164	0.284541	0.277600	0.229124	0.249344	0.511926	0.221589	0.213875
9	0.351677	0.735589	0.109548	0.164738	0.317804	0.517686	0.726116	0.346791	0.145104	0.195534	0.437539	0.372675	0.239624	0.213154	0.296495	0.205616	0.287482	0.475946	0.206621	0.255334	0.228828	0.346324	0.296667	0.144698	0.169552	0.255979	0.291416	0.184595	0.429810	0.254490	0.410241	0.119849	0.262359	0.261993	0.316014	0.282999	0.364276	0.317997	0.291405	0.164870	0.096179	0.172688	0.191851	0.311073	0.306077	0.299372	0.122033	0.154939	0.116880	0.120285	0.192038	0.311793	0.270777	0.135333	0.216907	0.162069	0.238566	0.439926	0.268223	0.277279	0.317989	0.431791	0.340388	0.294999	0.266529	0.294698	0.207207	0.213796	0.437670	0.191294	0.250260	0.201745	0.301495	0.278945	0.282904	0.230654	0.267409	0.529071	0.227757	0.259557
10	0.312373	0.675728	0.124163	0.166479	0.310839	0.449455	0.702541	0.364803	0.157863	0.208519	0.488808	0.382702	0.234034	0.220782	0.291598	0.205608	0.294285	0.488799	0.213886	0.253847	0.213143	0.348763	0.311734	0.154469	0.168323	0.260597	0.292744	0.186313	0.429894	0.274938	0.296994	0.144054	0.236487	0.253868	0.310750	0.307487	0.262312	0.288070	0.288303	0.157813	0.087516	0.171556	0.169237	0.313993	0.312226	0.293169	0.115211	0.177997	0.123633	0.141003	0.201168	0.310601	0.269311	0.141925	0.221155	0.145665	0.235833	0.441710	0.276873	0.302409	0.311600	0.415764	0.338728	0.280210	0.267354	0.275770	0.222862	0.217396	0.430768	0.179693	0.254892	0.191118	0.296159	0.280086	0.292238	0.231726	0.269797	0.522521	0.228815	0.305208
11	0.253603	0.462651	0.127580	0.171648	0.307931	0.429128	0.584756	0.375578	0.174221	0.216899	0.513701	0.405917	0.238786	0.243084	0.309294	0.199127	0.301015	0.498289	0.203044	0.257075	0.209796	0.353546	0.312954	0.156158	0.165623	0.270885	0.296930	0.175778	0.427895	0.304707	0.252092	0.152256	0.223023	0.239159	0.302423	0.318058	0.228247	0.282705	0.288159	0.219549	0.096637	0.167230	0.162175	0.301317	0.313255	0.294077	0.114073	0.206593	0.115900	0.146481	0.203933	0.315745	0.257613	0.140338	0.221064	0.105576	0.230307	0.438677	0.295747	0.308032	0.296351	0.409358	0.305253	0.249300	0.280617	0.248459	0.269795	0.220049	0.417131	0.181516	0.258188	0.177446	0.282305	0.281892	0.280604	0.269252	0.282964	0.490641	0.233382	0.315704
12	0.240512	0.297263	0.205101	0.166504	0.306857	0.375350	0.488309	0.376090	0.183908	0.216313	0.523756	0.441863	0.239634	0.245336	0.346192	0.186325	0.301517	0.499354	0.194939	0.258268	0.207369	0.354187	0.312937	0.127465	0.166033	0.280319	0.300234	0.151934	0.423182	0.313549	0.246886	0.153609	0.240527	0.230935	0.295812	0.319339	0.211664	0.281814	0.301170	0.309924	0.088909	0.168645	0.159058	0.274107	0.296726	0.287960	0.131093	0.207739	0.115990	0.147078	0.216795	0.333917	0.229921	0.128825	0.245445	0.135278	0.229925	0.437535	0.306008	0.303729	0.314514	0.414387	0.271076	0.247898	0.281498	0.248913	0.292786	0.214803	0.380702	0.183397	0.259069	0.185999	0.273439	0.280339	0.264343	0.336790	0.294131	0.490369	0.230331	0.316771
13	0.243755	0.279545	0.328310	0.151738	0.311491	0.385103	0.465741	0.367136	0.194831	0.220728	0.623821	0.474073	0.224587	0.243979	0.378941	0.191579	0.311376	0.496491	0.194356	0.259857	0.206597	0.347355	0.309620	0.135844	0.166926	0.283170	0.353908	0.163338	0.408603	0.345581	0.248132	0.160217	0.244293	0.226498	0.290264	0.331661	0.211477	0.285487	0.301013	0.327463	0.107032	0.189195	0.156619	0.272253	0.238433	0.237592	0.141493	0.205838	0.121819	0.150680	0.218272	0.346296	0.064106	0.112545	0.268370	0.146283	0.230455	0.437996	0.310045	0.316422	0.335364	0.424100	0.270224	0.240891	0.246685	0.249776	0.293260	0.209925	0.345862	0.181384	0.254446	0.198024	0.246015	0.261160	0.276140	0.415620	0.288135	0.429310	0.268731	0.332034
14	0.255214	0.303500	0.347804	0.170195	0.312015	0.405623	0.456975	0.342869	0.207466	0.223846	0.667370	0.487971	0.210643	0.230938	0.388018	0.205612	0.306524	0.482309	0.181841	0.263442	0.188221	0.338246	0.311423	0.142341	0.162268	0.283253	0.401527	0.163895	0.409521	0.368542	0.249972	0.162750	0.242371	0.216590	0.291230	0.332590	0.218372	0.306989	0.276267	0.329549	0.113414	0.201033	0.154595	0.260859	0.249280	0.229993	0.169538	0.255426	0.122340	0.152206	0.221320	0.345287	0.082468	0.130793	0.273039	0.140351	0.221223	0.433582	0.301280	0.325299	0.338884	0.409464	0.242535	0.226806	0.240162	0.216870	0.292580	0.209189	0.338669	0.181013	0.232531	0.196341	0.226892	0.245175	0.322395	0.470556	0.296216	0.443031	0.388453	0.356564
15	0.242748	0.296759	0.405667	0.218268	0.326623	0.417895	0.448938	0.313629	0.218528	0.229350	0.677120	0.489577	0.206829	0.218572	0.382336	0.204587	0.301446	0.464370	0.158422	0.265863	0.118781	0.243984	0.306438	0.147521	0.160782	0.283905	0.409272	0.152732	0.401909	0.364626	0.261396	0.162628	0.243118	0.218095	0.276951	0.309305	0.218835	0.311027	0.235601	0.347721	0.124016	0.206317	0.131230	0.250217	0.254262	0.232378	0.355592	0.318876	0.115759	0.152067	0.228304	0.349261	0.126970	0.210111	0.279486	0.149741	0.174222	0.382880	0.280417	0.325804	0.344872	0.422384	0.217173	0.193198	0.227068	0.163252	0.291429	0.193954	0.299267	0.183353	0.228197	0.198971	0.230024	0.252568	0.400633	0.480536	0.300765	0.437233	0.471696	0.373848
16	0.197619	0.289401	0.453453	0.233089	0.359567	0.484192	0.412391	0.311394	0.229985	0.225858	0.691314	0.481906	0.208804	0.215766	0.400703	0.203573	0.314699	0.488210	0.171429	0.263680	0.101120	0.212018	0.362673	0.158142	0.162279	0.274750	0.392127	0.157441	0.385583	0.349104	0.285248	0.166675	0.243227	0.216368	0.238556	0.313554	0.226044	0.313535	0.237026	0.371216	0.128968	0.214982	0.125456	0.211502	0.205754	0.186285	0.519599	0.333327	0.119418	0.176767	0.219179	0.352445	0.148246	0.227469	0.280252	0.182710	0.109487	0.255781	0.274470	0.331156	0.342004	0.428568	0.203944	0.196958	0.196570	0.151860	0.292401	0.159077	0.228304	0.183507	0.250208	0.210951	0.232273	0.259503	0.441622	0.482946	0.301786	0.438163	0.487898	0.374870
17	0.180081	0.266088	0.466802	0.237960	0.351751	0.474762	0.357118	0.308601	0.236051	0.223869	0.696238	0.475672	0.221600	0.222794	0.454277	0.208615	0.327926	0.517235	0.174631	0.248028	0.100895	0.218991	0.393375	0.157208	0.137140	0.258205	0.370693	0.185946	0.351759	0.324659	0.305600	0.169263	0.243165	0.215745	0.212477	0.329943	0.221427	0.307029	0.274986	0.382253	0.127996	0.209679	0.112666	0.200231	0.188157	0.167402	0.587045	0.334399	0.133615	0.206415	0.204534	0.293919	0.152235	0.228191	0.276761	0.216676	0.084087	0.217304	0.274960	0.322122	0.252718	0.339853	0.205285	0.192905	0.148148	0.136548	0.294661	0.128033	0.230283	0.181175	0.306443	0.225982	0.229254	0.250967	0.430434	0.512638	0.302018	0.437725	0.506601	0.375893
18	0.189085	0.240666	0.479725	0.241808	0.341423	0.470095	0.313373	0.288066	0.238259	0.221699	0.692516	0.475393	0.225718	0.219789	0.477721	0.214880	0.325361	0.521361	0.173463	0.248675	0.103554	0.215057	0.396409	0.167766	0.145446	0.270483	0.374497	0.203400	0.334887	0.320423	0.311009	0.180970	0.244393	0.217642	0.208615	0.316336	0.198561	0.279592	0.272842	0.382243	0.141061	0.198408	0.092888	0.186648	0.175800	0.153393	0.597008	0.363241	0.133963	0.203657	0.202435	0.235961	0.171733	0.235385	0.278125	0.239852	0.079326	0.216612	0.260116	0.294175	0.247166	0.309992	0.187338	0.193010	0.144535	0.123885	0.295537	0.124458	0.228967	0.182621	0.321493	0.232523	0.229616	0.242599	0.440877	0.557663	0.284768	0.403327	0.547830	0.378404
19	0.192329	0.250586	0.480920	0.246254	0.346087	0.479913	0.280804	0.251000	0.234990	0.215272	0.686082	0.475704	0.225703	0.214562	0.479862	0.237872	0.306279	0.488705	0.172435	0.247172	0.113105	0.214569	0.396335	0.201832	0.148080	0.261152	0.382776	0.272672	0.331424	0.320820	0.309357	0.196902	0.233962	0.266291	0.238741	0.297360	0.168691	0.242208	0.267982	0.382096	0.205161	0.282583	0.089143	0.145550	0.193921	0.176000	0.683818	0.400822	0.146042	0.220397	0.199117	0.226055	0.188199	0.243644	0.269705	0.248825	0.079185	0.217366	0.243653	0.276612	0.258649	0.320087	0.130684	0.184497	0.147858	0.115752	0.293960	0.120233	0.217236	0.170300	0.320435	0.232292	0.224417	0.234896	0.491401	0.585460	0.261144	0.365793	0.582503	0.394181
20	0.193067	0.249874	0.489195	0.268727	0.344248	0.482049	0.276965	0.222662	0.224464	0.206619	0.674971	0.450735	0.210638	0.212065	0.486669	0.271934	0.283194	0.449969	0.177703	0.227784	0.112526	0.220796	0.397100	0.246421	0.150061	0.260848	0.416269	0.281750	0.314918	0.326435	0.295244	0.199242	0.216099	0.302565	0.298230	0.300028	0.131346	0.194743	0.266509	0.383156	0.258669	0.399192	0.088880	0.122230	0.203708	0.238956	0.799201	0.421562	0.141966	0.239165	0.180900	0.217258	0.203874	0.254051	0.251478	0.250062	0.073060	0.208554	0.217574	0.276073	0.259133	0.318375	0.125906	0.156459	0.166323	0.147617	0.277557	0.099652	0.204127	0.143715	0.305326	0.230834	0.205662	0.192548	0.548495	0.595974	0.244265	0.339324	0.597050	0.388946
21	0.196730	0.250262	0.502635	0.271186	0.311316	0.451239	0.258548	0.209852	0.210169	0.201265	0.625876	0.374873	0.198263	0.210683	0.488167	0.293620	0.272532	0.441144	0.185178	0.225620	0.105404	0.217103	0.394202	0.272799	0.156082	0.261402	0.443609	0.291801	0.243266	0.327456	0.274300	0.197111	0.203866	0.300115	0.304969	0.299164	0.119682	0.174137	0.268222	0.387887	0.279195	0.469331	0.077874	0.122931	0.205267	0.249599	0.856548	0.426372	0.132812	0.230225	0.167384	0.216457	0.218663	0.268296	0.233770	0.249948	0.061929	0.152161	0.200220	0.287901	0.262839	0.320258	0.126401	0.139471	0.178535	0.175444	0.257682	0.086510	0.201061	0.138149	0.274905	0.229568	0.197453	0.183428	0.574775	0.600885	0.226438	0.306038	0.604487	0.356634
22	0.198439	0.250504	0.495893	0.271525	0.265479	0.404157	0.235685	0.217942	0.200816	0.209659	0.565510	0.359688	0.201439	0.213841	0.474313	0.302820	0.270835	0.423521	0.192125	0.222148	0.105925	0.212607	0.382711	0.282542	0.159485	0.259178	0.447634	0.321906	0.240746	0.306591	0.264532	0.199839	0.220455	0.298978	0.308797	0.290029	0.119740	0.172117	0.272786	0.391976	0.280457	0.494045	0.076090	0.137684	0.207323	0.253104	0.868152	0.427434	0.136380	0.234491	0.156674	0.207074	0.225181	0.280430	0.231607	0.250047	0.068153	0.121510	0.229876	0.291543	0.264243	0.339033	0.140883	0.138508	0.173504	0.187188	0.244570	0.088308	0.178151	0.140063	0.271044	0.228103	0.192318	0.181351	0.580342	0.604789	0.221158	0.298732	0.600734	0.321873
23	0.197399	0.233446	0.431120	0.278992	0.253125	0.391666	0.193114	0.220133	0.195926	0.249428	0.521088	0.349558	0.207063	0.209417	0.461522	0.307691	0.269913	0.414937	0.193075	0.209635	0.107261	0.209990	0.375666	0.281917	0.166453	0.254333	0.454016	0.337367	0.230213	0.304482	0.265953	0.201937	0.222346	0.303387	0.330278	0.295714	0.133221	0.194696	0.278330	0.382723	0.319524	0.554033	0.082774	0.121451	0.201506	0.262397	0.868128	0.423375	0.141977	0.244748	0.108413	0.189125	0.226504	0.287339	0.214983	0.250886	0.067687	0.108089	0.249908	0.269454	0.272172	0.356771	0.136525	0.138426	0.170564	0.193590	0.242956	0.087051	0.176653	0.139369	0.267759	0.228074	0.139501	0.170744	0.579334	0.609652	0.184719	0.260587	0.595732	0.316274
24	0.176350	0.205901	0.396347	0.279315	0.253040	0.391117	0.173615	0.238090	0.185085	0.308325	0.492119	0.312884	0.200567	0.203140	0.460412	0.307867	0.250902	0.393840	0.178471	0.206445	0.107101	0.207862	0.355655	0.278041	0.173619	0.268659	0.452583	0.332818	0.199818	0.295583	0.258671	0.201965	0.212723	0.313454	0.351176	0.314754	0.149252	0.246837	0.271914	0.304809	0.372779	0.612438	0.090394	0.121540	0.192129	0.270147	0.868036	0.410153	0.141315	0.247564	0.099519	0.174919	0.229009	0.306964	0.219275	0.252428	0.065780	0.099304	0.232335	0.254768	0.267992	0.340753	0.121947	0.136841	0.169877	0.195734	0.228917	0.077762	0.172523	0.138647	0.260180	0.219250	0.116714	0.167088	0.575715	0.612367	0.188491	0.269788	0.593997	0.309481
25	0.178545	0.186381	0.377570	0.237686	0.253243	0.388987	0.176357	0.266566	0.173949	0.311757	0.483269	0.245486	0.193618	0.187485	0.458207	0.307694	0.218124	0.351225	0.194029	0.214046	0.105786	0.199792	0.347901	0.270522	0.184235	0.297592	0.429953	0.331570	0.170829	0.267089	0.235505	0.190380	0.196667	0.339542	0.366672	0.325825	0.159887	0.283861	0.254470	0.257400	0.397537	0.649691	0.108167	0.146718	0.193577	0.273912	0.865965	0.401835	0.160964	0.269293	0.087659	0.173438	0.236066	0.347046	0.211805	0.245356	0.065537	0.097650	0.207678	0.254824	0.262691	0.332563	0.135202	0.125523	0.149490	0.196078	0.165120	0.065398	0.161376	0.162087	0.254560	0.200736	0.109133	0.164265	0.576930	0.604807	0.191441	0.273690	0.566047	0.291082
26	0.190802	0.193285	0.318143	0.214479	0.257578	0.385903	0.182620	0.275296	0.173504	0.309515	0.349454	0.167090	0.187027	0.159372	0.437754	0.305805	0.213933	0.340074	0.216480	0.269234	0.108217	0.186657	0.346489	0.265604	0.184121	0.301370	0.421789	0.326869	0.158058	0.260718	0.218883	0.192965	0.205400	0.361185	0.367831	0.315724	0.152229	0.264499	0.248733	0.253893	0.396137	0.661431	0.153302	0.181773	0.194166	0.280780	0.862296	0.401241	0.184197	0.302353	0.066219	0.161432	0.237862	0.350535	0.179855	0.230772	0.070813	0.103313	0.223066	0.242384	0.260502	0.329452	0.174546	0.127384	0.128913	0.195335	0.096039	0.120261	0.154218	0.185718	0.248564	0.186623	0.109845	0.164829	0.576818	0.574322	0.192086	0.269185	0.486680	0.258790
27	0.215583	0.215549	0.313963	0.228218	0.260508	0.366023	0.183217	0.275403	0.191654	0.306900	0.236259	0.111787	0.187377	0.154350	0.405585	0.299460	0.208872	0.338028	0.217448	0.289704	0.118528	0.186876	0.345891	0.264666	0.164712	0.287156	0.419558	0.312141	0.163021	0.270026	0.209080	0.191404	0.209497	0.366519	0.363658	0.303171	0.144837	0.249524	0.248950	0.233222	0.398003	0.672421	0.181014	0.187492	0.179002	0.281124	0.862467	0.389689	0.177550	0.290669	0.066065	0.151798	0.261433	0.392280	0.153528	0.231169	0.072201	0.103588	0.273063	0.230357	0.278795	0.376998	0.181712	0.149102	0.134586	0.187185	0.092683	0.208963	0.154296	0.188460	0.246307	0.184125	0.112053	0.186748	0.572297	0.524528	0.195272	0.280674	0.414951	0.242685
28	0.204994	0.209108	0.298397	0.225628	0.250346	0.360414	0.183326	0.271831	0.176343	0.303623	0.191879	0.081391	0.188645	0.146731	0.380590	0.280672	0.196970	0.337212	0.229750	0.283154	0.118713	0.180346	0.344656	0.258028	0.161363	0.252845	0.394924	0.299755	0.169832	0.261405	0.206760	0.192964	0.215226	0.379002	0.352864	0.310206	0.133579	0.251374	0.238237	0.178179	0.397505	0.680151	0.188923	0.228477	0.154586	0.277819	0.832159	0.334900	0.166874	0.271587	0.068940	0.150629	0.259834	0.387870	0.154415	0.229426	0.074433	0.102080	0.302845	0.230432	0.271762	0.396421	0.180961	0.192031	0.135401	0.183839	0.094769	0.236432	0.137272	0.187783	0.245914	0.176588	0.114051	0.196750	0.552786	0.470026	0.194511	0.279921	0.403532	0.241332
29	0.196731	0.174772	0.313685	0.284177	0.207898	0.296556	0.183163	0.266929	0.179267	0.302380	0.115800	0.071957	0.189712	0.150343	0.367876	0.260521	0.198092	0.334137	0.266457	0.286933	0.111019	0.176589	0.339909	0.259630	0.146146	0.217513	0.386109	0.311617	0.173433	0.247974	0.201934	0.204070	0.217251	0.385372	0.350738	0.304951	0.144710	0.268092	0.194608	0.133529	0.377249	0.662705	0.211596	0.233842	0.154895	0.280368	0.755596	0.300321	0.167695	0.269786	0.066055	0.159703	0.247900	0.368775	0.135423	0.216829	0.070888	0.097241	0.303346	0.223651	0.259551	0.384215	0.244260	0.234927	0.135905	0.185467	0.094965	0.238154	0.104127	0.190766	0.224923	0.147670	0.105819	0.185910	0.503734	0.450582	0.193593	0.277824	0.363832	0.208546
30	0.194590	0.175746	0.328065	0.425818	0.205639	0.338306	0.176310	0.265235	0.214156	0.302769	0.067205	0.075374	0.188791	0.152637	0.363398	0.248905	0.191829	0.318138	0.297128	0.301473	0.104922	0.167625	0.323320	0.258431	0.144950	0.218533	0.378410	0.295571	0.169352	0.247993	0.182266	0.213624	0.220701	0.385548	0.351193	0.288496	0.148452	0.270292	0.157745	0.156491	0.352238	0.619540	0.288524	0.265386	0.155302	0.281699	0.660598	0.298432	0.159820	0.252753	0.067404	0.166572	0.249686	0.379445	0.133917	0.189334	0.073157	0.095024	0.308238	0.204565	0.262508	0.385209	0.426010	0.232067	0.140231	0.187972	0.089414	0.258902	0.125697	0.194680	0.134189	0.111527	0.105734	0.181740	0.437390	0.450609	0.194046	0.277630	0.287827	0.145506
31	0.191505	0.176380	0.370650	0.516019	0.212092	0.356708	0.135279	0.264545	0.277459	0.343381	0.064266	0.079021	0.169684	0.138199	0.298777	0.247920	0.170955	0.265100	0.297212	0.320640	0.105198	0.163534	0.235058	0.256119	0.147881	0.219362	0.362809	0.298052	0.152915	0.257038	0.134784	0.211966	0.215509	0.379468	0.351882	0.283094	0.163191	0.314056	0.143894	0.178072	0.349921	0.559081	0.391067	0.314709	0.160760	0.293478	0.648897	0.274322	0.153471	0.226651	0.076999	0.166163	0.243703	0.384674	0.129593	0.160038	0.077730	0.095246	0.312313	0.175280	0.258896	0.386572	0.459022	0.239700	0.173290	0.193934	0.082818	0.296328	0.156274	0.214310	0.070403	0.095985	0.109195	0.181349	0.416223	0.411426	0.189082	0.275397	0.190325	0.102966
32	0.188486	0.180798	0.370145	0.542759	0.210857	0.370371	0.104296	0.266860	0.299074	0.423031	0.064349	0.080479	0.152614	0.124906	0.201441	0.242732	0.153562	0.213809	0.304412	0.341805	0.106056	0.151377	0.184199	0.254898	0.156431	0.231692	0.363116	0.286270	0.146063	0.258852	0.092934	0.201663	0.180500	0.311369	0.314099	0.278526	0.161674	0.322648	0.151636	0.179878	0.350378	0.521583	0.405193	0.349634	0.153386	0.296543	0.605340	0.219240	0.153874	0.234417	0.075172	0.176658	0.231753	0.383506	0.127350	0.172834	0.084360	0.099456	0.312468	0.169344	0.247990	0.392047	0.461777	0.316590	0.211813	0.205869	0.121016	0.311078	0.151252	0.205033	0.070038	0.088279	0.103334	0.180640	0.407974	0.335906	0.193760	0.275597	0.127218	0.138336
33	0.190187	0.187750	0.404085	0.542287	0.202805	0.362817	0.098238	0.267546	0.299368	0.472229	0.067536	0.081902	0.141048	0.115689	0.155620	0.232461	0.153834	0.190563	0.332456	0.346772	0.100503	0.140057	0.172946	0.240685	0.170013	0.233976	0.360273	0.251797	0.157559	0.266974	0.086163	0.185995	0.157282	0.274956	0.248301	0.274230	0.162148	0.330580	0.176301	0.176682	0.375461	0.526044	0.428205	0.388531	0.130957	0.266531	0.454384	0.153875	0.150711	0.230284	0.069093	0.186880	0.220029	0.379791	0.134498	0.181258	0.090758	0.101625	0.311380	0.167133	0.215775	0.372814	0.498178	0.403968	0.417575	0.242846	0.195768	0.313311	0.211090	0.210180	0.079514	0.088751	0.098627	0.177684	0.364038	0.270804	0.201262	0.280844	0.086789	0.204057
34	0.194967	0.195154	0.501220	0.562330	0.202750	0.362750	0.097829	0.268146	0.317101	0.500225	0.077782	0.080144	0.127618	0.111282	0.149574	0.197795	0.182575	0.188607	0.351426	0.343818	0.090053	0.137117	0.171776	0.206976	0.162017	0.228536	0.336669	0.241178	0.166054	0.264162	0.089748	0.173357	0.162754	0.286311	0.265817	0.269781	0.171505	0.350353	0.198130	0.168401	0.345246	0.447547	0.470115	0.424146	0.138235	0.277529	0.258561	0.106998	0.153494	0.233544	0.067438	0.169532	0.207756	0.373001	0.141982	0.184412	0.089782	0.102345	0.316555	0.147439	0.193171	0.361839	0.571412	0.423076	0.545397	0.237785	0.230927	0.321326	0.225201	0.217998	0.088712	0.155589	0.133691	0.199049	0.261138	0.229753	0.209833	0.285950	0.077814	0.245372
35	0.195335	0.199107	0.588930	0.607690	0.202700	0.363188	0.093496	0.256821	0.317068	0.495804	0.120258	0.082928	0.129479	0.111981	0.117143	0.146825	0.198437	0.180133	0.351411	0.348152	0.091522	0.131319	0.149977	0.154989	0.155869	0.214260	0.298942	0.241726	0.179823	0.256070	0.092710	0.171212	0.146454	0.279680	0.307441	0.247353	0.173129	0.352253	0.200746	0.232708	0.319689	0.399939	0.496576	0.434393	0.146417	0.274278	0.126011	0.098138	0.153035	0.229920	0.096802	0.167186	0.195236	0.366766	0.142065	0.188922	0.086705	0.100594	0.300161	0.121366	0.210857	0.355836	0.578074	0.425324	0.624381	0.222438	0.234945	0.333399	0.233212	0.217558	0.091053	0.188982	0.163501	0.212015	0.172706	0.216161	0.201436	0.263310	0.078250	0.250020
36	0.178288	0.196422	0.618757	0.654341	0.202900	0.363573	0.090413	0.222893	0.314647	0.474397	0.203921	0.273889	0.133869	0.107613	0.081653	0.103473	0.225989	0.183659	0.345761	0.347446	0.095483	0.129064	0.105820	0.116817	0.138094	0.176868	0.277393	0.245479	0.233348	0.259036	0.084846	0.172493	0.145904	0.277027	0.288922	0.257871	0.173871	0.332207	0.194577	0.273816	0.328506	0.383572	0.487157	0.428430	0.190135	0.274196	0.106342	0.120390	0.135234	0.201227	0.107819	0.211501	0.189155	0.362144	0.141071	0.191512	0.088249	0.102384	0.316875	0.219226	0.213169	0.347469	0.568475	0.425999	0.732353	0.355729	0.237866	0.345227	0.298654	0.319646	0.090587	0.190191	0.166991	0.212317	0.139025	0.241845	0.181100	0.214908	0.083194	0.278304
37	0.150914	0.190663	0.622766	0.668565	0.208398	0.372235	0.079324	0.176726	0.313297	0.430767	0.227262	0.563402	0.133446	0.102943	0.076318	0.074355	0.265734	0.190910	0.341289	0.353728	0.089999	0.126259	0.060900	0.103611	0.140762	0.167837	0.296156	0.275652	0.283588	0.260350	0.093722	0.179270	0.146559	0.268993	0.322981	0.307025	0.170389	0.299049	0.194768	0.285518	0.336823	0.377473	0.493430	0.518347	0.207354	0.282660	0.106122	0.135820	0.106172	0.162705	0.192146	0.221856	0.187159	0.354071	0.137204	0.201285	0.111705	0.117676	0.448542	0.301604	0.187070	0.297072	0.563551	0.421701	1.009889	0.554761	0.264676	0.346915	0.457760	0.498869	0.093176	0.189129	0.168148	0.213046	0.202766	0.245313	0.178864	0.213091	0.094615	0.325908
38	0.158925	0.194336	0.646963	0.675286	0.215265	0.384947	0.075765	0.131060	0.315817	0.420720	0.226438	0.650932	0.126853	0.097007	0.085464	0.069964	0.308978	0.211421	0.347654	0.410043	0.103509	0.126402	0.046135	0.121603	0.142711	0.170328	0.303616	0.310881	0.292867	0.278810	0.108734	0.194156	0.155408	0.253815	0.409721	0.332588	0.175742	0.298528	0.207775	0.286327	0.336213	0.356064	0.510601	0.714795	0.238107	0.308748	0.106300	0.141705	0.106471	0.162714	0.236339	0.256678	0.179397	0.320551	0.127605	0.200023	0.155242	0.125959	0.553760	0.311060	0.177462	0.249739	0.571702	0.418317	1.049050	0.583926	0.332503	0.347448	0.466143	0.507078	0.128968	0.195439	0.178934	0.231958	0.279714	0.278265	0.156713	0.179923	0.095733	0.359870
39	0.157551	0.195427	0.644380	0.673703	0.201317	0.380243	0.090771	0.157160	0.313747	0.419635	0.232357	0.656875	0.148769	0.097907	0.077118	0.099064	0.370997	0.252988	0.355426	0.457727	0.105619	0.133090	0.047927	0.160042	0.147069	0.181670	0.340445	0.319277	0.336833	0.305073	0.116712	0.207866	0.170953	0.243680	0.472045	0.340241	0.180621	0.301187	0.216378	0.294592	0.335177	0.346182	0.515132	0.798718	0.301932	0.324685	0.109511	0.141331	0.112791	0.162886	0.283068	0.290022	0.174875	0.291091	0.120596	0.204049	0.166990	0.122288	0.569669	0.313452	0.187120	0.254682	0.581618	0.416944	1.051055	0.586829	0.387024	0.354844	0.464494	0.498254	0.170290	0.201742	0.207160	0.261132	0.327332	0.286040	0.152252	0.164827	0.093600	0.374591
40	0.160947	0.193061	0.643529	0.597206	0.195830	0.377659	0.089467	0.227221	0.299579	0.421277	0.293506	0.718041	0.179200	0.098774	0.067081	0.116165	0.392224	0.283871	0.346349	0.473002	0.107819	0.152722	0.042997	0.203028	0.148327	0.183083	0.350697	0.294933	0.378454	0.333229	0.144998	0.216657	0.201460	0.251502	0.508803	0.339643	0.180930	0.300203	0.217391	0.343188	0.348700	0.354741	0.537797	0.820309	0.310331	0.326680	0.112873	0.139813	0.113594	0.165720	0.375695	0.292729	0.158823	0.266925	0.120813	0.226308	0.168934	0.115710	0.553001	0.340213	0.193661	0.257199	0.510983	0.412632	1.053147	0.588301	0.433111	0.364019	0.464741	0.498758	0.214123	0.200818	0.222131	0.267394	0.333703	0.293492	0.166051	0.171118	0.089210	0.377586
41	0.164453	0.187133	0.614335	0.502951	0.191543	0.375363	0.095599	0.288568	0.306521	0.426036	0.350878	0.798620	0.190160	0.109732	0.062526	0.117009	0.406279	0.293687	0.336987	0.456485	0.102021	0.145708	0.038144	0.225801	0.148148	0.181358	0.349559	0.265843	0.407763	0.343300	0.155996	0.229878	0.220956	0.242829	0.513541	0.331179	0.168109	0.280218	0.218256	0.385839	0.365106	0.375957	0.562085	0.818199	0.307464	0.324613	0.109599	0.141793	0.125423	0.184739	0.398679	0.296907	0.128054	0.206544	0.125339	0.256828	0.168866	0.111521	0.595312	0.387417	0.198313	0.253205	0.481353	0.416659	1.052797	0.588682	0.474723	0.330338	0.465288	0.499117	0.233425	0.202284	0.223361	0.258579	0.352375	0.318679	0.173676	0.173979	0.084245	0.381517
42	0.155670	0.165894	0.604412	0.465011	0.177040	0.344829	0.123322	0.319429	0.371894	0.485178	0.355141	0.821480	0.196591	0.115479	0.079429	0.123153	0.430029	0.303874	0.342146	0.456769	0.092605	0.129545	0.047068	0.237455	0.144799	0.175909	0.335258	0.260942	0.408534	0.332376	0.159808	0.248946	0.221782	0.239327	0.517057	0.335400	0.170681	0.283175	0.206882	0.409798	0.361413	0.379452	0.537959	0.885618	0.304428	0.323736	0.102339	0.150084	0.123671	0.182605	0.443163	0.344619	0.129691	0.203671	0.169197	0.270980	0.178628	0.127174	0.695497	0.434207	0.196634	0.200953	0.493546	0.388385	1.052649	0.589054	0.483374	0.306911	0.465169	0.497234	0.234747	0.220367	0.226839	0.239377	0.396062	0.322888	0.174861	0.174168	0.081149	0.424987
43	0.143802	0.139913	0.597044	0.503036	0.173882	0.279647	0.172783	0.321746	0.442833	0.545977	0.371035	0.831130	0.196040	0.115339	0.122782	0.127679	0.438749	0.306280	0.342668	0.456529	0.092531	0.129986	0.073599	0.239412	0.126297	0.146550	0.327230	0.259913	0.401187	0.310737	0.185216	0.254790	0.219469	0.239420	0.517686	0.380943	0.173362	0.267142	0.208179	0.411797	0.337507	0.356947	0.534254	0.964829	0.303647	0.324318	0.096223	0.166849	0.121497	0.166982	0.510044	0.386250	0.131340	0.194964	0.212573	0.274802	0.200930	0.149732	0.751229	0.443552	0.219227	0.187946	0.492980	0.311312	1.052465	0.588031	0.501513	0.323597	0.461887	0.495775	0.261543	0.247999	0.227914	0.235022	0.438365	0.320861	0.173707	0.174800	0.097279	0.465361
44	0.141490	0.134195	0.528719	0.523394	0.174180	0.258070	0.208095	0.360434	0.492591	0.550028	0.396580	0.869201	0.220226	0.130950	0.140639	0.134964	0.435548	0.310386	0.318489	0.468959	0.092658	0.130061	0.178320	0.238380	0.101740	0.122534	0.327039	0.268824	0.418987	0.318471	0.238907	0.245067	0.219400	0.239388	0.516660	0.448433	0.177580	0.244962	0.211208	0.410739	0.302101	0.334224	0.499089	0.996972	0.302128	0.320914	0.088349	0.183762	0.138431	0.175746	0.527489	0.380418	0.123147	0.181749	0.224022	0.274940	0.225293	0.161138	0.768800	0.444253	0.224448	0.190966	0.410402	0.284125	1.052552	0.588125	0.602939	0.355336	0.456913	0.488680	0.303702	0.274620	0.263875	0.243997	0.442945	0.346839	0.164789	0.170971	0.137172	0.463126
45	0.137618	0.126155	0.439796	0.552440	0.151622	0.205566	0.212085	0.432090	0.487596	0.492779	0.402550	0.919040	0.287286	0.180921	0.147264	0.149967	0.428758	0.314018	0.291167	0.499770	0.093830	0.130085	0.220091	0.257117	0.107867	0.128059	0.323936	0.264367	0.443338	0.325375	0.273809	0.251003	0.219701	0.238833	0.524620	0.501276	0.180475	0.241795	0.195583	0.413831	0.294194	0.320069	0.466497	0.992591	0.305562	0.313697	0.083740	0.203927	0.191232	0.200435	0.537745	0.392101	0.131277	0.209735	0.226159	0.265257	0.228741	0.162045	0.775384	0.450323	0.201780	0.176030	0.393748	0.280294	1.052256	0.590331	0.719685	0.340095	0.456703	0.487990	0.323279	0.290534	0.279909	0.251365	0.446751	0.399885	0.166554	0.160809	0.168487	0.439866
46	0.144577	0.125341	0.431363	0.528758	0.165180	0.212854	0.218198	0.472034	0.499078	0.445028	0.498682	0.955529	0.329473	0.192685	0.147784	0.166161	0.438482	0.324812	0.288623	0.527945	0.092215	0.129896	0.237684	0.295943	0.110023	0.125522	0.292872	0.264352	0.443807	0.318392	0.277865	0.272338	0.217697	0.227114	0.578445	0.514461	0.175619	0.216289	0.167024	0.433153	0.284100	0.302461	0.491502	0.991402	0.311907	0.322160	0.097044	0.207197	0.215322	0.239129	0.544174	0.390558	0.139217	0.228427	0.247756	0.246674	0.228491	0.157965	0.778594	0.456963	0.193101	0.167957	0.391661	0.274409	1.053804	0.594297	0.773043	0.319331	0.435424	0.485168	0.322922	0.302388	0.283997	0.249886	0.466290	0.423327	0.152260	0.145577	0.171574	0.427198
47	0.167443	0.139410	0.441064	0.500636	0.177584	0.222519	0.233939	0.490981	0.500689	0.419602	0.635639	0.974660	0.379513	0.251924	0.166639	0.200916	0.480347	0.345847	0.280104	0.534630	0.091510	0.126228	0.242513	0.326972	0.107640	0.123852	0.289749	0.262215	0.450957	0.319133	0.281747	0.298336	0.233568	0.230566	0.604713	0.522400	0.170146	0.197302	0.140149	0.434972	0.279634	0.293152	0.542343	0.973117	0.305200	0.278548	0.113206	0.266922	0.269277	0.369978	0.542630	0.365916	0.135637	0.226039	0.271707	0.245663	0.226760	0.153239	0.776410	0.459991	0.193179	0.167297	0.391663	0.270579	1.006887	0.582103	0.773459	0.347483	0.427941	0.482979	0.319630	0.280698	0.287288	0.245515	0.501850	0.429596	0.143427	0.132063	0.171382	0.435189
48	0.175809	0.128930	0.414436	0.528559	0.186791	0.227658	0.243641	0.497101	0.701145	0.496035	0.643402	0.979032	0.513092	0.333417	0.208309	0.268440	0.514219	0.351759	0.306338	0.529063	0.090902	0.118012	0.247766	0.349074	0.100865	0.123882	0.283000	0.246859	0.457582	0.323656	0.285026	0.319914	0.247736	0.240247	0.609207	0.553776	0.162134	0.194647	0.144378	0.401142	0.272105	0.283727	0.543191	0.870782	0.306816	0.276652	0.114617	0.362451	0.284095	0.427197	0.517862	0.364170	0.133601	0.222030	0.282139	0.240299	0.226624	0.156956	0.777341	0.457741	0.189298	0.161195	0.380948	0.262109	0.941312	0.583478	0.763069	0.390782	0.428857	0.488506	0.319462	0.258061	0.301219	0.241488	0.524477	0.434801	0.146720	0.138095	0.167946	0.428131
49	0.181194	0.147590	0.415943	0.569111	0.189617	0.228801	0.247987	0.498916	0.926934	0.561883	0.670418	0.984040	0.551154	0.347353	0.218723	0.293953	0.542805	0.351792	0.430341	0.524298	0.090715	0.110851	0.283385	0.362636	0.101110	0.122418	0.277974	0.221978	0.466257	0.334369	0.283885	0.337993	0.252085	0.237777	0.613859	0.545928	0.148150	0.184585	0.144732	0.390321	0.273304	0.294743	0.528558	0.731574	0.291462	0.273428	0.114576	0.378114	0.320689	0.507256	0.502876	0.391667	0.133063	0.214387	0.283332	0.239428	0.225790	0.156944	0.770684	0.421397	0.179092	0.153573	0.333053	0.283090	0.879483	0.581749	0.762018	0.462119	0.399746	0.445673	0.319151	0.266506	0.342677	0.228338	0.524541	0.473964	0.146795	0.126510	0.164321	0.415083
50	0.180970	0.146334	0.416984	0.588947	0.186991	0.218243	0.249951	0.499186	0.950068	0.564993	0.760109	0.950898	0.555775	0.348050	0.218925	0.296854	0.549395	0.351497	0.507706	0.576118	0.088642	0.118535	0.314105	0.376478	0.113503	0.120562	0.241506	0.254498	0.471080	0.346045	0.283214	0.352331	0.250271	0.227896	0.573258	0.517309	0.138951	0.165365	0.132623	0.387876	0.264874	0.305993	0.531645	0.684751	0.274144	0.265265	0.116161	0.379965	0.343386	0.533393	0.537796	0.449020	0.134086	0.212329	0.282980	0.232237	0.217796	0.147774	0.712290	0.364558	0.170047	0.149284	0.255062	0.298610	0.851335	0.553988	0.782274	0.585226	0.186837	0.211827	0.318129	0.272223	0.473930	0.248697	0.539235	0.527642	0.148053	0.122619	0.176418	0.398636
51	0.185299	0.146316	0.410576	0.594684	0.178655	0.189406	0.249377	0.497628	0.951277	0.570507	0.866119	0.963364	0.555647	0.347339	0.219115	0.339929	0.555170	0.357684	0.529752	0.649080	0.084584	0.119521	0.319233	0.385275	0.182889	0.172099	0.235587	0.271883	0.445723	0.341417	0.283552	0.358926	0.235080	0.194747	0.512557	0.497960	0.133681	0.153419	0.109233	0.390770	0.240678	0.321987	0.442294	0.675331	0.258199	0.239897	0.123110	0.412612	0.354901	0.547248	0.587024	0.454591	0.136074	0.221005	0.281775	0.225784	0.189112	0.139941	0.644019	0.365501	0.172429	0.160836	0.254453	0.285085	0.460304	0.329016	0.818490	0.644109	0.156557	0.153287	0.306362	0.266976	0.538756	0.258902	0.556426	0.560775	0.140891	0.117108	0.185483	0.388982
52	0.186823	0.146677	0.405071	0.593843	0.178927	0.179009	0.239538	0.485120	0.955404	0.571593	0.913143	1.042640	0.554721	0.349547	0.216359	0.428185	0.594447	0.380098	0.534887	0.674727	0.079528	0.120186	0.321781	0.387059	0.205463	0.192340	0.237573	0.269302	0.436841	0.338370	0.274144	0.354011	0.217184	0.183452	0.467238	0.493178	0.139235	0.161396	0.102329	0.369695	0.251401	0.303524	0.382717	0.608811	0.208489	0.214873	0.123723	0.436038	0.389200	0.578203	0.646053	0.473951	0.135125	0.224855	0.281180	0.224567	0.175043	0.138904	0.627172	0.378430	0.171264	0.152875	0.235475	0.267165	0.238985	0.208552	0.815941	0.646253	0.171096	0.154928	0.286488	0.261017	0.571961	0.262374	0.557205	0.554807	0.127625	0.108243	0.222165	0.409620
53	0.208281	0.148616	0.393547	0.571373	0.176040	0.176124	0.235308	0.457719	0.957485	0.573886	0.904093	1.072785	0.552178	0.350215	0.216537	0.493285	0.565294	0.372749	0.530147	0.648037	0.064706	0.121664	0.327070	0.380578	0.217012	0.202364	0.227604	0.302015	0.424391	0.319165	0.270733	0.342576	0.180091	0.162237	0.435845	0.501685	0.138831	0.171639	0.101760	0.329866	0.355762	0.328898	0.379601	0.439784	0.160624	0.203455	0.149250	0.437288	0.411326	0.603096	0.642412	0.441116	0.132622	0.228786	0.281723	0.211635	0.171853	0.137280	0.624956	0.357367	0.125075	0.124629	0.150583	0.259095	0.212969	0.191310	0.798175	0.643870	0.181128	0.152176	0.256827	0.260249	0.619552	0.246270	0.554489	0.544583	0.120598	0.105202	0.296820	0.422825
54	0.215356	0.155001	0.423029	0.559811	0.174992	0.175350	0.233211	0.420182	0.974473	0.584152	0.882840	1.048253	0.555243	0.366557	0.217494	0.508184	0.567205	0.372463	0.555781	0.628650	0.064390	0.106643	0.332877	0.362075	0.224910	0.205452	0.198206	0.346127	0.384083	0.291750	0.264436	0.331473	0.159878	0.152362	0.435147	0.514993	0.138770	0.173889	0.095746	0.286474	0.379707	0.334818	0.378858	0.231348	0.169921	0.214717	0.153410	0.440574	0.428940	0.606542	0.612367	0.406848	0.128128	0.228430	0.284844	0.175340	0.171141	0.137134	0.598579	0.311702	0.117398	0.131973	0.135925	0.257521	0.232290	0.205573	0.797655	0.651397	0.184894	0.150864	0.241211	0.259712	0.700095	0.255797	0.550853	0.546572	0.119253	0.106318	0.321056	0.374033
55	0.242819	0.287469	0.458981	0.493806	0.168742	0.165262	0.221401	0.394924	0.974136	0.550612	0.885647	1.039009	0.561979	0.376580	0.218579	0.506715	0.559253	0.358170	0.617684	0.663057	0.061227	0.081933	0.338767	0.344808	0.286947	0.236227	0.206707	0.381299	0.345841	0.254291	0.252184	0.320932	0.158183	0.154143	0.431220	0.524975	0.126077	0.158824	0.103873	0.256707	0.378847	0.332813	0.379202	0.111518	0.168778	0.217167	0.155322	0.439103	0.458360	0.612357	0.644095	0.433996	0.116619	0.219291	0.276691	0.156890	0.173217	0.127774	0.524337	0.337821	0.125325	0.135411	0.160574	0.258164	0.259163	0.219126	0.789737	0.688803	0.190625	0.153078	0.240365	0.246163	0.756701	0.259595	0.563793	0.564080	0.121894	0.148952	0.316225	0.337557
56	0.270362	0.498143	0.392056	0.433508	0.144859	0.148282	0.189389	0.390791	0.961728	0.500365	0.899217	1.035694	0.564419	0.379858	0.227009	0.509558	0.554743	0.354234	0.650373	0.699229	0.061568	0.076245	0.345910	0.350208	0.391929	0.329836	0.225072	0.398370	0.316413	0.220390	0.252294	0.308741	0.160936	0.154431	0.430774	0.521201	0.101917	0.145487	0.090224	0.246787	0.419981	0.326020	0.369230	0.153317	0.169484	0.211917	0.177148	0.437409	0.455991	0.602129	0.657630	0.474411	0.106468	0.226420	0.237574	0.155235	0.186861	0.102884	0.439924	0.467895	0.132666	0.143524	0.178733	0.259388	0.264746	0.219788	0.782526	0.699258	0.196394	0.162523	0.213900	0.218753	0.764203	0.259957	0.585115	0.595676	0.110279	0.158756	0.312038	0.340152
57	0.336845	0.625676	0.357601	0.430984	0.130658	0.144526	0.159151	0.360275	0.934137	0.481860	0.909598	1.005363	0.565439	0.381033	0.226877	0.510781	0.549670	0.351353	0.649273	0.714903	0.061983	0.079403	0.352342	0.380403	0.529512	0.459532	0.230873	0.398080	0.312642	0.206830	0.248630	0.291325	0.160567	0.153912	0.432602	0.496786	0.094965	0.138944	0.087409	0.246264	0.429757	0.328311	0.283542	0.224025	0.170950	0.205914	0.210131	0.432112	0.451116	0.589195	0.654179	0.529164	0.108412	0.224176	0.207835	0.228224	0.172060	0.102879	0.496144	0.572955	0.132573	0.142672	0.180149	0.262889	0.270492	0.222911	0.778526	0.695381	0.188605	0.160332	0.146501	0.182092	0.767273	0.262699	0.591948	0.603546	0.112851	0.202738	0.349644	0.351775
58	0.330012	0.668444	0.353618	0.387991	0.133613	0.148063	0.153860	0.295238	0.951432	0.509128	0.919945	0.962500	0.564977	0.381012	0.217138	0.510342	0.547708	0.350935	0.647651	0.720935	0.062794	0.083178	0.341864	0.403626	0.587844	0.480115	0.227852	0.396419	0.309747	0.198037	0.222195	0.284041	0.161124	0.155595	0.409343	0.461202	0.093683	0.146939	0.085654	0.221777	0.437831	0.334348	0.187788	0.315037	0.167547	0.203293	0.296508	0.424446	0.425157	0.515912	0.657410	0.562806	0.103612	0.214371	0.204015	0.339539	0.215010	0.163722	0.623725	0.595514	0.133799	0.146312	0.213012	0.253203	0.275031	0.222796	0.730222	0.681080	0.187626	0.154262	0.087336	0.155367	0.759997	0.260182	0.590735	0.595979	0.119488	0.213014	0.375057	0.344554
59	0.321587	0.663670	0.342647	0.316122	0.126439	0.148197	0.160988	0.329254	0.996813	0.553068	0.886530	0.925653	0.549077	0.374302	0.213293	0.508707	0.548880	0.351345	0.661019	0.711990	0.070687	0.093082	0.303040	0.410460	0.592538	0.482895	0.214078	0.385554	0.269032	0.175842	0.159339	0.281893	0.146884	0.146059	0.326993	0.456906	0.093639	0.150918	0.083700	0.175329	0.483662	0.394506	0.168294	0.515499	0.186274	0.189723	0.357400	0.422379	0.444857	0.518341	0.658493	0.569173	0.091518	0.180272	0.193375	0.389511	0.314714	0.247414	0.714380	0.591633	0.133674	0.146059	0.241044	0.198899	0.289486	0.229045	0.647057	0.670816	0.189185	0.162345	0.076690	0.127705	0.749924	0.252100	0.603627	0.590191	0.141404	0.212432	0.375770	0.330906
60	0.320252	0.663019	0.327237	0.264389	0.117234	0.151666	0.201706	0.428540	1.052513	0.570693	0.791192	0.905872	0.518559	0.366235	0.214185	0.504217	0.550519	0.353728	0.677232	0.682653	0.082804	0.107143	0.294693	0.393112	0.633418	0.494377	0.217773	0.376534	0.243555	0.166533	0.115145	0.267327	0.106127	0.131766	0.293597	0.455178	0.085809	0.157140	0.073544	0.157617	0.500181	0.396277	0.143044	0.687714	0.205998	0.176155	0.369742	0.417689	0.436177	0.573324	0.656762	0.532204	0.202557	0.307939	0.157139	0.396696	0.444713	0.329675	0.729328	0.628243	0.132014	0.142465	0.245249	0.210005	0.275347	0.215594	0.591160	0.674312	0.182830	0.158056	0.079104	0.115765	0.749602	0.253103	0.652596	0.631111	0.166192	0.209986	0.375970	0.307293
61	0.317658	0.663016	0.337211	0.244230	0.112914	0.169662	0.269519	0.482770	1.004815	0.535284	0.775720	0.901316	0.502730	0.365951	0.228927	0.498848	0.539638	0.351072	0.680184	0.661175	0.100828	0.118040	0.298114	0.363892	0.653609	0.505473	0.290413	0.344290	0.241636	0.166368	0.116567	0.244847	0.075033	0.121633	0.272530	0.449077	0.084959	0.154723	0.069027	0.150251	0.494516	0.383824	0.165815	0.771669	0.209751	0.175174	0.369267	0.348720	0.451977	0.649383	0.603895	0.467443	0.282168	0.408655	0.123583	0.401570	0.460779	0.340025	0.764160	0.734912	0.122404	0.143121	0.239077	0.242512	0.274151	0.212564	0.564267	0.680757	0.170361	0.142342	0.073928	0.114609	0.749102	0.254839	0.688348	0.681853	0.168897	0.212615	0.375467	0.277540
62	0.319568	0.663378	0.354005	0.247313	0.128366	0.175187	0.315932	0.484337	0.809194	0.480690	0.740582	0.878103	0.426751	0.317061	0.215840	0.480664	0.501628	0.339003	0.677613	0.671982	0.109294	0.121858	0.303203	0.338052	0.788926	0.506565	0.315191	0.331443	0.221058	0.156166	0.114122	0.229104	0.082069	0.133436	0.274211	0.477907	0.082581	0.155597	0.068074	0.149021	0.492779	0.348168	0.193698	0.796226	0.210658	0.172842	0.401155	0.289475	0.479438	0.743631	0.498561	0.460263	0.285382	0.410990	0.126740	0.420504	0.467140	0.345847	0.838211	0.840258	0.098217	0.150526	0.226722	0.246423	0.263846	0.198617	0.570231	0.679035	0.167019	0.143222	0.072789	0.088794	0.741191	0.248619	0.697042	0.712431	0.170895	0.219083	0.369555	0.269948
63	0.308415	0.663929	0.353741	0.269193	0.151931	0.188483	0.317618	0.521490	0.798135	0.505779	0.643201	0.786764	0.283752	0.253360	0.182562	0.448496	0.461099	0.336557	0.646564	0.707438	0.110795	0.123547	0.297375	0.317928	0.878943	0.549926	0.319579	0.333133	0.211843	0.133736	0.118223	0.229048	0.112621	0.153879	0.278069	0.494688	0.096791	0.178510	0.068554	0.141246	0.443155	0.342144	0.217967	0.945116	0.213102	0.173647	0.471944	0.288270	0.446154	0.713806	0.402847	0.437581	0.297573	0.429400	0.184879	0.439561	0.508360	0.371518	0.868367	0.888238	0.096477	0.143202	0.227616	0.243109	0.256643	0.188454	0.592259	0.668996	0.166822	0.147067	0.073544	0.064841	0.730259	0.244057	0.700817	0.703376	0.175461	0.223790	0.366819	0.271966
64	0.307523	0.664263	0.341084	0.260490	0.158133	0.188361	0.345738	0.577887	0.811571	0.508444	0.513609	0.706822	0.231287	0.240836	0.186288	0.438268	0.426856	0.329681	0.598508	0.824109	0.115719	0.141990	0.260620	0.301991	0.879889	0.587465	0.328363	0.328528	0.190442	0.102604	0.119408	0.226267	0.136472	0.160082	0.271209	0.500042	0.083501	0.177063	0.068718	0.127352	0.387954	0.333547	0.222388	1.075460	0.231167	0.203173	0.517285	0.255985	0.441905	0.697600	0.356076	0.446423	0.298522	0.429929	0.234642	0.464907	0.586963	0.414931	0.871680	0.889140	0.093692	0.129356	0.235884	0.270142	0.257419	0.195474	0.577559	0.632140	0.157927	0.151874	0.125828	0.133503	0.650939	0.222635	0.694867	0.653468	0.190687	0.229422	0.338313	0.233346
65	0.299981	0.646504	0.272384	0.264174	0.159075	0.189770	0.397840	0.612943	0.808095	0.506439	0.496570	0.644382	0.229076	0.245718	0.217216	0.433859	0.428689	0.334293	0.633779	0.866428	0.121050	0.147795	0.240472	0.283033	0.895325	0.599848	0.361105	0.301675	0.162976	0.072495	0.126168	0.238694	0.137713	0.160881	0.278293	0.571426	0.085064	0.171193	0.068205	0.095648	0.391262	0.330524	0.314178	1.150758	0.240807	0.195785	0.526726	0.188124	0.428174	0.696902	0.327214	0.450319	0.305502	0.446548	0.276188	0.489252	0.652975	0.452152	0.866001	0.881655	0.114750	0.147682	0.244727	0.273530	0.276655	0.225049	0.534343	0.587068	0.138029	0.152214	0.180647	0.188714	0.593495	0.214609	0.674343	0.636664	0.247975	0.302479	0.280403	0.217778
66	0.272222	0.478035	0.261406	0.267138	0.199715	0.246346	0.431561	0.620719	0.811080	0.502002	0.583430	0.726127	0.229812	0.263494	0.227783	0.385215	0.398313	0.327003	0.669175	0.824763	0.122255	0.148222	0.274321	0.285711	0.901546	0.613874	0.361992	0.252882	0.132228	0.078549	0.168857	0.289188	0.137254	0.164556	0.314417	0.682282	0.086593	0.166249	0.066901	0.061718	0.379307	0.344461	0.433953	1.176561	0.296440	0.223495	0.524134	0.173276	0.390199	0.688880	0.260787	0.454709	0.306406	0.446976	0.306270	0.507052	0.684298	0.476579	0.870339	0.882405	0.178469	0.241545	0.241520	0.275389	0.285471	0.239748	0.516359	0.604569	0.149983	0.186960	0.195114	0.194141	0.548505	0.200407	0.670794	0.698171	0.267437	0.331208	0.270843	0.305013
67	0.228174	0.377507	0.287666	0.325523	0.210668	0.261735	0.438218	0.622469	0.825637	0.499832	0.635097	0.844618	0.228299	0.274164	0.229107	0.276111	0.354194	0.327877	0.721679	0.804660	0.118286	0.152495	0.335375	0.316817	0.862969	0.573644	0.351237	0.223050	0.124033	0.090063	0.245896	0.320675	0.154243	0.165116	0.351148	0.729207	0.085484	0.172910	0.047644	0.048302	0.367240	0.348183	0.455086	1.171614	0.291642	0.231019	0.517533	0.164786	0.370344	0.688305	0.232231	0.483025	0.307757	0.449647	0.311624	0.512500	0.692125	0.490969	0.867050	0.896562	0.184204	0.251544	0.243284	0.278767	0.300145	0.255790	0.513552	0.615325	0.163359	0.226617	0.191096	0.200437	0.520608	0.193157	0.716415	0.785172	0.268534	0.309224	0.276498	0.315636
68	0.220885	0.124795	0.287681	0.452550	0.216288	0.300454	0.445463	0.622939	0.879679	0.518076	0.635372	0.904518	0.230635	0.276185	0.229691	0.154134	0.367926	0.342057	0.743157	0.832523	0.118914	0.158368	0.349744	0.323095	0.785723	0.475312	0.355412	0.219938	0.130082	0.098195	0.273195	0.323640	0.228313	0.173373	0.360197	0.726061	0.085861	0.173278	0.026071	0.052590	0.361243	0.334106	0.463993	1.159126	0.320590	0.291556	0.517084	0.158848	0.369553	0.688523	0.235432	0.585373	0.321772	0.449939	0.312565	0.509765	0.699293	0.564587	0.842846	0.881832	0.185942	0.253814	0.238110	0.286747	0.299337	0.258435	0.485725	0.610997	0.162841	0.231871	0.195862	0.218583	0.385231	0.152811	0.825817	0.917912	0.287725	0.307095	0.254737	0.300108
69	0.311337	0.179084	0.290080	0.495707	0.218482	0.299682	0.464411	0.624010	0.902411	0.530371	0.660993	0.935481	0.216257	0.300664	0.231096	0.111213	0.324277	0.317748	0.710119	0.864716	0.127673	0.167420	0.352171	0.324172	0.745401	0.457706	0.377193	0.225687	0.130467	0.095709	0.274140	0.326170	0.309131	0.174947	0.435013	0.785137	0.107123	0.185553	0.026973	0.057040	0.346459	0.295133	0.490116	1.115341	0.357429	0.346611	0.512869	0.154124	0.370878	0.689460	0.235102	0.581039	0.321982	0.444704	0.311724	0.504429	0.692593	0.678427	0.839071	0.816820	0.205400	0.267701	0.224715	0.282858	0.281833	0.249061	0.456938	0.564055	0.150042	0.224323	0.229938	0.234067	0.231951	0.141818	0.918976	0.975438	0.299625	0.275464	0.190102	0.294433
70	0.321278	0.185081	0.310593	0.489681	0.231788	0.299872	0.478396	0.623337	0.910206	0.541185	0.728845	0.938256	0.191435	0.295949	0.230801	0.116571	0.325954	0.314745	0.696538	0.867184	0.134739	0.172097	0.349736	0.332940	0.741125	0.454745	0.474863	0.340380	0.130510	0.095486	0.275952	0.355826	0.405492	0.193629	0.510171	0.860352	0.130630	0.211617	0.027685	0.063911	0.303748	0.219431	0.494054	1.025649	0.357050	0.352287	0.503004	0.141798	0.339705	0.651324	0.260426	0.599120	0.319413	0.439240	0.311525	0.490789	0.693687	0.701956	0.792455	0.747193	0.286545	0.355722	0.219580	0.252509	0.278830	0.247729	0.454064	0.556989	0.139843	0.214461	0.271322	0.235614	0.183122	0.143104	0.931285	0.954908	0.309161	0.275019	0.171548	0.322544
71	0.326627	0.190387	0.380138	0.533535	0.252360	0.314423	0.479505	0.614999	0.896807	0.521981	0.802933	0.942763	0.181503	0.297920	0.224520	0.114682	0.311432	0.307168	0.787017	0.864249	0.135886	0.171152	0.366178	0.337866	0.708037	0.443212	0.502396	0.412510	0.134934	0.129623	0.274061	0.402719	0.435159	0.270642	0.554477	0.897969	0.130710	0.213346	0.036677	0.068831	0.298453	0.212135	0.486493	0.928330	0.357817	0.356647	0.478086	0.142827	0.318093	0.537744	0.272191	0.618148	0.318150	0.436382	0.318989	0.431493	0.713911	0.769435	0.689960	0.744017	0.289130	0.358907	0.217914	0.219921	0.279629	0.246523	0.454298	0.579719	0.140386	0.213774	0.279521	0.234970	0.281103	0.174764	0.901524	0.977548	0.303624	0.274774	0.171433	0.348403
72	0.324382	0.193700	0.390360	0.574455	0.292757	0.399998	0.476250	0.568105	0.855977	0.478440	0.850727	0.955919	0.183105	0.304706	0.217041	0.127499	0.301882	0.304876	0.909195	0.860935	0.147383	0.178568	0.401117	0.337888	0.687321	0.429044	0.499932	0.458457	0.161774	0.226456	0.275045	0.433801	0.435643	0.296173	0.544935	0.903039	0.133629	0.215202	0.043408	0.068096	0.298365	0.219803	0.470256	0.911521	0.355836	0.365582	0.420679	0.142984	0.270648	0.405972	0.327699	0.619013	0.318680	0.431950	0.329713	0.358730	0.689790	0.752259	0.586326	0.762807	0.291994	0.352876	0.215367	0.196288	0.277650	0.245584	0.464251	0.638300	0.139468	0.209343	0.279557	0.234506	0.340976	0.184140	0.912714	1.045035	0.297616	0.272074	0.174374	0.358833
73	0.324723	0.202857	0.400910	0.573202	0.317294	0.483949	0.454958	0.479945	0.776134	0.450598	0.858694	1.014081	0.183694	0.304892	0.211618	0.126971	0.310466	0.310507	0.974154	0.855854	0.172260	0.211678	0.440232	0.337724	0.498716	0.407760	0.602096	0.479215	0.167102	0.245652	0.279652	0.444440	0.451609	0.298987	0.529402	0.894836	0.136390	0.215438	0.085110	0.084262	0.284029	0.250145	0.460304	0.821590	0.343819	0.376841	0.391401	0.161658	0.212460	0.206025	0.453870	0.648804	0.304347	0.417831	0.354621	0.334709	0.611220	0.720838	0.560629	0.744971	0.292525	0.353801	0.212419	0.197689	0.255982	0.231616	0.453661	0.677365	0.140030	0.210848	0.278945	0.234614	0.483406	0.199524	0.949017	1.092917	0.313155	0.269500	0.175421	0.365419
74	0.326398	0.219131	0.407176	0.556903	0.315822	0.482258	0.436349	0.407366	0.718212	0.436396	0.866799	1.080592	0.181920	0.295115	0.209905	0.132255	0.308163	0.310545	0.978911	0.858464	0.195197	0.267684	0.461574	0.334794	0.317411	0.335989	0.713549	0.475834	0.169340	0.271154	0.297247	0.445303	0.452076	0.305011	0.551951	0.889660	0.172306	0.269453	0.149846	0.113272	0.286440	0.294657	0.454624	0.623929	0.346944	0.394900	0.386765	0.200766	0.214022	0.207366	0.583747	0.661983	0.199517	0.257927	0.382480	0.333355	0.606079	0.714488	0.519431	0.647504	0.291062	0.354342	0.200866	0.171494	0.262331	0.229173	0.443791	0.692021	0.165893	0.252884	0.281496	0.234181	0.553713	0.216359	0.970942	1.096447	0.327355	0.273086	0.174891	0.364682
75	0.326935	0.224934	0.400001	0.545659	0.309352	0.484022	0.432821	0.401732	0.689949	0.417596	0.880346	1.127745	0.177764	0.282455	0.205887	0.149692	0.320376	0.323634	0.970403	0.861904	0.223916	0.330895	0.454520	0.336136	0.309986	0.277567	0.759509	0.494182	0.170557	0.276217	0.324822	0.444515	0.499624	0.362270	0.569564	0.876532	0.173554	0.289402	0.184189	0.140194	0.297394	0.304044	0.438045	0.418076	0.341545	0.396121	0.375892	0.231239	0.192676	0.196022	0.631797	0.664832	0.176878	0.242230	0.395676	0.316872	0.603718	0.712205	0.382405	0.500207	0.281565	0.357085	0.171418	0.165535	0.269287	0.272823	0.456992	0.680505	0.198264	0.309381	0.283913	0.235881	0.566517	0.223897	0.977810	1.070817	0.323984	0.267613	0.175025	0.358697
76	0.322389	0.232152	0.402671	0.543390	0.300774	0.479758	0.434973	0.358221	0.683990	0.388838	0.880402	1.162938	0.181985	0.299413	0.186225	0.159287	0.334224	0.321098	0.986262	0.854222	0.224081	0.359159	0.449007	0.336925	0.254456	0.247158	0.745710	0.629177	0.171893	0.278050	0.334616	0.440987	0.734758	0.474977	0.576589	0.869147	0.171740	0.279692	0.187785	0.147233	0.272146	0.301694	0.321840	0.277473	0.350192	0.397772	0.307550	0.249072	0.234631	0.205014	0.631345	0.692261	0.179038	0.257938	0.384571	0.290805	0.588748	0.735049	0.326528	0.405852	0.243947	0.300900	0.157749	0.164069	0.371694	0.339201	0.450623	0.663457	0.199228	0.312863	0.284895	0.238189	0.672062	0.283698	0.970695	1.048836	0.307142	0.260064	0.172855	0.357836
77	0.316293	0.234529	0.396142	0.528609	0.296522	0.484124	0.435987	0.272852	0.669472	0.386339	0.871167	1.180254	0.181930	0.304164	0.182374	0.161627	0.368776	0.317234	1.010976	0.841361	0.244910	0.378099	0.449948	0.337251	0.175238	0.175204	0.767907	0.792708	0.175074	0.278178	0.332010	0.433172	0.853205	0.550036	0.570702	0.863772	0.169887	0.277523	0.225088	0.150335	0.243255	0.288676	0.219299	0.245322	0.342342	0.393543	0.189518	0.247400	0.267532	0.227812	0.631495	0.720931	0.169922	0.237685	0.355304	0.255092	0.536300	0.758222	0.324518	0.436475	0.238972	0.291442	0.153458	0.151482	0.464218	0.356670	0.423845	0.645492	0.215131	0.317874	0.273382	0.217421	0.748969	0.314390	0.963429	1.037819	0.263974	0.153687	0.170475	0.340823
78	0.283716	0.229724	0.394093	0.425760	0.299666	0.507194	0.397383	0.190789	0.685663	0.400617	0.837694	1.155297	0.179889	0.304783	0.184618	0.162402	0.377230	0.318659	1.017830	0.808852	0.281190	0.454511	0.450242	0.337215	0.198379	0.175310	0.823884	0.906018	0.164243	0.289266	0.328986	0.421664	0.863207	0.556311	0.567373	0.803574	0.189940	0.281038	0.259293	0.153351	0.237148	0.294514	0.212924	0.241452	0.335818	0.374601	0.118401	0.262564	0.262883	0.220839	0.642204	0.729005	0.176763	0.222086	0.329890	0.201567	0.455553	0.755030	0.334049	0.491751	0.237684	0.288377	0.116341	0.138936	0.464121	0.355465	0.417442	0.592444	0.249266	0.346058	0.248024	0.174212	0.779324	0.323808	0.961907	1.036345	0.251456	0.114119	0.149138	0.264409
79	0.176473	0.182599	0.375083	0.348008	0.279377	0.502738	0.358833	0.159858	0.677665	0.402807	0.771941	1.050481	0.181844	0.308698	0.168535	0.172583	0.380971	0.325401	0.982990	0.678365	0.281127	0.453968	0.454666	0.337713	0.283720	0.233937	0.898870	0.944333	0.158741	0.294166	0.329806	0.410012	0.870725	0.556081	0.547874	0.703484	0.244466	0.302394	0.271941	0.186427	0.217079	0.302751	0.157321	0.238845	0.297886	0.371367	0.100194	0.284948	0.252677	0.214956	0.650709	0.643945	0.174181	0.200815	0.304080	0.141055	0.407438	0.754644	0.358745	0.514859	0.225123	0.279278	0.071347	0.129338	0.459184	0.349100	0.411429	0.561255	0.242539	0.341037	0.249290	0.165941	0.791136	0.323003	0.961948	1.027544	0.247396	0.114260	0.152946	0.242718
80	0.151575	0.179670	0.372057	0.340122	0.279110	0.500292	0.349559	0.152588	0.642484	0.388732	0.727524	0.918297	0.196216	0.318840	0.127144	0.187749	0.369274	0.318262	0.939399	0.617293	0.286893	0.457420	0.453580	0.342415	0.330919	0.255814	0.906914	0.950092	0.156628	0.292204	0.334946	0.385393	0.866206	0.553068	0.538728	0.674160	0.294773	0.319645	0.283271	0.214915	0.269340	0.335443	0.114929	0.218003	0.326946	0.357062	0.098295	0.291001	0.241276	0.208609	0.647702	0.633587	0.174521	0.193515	0.293907	0.085093	0.411811	0.766672	0.350496	0.509715	0.100530	0.154736	0.072117	0.128812	0.453454	0.337183	0.386805	0.577740	0.291680	0.357576	0.257948	0.158465	0.789284	0.320853	0.952792	0.991801	0.228153	0.126878	0.172755	0.241462
81	0.129487	0.171267	0.298352	0.285336	0.336122	0.500173	0.342306	0.155663	0.524119	0.349391	0.721400	0.846772	0.205368	0.306648	0.147194	0.222384	0.459909	0.341481	0.907897	0.626915	0.293879	0.459775	0.424444	0.334469	0.360779	0.260573	0.859331	0.917600	0.154415	0.291575	0.325797	0.344837	0.850235	0.557395	0.551500	0.640247	0.321050	0.332281	0.293617	0.213407	0.339582	0.365345	0.117153	0.196335	0.334776	0.342952	0.102077	0.294351	0.249183	0.215417	0.635890	0.612387	0.160324	0.189465	0.308073	0.077887	0.422264	0.744348	0.370705	0.566335	0.084855	0.131073	0.072390	0.129860	0.445659	0.327413	0.368421	0.626114	0.354803	0.364185	0.255179	0.134737	0.790563	0.321163	0.913107	0.959848	0.198216	0.143291	0.160384	0.229779
82	0.128824	0.171838	0.246968	0.175397	0.336641	0.517702	0.319803	0.157115	0.462416	0.328785	0.717862	0.816677	0.211271	0.301737	0.166652	0.295139	0.580155	0.360556	0.871427	0.619392	0.303132	0.459864	0.381902	0.322918	0.367903	0.259399	0.845119	0.959674	0.148815	0.287516	0.284475	0.327501	0.848244	0.587827	0.502066	0.520884	0.321569	0.310930	0.295763	0.214661	0.341292	0.363485	0.121193	0.188761	0.302921	0.267733	0.114728	0.294402	0.255627	0.221429	0.631419	0.612326	0.141336	0.189491	0.318239	0.070749	0.433097	0.648411	0.410872	0.629490	0.071968	0.127253	0.068760	0.129027	0.446593	0.318227	0.369865	0.637407	0.360028	0.364033	0.240334	0.103212	0.802176	0.320328	0.818127	0.879528	0.181891	0.155949	0.149686	0.177866
83	0.129746	0.162018	0.232843	0.208033	0.336039	0.527662	0.295187	0.160341	0.424419	0.291038	0.682313	0.813507	0.193691	0.305949	0.165883	0.316126	0.648685	0.365445	0.859999	0.578997	0.301832	0.468728	0.374137	0.324242	0.367853	0.261680	0.818866	1.007148	0.146262	0.286341	0.269745	0.330798	0.840171	0.597891	0.435546	0.408900	0.359615	0.311450	0.305788	0.212472	0.339975	0.353481	0.154360	0.190442	0.291117	0.238286	0.118454	0.295370	0.247344	0.202376	0.601583	0.617575	0.142723	0.189800	0.325817	0.061117	0.438804	0.620654	0.428573	0.654116	0.071383	0.123918	0.074760	0.110029	0.454218	0.344142	0.368876	0.637212	0.363591	0.364709	0.230045	0.108597	0.806956	0.322148	0.701801	0.775407	0.178157	0.159263	0.151985	0.132742
84	0.123125	0.142958	0.201020	0.319313	0.321050	0.520452	0.291690	0.160592	0.483646	0.300222	0.581012	0.823038	0.188429	0.295086	0.173015	0.316358	0.662698	0.370503	0.858233	0.564276	0.302555	0.473253	0.381367	0.320926	0.371406	0.280980	0.733283	1.014756	0.146548	0.289704	0.268046	0.325362	0.842505	0.567636	0.426729	0.352941	0.407464	0.321610	0.335540	0.212287	0.333958	0.314007	0.180053	0.192032	0.297672	0.250424	0.119957	0.296427	0.243601	0.179500	0.515054	0.585611	0.144195	0.195753	0.324537	0.055654	0.414512	0.523407	0.530746	0.634295	0.091761	0.135274	0.104456	0.091259	0.536068	0.386557	0.388150	0.629314	0.371597	0.365949	0.247050	0.137458	0.806941	0.324692	0.624097	0.765076	0.164880	0.169312	0.147098	0.110621
85	0.120696	0.137017	0.199647	0.344736	0.315488	0.477470	0.297656	0.156142	0.558833	0.322962	0.508998	0.832613	0.213205	0.304250	0.212067	0.320614	0.759557	0.415600	0.807408	0.537679	0.306314	0.472863	0.395392	0.301818	0.384623	0.277399	0.636728	1.024675	0.147265	0.298879	0.265420	0.282065	0.851156	0.560584	0.494062	0.349662	0.417726	0.318177	0.371131	0.216396	0.334537	0.324332	0.189834	0.190020	0.299302	0.254169	0.120857	0.293760	0.247414	0.180099	0.404163	0.571044	0.142952	0.196756	0.315749	0.063592	0.434199	0.520115	0.603860	0.618296	0.131317	0.128661	0.119099	0.112661	0.570510	0.397374	0.444808	0.613037	0.371168	0.365083	0.251573	0.171145	0.782414	0.315296	0.633580	0.746366	0.120634	0.184282	0.144279	0.094643
86	0.147791	0.144476	0.200878	0.349797	0.406163	0.453226	0.301677	0.151232	0.570979	0.316896	0.543023	0.770256	0.214563	0.298763	0.291259	0.331814	0.795092	0.434785	0.687056	0.516738	0.309304	0.473174	0.385484	0.259362	0.437842	0.294107	0.651973	1.020245	0.148113	0.282066	0.264740	0.212891	0.846405	0.563338	0.568223	0.350885	0.409747	0.303348	0.371044	0.212819	0.338727	0.305567	0.195322	0.202008	0.298081	0.295538	0.116483	0.286710	0.285301	0.196608	0.346625	0.583904	0.140497	0.199355	0.305281	0.072401	0.453032	0.526019	0.622014	0.658713	0.144818	0.129529	0.124223	0.127116	0.592158	0.418559	0.455029	0.565287	0.371885	0.364499	0.251604	0.188396	0.758173	0.300799	0.629818	0.664931	0.092485	0.179072	0.143161	0.107959
87	0.149133	0.153682	0.250151	0.388512	0.504862	0.478527	0.287893	0.152457	0.587760	0.309064	0.563886	0.716527	0.209671	0.292033	0.336964	0.351592	0.792811	0.440635	0.520919	0.517029	0.320079	0.477907	0.344269	0.205161	0.459916	0.299699	0.806379	0.948947	0.127786	0.232162	0.265438	0.157778	0.891259	0.588180	0.566082	0.315306	0.401552	0.265208	0.347234	0.211389	0.338501	0.328702	0.212018	0.262091	0.285251	0.288689	0.112513	0.258174	0.315777	0.217189	0.385213	0.558257	0.138485	0.200657	0.279462	0.106979	0.439151	0.527612	0.624449	0.743935	0.145843	0.130933	0.175660	0.143107	0.610997	0.429524	0.436020	0.538176	0.363308	0.347882	0.248776	0.193941	0.690792	0.293233	0.578274	0.559276	0.093725	0.185573	0.138460	0.139281
88	0.155571	0.163761	0.254891	0.405242	0.529283	0.476757	0.278843	0.166614	0.599965	0.307562	0.545717	0.674726	0.213558	0.293213	0.348297	0.374239	0.807752	0.448839	0.410488	0.525546	0.317578	0.469017	0.295921	0.174383	0.474111	0.299473	0.930985	0.819673	0.125250	0.222634	0.259004	0.135940	0.915411	0.566941	0.553252	0.303224	0.401178	0.271002	0.346347	0.212939	0.336168	0.319504	0.297623	0.259376	0.288891	0.294182	0.112457	0.224468	0.361133	0.207774	0.442123	0.497590	0.139797	0.194130	0.255070	0.136725	0.446447	0.527724	0.666633	0.812481	0.155587	0.131071	0.235115	0.139600	0.605117	0.429536	0.394761	0.568407	0.344705	0.294942	0.245813	0.192748	0.636084	0.284323	0.493089	0.469853	0.106556	0.188411	0.136429	0.144605
89	0.193180	0.203693	0.279875	0.414929	0.566748	0.484098	0.337233	0.257026	0.613176	0.313699	0.547387	0.600613	0.230295	0.297122	0.353295	0.377668	0.829458	0.451386	0.393672	0.554782	0.299783	0.430870	0.268932	0.166440	0.464277	0.283749	0.935636	0.726028	0.127401	0.190373	0.230862	0.134757	0.859844	0.484399	0.571179	0.308187	0.402106	0.279648	0.340809	0.218683	0.335088	0.314331	0.336425	0.263805	0.283448	0.295743	0.111293	0.188177	0.395223	0.265834	0.422766	0.398392	0.141768	0.162120	0.254095	0.142259	0.446305	0.512041	0.751477	0.834130	0.203122	0.146341	0.244149	0.147179	0.602588	0.412997	0.373882	0.606755	0.357542	0.305726	0.244873	0.190028	0.633046	0.295019	0.379012	0.441527	0.116439	0.191279	0.135720	0.143828
90	0.210420	0.214958	0.303935	0.507159	0.707681	0.550094	0.341811	0.352487	0.673454	0.337419	0.545432	0.544560	0.231066	0.291078	0.354333	0.375016	0.838354	0.436421	0.384390	0.573951	0.282029	0.387749	0.281746	0.164571	0.413932	0.235839	0.905002	0.695281	0.140590	0.192144	0.191452	0.135458	0.816244	0.451564	0.607826	0.304031	0.401930	0.278803	0.320809	0.217298	0.311136	0.297201	0.345685	0.263268	0.277778	0.293387	0.105481	0.183976	0.501040	0.340411	0.422568	0.334658	0.138822	0.144094	0.262352	0.142720	0.445885	0.465925	0.794712	0.813711	0.216168	0.167158	0.255706	0.154134	0.574402	0.360811	0.440645	0.619712	0.356764	0.298683	0.241035	0.196422	0.655471	0.323514	0.338387	0.445551	0.116511	0.192081	0.133140	0.161620
91	0.254342	0.252058	0.304381	0.639357	0.798985	0.634651	0.334121	0.369154	0.711392	0.355033	0.538663	0.560323	0.244011	0.270837	0.365005	0.371378	0.834307	0.433470	0.327981	0.579196	0.282269	0.367471	0.293914	0.162752	0.387586	0.209881	1.072387	0.689452	0.181006	0.208098	0.177079	0.134347	1.029752	0.619334	0.613817	0.302673	0.381710	0.265133	0.306555	0.203270	0.205047	0.242300	0.395972	0.278827	0.276791	0.294011	0.089610	0.174919	0.519961	0.347124	0.477924	0.316319	0.131598	0.147846	0.261539	0.145909	0.441352	0.436384	0.796095	0.788691	0.237633	0.172432	0.266915	0.216764	0.478944	0.335822	0.556497	0.610817	0.332245	0.264657	0.232971	0.202756	0.586349	0.300368	0.360951	0.463560	0.113421	0.189906	0.111196	0.178760
92	0.366707	0.341328	0.315103	0.679904	0.814526	0.637215	0.396588	0.370584	0.711430	0.356453	0.537218	0.593116	0.262899	0.267933	0.382330	0.371012	0.815535	0.424119	0.247919	0.563869	0.246941	0.320012	0.295205	0.162615	0.368967	0.203793	1.175339	0.689645	0.233348	0.236142	0.175266	0.122949	1.067827	0.640001	0.605849	0.318680	0.338849	0.228896	0.298039	0.162500	0.162599	0.230942	0.420540	0.308973	0.277173	0.294743	0.087216	0.139680	0.523877	0.347752	0.503227	0.337406	0.124958	0.146373	0.257838	0.155016	0.448168	0.411382	0.783892	0.771554	0.238468	0.171664	0.267696	0.245234	0.475956	0.339914	0.600329	0.621613	0.329754	0.257911	0.216486	0.202782	0.544823	0.289186	0.366893	0.482863	0.101910	0.175635	0.074585	0.188389
93	0.430757	0.369666	0.422510	0.666281	0.819056	0.635560	0.500478	0.388225	0.721671	0.391574	0.536736	0.589746	0.265762	0.267346	0.387462	0.383436	0.815722	0.423420	0.242190	0.555146	0.221123	0.229313	0.289794	0.163095	0.366079	0.209257	1.184367	0.592963	0.251531	0.238961	0.172937	0.108914	1.068776	0.639399	0.597517	0.346989	0.309867	0.202894	0.286109	0.157809	0.161861	0.230330	0.423981	0.330841	0.249345	0.295756	0.087775	0.120884	0.569888	0.373793	0.521095	0.319371	0.125349	0.144870	0.259161	0.168160	0.433363	0.374030	0.775616	0.760926	0.255446	0.178014	0.296199	0.257699	0.470114	0.328807	0.600597	0.619081	0.290649	0.188562	0.205436	0.203355	0.547048	0.288408	0.364571	0.494008	0.119994	0.174884	0.058865	0.190786
94	0.459380	0.390872	0.511165	0.623611	0.800981	0.620468	0.529769	0.438526	0.730075	0.408051	0.534642	0.576796	0.265825	0.261028	0.387743	0.408013	0.815092	0.420310	0.243733	0.559320	0.214746	0.222958	0.280601	0.161408	0.388864	0.223328	1.192385	0.474474	0.273478	0.244346	0.171477	0.107714	1.067677	0.630836	0.571780	0.394838	0.301560	0.195808	0.280070	0.158364	0.164055	0.230249	0.414406	0.352674	0.196111	0.292144	0.086013	0.121755	0.587455	0.382632	0.564827	0.350983	0.134085	0.159984	0.248340	0.169611	0.409996	0.325690	0.762842	0.707580	0.310823	0.185670	0.343914	0.259255	0.472010	0.328535	0.619512	0.589749	0.196367	0.160614	0.203493	0.203098	0.554048	0.297845	0.363627	0.488445	0.161637	0.243945	0.071225	0.190688
95	0.507251	0.448998	0.528622	0.614915	0.800883	0.608371	0.531368	0.482590	0.715724	0.401662	0.497496	0.560748	0.328600	0.268374	0.385457	0.430939	0.801668	0.417558	0.231263	0.548441	0.205675	0.215126	0.272279	0.148639	0.393914	0.213666	1.194918	0.444991	0.290241	0.249940	0.144310	0.104897	1.039807	0.599050	0.562576	0.395543	0.256058	0.186639	0.276266	0.160115	0.167465	0.198463	0.431391	0.359112	0.169588	0.290827	0.079977	0.123110	0.588760	0.383961	0.577807	0.472721	0.136352	0.174221	0.227245	0.175042	0.397728	0.312349	0.739036	0.650284	0.318387	0.172866	0.346308	0.249744	0.470259	0.326497	0.634124	0.516380	0.183204	0.160995	0.195032	0.203217	0.592704	0.322092	0.370038	0.439352	0.167647	0.285904	0.072505	0.189302
96	0.674893	0.545923	0.528192	0.657012	0.799124	0.602948	0.528376	0.511218	0.704239	0.400855	0.401808	0.586341	0.392000	0.284655	0.374145	0.411883	0.735992	0.387905	0.221725	0.539812	0.190752	0.206921	0.271351	0.120984	0.384434	0.213213	1.210126	0.459928	0.352443	0.301282	0.088506	0.097091	1.022832	0.588179	0.557814	0.375227	0.203624	0.168065	0.247999	0.163593	0.174366	0.190724	0.472982	0.358782	0.155274	0.290613	0.068847	0.123153	0.588203	0.385291	0.549293	0.528623	0.134598	0.175072	0.212045	0.178266	0.397418	0.318535	0.729701	0.627597	0.312090	0.165026	0.345623	0.240098	0.464598	0.325917	0.635969	0.484792	0.180646	0.159645	0.152709	0.198261	0.639955	0.336549	0.374535	0.375636	0.199759	0.331182	0.073642	0.186681
97	0.703300	0.550317	0.556089	0.663856	0.807084	0.616664	0.528265	0.522894	0.664301	0.388263	0.388119	0.623271	0.389677	0.282921	0.366804	0.367926	0.626967	0.339843	0.259517	0.539335	0.184512	0.200591	0.268084	0.081136	0.319756	0.174621	1.190944	0.510219	0.371472	0.331318	0.078691	0.087153	1.026723	0.591909	0.528098	0.438850	0.134141	0.155575	0.186163	0.163888	0.141840	0.116271	0.473617	0.331886	0.156289	0.283429	0.074206	0.125173	0.568295	0.389037	0.543949	0.509497	0.131970	0.175347	0.208118	0.178614	0.379166	0.318816	0.676351	0.626873	0.317450	0.171171	0.324684	0.237548	0.458282	0.307196	0.633959	0.484333	0.164279	0.155877	0.092383	0.180461	0.644140	0.336693	0.369665	0.366592	0.201703	0.333968	0.081868	0.184430
98	0.714733	0.550201	0.612790	0.655493	0.804219	0.617950	0.528846	0.525518	0.596424	0.370325	0.375893	0.644094	0.393729	0.250705	0.368868	0.366079	0.591211	0.328586	0.339832	0.532033	0.184769	0.171359	0.259256	0.077312	0.331090	0.179344	1.099109	0.517911	0.379235	0.337347	0.084162	0.076898	1.024876	0.591788	0.461528	0.486593	0.131379	0.158115	0.129581	0.158005	0.137658	0.107035	0.457885	0.301020	0.197529	0.280779	0.069138	0.127381	0.532989	0.390189	0.535114	0.516605	0.135177	0.179570	0.209540	0.181729	0.345378	0.311902	0.672155	0.620275	0.326662	0.178786	0.289161	0.246334	0.389376	0.265190	0.641807	0.485238	0.165430	0.155059	0.072544	0.148356	0.691146	0.350550	0.378776	0.364282	0.201758	0.332135	0.110975	0.176911
99	0.705898	0.540730	0.614743	0.679840	0.773576	0.588250	0.526324	0.525655	0.605551	0.382723	0.286167	0.724963	0.386398	0.227379	0.362242	0.378510	0.550346	0.306249	0.421355	0.521878	0.177517	0.158345	0.236728	0.088205	0.312860	0.178424	1.002457	0.521832	0.385479	0.334985	0.082884	0.076851	1.021984	0.582406	0.382782	0.487731	0.144234	0.144839	0.118202	0.145780	0.147560	0.109974	0.424192	0.300374	0.305089	0.276619	0.066512	0.126463	0.493976	0.391153	0.497046	0.515868	0.142576	0.194949	0.203660	0.185702	0.323282	0.299500	0.698359	0.570490	0.301675	0.163364	0.281763	0.249551	0.286697	0.232441	0.636458	0.483499	0.162269	0.153408	0.076092	0.123638	0.711937	0.351971	0.363798	0.361132	0.200303	0.328088	0.131172	0.166852
100	0.703629	0.551476	0.611784	0.640534	0.726855	0.564779	0.521420	0.525330	0.609753	0.384638	0.230964	0.768956	0.381291	0.230857	0.327614	0.385206	0.415841	0.247476	0.446771	0.541083	0.178535	0.158446	0.198418	0.100010	0.306561	0.181366	0.964121	0.568988	0.385859	0.330479	0.083836	0.079679	0.962784	0.543931	0.351420	0.477692	0.222505	0.136413	0.116103	0.127002	0.149606	0.110743	0.422847	0.311743	0.383781	0.234643	0.066391	0.125621	0.464743	0.350586	0.490358	0.519971	0.143233	0.193959	0.179193	0.183603	0.334925	0.295052	0.729264	0.460040	0.316698	0.147279	0.275529	0.265720	0.274754	0.219959	0.630862	0.477514	0.162289	0.144164	0.080654	0.114176	0.711855	0.351083	0.428715	0.357516	0.219729	0.335368	0.137764	0.163345
101	0.705694	0.566582	0.616752	0.507825	0.714401	0.567280	0.495178	0.522068	0.653614	0.369104	0.247727	0.739987	0.390762	0.250937	0.256765	0.380871	0.386330	0.242031	0.449493	0.560554	0.169218	0.152823	0.175762	0.108426	0.317315	0.186032	0.921291	0.636416	0.383317	0.317244	0.096736	0.079166	0.887355	0.527022	0.358800	0.477442	0.224426	0.106828	0.099202	0.109185	0.150598	0.111670	0.398367	0.309554	0.425519	0.253058	0.065606	0.125808	0.357792	0.281824	0.477205	0.524770	0.140674	0.187394	0.162488	0.162387	0.333112	0.297486	0.730648	0.318633	0.341129	0.151115	0.274024	0.221082	0.197590	0.180763	0.629951	0.447648	0.181388	0.152371	0.083265	0.114075	0.713335	0.351078	0.501276	0.349702	0.253008	0.339290	0.137841	0.160033
