	309_At_T2_sh_ND_01.c3d	309_At_T2_sh_ND_01.c3d	309_At_T2_sh_ND_01.c3d	309_At_T2_sh_ND_01.c3d	309_At_T2_sh_ND_01.c3d	309_At_T2_sh_ND_01.c3d	309_At_T2_sh_ND_01.c3d	309_At_T2_sh_ND_01.c3d	309_At_T2_sh_ND_02.c3d	309_At_T2_sh_ND_02.c3d	309_At_T2_sh_ND_02.c3d	309_At_T2_sh_ND_02.c3d	309_At_T2_sh_ND_02.c3d	309_At_T2_sh_ND_02.c3d	309_At_T2_sh_ND_02.c3d	309_At_T2_sh_ND_02.c3d	309_At_T2_sh_ND_03.c3d	309_At_T2_sh_ND_03.c3d	309_At_T2_sh_ND_03.c3d	309_At_T2_sh_ND_03.c3d	309_At_T2_sh_ND_03.c3d	309_At_T2_sh_ND_03.c3d	309_At_T2_sh_ND_03.c3d	309_At_T2_sh_ND_03.c3d	309_At_T2_sh_ND_04.c3d	309_At_T2_sh_ND_04.c3d	309_At_T2_sh_ND_04.c3d	309_At_T2_sh_ND_04.c3d	309_At_T2_sh_ND_04.c3d	309_At_T2_sh_ND_04.c3d	309_At_T2_sh_ND_04.c3d	309_At_T2_sh_ND_04.c3d	309_At_T2_sh_ND_05.c3d	309_At_T2_sh_ND_05.c3d	309_At_T2_sh_ND_05.c3d	309_At_T2_sh_ND_05.c3d	309_At_T2_sh_ND_05.c3d	309_At_T2_sh_ND_05.c3d	309_At_T2_sh_ND_05.c3d	309_At_T2_sh_ND_05.c3d	309_At_T2_sh_ND_06.c3d	309_At_T2_sh_ND_06.c3d	309_At_T2_sh_ND_06.c3d	309_At_T2_sh_ND_06.c3d	309_At_T2_sh_ND_06.c3d	309_At_T2_sh_ND_06.c3d	309_At_T2_sh_ND_06.c3d	309_At_T2_sh_ND_06.c3d	309_At_T2_sh_ND_07.c3d	309_At_T2_sh_ND_07.c3d	309_At_T2_sh_ND_07.c3d	309_At_T2_sh_ND_07.c3d	309_At_T2_sh_ND_07.c3d	309_At_T2_sh_ND_07.c3d	309_At_T2_sh_ND_07.c3d	309_At_T2_sh_ND_07.c3d	309_At_T2_sh_ND_08.c3d	309_At_T2_sh_ND_08.c3d	309_At_T2_sh_ND_08.c3d	309_At_T2_sh_ND_08.c3d	309_At_T2_sh_ND_08.c3d	309_At_T2_sh_ND_08.c3d	309_At_T2_sh_ND_08.c3d	309_At_T2_sh_ND_08.c3d	309_At_T2_sh_ND_09.c3d	309_At_T2_sh_ND_09.c3d	309_At_T2_sh_ND_09.c3d	309_At_T2_sh_ND_09.c3d	309_At_T2_sh_ND_09.c3d	309_At_T2_sh_ND_09.c3d	309_At_T2_sh_ND_09.c3d	309_At_T2_sh_ND_09.c3d	309_At_T2_sh_ND_10.c3d	309_At_T2_sh_ND_10.c3d	309_At_T2_sh_ND_10.c3d	309_At_T2_sh_ND_10.c3d	309_At_T2_sh_ND_10.c3d	309_At_T2_sh_ND_10.c3d	309_At_T2_sh_ND_10.c3d	309_At_T2_sh_ND_10.c3d
	Biceps femoris_lat	Semitendinosus_lat	Vastus lateralis_lat	Vastus medialis_lat	Biceps femoris_med	Semitendinosus_med	Vastus lateralis_med	Vastus medialis_med	Biceps femoris_lat	Semitendinosus_lat	Vastus lateralis_lat	Vastus medialis_lat	Biceps femoris_med	Semitendinosus_med	Vastus lateralis_med	Vastus medialis_med	Biceps femoris_lat	Semitendinosus_lat	Vastus lateralis_lat	Vastus medialis_lat	Biceps femoris_med	Semitendinosus_med	Vastus lateralis_med	Vastus medialis_med	Biceps femoris_lat	Semitendinosus_lat	Vastus lateralis_lat	Vastus medialis_lat	Biceps femoris_med	Semitendinosus_med	Vastus lateralis_med	Vastus medialis_med	Biceps femoris_lat	Semitendinosus_lat	Vastus lateralis_lat	Vastus medialis_lat	Biceps femoris_med	Semitendinosus_med	Vastus lateralis_med	Vastus medialis_med	Biceps femoris_lat	Semitendinosus_lat	Vastus lateralis_lat	Vastus medialis_lat	Biceps femoris_med	Semitendinosus_med	Vastus lateralis_med	Vastus medialis_med	Biceps femoris_lat	Semitendinosus_lat	Vastus lateralis_lat	Vastus medialis_lat	Biceps femoris_med	Semitendinosus_med	Vastus lateralis_med	Vastus medialis_med	Biceps femoris_lat	Semitendinosus_lat	Vastus lateralis_lat	Vastus medialis_lat	Biceps femoris_med	Semitendinosus_med	Vastus lateralis_med	Vastus medialis_med	Biceps femoris_lat	Semitendinosus_lat	Vastus lateralis_lat	Vastus medialis_lat	Biceps femoris_med	Semitendinosus_med	Vastus lateralis_med	Vastus medialis_med	Biceps femoris_lat	Semitendinosus_lat	Vastus lateralis_lat	Vastus medialis_lat	Biceps femoris_med	Semitendinosus_med	Vastus lateralis_med	Vastus medialis_med
	P2D	P2D	P2D	P2D	P2D	P2D	P2D	P2D	P2D	P2D	P2D	P2D	P2D	P2D	P2D	P2D	P2D	P2D	P2D	P2D	P2D	P2D	P2D	P2D	P2D	P2D	P2D	P2D	P2D	P2D	P2D	P2D	P2D	P2D	P2D	P2D	P2D	P2D	P2D	P2D	P2D	P2D	P2D	P2D	P2D	P2D	P2D	P2D	P2D	P2D	P2D	P2D	P2D	P2D	P2D	P2D	P2D	P2D	P2D	P2D	P2D	P2D	P2D	P2D	P2D	P2D	P2D	P2D	P2D	P2D	P2D	P2D	P2D	P2D	P2D	P2D	P2D	P2D	P2D	P2D
	EMG_lat	EMG_lat	EMG_lat	EMG_lat	EMG_med	EMG_med	EMG_med	EMG_med	EMG_lat	EMG_lat	EMG_lat	EMG_lat	EMG_med	EMG_med	EMG_med	EMG_med	EMG_lat	EMG_lat	EMG_lat	EMG_lat	EMG_med	EMG_med	EMG_med	EMG_med	EMG_lat	EMG_lat	EMG_lat	EMG_lat	EMG_med	EMG_med	EMG_med	EMG_med	EMG_lat	EMG_lat	EMG_lat	EMG_lat	EMG_med	EMG_med	EMG_med	EMG_med	EMG_lat	EMG_lat	EMG_lat	EMG_lat	EMG_med	EMG_med	EMG_med	EMG_med	EMG_lat	EMG_lat	EMG_lat	EMG_lat	EMG_med	EMG_med	EMG_med	EMG_med	EMG_lat	EMG_lat	EMG_lat	EMG_lat	EMG_med	EMG_med	EMG_med	EMG_med	EMG_lat	EMG_lat	EMG_lat	EMG_lat	EMG_med	EMG_med	EMG_med	EMG_med	EMG_lat	EMG_lat	EMG_lat	EMG_lat	EMG_med	EMG_med	EMG_med	EMG_med
ITEM	Y	Y	Y	Y	Y	Y	Y	Y	Y	Y	Y	Y	Y	Y	Y	Y	Y	Y	Y	Y	Y	Y	Y	Y	Y	Y	Y	Y	Y	Y	Y	Y	Y	Y	Y	Y	Y	Y	Y	Y	Y	Y	Y	Y	Y	Y	Y	Y	Y	Y	Y	Y	Y	Y	Y	Y	Y	Y	Y	Y	Y	Y	Y	Y	Y	Y	Y	Y	Y	Y	Y	Y	Y	Y	Y	Y	Y	Y	Y	Y
1	0.495106	0.604454	0.188844	0.098505	0.218384	0.486388	0.251961	0.153058	0.449353	0.540586	0.376821	0.463032	1.087992	0.616336	0.455216	0.150717	0.213985	0.169958	0.245289	0.102829	0.148921	0.395851	0.268906	0.111793	0.177658	0.552144	0.246927	0.160853	0.433988	0.498464	0.507586	0.198140	0.797866	0.701978	0.250874	0.158252	0.375439	0.429198	0.117461	0.186346	0.070310	0.267183	0.097015	0.237468	0.373980	0.444741	0.361563	0.120935	0.090187	0.202120	0.154919	0.274640	0.283220	0.190523	0.217709	0.137643	0.397851	0.347605	0.359050	0.143991	0.348016	0.298898	0.331109	0.212442	0.096492	0.350469	0.213603	0.345085	0.099498	0.221183	0.306145	0.109339	0.514944	0.309734	0.439621	0.234633	0.115752	0.152471	0.191143	0.232660
2	0.489844	0.592595	0.196135	0.094574	0.211416	0.496763	0.246268	0.146910	0.449424	0.539480	0.373938	0.488669	1.087678	0.617252	0.517734	0.151972	0.246581	0.177227	0.255199	0.102302	0.147292	0.396227	0.276303	0.090606	0.173002	0.489213	0.219473	0.156079	0.441403	0.504931	0.493399	0.190786	0.779718	0.717422	0.245691	0.159764	0.318836	0.498570	0.103345	0.184299	0.074574	0.278504	0.103065	0.236612	0.313973	0.543901	0.336173	0.131620	0.093037	0.202716	0.133329	0.277405	0.283472	0.194795	0.235065	0.164437	0.385291	0.312978	0.359605	0.144982	0.346729	0.348096	0.328275	0.154176	0.092074	0.344328	0.231607	0.360952	0.115927	0.255128	0.321450	0.118375	0.506315	0.296425	0.363989	0.244595	0.126948	0.155114	0.165863	0.230304
3	0.489845	0.587085	0.236634	0.103577	0.211585	0.497014	0.246095	0.144467	0.457032	0.507411	0.362739	0.488950	1.089172	0.617522	0.523148	0.146545	0.251323	0.178831	0.252495	0.103805	0.146574	0.393893	0.256550	0.083983	0.121490	0.394731	0.222465	0.162452	0.484202	0.567517	0.486820	0.175875	0.751743	0.706853	0.242084	0.159085	0.305398	0.502826	0.089239	0.163496	0.069553	0.259571	0.109305	0.230713	0.136075	0.498383	0.326223	0.152151	0.093242	0.198949	0.119586	0.278202	0.281022	0.203634	0.233602	0.165509	0.381099	0.304787	0.359530	0.154853	0.363420	0.356024	0.300948	0.096836	0.092001	0.332764	0.237312	0.383729	0.120288	0.272962	0.327033	0.114657	0.483898	0.286297	0.322043	0.249979	0.130299	0.164285	0.167020	0.253856
4	0.483874	0.572821	0.260338	0.138940	0.211684	0.495741	0.248337	0.142883	0.462771	0.510834	0.334338	0.493315	1.085777	0.610849	0.543841	0.145581	0.302580	0.228772	0.240269	0.130760	0.145699	0.416387	0.231854	0.084192	0.107744	0.334846	0.225672	0.163975	0.497213	0.583607	0.456471	0.163605	0.817256	0.674511	0.251100	0.163062	0.305638	0.503768	0.088125	0.156185	0.065098	0.222200	0.122532	0.218580	0.112614	0.496127	0.323529	0.150967	0.091790	0.177943	0.139166	0.275999	0.275742	0.211806	0.233122	0.168685	0.366217	0.303441	0.353527	0.186873	0.361103	0.390117	0.238965	0.095799	0.089226	0.334487	0.239664	0.384183	0.110434	0.271103	0.346842	0.112205	0.481367	0.282849	0.312846	0.256328	0.133073	0.178498	0.167914	0.263369
5	0.463636	0.562846	0.266764	0.144939	0.211718	0.496901	0.260439	0.141024	0.458578	0.504996	0.306656	0.494098	1.061858	0.589146	0.610056	0.152001	0.323371	0.239105	0.231947	0.142309	0.135274	0.420115	0.204770	0.089486	0.101543	0.325846	0.226861	0.165431	0.497369	0.578040	0.421697	0.160005	0.825926	0.680538	0.256549	0.163303	0.308058	0.508769	0.098592	0.152640	0.073170	0.231151	0.123200	0.230226	0.114681	0.494846	0.314627	0.164105	0.088220	0.175942	0.155401	0.328923	0.275272	0.250880	0.233647	0.169569	0.341762	0.305046	0.349390	0.194163	0.319889	0.399758	0.221296	0.110971	0.091672	0.313803	0.222436	0.383135	0.109103	0.306303	0.353325	0.086743	0.457733	0.263883	0.314449	0.257730	0.145038	0.193762	0.170905	0.280042
6	0.431192	0.519302	0.267281	0.146131	0.207867	0.497316	0.270160	0.134724	0.485471	0.491340	0.294879	0.494614	1.012432	0.625008	0.676610	0.151708	0.323582	0.334098	0.245617	0.144943	0.124018	0.408496	0.245683	0.098895	0.095109	0.315411	0.215065	0.166088	0.497343	0.579368	0.392302	0.145672	0.838913	0.774787	0.275683	0.164372	0.290240	0.500424	0.102846	0.148306	0.079508	0.268342	0.124268	0.273542	0.113109	0.494690	0.269250	0.186275	0.097780	0.197047	0.150530	0.363893	0.269808	0.247006	0.233718	0.177149	0.336279	0.310183	0.360929	0.193350	0.292915	0.393996	0.221472	0.136128	0.088487	0.260946	0.209762	0.382130	0.108890	0.307322	0.352813	0.085634	0.415085	0.243050	0.307683	0.252103	0.161938	0.195012	0.175699	0.293940
7	0.315246	0.399795	0.267675	0.145847	0.197984	0.486772	0.273347	0.136183	0.539170	0.570750	0.296943	0.495662	0.952268	0.697503	0.691018	0.147110	0.320231	0.421346	0.252009	0.146350	0.117287	0.402485	0.336798	0.111312	0.102267	0.321884	0.186731	0.182698	0.476529	0.572622	0.397941	0.149050	0.852498	0.890306	0.302507	0.173719	0.264787	0.466468	0.145590	0.139009	0.080681	0.267952	0.155887	0.306018	0.112663	0.494253	0.233188	0.194757	0.106373	0.210230	0.185272	0.357512	0.244745	0.232668	0.227545	0.179649	0.332007	0.316487	0.368961	0.193391	0.225871	0.402429	0.221218	0.146769	0.087622	0.252879	0.209246	0.384305	0.108357	0.325922	0.353759	0.103426	0.332526	0.197257	0.272350	0.243193	0.173759	0.239937	0.176290	0.295570
8	0.234415	0.350310	0.265532	0.149622	0.171856	0.443161	0.278143	0.135903	0.537332	0.640878	0.286397	0.496164	0.916852	0.698779	0.689061	0.142086	0.316913	0.431011	0.249369	0.145455	0.113246	0.403145	0.355263	0.110679	0.107471	0.321414	0.187715	0.209124	0.462079	0.588144	0.336289	0.151238	0.876189	0.979563	0.317246	0.179058	0.266494	0.454379	0.169268	0.130028	0.095317	0.291416	0.238633	0.305340	0.112628	0.496654	0.198021	0.197414	0.114617	0.220812	0.223882	0.350617	0.234424	0.227914	0.222743	0.183083	0.338295	0.324502	0.374279	0.195062	0.164906	0.403258	0.189002	0.143028	0.094532	0.255138	0.206830	0.376561	0.122753	0.328937	0.345504	0.102926	0.327763	0.239330	0.221501	0.236495	0.174718	0.255671	0.167805	0.300218
9	0.224806	0.348148	0.261683	0.182633	0.148887	0.330452	0.290400	0.124891	0.537070	0.659346	0.238170	0.491537	0.883505	0.709028	0.688357	0.138449	0.320811	0.475022	0.248743	0.144672	0.101000	0.403811	0.356298	0.111673	0.115879	0.316000	0.191215	0.214951	0.475855	0.606314	0.253154	0.173407	0.891308	1.018434	0.322753	0.198536	0.268167	0.457048	0.179435	0.130853	0.106503	0.306646	0.299379	0.321783	0.112163	0.494382	0.164378	0.195428	0.121749	0.223002	0.232856	0.365797	0.234741	0.241529	0.222764	0.183900	0.234357	0.279371	0.360230	0.202400	0.162696	0.410465	0.173085	0.151007	0.095447	0.261829	0.192248	0.348497	0.133077	0.344504	0.333765	0.110545	0.321726	0.295566	0.217121	0.233908	0.175014	0.268818	0.186577	0.283994
10	0.222989	0.327446	0.296935	0.231609	0.130366	0.243925	0.288489	0.103671	0.519541	0.661723	0.217668	0.498467	0.571272	0.676855	0.685416	0.150451	0.323255	0.493260	0.249058	0.150673	0.082388	0.379205	0.357016	0.110998	0.112485	0.283450	0.190640	0.215537	0.464493	0.586733	0.247977	0.167065	0.885814	1.014693	0.324137	0.215301	0.324416	0.455078	0.214270	0.130589	0.106924	0.306961	0.317138	0.351466	0.106857	0.477883	0.175095	0.196187	0.122739	0.222007	0.235268	0.400545	0.235589	0.252180	0.222742	0.187664	0.227235	0.236698	0.331361	0.223446	0.179082	0.408856	0.174747	0.154418	0.094775	0.240204	0.189885	0.273119	0.140075	0.339905	0.314143	0.111179	0.333205	0.314637	0.236304	0.232404	0.179309	0.278782	0.193487	0.271943
11	0.222209	0.311923	0.359846	0.253031	0.129815	0.240568	0.293037	0.095038	0.466216	0.640457	0.209912	0.498066	0.335957	0.715670	0.682577	0.165891	0.324117	0.493483	0.248036	0.156284	0.078766	0.332487	0.382671	0.111501	0.114160	0.237243	0.193675	0.212811	0.475758	0.542272	0.240612	0.166158	0.991234	1.087200	0.332348	0.210265	0.367050	0.451956	0.234070	0.130392	0.107149	0.304113	0.316903	0.373062	0.100446	0.465408	0.178254	0.198665	0.127807	0.243316	0.259512	0.410712	0.237166	0.249053	0.228190	0.190172	0.237169	0.233824	0.313686	0.241545	0.192405	0.409164	0.174049	0.156025	0.092895	0.227215	0.174934	0.261381	0.140036	0.365416	0.322021	0.113008	0.353622	0.318092	0.236677	0.193097	0.183037	0.279815	0.194693	0.273083
12	0.231627	0.348904	0.406930	0.255741	0.130356	0.227996	0.295193	0.100734	0.505332	0.702287	0.208111	0.463733	0.344683	0.731568	0.681419	0.165479	0.327450	0.497471	0.235296	0.155472	0.080581	0.302483	0.422685	0.117083	0.128966	0.225600	0.193044	0.207663	0.465706	0.570930	0.228365	0.184399	1.046974	1.161344	0.337527	0.207138	0.365972	0.420425	0.241212	0.126476	0.124996	0.309332	0.323378	0.381640	0.098904	0.460484	0.182350	0.196811	0.138862	0.281103	0.275466	0.400322	0.208008	0.277797	0.238661	0.190638	0.228279	0.238258	0.316531	0.243161	0.195152	0.408599	0.194933	0.170264	0.092337	0.249565	0.137059	0.260837	0.138904	0.378891	0.313081	0.117574	0.379132	0.334253	0.232441	0.171613	0.184775	0.282530	0.194670	0.271009
13	0.238829	0.374319	0.412804	0.275800	0.129532	0.189156	0.290146	0.121545	0.550964	0.773691	0.219125	0.461215	0.393371	0.736814	0.681603	0.198967	0.352892	0.546489	0.198374	0.154927	0.082718	0.302287	0.435220	0.112625	0.143705	0.227842	0.175982	0.211619	0.459729	0.596438	0.205558	0.199688	0.987791	1.158458	0.336768	0.194215	0.532452	0.505521	0.246054	0.122542	0.164672	0.422531	0.332501	0.379750	0.097724	0.432896	0.181332	0.190968	0.144537	0.292121	0.276617	0.396983	0.142293	0.297975	0.214292	0.186832	0.264798	0.235942	0.323714	0.243020	0.197004	0.399446	0.207409	0.171130	0.095133	0.261949	0.104700	0.212219	0.139196	0.372480	0.296324	0.126962	0.378324	0.336543	0.241209	0.174871	0.187945	0.281479	0.190340	0.271724
14	0.235835	0.372377	0.435993	0.300957	0.117847	0.170100	0.264721	0.132121	0.569048	0.808171	0.239132	0.454078	0.426829	0.747508	0.672075	0.212872	0.345433	0.582318	0.184416	0.141887	0.082791	0.305788	0.435394	0.187481	0.162064	0.231435	0.161675	0.207511	0.439993	0.612011	0.200486	0.200393	0.951443	1.194058	0.334917	0.181747	0.584908	0.525125	0.248825	0.121513	0.201972	0.564197	0.334527	0.364448	0.099841	0.432351	0.202323	0.188852	0.145506	0.292512	0.275238	0.396151	0.132172	0.295712	0.210109	0.146712	0.266360	0.239554	0.315216	0.230911	0.190920	0.364115	0.204933	0.171518	0.119505	0.303643	0.105182	0.143484	0.121142	0.340283	0.279541	0.119700	0.389087	0.365364	0.281062	0.215017	0.193691	0.281925	0.180124	0.277906
15	0.267305	0.383168	0.491116	0.309932	0.110356	0.175348	0.257346	0.135831	0.607529	0.834015	0.244612	0.429542	0.472399	0.750894	0.582008	0.209680	0.334080	0.581250	0.175679	0.141395	0.080285	0.306128	0.436466	0.264370	0.182093	0.235126	0.171911	0.195494	0.394038	0.615620	0.214044	0.200921	0.935354	1.218170	0.314380	0.193505	0.588132	0.448984	0.253635	0.110128	0.206331	0.607951	0.332352	0.355956	0.099931	0.429941	0.204744	0.188406	0.148546	0.297353	0.271586	0.390753	0.129018	0.309104	0.206186	0.129172	0.267216	0.243661	0.273330	0.222738	0.185607	0.327136	0.218115	0.171506	0.118782	0.303469	0.073527	0.126402	0.113744	0.320362	0.276663	0.120375	0.431487	0.407256	0.308340	0.298321	0.195441	0.285371	0.174122	0.276584
16	0.277182	0.386928	0.498231	0.310166	0.104811	0.158804	0.268219	0.129539	0.615597	0.841335	0.244635	0.402255	0.482760	0.749394	0.504862	0.215319	0.308035	0.579386	0.162190	0.155045	0.068512	0.299125	0.423672	0.272186	0.192833	0.225847	0.166226	0.191483	0.386567	0.622168	0.220626	0.205952	0.900863	1.187493	0.288639	0.188689	0.584637	0.441104	0.255508	0.112290	0.210310	0.605179	0.328760	0.355274	0.086504	0.319627	0.206176	0.202889	0.150906	0.326166	0.270753	0.384262	0.128413	0.312104	0.211345	0.127209	0.267959	0.244866	0.255070	0.224746	0.146962	0.294803	0.256446	0.170890	0.111873	0.272158	0.091567	0.143822	0.113762	0.312829	0.259635	0.121811	0.457369	0.431237	0.310099	0.329706	0.238106	0.332208	0.184431	0.276208
17	0.278691	0.380806	0.483316	0.309340	0.119203	0.158621	0.274405	0.135279	0.619610	0.837283	0.252603	0.390088	0.502711	0.749614	0.490582	0.234922	0.297165	0.577206	0.159229	0.157198	0.068267	0.299961	0.430789	0.283377	0.193450	0.215582	0.157218	0.198262	0.335425	0.559356	0.220599	0.211018	0.897066	1.183366	0.286101	0.190208	0.584494	0.442797	0.256281	0.136019	0.221353	0.601191	0.328871	0.347684	0.068119	0.135308	0.225027	0.202569	0.151610	0.342875	0.270813	0.382958	0.124881	0.307505	0.221923	0.119948	0.268095	0.245294	0.254574	0.231309	0.144458	0.242360	0.286362	0.171338	0.119010	0.277224	0.094616	0.155373	0.112608	0.270722	0.246922	0.132208	0.473489	0.452204	0.304542	0.332945	0.242299	0.340936	0.182717	0.266346
18	0.273204	0.351577	0.470099	0.296826	0.145802	0.200915	0.272260	0.137651	0.607184	0.824792	0.274515	0.390548	0.505058	0.749598	0.481487	0.245413	0.233795	0.560263	0.161945	0.134539	0.079795	0.323754	0.465386	0.305210	0.194320	0.217349	0.150421	0.228586	0.328188	0.534875	0.220457	0.213260	0.886380	1.181158	0.297442	0.195337	0.582585	0.438991	0.266750	0.149844	0.225732	0.602532	0.326711	0.341996	0.065516	0.123763	0.244543	0.193232	0.151480	0.342635	0.263416	0.377818	0.123732	0.287109	0.226121	0.114164	0.266597	0.257709	0.252356	0.235481	0.143998	0.230665	0.284979	0.154263	0.118184	0.271551	0.092247	0.151300	0.115249	0.269724	0.246338	0.156140	0.485356	0.468507	0.325177	0.332104	0.241235	0.336656	0.180283	0.241596
19	0.260394	0.317595	0.465919	0.297257	0.157624	0.244135	0.255715	0.135941	0.589370	0.806520	0.270134	0.400507	0.509570	0.747542	0.409742	0.241588	0.213461	0.554250	0.154178	0.137896	0.078790	0.286323	0.489994	0.317701	0.194898	0.216724	0.157486	0.256020	0.332295	0.535271	0.221175	0.222943	0.822297	1.178523	0.313020	0.199364	0.579489	0.437918	0.270676	0.147987	0.227104	0.608821	0.325110	0.335311	0.063815	0.110790	0.245608	0.190343	0.151237	0.339392	0.249739	0.345833	0.123506	0.287076	0.223801	0.099951	0.265232	0.268363	0.251104	0.210292	0.143025	0.230035	0.284942	0.137191	0.112744	0.262783	0.091691	0.162982	0.114216	0.249457	0.243261	0.161971	0.490971	0.470455	0.376656	0.372521	0.242373	0.326358	0.180808	0.218602
20	0.260432	0.317944	0.464999	0.310331	0.157670	0.240237	0.224408	0.152623	0.572120	0.784257	0.263754	0.409760	0.495758	0.699862	0.290568	0.235078	0.215467	0.500920	0.121512	0.143758	0.073883	0.270926	0.502554	0.328367	0.192046	0.237200	0.168562	0.258833	0.332636	0.533950	0.223191	0.225024	0.816852	1.162477	0.304421	0.210620	0.580108	0.450394	0.253457	0.146266	0.226417	0.654199	0.323960	0.301721	0.069033	0.121567	0.243404	0.187886	0.146677	0.324344	0.250404	0.289483	0.123814	0.288499	0.223501	0.096132	0.266043	0.267307	0.250714	0.201766	0.127963	0.191538	0.278430	0.131142	0.114760	0.252847	0.095958	0.166697	0.099165	0.243254	0.217533	0.164542	0.519951	0.479085	0.404655	0.422846	0.255310	0.341318	0.176565	0.191238
21	0.259794	0.325922	0.465867	0.319576	0.157669	0.240613	0.219713	0.160324	0.531101	0.737669	0.268759	0.408318	0.454242	0.576574	0.184312	0.232851	0.216251	0.446778	0.097550	0.140475	0.081249	0.261095	0.461459	0.327229	0.196548	0.277139	0.168120	0.234237	0.295038	0.511433	0.202424	0.212198	0.776722	1.054052	0.265840	0.217114	0.577801	0.458423	0.245968	0.132669	0.226339	0.703682	0.318398	0.256643	0.073427	0.127489	0.243352	0.198757	0.140660	0.325088	0.232554	0.289774	0.122603	0.288075	0.225366	0.095716	0.265034	0.272487	0.240539	0.214051	0.124074	0.121619	0.271062	0.130031	0.114592	0.250798	0.109241	0.175303	0.080896	0.220496	0.161489	0.158969	0.532967	0.525945	0.412722	0.446971	0.294459	0.419707	0.169810	0.174963
22	0.244313	0.331367	0.465152	0.318364	0.158021	0.244994	0.210841	0.162736	0.468566	0.648440	0.270546	0.405410	0.434398	0.538143	0.201068	0.244776	0.215968	0.440374	0.095923	0.150778	0.085840	0.257465	0.416791	0.324537	0.190625	0.277711	0.157903	0.219333	0.261469	0.469977	0.176881	0.208998	0.741343	0.928105	0.230739	0.209848	0.571067	0.454706	0.260063	0.120653	0.221683	0.711614	0.274054	0.256266	0.074138	0.125753	0.242164	0.191467	0.137656	0.331683	0.191279	0.296619	0.118014	0.277888	0.226893	0.089287	0.270805	0.291813	0.228953	0.223574	0.114295	0.095335	0.270653	0.107906	0.114247	0.243110	0.119818	0.170953	0.065282	0.207563	0.158581	0.158118	0.595324	0.620987	0.410145	0.453377	0.357518	0.555058	0.163201	0.169844
23	0.240065	0.344479	0.464843	0.304587	0.143449	0.273839	0.193621	0.165067	0.461226	0.597265	0.268368	0.409027	0.430071	0.519807	0.229671	0.254298	0.209768	0.389667	0.096539	0.179106	0.085422	0.255405	0.427466	0.325388	0.184190	0.283243	0.155134	0.218951	0.232573	0.447565	0.170413	0.191077	0.719112	0.850018	0.212519	0.206304	0.540305	0.454696	0.253588	0.114367	0.219677	0.702811	0.195578	0.242358	0.074311	0.126710	0.242877	0.188289	0.130716	0.333431	0.169319	0.278069	0.109681	0.288673	0.227025	0.083760	0.270224	0.308276	0.222786	0.224402	0.077436	0.096480	0.268771	0.102831	0.114097	0.213856	0.132466	0.166521	0.061693	0.161081	0.140520	0.155472	0.714755	0.672814	0.397795	0.456514	0.393897	0.600184	0.154255	0.156709
24	0.240617	0.350531	0.448908	0.272113	0.142303	0.278336	0.193353	0.175352	0.462885	0.580369	0.252705	0.412279	0.424385	0.441213	0.244437	0.251386	0.206241	0.373768	0.095525	0.175627	0.088159	0.254642	0.443373	0.326923	0.186114	0.305713	0.151473	0.223544	0.226480	0.445220	0.170533	0.189793	0.709183	0.822358	0.208750	0.176372	0.507024	0.459664	0.240953	0.111759	0.230124	0.702125	0.148310	0.201966	0.074793	0.142948	0.219169	0.188699	0.139251	0.341488	0.170714	0.233009	0.110627	0.302099	0.215769	0.080050	0.269635	0.327343	0.222890	0.215120	0.052399	0.118927	0.259825	0.099393	0.100000	0.199013	0.158104	0.260610	0.058369	0.097509	0.127987	0.150085	0.725568	0.659121	0.387366	0.457413	0.429369	0.627413	0.126161	0.154625
25	0.243255	0.346760	0.409117	0.242470	0.137855	0.282417	0.188511	0.181354	0.474013	0.577204	0.237222	0.376055	0.416910	0.336051	0.249545	0.238536	0.205818	0.377628	0.094876	0.175845	0.087693	0.253943	0.450469	0.327991	0.180685	0.311101	0.151364	0.221338	0.174810	0.442018	0.166056	0.175135	0.671109	0.816245	0.205874	0.163698	0.505037	0.493018	0.233640	0.111244	0.230822	0.702195	0.150949	0.157583	0.074727	0.150373	0.198581	0.189717	0.144763	0.330445	0.142727	0.186586	0.087649	0.297690	0.162437	0.073033	0.269391	0.345579	0.245263	0.194810	0.042298	0.175086	0.230866	0.081086	0.075249	0.107171	0.166031	0.270062	0.051159	0.112859	0.103783	0.141585	0.722192	0.655401	0.415422	0.456474	0.470115	0.698420	0.112344	0.148246
26	0.234516	0.319424	0.359108	0.239766	0.134063	0.284439	0.196284	0.180251	0.479723	0.567389	0.239712	0.324210	0.406705	0.252173	0.245580	0.234046	0.199097	0.366523	0.095865	0.191180	0.085932	0.251426	0.426697	0.328157	0.174284	0.309882	0.144581	0.211216	0.169544	0.436061	0.153405	0.153130	0.404483	0.666494	0.192284	0.159240	0.353678	0.469665	0.221625	0.115259	0.226942	0.700601	0.146718	0.127899	0.075228	0.148707	0.196485	0.186195	0.140343	0.294074	0.109303	0.174264	0.095160	0.396032	0.155839	0.072897	0.259667	0.333049	0.265870	0.167642	0.034588	0.207622	0.220524	0.079525	0.076780	0.108980	0.177959	0.263887	0.049480	0.179808	0.098972	0.140184	0.725769	0.676533	0.483046	0.467376	0.473776	0.702181	0.106762	0.135294
27	0.198996	0.274572	0.344988	0.224573	0.138949	0.311904	0.196631	0.166828	0.419693	0.470561	0.238355	0.313748	0.371784	0.219348	0.244593	0.211727	0.139205	0.275356	0.102669	0.214051	0.083416	0.250409	0.393330	0.325216	0.148279	0.305702	0.140472	0.218436	0.162959	0.507320	0.140699	0.134362	0.246705	0.575652	0.181940	0.160051	0.177340	0.609792	0.214886	0.126381	0.205980	0.656533	0.119533	0.109588	0.078106	0.177744	0.188011	0.183244	0.138470	0.273879	0.119835	0.188156	0.099241	0.463975	0.131311	0.071395	0.265599	0.321029	0.253053	0.165149	0.048648	0.207729	0.219153	0.079659	0.083145	0.098453	0.178077	0.260650	0.061205	0.218420	0.087881	0.140145	0.764692	0.740793	0.505841	0.494675	0.474827	0.716446	0.109624	0.128650
28	0.193424	0.268845	0.325511	0.183770	0.138423	0.316674	0.180907	0.160615	0.386987	0.360181	0.231790	0.312764	0.330464	0.219564	0.245577	0.182281	0.152984	0.235809	0.099629	0.227273	0.083351	0.256127	0.385875	0.321676	0.129882	0.303883	0.139513	0.218289	0.158194	0.547178	0.114253	0.133952	0.236416	0.537450	0.181942	0.164746	0.182430	0.805892	0.212822	0.127374	0.170488	0.543393	0.108763	0.106980	0.094548	0.324387	0.175267	0.182718	0.161354	0.273592	0.127086	0.206107	0.148047	0.459580	0.124013	0.070990	0.221397	0.326577	0.238463	0.163434	0.072463	0.216260	0.197916	0.079981	0.075350	0.088046	0.201059	0.261371	0.061329	0.225711	0.064519	0.140126	0.783180	0.758744	0.503641	0.499546	0.472842	0.727845	0.115580	0.101913
29	0.169629	0.250512	0.208342	0.154696	0.146845	0.405779	0.177647	0.153892	0.360904	0.288137	0.221705	0.298338	0.273738	0.289350	0.243540	0.179235	0.154504	0.246252	0.097393	0.224287	0.083246	0.299848	0.385208	0.264555	0.101880	0.296643	0.177650	0.217097	0.162926	0.528126	0.082985	0.131879	0.210711	0.426375	0.181913	0.162382	0.189967	0.837605	0.213403	0.126850	0.161370	0.455761	0.115709	0.108755	0.096443	0.404686	0.149197	0.182719	0.164950	0.272662	0.130191	0.227093	0.187585	0.490153	0.106009	0.087818	0.237543	0.338708	0.237833	0.165539	0.072211	0.223555	0.140315	0.076936	0.077449	0.099253	0.202042	0.266309	0.071166	0.230348	0.056624	0.128204	0.777869	0.761837	0.530164	0.472371	0.482546	0.727940	0.118433	0.082497
30	0.139904	0.249074	0.171752	0.157238	0.163034	0.540918	0.155816	0.149100	0.292078	0.210153	0.217715	0.256599	0.228901	0.353606	0.243358	0.173650	0.150740	0.248020	0.094876	0.216343	0.081437	0.324307	0.384090	0.207460	0.100117	0.296111	0.189273	0.214579	0.185237	0.571651	0.066979	0.127399	0.195422	0.341818	0.181374	0.158084	0.221549	0.940696	0.214913	0.099551	0.164400	0.460306	0.127240	0.118587	0.108356	0.409350	0.145904	0.179402	0.168287	0.255379	0.130712	0.251351	0.206220	0.556452	0.084791	0.109369	0.298881	0.369005	0.242314	0.176227	0.072615	0.226813	0.122610	0.078111	0.073347	0.112810	0.202065	0.270122	0.094757	0.228446	0.056518	0.096276	0.762293	0.752958	0.588950	0.434997	0.492810	0.725734	0.115121	0.083524
31	0.133724	0.265045	0.201672	0.161093	0.155144	0.570202	0.136817	0.143216	0.300666	0.197732	0.224426	0.225997	0.178433	0.391595	0.242425	0.149585	0.180836	0.258026	0.088564	0.215282	0.090081	0.324871	0.381777	0.204554	0.104220	0.298561	0.188138	0.191879	0.179232	0.581200	0.068320	0.139857	0.194880	0.348302	0.181501	0.169991	0.222885	0.959458	0.197229	0.075113	0.151756	0.461397	0.131201	0.123077	0.129116	0.425079	0.144338	0.161848	0.173842	0.233757	0.131595	0.267390	0.208109	0.624464	0.073823	0.114226	0.349674	0.386323	0.245999	0.189235	0.090201	0.294929	0.139089	0.108016	0.074226	0.115176	0.199518	0.267113	0.141208	0.231925	0.050652	0.077768	0.753394	0.740004	0.617385	0.430261	0.478881	0.716669	0.094572	0.083077
32	0.139090	0.286064	0.221465	0.161187	0.170842	0.635669	0.137841	0.141386	0.299062	0.198063	0.226415	0.237843	0.154959	0.414224	0.242207	0.121974	0.185555	0.264537	0.080369	0.215182	0.125928	0.329122	0.356703	0.178381	0.110044	0.309825	0.183077	0.146397	0.164845	0.580796	0.100976	0.146951	0.199238	0.355181	0.180285	0.167607	0.220057	0.964450	0.188453	0.079906	0.142822	0.459381	0.123978	0.125601	0.135223	0.430293	0.101800	0.162254	0.191580	0.232524	0.131430	0.276064	0.208179	0.654189	0.079349	0.126446	0.356370	0.388518	0.248027	0.192169	0.099221	0.325578	0.139991	0.130535	0.079291	0.120839	0.219848	0.294757	0.171037	0.239594	0.049953	0.115096	0.752575	0.737752	0.618077	0.446646	0.478041	0.729697	0.081349	0.077901
33	0.150919	0.311803	0.224324	0.152912	0.171550	0.644026	0.136033	0.138036	0.310189	0.205632	0.253156	0.261707	0.151469	0.465263	0.243674	0.119301	0.185822	0.264653	0.083794	0.206026	0.148373	0.297398	0.308504	0.149606	0.116105	0.299125	0.172899	0.172097	0.158531	0.585403	0.138449	0.144043	0.203038	0.379224	0.199668	0.164456	0.216729	0.980313	0.188218	0.079348	0.139231	0.454506	0.118472	0.125475	0.136457	0.439780	0.065557	0.184257	0.202197	0.234619	0.130983	0.279953	0.207882	0.655768	0.093122	0.127084	0.373242	0.383827	0.263680	0.183635	0.100946	0.329070	0.151660	0.129685	0.083282	0.118354	0.232857	0.347702	0.171243	0.271464	0.048514	0.124977	0.775562	0.752669	0.617095	0.440365	0.479051	0.750337	0.073062	0.066279
34	0.172284	0.324903	0.225786	0.134155	0.171491	0.644156	0.129498	0.116767	0.316139	0.214312	0.263739	0.262274	0.196459	0.473904	0.234557	0.122025	0.186285	0.249197	0.116651	0.201230	0.158270	0.291422	0.272133	0.117338	0.108579	0.250668	0.167518	0.190036	0.154656	0.591685	0.138334	0.139339	0.203312	0.382785	0.221676	0.173777	0.222961	1.022015	0.178011	0.082144	0.139644	0.392469	0.141207	0.131098	0.131374	0.464182	0.069934	0.199171	0.203756	0.234510	0.127295	0.277097	0.211418	0.655234	0.097065	0.124341	0.393015	0.383053	0.266239	0.289409	0.101218	0.330092	0.174473	0.129485	0.083903	0.119206	0.264018	0.325283	0.181966	0.272413	0.044043	0.125413	0.801679	0.758648	0.625201	0.414653	0.476647	0.766602	0.068744	0.055419
35	0.173563	0.311399	0.235519	0.111720	0.171722	0.644064	0.125686	0.105545	0.333474	0.232958	0.253147	0.255710	0.278244	0.472926	0.219277	0.123101	0.187060	0.231832	0.143291	0.202002	0.178148	0.275966	0.250267	0.097497	0.102603	0.227665	0.167214	0.193744	0.156620	0.591213	0.170166	0.138465	0.214036	0.388472	0.220567	0.198826	0.241574	1.052625	0.150375	0.083845	0.140982	0.264247	0.194602	0.127173	0.128787	0.493826	0.071392	0.174634	0.207915	0.228356	0.123988	0.262832	0.211792	0.653488	0.094940	0.121229	0.434447	0.395840	0.276104	0.395808	0.102082	0.335018	0.200404	0.132302	0.090283	0.122658	0.260154	0.287952	0.188620	0.271073	0.045401	0.127563	0.821112	0.753403	0.617725	0.475547	0.461501	0.761236	0.068933	0.053176
36	0.213523	0.295252	0.243334	0.103721	0.171320	0.640621	0.128775	0.106228	0.357728	0.236441	0.267395	0.261932	0.295498	0.485062	0.190534	0.106200	0.190346	0.229456	0.149481	0.189887	0.178573	0.278707	0.248789	0.120079	0.103216	0.225218	0.186017	0.197043	0.158009	0.590107	0.245238	0.138088	0.219955	0.395707	0.227597	0.222430	0.240506	1.066756	0.110096	0.086472	0.146418	0.215620	0.231036	0.115677	0.127228	0.512530	0.068242	0.151268	0.209529	0.203473	0.140515	0.259625	0.208540	0.643875	0.097291	0.121003	0.437638	0.392623	0.289212	0.409846	0.102740	0.336339	0.228865	0.154112	0.106687	0.127768	0.259305	0.322479	0.210324	0.269360	0.055106	0.136219	0.807700	0.713060	0.636907	0.540905	0.423180	0.702644	0.069396	0.052949
37	0.377095	0.347024	0.246177	0.110241	0.170516	0.627861	0.120089	0.111060	0.367538	0.240846	0.286326	0.272082	0.293497	0.518096	0.156929	0.066573	0.188702	0.234172	0.167911	0.174506	0.177578	0.278663	0.218920	0.169826	0.097552	0.198623	0.258844	0.238363	0.162479	0.589678	0.317764	0.185086	0.221031	0.393324	0.231845	0.252106	0.237501	1.065412	0.088749	0.122572	0.301619	0.331334	0.237582	0.118515	0.126708	0.513797	0.059077	0.151944	0.219019	0.221660	0.163397	0.276059	0.205821	0.635167	0.107200	0.140493	0.441274	0.384887	0.285957	0.403826	0.107479	0.333207	0.230471	0.152650	0.100157	0.121774	0.277664	0.398930	0.220981	0.264297	0.056044	0.144352	0.789522	0.647886	0.665195	0.551778	0.367575	0.587477	0.068645	0.053223
38	0.548186	0.401790	0.265766	0.198454	0.179087	0.627772	0.117656	0.098870	0.431399	0.346587	0.288245	0.265591	0.303497	0.564547	0.128269	0.051951	0.188897	0.237394	0.262698	0.186446	0.177021	0.277101	0.165505	0.197223	0.128422	0.183877	0.282507	0.245131	0.162488	0.587197	0.345767	0.238523	0.204790	0.387229	0.251816	0.305603	0.231370	1.050484	0.090599	0.128425	0.515624	0.450261	0.240910	0.162583	0.127419	0.510011	0.056815	0.151462	0.220775	0.226740	0.185466	0.279582	0.202544	0.608260	0.108733	0.233932	0.458034	0.381418	0.289336	0.410449	0.119754	0.316068	0.239498	0.172800	0.094697	0.119401	0.265904	0.426829	0.318310	0.274334	0.054372	0.145529	0.742989	0.597053	0.673288	0.552208	0.348432	0.563038	0.075640	0.052434
39	0.631262	0.426648	0.268186	0.312252	0.184045	0.625698	0.107043	0.101470	0.514360	0.401171	0.309249	0.253855	0.335671	0.608170	0.106547	0.056328	0.191021	0.232248	0.324975	0.184304	0.176726	0.275312	0.123926	0.209399	0.144105	0.198464	0.418076	0.244599	0.162043	0.583095	0.346641	0.293396	0.196495	0.386669	0.252295	0.311400	0.227872	1.023349	0.091948	0.127663	0.643650	0.504032	0.237860	0.178670	0.128772	0.504736	0.067086	0.156166	0.229245	0.212022	0.208181	0.291687	0.199933	0.534540	0.105116	0.257610	0.484543	0.389527	0.311644	0.431348	0.120719	0.302025	0.252618	0.201998	0.090589	0.115327	0.266701	0.426733	0.370066	0.269167	0.066185	0.144600	0.732080	0.597437	0.666037	0.581295	0.274117	0.491281	0.083202	0.051265
40	0.647636	0.428063	0.299315	0.338257	0.205932	0.623159	0.098388	0.122425	0.504722	0.386797	0.359899	0.253425	0.455026	0.659173	0.109908	0.058592	0.202350	0.231464	0.330588	0.172474	0.177396	0.275042	0.099685	0.209450	0.145603	0.202197	0.507258	0.240231	0.165312	0.545275	0.360878	0.303775	0.194907	0.371417	0.254543	0.324170	0.219625	0.919631	0.090631	0.118521	0.717369	0.527580	0.249142	0.186650	0.128862	0.503660	0.071411	0.168696	0.237136	0.209493	0.212037	0.325040	0.195354	0.498220	0.101448	0.264870	0.496287	0.379796	0.317624	0.468670	0.112804	0.297768	0.268045	0.222107	0.097501	0.115107	0.270426	0.424056	0.370562	0.264255	0.095372	0.143684	0.733925	0.597710	0.640050	0.635592	0.232578	0.419143	0.081880	0.048354
41	0.748356	0.488254	0.339222	0.340726	0.208673	0.611387	0.140474	0.152755	0.491931	0.374882	0.361237	0.299197	0.482436	0.679570	0.110032	0.060028	0.201597	0.206987	0.339250	0.230784	0.177437	0.276807	0.099073	0.214705	0.151873	0.206032	0.536884	0.258671	0.170318	0.423424	0.377148	0.322365	0.174738	0.336034	0.252434	0.342554	0.195415	0.739718	0.085884	0.134528	0.776135	0.576948	0.251284	0.278980	0.128736	0.504671	0.089800	0.171409	0.276010	0.221644	0.220955	0.375186	0.151292	0.483138	0.117242	0.315197	0.529591	0.422580	0.283738	0.519224	0.101849	0.293204	0.270346	0.222551	0.102748	0.119165	0.270475	0.421958	0.369764	0.257797	0.103120	0.142859	0.701312	0.539511	0.613380	0.675190	0.222162	0.411222	0.080484	0.052230
42	0.910537	0.639493	0.349049	0.366996	0.221201	0.606995	0.148070	0.162996	0.482851	0.374142	0.383975	0.312213	0.482346	0.675888	0.117442	0.075243	0.186354	0.154849	0.373392	0.261662	0.179009	0.275786	0.108509	0.230213	0.155272	0.206518	0.535647	0.359564	0.172700	0.350716	0.383797	0.379544	0.174265	0.322268	0.252963	0.342536	0.189336	0.695123	0.085569	0.136238	1.130282	0.809254	0.258327	0.549604	0.124878	0.481931	0.108850	0.204411	0.336054	0.241242	0.239283	0.372461	0.110558	0.445172	0.144649	0.383896	0.627731	0.506801	0.302623	0.527213	0.102382	0.285676	0.268004	0.222692	0.102524	0.118478	0.266285	0.417641	0.363092	0.256775	0.118172	0.142645	0.661339	0.460626	0.648058	0.701484	0.222720	0.394813	0.081539	0.052022
43	0.941790	0.657489	0.349019	0.406250	0.229281	0.535185	0.196973	0.186592	0.462143	0.372913	0.416226	0.318431	0.482815	0.652750	0.136997	0.078466	0.193315	0.140355	0.401526	0.261980	0.180328	0.253263	0.109762	0.247857	0.155192	0.214099	0.537845	0.494687	0.162519	0.335920	0.386331	0.423539	0.189104	0.324577	0.254024	0.349370	0.148357	0.553517	0.086607	0.146793	1.180123	0.831842	0.269636	0.650159	0.113525	0.384806	0.113041	0.217961	0.338341	0.240259	0.248367	0.364191	0.097069	0.341125	0.146401	0.409213	0.628173	0.508660	0.305724	0.539299	0.116650	0.296325	0.250710	0.221469	0.129233	0.120712	0.241344	0.374614	0.351128	0.252308	0.153282	0.135050	0.638658	0.426547	0.654927	0.726111	0.225308	0.411389	0.076185	0.058445
44	0.942105	0.655636	0.344399	0.426406	0.229563	0.402804	0.246076	0.191881	0.462322	0.372613	0.429312	0.358123	0.483167	0.617741	0.139265	0.079431	0.203876	0.138836	0.405526	0.284372	0.181018	0.190945	0.112825	0.261094	0.151516	0.219586	0.572371	0.576786	0.130909	0.208930	0.388423	0.444349	0.193187	0.318549	0.253505	0.401519	0.143658	0.508030	0.086583	0.163832	1.184252	0.827501	0.309914	0.654289	0.111946	0.333029	0.114516	0.227203	0.334727	0.232199	0.330363	0.349430	0.097600	0.220604	0.145776	0.414063	0.643313	0.503097	0.320260	0.577442	0.185945	0.416509	0.245258	0.208095	0.141796	0.143267	0.205157	0.356155	0.334049	0.245540	0.164642	0.100756	0.622448	0.393186	0.604708	0.728281	0.195897	0.459220	0.079432	0.059694
45	0.942735	0.648945	0.337570	0.430051	0.233068	0.383615	0.260349	0.207328	0.458041	0.375347	0.437620	0.418123	0.486725	0.592123	0.139003	0.084648	0.194120	0.119783	0.405692	0.311643	0.182057	0.162105	0.113368	0.264488	0.148331	0.214462	0.589250	0.579266	0.123132	0.188980	0.389810	0.448702	0.223476	0.292340	0.252991	0.459015	0.144559	0.501872	0.087958	0.179898	1.185950	0.825502	0.323952	0.675446	0.093016	0.324016	0.114032	0.256796	0.332227	0.215829	0.421897	0.337875	0.098626	0.171188	0.140806	0.411871	0.631416	0.482746	0.326687	0.602048	0.301073	0.632415	0.241929	0.201679	0.165111	0.179507	0.187628	0.386046	0.334101	0.207755	0.164619	0.088492	0.604348	0.379237	0.541560	0.754494	0.175449	0.492217	0.078879	0.059288
46	0.942646	0.641484	0.351202	0.432937	0.205428	0.218722	0.261723	0.238784	0.448068	0.375000	0.442231	0.475567	0.487304	0.575254	0.151830	0.123486	0.227546	0.122503	0.418370	0.361152	0.173215	0.139299	0.113285	0.267358	0.141639	0.196996	0.618990	0.588495	0.122276	0.188662	0.382076	0.446165	0.228554	0.284084	0.260104	0.495203	0.145035	0.478895	0.086988	0.197332	1.186795	0.825561	0.330776	0.691815	0.066351	0.304305	0.111317	0.293860	0.371311	0.233696	0.438053	0.330539	0.104669	0.212335	0.130224	0.411190	0.600891	0.462248	0.324798	0.600894	0.353199	0.660976	0.225749	0.201773	0.160211	0.183583	0.300794	0.405805	0.329127	0.203773	0.165867	0.090561	0.602068	0.376592	0.522522	0.793712	0.173181	0.482970	0.080229	0.062767
47	0.941172	0.628899	0.359322	0.435236	0.218977	0.188344	0.275090	0.239906	0.447959	0.375407	0.433542	0.525011	0.488100	0.554886	0.212703	0.175053	0.242318	0.129944	0.457550	0.528210	0.145598	0.102765	0.113151	0.270196	0.142932	0.193111	0.680687	0.648836	0.118173	0.163949	0.371919	0.444452	0.218265	0.272907	0.289008	0.511273	0.133536	0.376926	0.088175	0.205153	1.187714	0.826338	0.341446	0.692334	0.065915	0.309265	0.112650	0.319830	0.431592	0.253112	0.447259	0.343273	0.101802	0.229766	0.125139	0.410641	0.594911	0.460638	0.342613	0.599455	0.361671	0.701392	0.206783	0.201318	0.193117	0.201682	0.306387	0.345415	0.325862	0.203842	0.165822	0.089889	0.584277	0.343590	0.518023	0.831089	0.175527	0.465992	0.100069	0.065282
48	0.941692	0.618553	0.362119	0.439037	0.222457	0.188938	0.287218	0.239916	0.438997	0.372822	0.416118	0.547200	0.482172	0.572887	0.269406	0.183026	0.282010	0.149526	0.464131	0.596875	0.126681	0.103402	0.113194	0.271369	0.144742	0.202414	0.745192	0.783500	0.118594	0.145364	0.370747	0.444488	0.221258	0.250594	0.268826	0.511698	0.083927	0.285391	0.097093	0.204878	1.196092	0.828363	0.364318	0.700155	0.084321	0.303778	0.113584	0.319354	0.457344	0.254147	0.495891	0.367613	0.103446	0.227471	0.125045	0.410786	0.587240	0.456928	0.398983	0.610153	0.370113	0.707144	0.177325	0.195168	0.198560	0.236392	0.331309	0.273248	0.313917	0.202843	0.162218	0.090659	0.542057	0.298460	0.488395	0.841045	0.174889	0.435754	0.136650	0.065810
49	0.944622	0.615088	0.358313	0.436205	0.222551	0.188296	0.289383	0.248660	0.437999	0.366566	0.453910	0.549972	0.448880	0.596996	0.286930	0.182186	0.288277	0.151858	0.457938	0.601117	0.103292	0.098067	0.113440	0.270315	0.145993	0.212742	0.772183	0.894512	0.114906	0.150749	0.353532	0.444340	0.229866	0.248020	0.271397	0.558412	0.110559	0.232927	0.104498	0.207676	1.199328	0.829987	0.393500	0.720874	0.088398	0.273008	0.110411	0.315067	0.461970	0.263741	0.542748	0.407535	0.118982	0.237595	0.121871	0.410296	0.580188	0.452194	0.446036	0.602179	0.394775	0.721456	0.156954	0.206517	0.198782	0.252957	0.440582	0.300879	0.304516	0.201879	0.161943	0.096526	0.484230	0.289735	0.446252	0.825230	0.191680	0.413242	0.157643	0.088584
50	0.941999	0.613796	0.350911	0.436486	0.222306	0.187790	0.287430	0.277969	0.428454	0.357778	0.503595	0.552437	0.426365	0.593846	0.286647	0.187879	0.296344	0.156258	0.457905	0.642953	0.081115	0.078782	0.113158	0.268193	0.163312	0.228272	0.777840	0.958632	0.110814	0.149484	0.302334	0.443530	0.231064	0.234151	0.317344	0.676341	0.153282	0.242648	0.104665	0.190295	1.210282	0.841825	0.373399	0.729255	0.098400	0.227803	0.110148	0.314903	0.465860	0.271974	0.545953	0.437137	0.126661	0.239416	0.114832	0.398405	0.546285	0.438171	0.484611	0.541097	0.396027	0.722128	0.157146	0.261712	0.199835	0.259201	0.473958	0.302427	0.222439	0.143346	0.161830	0.094499	0.446539	0.307404	0.440693	0.776682	0.216142	0.440062	0.159534	0.130093
51	0.904265	0.586760	0.346713	0.449057	0.221509	0.190261	0.287971	0.303456	0.408678	0.357317	0.496558	0.585518	0.425524	0.570599	0.288857	0.201136	0.303722	0.147910	0.448684	0.743805	0.078548	0.074489	0.108595	0.252255	0.224172	0.235244	0.914878	0.962915	0.104402	0.143955	0.226456	0.422797	0.238984	0.243215	0.317792	0.782156	0.174484	0.275910	0.099869	0.184655	1.197660	0.816252	0.367420	0.729301	0.105944	0.220635	0.109537	0.311792	0.460595	0.267248	0.541144	0.438235	0.127547	0.228159	0.115950	0.351337	0.543818	0.437540	0.484602	0.574545	0.406556	0.719165	0.146153	0.273157	0.196978	0.261820	0.475900	0.338553	0.055139	0.061236	0.158039	0.094235	0.449611	0.293655	0.398086	0.748396	0.212950	0.475728	0.159657	0.133521
52	0.817554	0.545789	0.335657	0.462160	0.214727	0.190185	0.288878	0.322201	0.402464	0.343931	0.490011	0.616854	0.422615	0.536017	0.303925	0.225700	0.308741	0.143149	0.407795	0.852567	0.083209	0.074089	0.105745	0.220146	0.260199	0.234503	1.084783	0.996935	0.104434	0.139185	0.192064	0.395575	0.305703	0.318868	0.315487	0.823316	0.233220	0.321082	0.098587	0.186033	1.130546	0.757402	0.372679	0.733467	0.108495	0.221265	0.109142	0.311481	0.461409	0.252654	0.538251	0.431250	0.126287	0.225348	0.116510	0.347203	0.541398	0.428148	0.526399	0.642416	0.410630	0.719312	0.122342	0.250460	0.197014	0.259523	0.488954	0.347891	0.056802	0.083852	0.144402	0.094750	0.345165	0.260562	0.365389	0.745345	0.205681	0.498124	0.164081	0.146307
53	0.747071	0.536436	0.333645	0.411181	0.213832	0.200738	0.288202	0.323143	0.283248	0.202250	0.491869	0.631561	0.412374	0.520079	0.316423	0.251523	0.307835	0.142056	0.392472	0.900962	0.101027	0.076853	0.105487	0.197749	0.399206	0.308452	1.115234	1.101346	0.108488	0.121456	0.190796	0.369388	0.333281	0.344787	0.329189	0.812265	0.272775	0.349206	0.109705	0.210969	1.062466	0.719081	0.411077	0.770653	0.108919	0.222304	0.110434	0.318615	0.455563	0.255034	0.530465	0.425315	0.155850	0.240128	0.115667	0.339838	0.522482	0.406809	0.530933	0.644564	0.436365	0.735881	0.102533	0.248236	0.189434	0.258647	0.501721	0.348009	0.064686	0.084497	0.140642	0.095774	0.315209	0.272776	0.358164	0.762126	0.212589	0.510130	0.167539	0.173167
54	0.732361	0.554466	0.319782	0.387161	0.189944	0.209430	0.281873	0.312830	0.152914	0.122201	0.470254	0.647851	0.309184	0.485663	0.318407	0.265071	0.295968	0.145469	0.414215	0.903139	0.104639	0.080341	0.101995	0.186155	0.454019	0.339333	1.096102	1.166073	0.112259	0.120899	0.157254	0.374876	0.332160	0.340661	0.345575	0.861139	0.300183	0.353337	0.117999	0.235487	1.000677	0.694735	0.492701	0.855020	0.113838	0.231465	0.112134	0.340062	0.448742	0.256564	0.524873	0.405742	0.173864	0.260202	0.088287	0.301366	0.497127	0.380474	0.522135	0.635157	0.471259	0.755542	0.110067	0.258382	0.171993	0.251885	0.503508	0.347740	0.070662	0.084124	0.146643	0.095849	0.323840	0.283623	0.364486	0.766628	0.214372	0.511179	0.165692	0.180713
55	0.682244	0.533336	0.277984	0.422014	0.186904	0.217116	0.263351	0.299738	0.158185	0.128682	0.441714	0.679351	0.209227	0.441028	0.318474	0.271717	0.293619	0.150189	0.412696	0.891940	0.105340	0.081470	0.091316	0.188967	0.497404	0.354932	1.101568	1.150966	0.117195	0.135780	0.117430	0.356352	0.330687	0.339632	0.345923	0.951233	0.309927	0.352808	0.120679	0.246568	0.987200	0.693446	0.516106	0.901002	0.130006	0.245293	0.127445	0.362650	0.434026	0.254714	0.542650	0.360349	0.174014	0.259094	0.045542	0.251834	0.476068	0.371799	0.517410	0.612009	0.480797	0.761378	0.109876	0.259856	0.160666	0.245135	0.503386	0.324393	0.161073	0.132973	0.123454	0.099143	0.331636	0.298672	0.358742	0.763010	0.212437	0.510727	0.165431	0.182532
56	0.439660	0.341829	0.247975	0.416494	0.166485	0.220579	0.258519	0.294700	0.158223	0.123093	0.445076	0.680910	0.207397	0.450316	0.317156	0.271323	0.303376	0.159421	0.380215	0.913173	0.106477	0.077967	0.075719	0.194860	0.585880	0.403067	1.102143	1.111815	0.136583	0.147713	0.094568	0.298779	0.331769	0.344312	0.348627	1.005543	0.377208	0.390673	0.114602	0.241437	0.621028	0.445433	0.533967	0.816487	0.133191	0.243356	0.118802	0.371066	0.395784	0.257406	0.556564	0.396413	0.169997	0.249102	0.054844	0.220733	0.468924	0.353402	0.582129	0.578545	0.474272	0.746127	0.111130	0.258523	0.151290	0.219141	0.476188	0.278631	0.171755	0.148400	0.111483	0.103204	0.330477	0.303190	0.306720	0.730332	0.212454	0.509033	0.163752	0.197438
57	0.261255	0.236888	0.246300	0.399330	0.147881	0.221855	0.218526	0.283054	0.165304	0.117511	0.417671	0.685080	0.201181	0.451429	0.308138	0.272057	0.302176	0.161649	0.355295	0.931711	0.107425	0.094204	0.085405	0.205859	0.620608	0.431214	1.087102	1.056805	0.153300	0.154367	0.098905	0.253168	0.330580	0.348106	0.371357	1.012775	0.576318	0.538704	0.115274	0.230680	0.348563	0.330250	0.582116	0.699605	0.133526	0.242720	0.110990	0.353023	0.381868	0.266144	0.581443	0.510680	0.170860	0.244052	0.063445	0.220145	0.300041	0.186629	0.574332	0.591254	0.439918	0.616333	0.113576	0.257246	0.191942	0.231401	0.438263	0.272836	0.183044	0.262091	0.111309	0.101332	0.340406	0.318139	0.234657	0.693443	0.209722	0.496937	0.161953	0.203865
58	0.261543	0.237042	0.246321	0.378734	0.128792	0.206909	0.164610	0.291082	0.182384	0.122243	0.405632	0.690060	0.198248	0.452522	0.305735	0.277812	0.297633	0.160869	0.357153	0.924466	0.113362	0.104869	0.095614	0.195779	0.634974	0.447644	1.084057	1.044955	0.188209	0.171496	0.101754	0.214491	0.330186	0.357077	0.392377	1.015306	0.608138	0.556664	0.125758	0.217083	0.339299	0.354457	0.607910	0.688448	0.133924	0.243850	0.109869	0.350600	0.381748	0.261105	0.695177	0.645253	0.169119	0.228106	0.102557	0.235013	0.270372	0.152739	0.605579	0.601088	0.365825	0.425984	0.113927	0.256504	0.252331	0.299950	0.434897	0.293212	0.183595	0.305576	0.115177	0.101301	0.346489	0.328462	0.413006	0.696281	0.204172	0.465791	0.160548	0.202300
59	0.289083	0.265099	0.241313	0.375033	0.125525	0.176379	0.146252	0.292436	0.184653	0.131320	0.396056	0.691421	0.192062	0.454975	0.305707	0.281928	0.291537	0.160341	0.364791	0.917397	0.111662	0.106783	0.092839	0.182265	0.640407	0.456344	1.114985	1.044719	0.312523	0.240888	0.096500	0.194104	0.334790	0.358567	0.411771	1.006618	0.607725	0.546245	0.127837	0.206099	0.355234	0.373702	0.606638	0.678767	0.138763	0.245209	0.109505	0.342171	0.381284	0.261495	0.732489	0.710930	0.163870	0.188459	0.122324	0.247531	0.230542	0.148740	0.635728	0.570789	0.338555	0.394007	0.113519	0.262518	0.391137	0.403444	0.357948	0.282776	0.186947	0.309786	0.116146	0.099319	0.354088	0.335678	0.624207	0.718158	0.189783	0.415153	0.158041	0.203801
60	0.341584	0.284453	0.223531	0.407300	0.171883	0.178637	0.140456	0.276389	0.185747	0.130487	0.389054	0.678728	0.190272	0.458660	0.303201	0.274966	0.291710	0.152531	0.344566	0.892307	0.108446	0.159049	0.097622	0.179146	0.640840	0.452384	1.166040	1.023023	0.320881	0.248986	0.092314	0.186970	0.339798	0.374609	0.453440	0.983453	0.608182	0.541718	0.126254	0.197483	0.378825	0.375103	0.606204	0.658911	0.160752	0.249558	0.119891	0.316553	0.365225	0.260492	0.724941	0.720406	0.162260	0.184286	0.125098	0.250105	0.190842	0.196296	0.668217	0.543145	0.326277	0.330323	0.117958	0.269947	0.457855	0.452786	0.255445	0.259984	0.207077	0.315499	0.116268	0.091458	0.357395	0.337487	0.694841	0.682795	0.171098	0.375929	0.157914	0.203463
61	0.342485	0.285412	0.270609	0.454538	0.194331	0.180492	0.109935	0.276332	0.203560	0.128276	0.436811	0.638554	0.190424	0.452217	0.272755	0.249093	0.282411	0.147110	0.287758	0.810790	0.106175	0.226453	0.108531	0.174299	0.640453	0.449286	1.170419	0.961637	0.321216	0.248664	0.088819	0.185929	0.378899	0.416242	0.469311	0.967905	0.609557	0.549371	0.162628	0.213961	0.464229	0.377051	0.615768	0.657282	0.183272	0.260954	0.126221	0.281346	0.264705	0.230702	0.759879	0.719704	0.159580	0.192355	0.136519	0.249889	0.258397	0.291717	0.698752	0.540967	0.314793	0.318615	0.148445	0.272371	0.552819	0.499307	0.241030	0.232122	0.230057	0.319315	0.116269	0.069344	0.358716	0.337682	0.708830	0.620901	0.165847	0.372254	0.155861	0.209105
62	0.336689	0.287057	0.290297	0.464566	0.234511	0.182406	0.074430	0.279108	0.249753	0.128237	0.486619	0.654302	0.170099	0.421766	0.211314	0.246223	0.248490	0.130913	0.271273	0.776745	0.106510	0.235316	0.113361	0.168990	0.641062	0.452448	1.143179	0.971511	0.322512	0.245996	0.088351	0.188145	0.393825	0.432915	0.444937	0.961349	0.605456	0.546831	0.264961	0.228192	0.507332	0.373998	0.651119	0.651786	0.182950	0.249117	0.141755	0.251674	0.202915	0.231995	0.827523	0.748757	0.153944	0.185410	0.148230	0.250279	0.335062	0.362750	0.698245	0.540253	0.289980	0.298258	0.180253	0.241142	0.569238	0.557365	0.240401	0.187312	0.242738	0.388537	0.116398	0.072122	0.360573	0.337753	0.719085	0.571387	0.169116	0.371673	0.141765	0.223158
63	0.336506	0.295056	0.317509	0.467139	0.245311	0.192142	0.068355	0.270708	0.250372	0.123039	0.480563	0.733607	0.161730	0.380983	0.167420	0.250074	0.240309	0.127261	0.291879	0.774207	0.103888	0.244945	0.115595	0.164323	0.645229	0.457440	1.140619	0.928709	0.322890	0.243386	0.119673	0.197377	0.448457	0.465845	0.446832	0.959217	0.595944	0.541986	0.304309	0.229454	0.576401	0.405153	0.653718	0.635491	0.181278	0.231422	0.158033	0.242295	0.185334	0.231430	0.915313	0.807998	0.148681	0.183947	0.152404	0.249228	0.407548	0.398722	0.667001	0.532843	0.286637	0.310588	0.191952	0.178124	0.602187	0.570626	0.215443	0.186266	0.252604	0.396172	0.116564	0.079019	0.361931	0.337728	0.783551	0.565420	0.173653	0.372866	0.109242	0.232413
64	0.348982	0.307787	0.421001	0.484008	0.328629	0.258565	0.065570	0.236572	0.266879	0.121629	0.431835	0.797235	0.158463	0.373124	0.160067	0.247430	0.228422	0.121439	0.304362	0.748316	0.104692	0.250385	0.121840	0.164455	0.636791	0.453923	1.081382	0.891482	0.322911	0.243446	0.190673	0.199062	0.492181	0.482481	0.433665	0.916581	0.590137	0.535007	0.307880	0.236350	0.599989	0.420943	0.666560	0.628830	0.185463	0.217358	0.160366	0.239860	0.172833	0.227804	0.986404	0.852398	0.147435	0.183756	0.151703	0.246733	0.619365	0.445419	0.640857	0.511036	0.267165	0.311229	0.188591	0.150588	0.614055	0.575696	0.225729	0.179478	0.262940	0.416981	0.115454	0.080785	0.361277	0.330741	0.910068	0.570409	0.154858	0.367956	0.118380	0.221757
65	0.352741	0.308241	0.452639	0.479751	0.387374	0.301884	0.060011	0.198324	0.277933	0.117030	0.382659	0.812096	0.191097	0.377364	0.158899	0.246178	0.223957	0.119943	0.310026	0.665166	0.110681	0.279855	0.126317	0.164355	0.618611	0.450735	0.904356	0.886624	0.323437	0.244151	0.228256	0.199226	0.497130	0.488907	0.456949	0.821719	0.571771	0.528432	0.312270	0.251468	0.626892	0.434861	0.681333	0.639572	0.184904	0.191923	0.199086	0.240512	0.206844	0.232912	1.012821	0.884990	0.145168	0.206857	0.151961	0.244789	0.668943	0.454561	0.617161	0.516711	0.258725	0.309112	0.200785	0.150117	0.624661	0.575333	0.227768	0.175747	0.290930	0.476704	0.113056	0.079421	0.353539	0.320142	1.066987	0.554615	0.150959	0.311436	0.173198	0.215521
66	0.367042	0.304459	0.452207	0.457077	0.390186	0.299799	0.092967	0.172698	0.276938	0.117542	0.403881	0.781830	0.210325	0.369475	0.130613	0.239202	0.220003	0.120331	0.297262	0.526295	0.114163	0.340784	0.129943	0.164621	0.570456	0.422747	0.738507	0.849919	0.323263	0.246703	0.229901	0.196001	0.658586	0.605309	0.503121	0.724584	0.550070	0.504441	0.330492	0.260223	0.775060	0.578471	0.699869	0.645192	0.184619	0.173487	0.241957	0.240628	0.205388	0.238373	1.027302	0.916290	0.119049	0.185919	0.151681	0.237818	0.710373	0.519831	0.632363	0.497522	0.200001	0.256969	0.205473	0.134087	0.654060	0.579164	0.217444	0.189604	0.307332	0.480842	0.093400	0.080454	0.343275	0.314215	1.148520	0.547261	0.157715	0.248989	0.191199	0.215700
67	0.358561	0.279386	0.451908	0.430107	0.390004	0.296463	0.098266	0.216549	0.285404	0.119325	0.455944	0.765485	0.211534	0.347152	0.089807	0.214875	0.236478	0.139396	0.267046	0.455334	0.121831	0.352216	0.131427	0.165022	0.480104	0.373014	0.735258	0.766616	0.320932	0.243281	0.234766	0.176227	0.717117	0.642707	0.523106	0.690789	0.535319	0.520518	0.359790	0.252301	0.873386	0.687009	0.695414	0.625583	0.197404	0.171830	0.250591	0.241515	0.203301	0.257265	1.034006	0.929585	0.100273	0.172400	0.151092	0.191541	0.725316	0.548057	0.634305	0.400957	0.108714	0.197421	0.204034	0.118597	0.672578	0.574620	0.210852	0.220954	0.307013	0.472771	0.072983	0.082077	0.303721	0.288361	1.159521	0.562076	0.187131	0.205471	0.185898	0.215554
68	0.330313	0.234473	0.448354	0.457257	0.393560	0.296540	0.107611	0.267021	0.295420	0.124365	0.488662	0.761645	0.195446	0.261176	0.066923	0.195435	0.240694	0.147683	0.241804	0.451030	0.147048	0.453993	0.166521	0.170713	0.462555	0.372904	0.720510	0.763755	0.313786	0.231119	0.238001	0.156626	0.715320	0.638019	0.513003	0.686998	0.528437	0.524832	0.370703	0.243967	0.883131	0.697613	0.635252	0.536603	0.196575	0.165104	0.253140	0.234631	0.206549	0.289487	1.038418	0.932302	0.094399	0.169539	0.151015	0.149101	0.728481	0.557109	0.675951	0.420366	0.090259	0.194278	0.203890	0.116521	0.654576	0.553624	0.244273	0.210923	0.340405	0.476552	0.055816	0.090868	0.276128	0.281992	1.171815	0.524258	0.190676	0.184337	0.179800	0.207202
69	0.315367	0.211006	0.442686	0.444068	0.397311	0.299000	0.136672	0.269358	0.295594	0.124771	0.490868	0.756886	0.192557	0.256486	0.062650	0.184393	0.234801	0.146457	0.246686	0.433215	0.151099	0.521620	0.254842	0.175459	0.374537	0.342222	0.712058	0.772361	0.304826	0.218136	0.239704	0.151040	0.719297	0.643589	0.504474	0.598521	0.498855	0.506511	0.371383	0.244975	0.885275	0.693791	0.601633	0.408041	0.193700	0.146571	0.257052	0.197714	0.210247	0.309820	1.038441	0.933900	0.119191	0.209736	0.146562	0.146271	0.731920	0.561583	0.716809	0.443272	0.090020	0.198277	0.203994	0.109941	0.623705	0.484513	0.280582	0.178730	0.368098	0.435277	0.054743	0.095652	0.274993	0.252708	1.227715	0.472714	0.192771	0.183717	0.180826	0.214716
70	0.317507	0.213114	0.441173	0.426237	0.397834	0.328599	0.153343	0.282271	0.292183	0.119308	0.488570	0.739947	0.182531	0.222278	0.060828	0.188520	0.221389	0.144700	0.257789	0.378916	0.179961	0.523372	0.287718	0.173259	0.244946	0.292564	0.711379	0.769894	0.295079	0.211226	0.240861	0.135367	0.720474	0.644131	0.515570	0.431640	0.238066	0.344907	0.370941	0.244896	0.889640	0.682191	0.599442	0.352577	0.188096	0.143686	0.253097	0.163128	0.189254	0.301720	1.027686	0.921353	0.179253	0.243212	0.139982	0.129020	0.732398	0.560709	0.732288	0.453214	0.090203	0.197868	0.210801	0.103929	0.534711	0.443934	0.281993	0.171992	0.539908	0.444700	0.048209	0.094610	0.266261	0.251998	1.293054	0.406014	0.199213	0.185468	0.183743	0.216665
71	0.318704	0.213356	0.441170	0.415694	0.401209	0.380927	0.153870	0.293562	0.297792	0.118844	0.492119	0.729437	0.178381	0.186434	0.060504	0.191014	0.213370	0.144230	0.257982	0.372666	0.196404	0.528269	0.294131	0.146084	0.217705	0.276422	0.711722	0.772661	0.289784	0.232998	0.234354	0.105666	0.720096	0.641106	0.538203	0.327057	0.088040	0.290336	0.367194	0.243991	0.887595	0.671437	0.571040	0.425786	0.192428	0.148485	0.257625	0.145144	0.176480	0.288425	1.016938	0.878370	0.242721	0.253357	0.113952	0.103805	0.724480	0.552615	0.690317	0.454616	0.100084	0.223622	0.222041	0.103600	0.510167	0.465775	0.321766	0.197090	0.586499	0.460072	0.061635	0.095346	0.264498	0.247912	1.318003	0.395628	0.198002	0.182502	0.184086	0.203984
72	0.316515	0.222834	0.441039	0.402805	0.401737	0.391956	0.153640	0.293318	0.303527	0.114231	0.530833	0.731474	0.178147	0.180497	0.061087	0.182235	0.211170	0.155086	0.250470	0.376458	0.194372	0.526934	0.293848	0.102560	0.189281	0.248046	0.704458	0.771374	0.260435	0.298591	0.230428	0.104931	0.718358	0.636682	0.519786	0.326711	0.090299	0.286998	0.366043	0.239604	0.885278	0.658852	0.534482	0.544045	0.194448	0.147795	0.259344	0.150241	0.198746	0.287477	0.951905	0.780857	0.288897	0.262819	0.101157	0.090267	0.722386	0.552002	0.677832	0.422560	0.110753	0.280108	0.227548	0.086878	0.432914	0.338738	0.331200	0.314628	0.580493	0.458938	0.109171	0.094781	0.285332	0.253152	1.314325	0.386751	0.198627	0.182022	0.189204	0.218874
73	0.328441	0.250111	0.441856	0.411611	0.398388	0.402725	0.158936	0.280238	0.298279	0.122192	0.608769	0.726242	0.177998	0.169205	0.061475	0.175212	0.202385	0.150328	0.243170	0.376335	0.208702	0.529738	0.323670	0.093650	0.192784	0.236929	0.658277	0.770235	0.106888	0.279572	0.229605	0.103278	0.716725	0.631091	0.516244	0.279018	0.093880	0.286857	0.365764	0.238346	0.875313	0.649075	0.519206	0.611869	0.200716	0.145032	0.260763	0.152721	0.202843	0.289251	0.865686	0.706260	0.303666	0.264411	0.097181	0.086933	0.722704	0.553510	0.655276	0.393692	0.124136	0.331726	0.222179	0.067613	0.423277	0.322593	0.345661	0.322389	0.576264	0.485833	0.145035	0.162948	0.429633	0.325511	1.250462	0.345849	0.197880	0.181827	0.193168	0.234107
74	0.312451	0.300734	0.438646	0.405492	0.379921	0.397004	0.161936	0.275251	0.309236	0.120645	0.646402	0.701396	0.176321	0.170571	0.063869	0.174038	0.150222	0.147364	0.243128	0.372630	0.209579	0.529713	0.340408	0.095635	0.221530	0.240750	0.559299	0.771230	0.103009	0.319757	0.229747	0.100849	0.710956	0.622117	0.496104	0.237832	0.090689	0.273164	0.352172	0.225699	0.872252	0.657616	0.525656	0.647832	0.199438	0.142899	0.273698	0.150290	0.328919	0.300381	0.846973	0.684580	0.415205	0.334285	0.096778	0.091624	0.724169	0.563060	0.620390	0.385013	0.123776	0.329175	0.195340	0.061135	0.378225	0.296129	0.414578	0.345801	0.571444	0.455975	0.148773	0.214599	0.480860	0.347597	1.167614	0.300356	0.197670	0.182243	0.196692	0.233480
75	0.381904	0.387993	0.426103	0.355084	0.358769	0.406305	0.162699	0.274853	0.335823	0.152246	0.661325	0.694185	0.178659	0.333374	0.063980	0.171148	0.158597	0.171563	0.242578	0.359734	0.213964	0.512738	0.356298	0.101556	0.227218	0.232211	0.527670	0.685643	0.111153	0.364444	0.231232	0.111641	0.698806	0.599247	0.469808	0.231495	0.090353	0.266931	0.282119	0.206173	0.840341	0.660004	0.518573	0.678634	0.181599	0.135741	0.291412	0.149787	0.425200	0.315231	0.836290	0.684867	0.437081	0.349456	0.145697	0.114884	0.724506	0.554170	0.590759	0.395700	0.149410	0.370068	0.165137	0.079414	0.365571	0.296701	0.512139	0.399476	0.567986	0.447320	0.161705	0.216581	0.479862	0.346424	1.139749	0.299456	0.197731	0.181108	0.202130	0.232537
76	0.477252	0.462645	0.414221	0.317896	0.335020	0.409741	0.163049	0.271889	0.336057	0.189137	0.722841	0.723244	0.185152	0.433642	0.065870	0.157256	0.188118	0.181053	0.241309	0.351010	0.218557	0.493781	0.365207	0.102596	0.231569	0.215088	0.565491	0.544919	0.106441	0.367944	0.233259	0.144973	0.681501	0.571460	0.465946	0.234430	0.097621	0.282235	0.232699	0.204190	0.810617	0.661474	0.474687	0.686954	0.166631	0.126578	0.299238	0.144375	0.467034	0.319850	0.777123	0.660613	0.442596	0.361525	0.180900	0.148684	0.709978	0.516583	0.592722	0.488013	0.148177	0.399095	0.154684	0.104793	0.363817	0.310924	0.571716	0.445567	0.566251	0.430599	0.164934	0.223892	0.480353	0.346369	1.137996	0.305787	0.195179	0.176003	0.213324	0.223079
77	0.502172	0.483383	0.406650	0.318296	0.328842	0.421651	0.168806	0.268935	0.363227	0.242477	0.770089	0.705883	0.186826	0.439291	0.068039	0.144930	0.207831	0.184322	0.216483	0.349754	0.218560	0.502847	0.366377	0.123504	0.204190	0.197310	0.614402	0.529099	0.104661	0.373273	0.217014	0.179858	0.669288	0.555098	0.465243	0.242500	0.131318	0.309919	0.226420	0.197522	0.756701	0.639311	0.419793	0.686364	0.162465	0.122745	0.288700	0.139487	0.514173	0.319920	0.687198	0.593831	0.452482	0.373931	0.182951	0.163297	0.676218	0.469475	0.629314	0.605483	0.162928	0.408115	0.156572	0.113875	0.306458	0.343326	0.571539	0.448527	0.557922	0.362674	0.165316	0.233100	0.482503	0.347367	1.131467	0.302474	0.190176	0.174338	0.218895	0.210086
78	0.507010	0.486244	0.346772	0.303473	0.229337	0.394787	0.174433	0.271481	0.421720	0.273513	0.787334	0.622849	0.190865	0.458485	0.068605	0.143999	0.319836	0.310434	0.210157	0.305889	0.218580	0.513169	0.367084	0.132039	0.203251	0.197441	0.642317	0.540828	0.104322	0.378504	0.158440	0.195532	0.626141	0.527836	0.455159	0.252588	0.151211	0.296830	0.222337	0.179336	0.725927	0.617494	0.436027	0.685946	0.163055	0.129576	0.288554	0.139037	0.597570	0.409773	0.589980	0.618918	0.468200	0.365275	0.216377	0.162140	0.659213	0.443195	0.667979	0.660908	0.164014	0.415110	0.137342	0.112673	0.314516	0.359996	0.571978	0.450498	0.550588	0.354950	0.164911	0.259162	0.550549	0.406963	1.075726	0.300952	0.214970	0.184115	0.219785	0.206408
79	0.572000	0.563859	0.338386	0.303854	0.174168	0.369886	0.201819	0.275444	0.433004	0.290465	0.798921	0.552422	0.168292	0.456449	0.065051	0.135393	0.374822	0.426237	0.196743	0.245981	0.216974	0.512553	0.366616	0.128167	0.228123	0.211449	0.629208	0.537301	0.101432	0.381990	0.121793	0.197564	0.593695	0.517369	0.434349	0.241306	0.162375	0.290612	0.192427	0.150015	0.685260	0.590906	0.513664	0.682964	0.157552	0.126859	0.289743	0.139043	0.752527	0.574323	0.573896	0.675292	0.468193	0.367843	0.275512	0.168181	0.558824	0.440670	0.683491	0.696394	0.163912	0.416795	0.124200	0.118472	0.284347	0.349399	0.552708	0.526799	0.530707	0.353967	0.165761	0.263199	0.602160	0.419938	0.961604	0.276118	0.256442	0.217067	0.197143	0.200195
80	0.564402	0.570170	0.377768	0.307641	0.199963	0.371587	0.198687	0.269272	0.503987	0.314101	0.797978	0.531605	0.129060	0.451730	0.051898	0.115715	0.378080	0.460422	0.200089	0.241113	0.236527	0.492198	0.365326	0.127871	0.261044	0.228675	0.592961	0.458287	0.101353	0.386116	0.145156	0.196646	0.578293	0.495098	0.375432	0.228846	0.179453	0.269345	0.119694	0.111804	0.609408	0.528921	0.492860	0.672202	0.160465	0.170841	0.252848	0.137311	0.782306	0.599060	0.631441	0.660035	0.475579	0.366401	0.286958	0.175063	0.513152	0.496152	0.676588	0.705645	0.162261	0.420174	0.127894	0.121415	0.280029	0.342994	0.549797	0.561735	0.509162	0.342605	0.170959	0.261025	0.612080	0.403850	0.806244	0.294813	0.251451	0.224429	0.152007	0.193894
81	0.566268	0.578044	0.397365	0.309310	0.226731	0.367572	0.204854	0.222282	0.531747	0.320057	0.778886	0.529513	0.125794	0.451369	0.046196	0.112203	0.377593	0.522835	0.192870	0.236562	0.238400	0.455869	0.378106	0.128164	0.265444	0.218919	0.586726	0.388159	0.106471	0.400201	0.152139	0.198437	0.293858	0.264189	0.331930	0.235817	0.202210	0.264744	0.049857	0.098710	0.322959	0.280743	0.576385	0.657435	0.189705	0.246908	0.224895	0.138470	0.809013	0.608850	0.729245	0.677249	0.477556	0.364527	0.286795	0.175232	0.567132	0.518266	0.663088	0.693682	0.163111	0.417097	0.132838	0.141634	0.235555	0.240583	0.573117	0.562673	0.484725	0.336964	0.188603	0.261011	0.635368	0.391980	0.717771	0.284260	0.290944	0.240605	0.143385	0.198253
82	0.566416	0.577527	0.403277	0.277505	0.228058	0.358789	0.197709	0.170893	0.538987	0.324996	0.748683	0.520810	0.125320	0.452675	0.046642	0.118120	0.384529	0.552025	0.175285	0.234832	0.251231	0.444432	0.392655	0.131973	0.271559	0.211906	0.596457	0.368010	0.144399	0.445584	0.148827	0.202873	0.193602	0.163170	0.333607	0.258583	0.279368	0.300171	0.044410	0.121593	0.287441	0.236264	0.643558	0.644241	0.229014	0.335039	0.228402	0.135776	0.832080	0.610904	0.762773	0.792012	0.467536	0.331840	0.286794	0.187074	0.556451	0.490521	0.638371	0.684691	0.165763	0.421363	0.129610	0.177310	0.232646	0.233279	0.603147	0.518362	0.297987	0.277622	0.223654	0.261332	0.641527	0.390111	0.716244	0.256283	0.346624	0.272760	0.148513	0.189104
83	0.566628	0.577681	0.401358	0.230906	0.282702	0.365222	0.177813	0.167958	0.535996	0.322624	0.732602	0.509082	0.128146	0.459699	0.044620	0.124158	0.538039	0.601705	0.151519	0.223088	0.296497	0.341909	0.373912	0.129241	0.282890	0.195460	0.596879	0.375011	0.148997	0.454104	0.181834	0.203410	0.216204	0.183714	0.336961	0.265219	0.323721	0.392175	0.045955	0.123741	0.276530	0.230007	0.655755	0.655291	0.263871	0.446401	0.242288	0.140264	0.839059	0.605307	0.769096	0.838423	0.446026	0.317160	0.288774	0.209593	0.553003	0.478908	0.584815	0.678535	0.162738	0.420927	0.114002	0.186505	0.234783	0.233353	0.609592	0.538465	0.154897	0.241352	0.232744	0.261460	0.636909	0.387027	0.681028	0.266952	0.348240	0.277050	0.151265	0.178767
84	0.571527	0.580120	0.400900	0.230307	0.323014	0.327341	0.183544	0.142810	0.536770	0.322094	0.733100	0.482966	0.129247	0.476441	0.043903	0.125454	0.586316	0.615714	0.131736	0.187244	0.303389	0.355195	0.321685	0.125497	0.286406	0.175867	0.604964	0.371461	0.176996	0.497990	0.247373	0.202911	0.324343	0.239502	0.336706	0.263440	0.333626	0.432560	0.063771	0.123947	0.264535	0.230285	0.652596	0.665402	0.267407	0.460141	0.239148	0.141629	0.843225	0.602493	0.819941	0.837141	0.414288	0.306722	0.291029	0.210313	0.566503	0.480125	0.526435	0.704853	0.197477	0.404989	0.092127	0.198835	0.222818	0.235674	0.589558	0.588157	0.164530	0.275858	0.216753	0.261684	0.633427	0.385285	0.565288	0.273124	0.350674	0.295670	0.151559	0.167846
85	0.576034	0.584565	0.406014	0.249190	0.327835	0.281641	0.202663	0.120342	0.545935	0.321947	0.732616	0.462761	0.149838	0.482908	0.044668	0.118172	0.587176	0.614364	0.130799	0.115883	0.288386	0.377744	0.301028	0.124102	0.289665	0.162925	0.678523	0.376578	0.182138	0.509491	0.283633	0.202742	0.367798	0.269095	0.320559	0.266631	0.334151	0.435064	0.096439	0.153639	0.252418	0.231495	0.651522	0.639997	0.282421	0.515077	0.236554	0.144817	0.844693	0.601458	0.859616	0.839413	0.396260	0.309594	0.299984	0.214173	0.571085	0.485167	0.506754	0.742459	0.197518	0.363467	0.082462	0.221878	0.220853	0.240211	0.509211	0.575920	0.161986	0.350287	0.200534	0.230107	0.641757	0.377114	0.423800	0.275256	0.351501	0.296499	0.168985	0.160779
86	0.579750	0.585779	0.432643	0.289044	0.329649	0.264745	0.225601	0.095149	0.545783	0.328178	0.723569	0.463633	0.172010	0.493454	0.043860	0.122111	0.589723	0.619286	0.129395	0.106027	0.314753	0.373074	0.303487	0.125071	0.287649	0.158095	0.731046	0.416258	0.172319	0.463197	0.291673	0.211008	0.372199	0.270460	0.296718	0.284552	0.335515	0.437247	0.124756	0.177838	0.251279	0.234889	0.686414	0.552793	0.288846	0.569706	0.230829	0.159329	0.842284	0.601559	0.883343	0.883938	0.376202	0.305709	0.317353	0.215697	0.570560	0.488616	0.507858	0.770784	0.192679	0.327903	0.081394	0.226921	0.210324	0.232770	0.405942	0.554182	0.159548	0.343366	0.207274	0.174212	0.640883	0.381592	0.363919	0.275571	0.354591	0.299226	0.199944	0.155162
87	0.575298	0.574171	0.524013	0.377563	0.331656	0.259203	0.238902	0.093681	0.542712	0.336189	0.678753	0.446093	0.189756	0.505914	0.043914	0.126581	0.592314	0.673566	0.122817	0.104354	0.337890	0.376463	0.318156	0.134240	0.297192	0.160971	0.719111	0.452502	0.170451	0.452080	0.291899	0.228383	0.405528	0.276199	0.295336	0.283550	0.336831	0.450676	0.135546	0.182430	0.245348	0.232705	0.709586	0.481604	0.287768	0.583156	0.232220	0.154501	0.841277	0.602848	0.901800	0.989287	0.260361	0.231587	0.330305	0.213324	0.573668	0.492289	0.502313	0.784588	0.194572	0.324653	0.107969	0.225699	0.169841	0.189283	0.389347	0.529893	0.164358	0.370149	0.201380	0.168572	0.619243	0.372579	0.360592	0.287382	0.361828	0.299288	0.200230	0.119743
88	0.562929	0.542082	0.570660	0.423692	0.330007	0.257471	0.242297	0.095072	0.556076	0.336162	0.599852	0.439531	0.197895	0.507211	0.044361	0.133029	0.593369	0.725919	0.119887	0.090213	0.363412	0.396991	0.315139	0.134620	0.294403	0.158607	0.714802	0.447092	0.165006	0.414226	0.298207	0.235593	0.471035	0.417607	0.294720	0.284210	0.337430	0.467514	0.137190	0.192261	0.232689	0.201155	0.707424	0.489284	0.283431	0.593902	0.228444	0.155664	0.818397	0.602978	0.905203	1.093981	0.243311	0.219212	0.305649	0.198549	0.585381	0.493368	0.502270	0.785650	0.183067	0.240522	0.154059	0.220170	0.100181	0.117954	0.424546	0.569798	0.157902	0.367732	0.198444	0.156513	0.521011	0.307455	0.437706	0.417696	0.365064	0.300695	0.197116	0.098839
89	0.531280	0.492916	0.562528	0.426992	0.331578	0.233523	0.250567	0.106382	0.548878	0.336353	0.585368	0.461185	0.198939	0.454883	0.043283	0.141470	0.588568	0.734122	0.120664	0.074527	0.436523	0.471749	0.310324	0.132009	0.295169	0.170959	0.731382	0.439031	0.168231	0.382506	0.315446	0.229556	0.490085	0.468129	0.305379	0.294738	0.337167	0.478218	0.156931	0.202389	0.234630	0.187089	0.729454	0.481492	0.285031	0.594226	0.208983	0.168353	0.764707	0.602172	0.903497	1.148128	0.235151	0.195079	0.303146	0.173192	0.584479	0.484824	0.502639	0.785880	0.181417	0.201879	0.164967	0.214597	0.086663	0.112530	0.423987	0.533030	0.129426	0.367491	0.199894	0.145986	0.503408	0.297876	0.469972	0.546318	0.383151	0.325355	0.203024	0.098659
90	0.495980	0.473112	0.544627	0.436222	0.342715	0.235515	0.266221	0.117054	0.543098	0.333007	0.536053	0.454306	0.190548	0.313806	0.057274	0.143177	0.578906	0.739022	0.133851	0.068660	0.448008	0.508402	0.289268	0.127210	0.310016	0.194860	0.702667	0.441886	0.170620	0.382188	0.341648	0.204063	0.487967	0.468128	0.312989	0.308671	0.326902	0.471477	0.168486	0.213664	0.209753	0.170493	0.787175	0.474211	0.330830	0.593530	0.177036	0.182062	0.741640	0.610118	0.898519	1.167986	0.221677	0.186198	0.323556	0.168045	0.584067	0.483518	0.523265	0.784328	0.170635	0.176007	0.160453	0.229028	0.091385	0.121948	0.423618	0.479829	0.162425	0.367884	0.204952	0.101928	0.503528	0.300219	0.470899	0.558398	0.390714	0.330682	0.216913	0.098637
91	0.491302	0.473806	0.546451	0.453799	0.374534	0.219246	0.269887	0.117420	0.524805	0.305916	0.359891	0.383423	0.205657	0.299792	0.070369	0.167722	0.569555	0.741985	0.147295	0.082798	0.449415	0.536051	0.298764	0.125171	0.327139	0.225782	0.666625	0.453316	0.170628	0.381296	0.348716	0.165711	0.487206	0.466756	0.302907	0.309368	0.321058	0.465460	0.168110	0.218935	0.200531	0.167334	0.820029	0.479732	0.370437	0.591977	0.175910	0.193620	0.707725	0.609965	0.868241	1.187256	0.200470	0.183041	0.306840	0.167368	0.581120	0.481474	0.547630	0.741471	0.170220	0.162705	0.202271	0.235260	0.101196	0.127955	0.414119	0.466556	0.189162	0.367371	0.206511	0.086895	0.503398	0.300318	0.471817	0.564783	0.391543	0.319808	0.217260	0.098636
92	0.534813	0.477047	0.537931	0.453475	0.373489	0.202752	0.263847	0.109230	0.484737	0.266696	0.264739	0.276568	0.270745	0.276422	0.076160	0.175470	0.520127	0.727637	0.183317	0.141843	0.449764	0.525310	0.325874	0.107453	0.458328	0.374295	0.657032	0.419509	0.170717	0.379531	0.350869	0.158592	0.486737	0.466519	0.311387	0.300479	0.317278	0.467849	0.167291	0.212500	0.203440	0.166616	0.812328	0.500381	0.374070	0.608424	0.178894	0.202428	0.683887	0.594413	0.837868	1.155950	0.215240	0.196854	0.268315	0.157148	0.580191	0.477124	0.526971	0.663933	0.170195	0.161879	0.276478	0.235446	0.112632	0.130651	0.323109	0.468748	0.214124	0.383306	0.202917	0.078245	0.499316	0.294566	0.482660	0.597947	0.389436	0.316584	0.217010	0.093370
93	0.448751	0.394533	0.500525	0.445773	0.359973	0.200692	0.243027	0.102808	0.450291	0.261335	0.272666	0.271137	0.303327	0.299014	0.079779	0.175550	0.492434	0.763976	0.207963	0.169845	0.450342	0.521063	0.331513	0.114040	0.445371	0.366424	0.659697	0.365779	0.176990	0.375506	0.348037	0.160592	0.487810	0.464867	0.322414	0.286343	0.307155	0.461325	0.168255	0.213262	0.243238	0.180062	0.753765	0.579836	0.374492	0.637236	0.166765	0.204242	0.479656	0.428431	0.821258	1.080488	0.198107	0.196606	0.265781	0.154085	0.572135	0.475278	0.477015	0.660402	0.169584	0.147191	0.294757	0.244539	0.125138	0.154672	0.393105	0.472159	0.249461	0.404394	0.188905	0.071016	0.383061	0.189031	0.498547	0.635004	0.364878	0.300195	0.215277	0.090018
94	0.446555	0.377347	0.470726	0.442649	0.342310	0.195555	0.241555	0.111278	0.408240	0.259516	0.252533	0.297971	0.338708	0.315117	0.086097	0.177552	0.488556	0.790055	0.203131	0.174138	0.449014	0.530910	0.331325	0.118880	0.436774	0.361616	0.655163	0.364592	0.180789	0.374437	0.337711	0.160520	0.490007	0.464766	0.334716	0.282381	0.296620	0.459812	0.171984	0.211560	0.269598	0.199197	0.741073	0.662394	0.374130	0.636557	0.166232	0.204404	0.392545	0.345896	0.766662	1.053737	0.197047	0.196326	0.265985	0.152758	0.514660	0.444665	0.447818	0.664970	0.165992	0.143611	0.294549	0.226569	0.147524	0.180573	0.420107	0.474596	0.254765	0.406845	0.147016	0.069641	0.342512	0.191106	0.475719	0.660761	0.337340	0.274269	0.214823	0.089941
95	0.437023	0.366624	0.458283	0.441366	0.325551	0.195968	0.262110	0.123500	0.340494	0.245630	0.278299	0.299479	0.344056	0.317264	0.097072	0.173671	0.481223	0.762358	0.215439	0.175316	0.440296	0.548833	0.329324	0.118421	0.436426	0.361650	0.647246	0.364197	0.175934	0.355955	0.331571	0.156824	0.490130	0.470009	0.353928	0.282910	0.230586	0.443238	0.178853	0.199480	0.268772	0.202083	0.697061	0.724028	0.368311	0.620373	0.169725	0.204615	0.350086	0.322555	0.665820	1.079289	0.196492	0.195876	0.265837	0.130940	0.445899	0.371855	0.504978	0.659313	0.172389	0.138207	0.295155	0.205442	0.325878	0.255136	0.433487	0.433713	0.253453	0.407459	0.124341	0.068267	0.312468	0.216060	0.464940	0.662712	0.338093	0.271531	0.215296	0.094781
96	0.438584	0.366660	0.451298	0.441330	0.322747	0.208494	0.274331	0.126786	0.300902	0.235986	0.277273	0.310743	0.384538	0.335666	0.128593	0.166968	0.473141	0.761950	0.233036	0.196997	0.439591	0.572144	0.308933	0.116596	0.435283	0.371505	0.663950	0.360263	0.147832	0.299866	0.330364	0.152901	0.494606	0.479180	0.344474	0.265456	0.156089	0.370442	0.185939	0.200580	0.278382	0.221924	0.630419	0.756604	0.355519	0.593731	0.167081	0.203254	0.283568	0.290134	0.588447	1.070443	0.194782	0.195880	0.263826	0.094210	0.321970	0.250215	0.616163	0.654389	0.212154	0.176192	0.297884	0.201142	0.491946	0.310187	0.640038	0.424426	0.247085	0.390171	0.125802	0.067771	0.264180	0.255577	0.462729	0.662021	0.282340	0.239582	0.216274	0.113603
97	0.445007	0.383042	0.469252	0.450166	0.265203	0.195528	0.274863	0.126970	0.290642	0.230096	0.276405	0.335896	0.403783	0.340650	0.165716	0.173684	0.268278	0.724155	0.234963	0.222755	0.416037	0.587110	0.292416	0.109082	0.434100	0.373482	0.676700	0.377124	0.148318	0.333659	0.309257	0.153127	0.493915	0.478870	0.319047	0.232590	0.129812	0.313808	0.184168	0.204834	0.361732	0.267164	0.611895	0.757213	0.324004	0.535012	0.156835	0.198600	0.248716	0.267122	0.581395	1.078867	0.186906	0.192530	0.264596	0.084846	0.257733	0.205841	0.708186	0.657748	0.223964	0.207365	0.301776	0.180817	0.566951	0.368113	0.780276	0.467633	0.239821	0.287362	0.115714	0.067309	0.283195	0.296759	0.454121	0.659519	0.215623	0.211666	0.218299	0.131504
98	0.472106	0.397079	0.483677	0.454715	0.230392	0.193598	0.262083	0.123327	0.294617	0.229334	0.278513	0.358189	0.403579	0.313017	0.179058	0.177174	0.196667	0.717597	0.235443	0.234762	0.380705	0.569083	0.288060	0.103571	0.420918	0.376875	0.640016	0.399450	0.113796	0.349437	0.266988	0.153407	0.471238	0.458620	0.316308	0.222121	0.129595	0.310921	0.170786	0.194141	0.406764	0.273774	0.616046	0.745989	0.305923	0.462350	0.153716	0.183831	0.268594	0.259004	0.502850	1.090296	0.175025	0.173964	0.258389	0.083235	0.321876	0.260767	0.726405	0.658098	0.241273	0.223018	0.302303	0.154131	0.806440	0.553850	0.774464	0.452920	0.238876	0.249411	0.097315	0.067560	0.341626	0.326762	0.456077	0.654045	0.212380	0.202121	0.218392	0.157870
99	0.480737	0.397496	0.489025	0.446381	0.217953	0.187384	0.247052	0.113345	0.288495	0.232550	0.283602	0.377177	0.399822	0.303486	0.180994	0.173989	0.195970	0.717846	0.240460	0.239461	0.379281	0.531733	0.288048	0.098788	0.419961	0.381814	0.494336	0.377698	0.108082	0.353817	0.234650	0.152457	0.420043	0.433741	0.318118	0.226082	0.123445	0.307881	0.150666	0.168563	0.407045	0.277805	0.622353	0.743799	0.305234	0.460952	0.170952	0.172264	0.275167	0.255806	0.428103	1.093957	0.154152	0.143267	0.232935	0.093178	0.393118	0.321429	0.729930	0.620344	0.242949	0.224379	0.302422	0.154301	0.858448	0.583557	0.784568	0.425642	0.242100	0.205772	0.087925	0.067885	0.339859	0.333061	0.446274	0.649095	0.204885	0.180843	0.215805	0.160601
100	0.476537	0.391365	0.512757	0.445702	0.227912	0.182076	0.225689	0.112536	0.271843	0.236272	0.285509	0.393536	0.392904	0.291012	0.211236	0.178487	0.202595	0.708318	0.248664	0.256852	0.370949	0.521799	0.285625	0.097637	0.428617	0.404028	0.394401	0.322838	0.108289	0.359128	0.237352	0.138932	0.420571	0.423138	0.307282	0.210041	0.115732	0.286777	0.139890	0.165204	0.439178	0.277527	0.604042	0.747297	0.286312	0.388979	0.184540	0.162229	0.264871	0.253379	0.382392	1.097307	0.147639	0.136379	0.208539	0.088887	0.497150	0.376756	0.745301	0.595774	0.351559	0.278987	0.288087	0.159276	0.873706	0.583206	0.854976	0.522873	0.284902	0.220150	0.088950	0.068080	0.327532	0.340777	0.453748	0.648078	0.201179	0.193634	0.195847	0.173202
101	0.477066	0.392636	0.437757	0.455330	0.230031	0.174423	0.208221	0.111792	0.277844	0.231261	0.292148	0.394454	0.384339	0.267489	0.257188	0.190218	0.196582	0.651295	0.252370	0.273572	0.342152	0.528294	0.272902	0.094007	0.492034	0.456855	0.407764	0.291887	0.119332	0.360493	0.253864	0.115312	0.416649	0.422816	0.308807	0.185779	0.111372	0.245530	0.140111	0.155099	0.452051	0.275960	0.560407	0.763453	0.282844	0.336342	0.181503	0.155931	0.263721	0.258862	0.330953	1.042754	0.146820	0.134992	0.207125	0.089541	0.573408	0.399480	0.765057	0.610186	0.364343	0.278860	0.269650	0.159521	0.873730	0.580825	0.977899	0.554111	0.327749	0.235294	0.084166	0.067304	0.323959	0.331221	0.462587	0.649674	0.194888	0.207991	0.181460	0.199357
