	310_At_T1_sh_ND_01.c3d	310_At_T1_sh_ND_01.c3d	310_At_T1_sh_ND_01.c3d	310_At_T1_sh_ND_01.c3d	310_At_T1_sh_ND_01.c3d	310_At_T1_sh_ND_01.c3d	310_At_T1_sh_ND_01.c3d	310_At_T1_sh_ND_01.c3d	310_At_T1_sh_ND_02.c3d	310_At_T1_sh_ND_02.c3d	310_At_T1_sh_ND_02.c3d	310_At_T1_sh_ND_02.c3d	310_At_T1_sh_ND_02.c3d	310_At_T1_sh_ND_02.c3d	310_At_T1_sh_ND_02.c3d	310_At_T1_sh_ND_02.c3d	310_At_T1_sh_ND_03.c3d	310_At_T1_sh_ND_03.c3d	310_At_T1_sh_ND_03.c3d	310_At_T1_sh_ND_03.c3d	310_At_T1_sh_ND_03.c3d	310_At_T1_sh_ND_03.c3d	310_At_T1_sh_ND_03.c3d	310_At_T1_sh_ND_03.c3d	310_At_T1_sh_ND_04.c3d	310_At_T1_sh_ND_04.c3d	310_At_T1_sh_ND_04.c3d	310_At_T1_sh_ND_04.c3d	310_At_T1_sh_ND_04.c3d	310_At_T1_sh_ND_04.c3d	310_At_T1_sh_ND_04.c3d	310_At_T1_sh_ND_04.c3d	310_At_T1_sh_ND_05.c3d	310_At_T1_sh_ND_05.c3d	310_At_T1_sh_ND_05.c3d	310_At_T1_sh_ND_05.c3d	310_At_T1_sh_ND_05.c3d	310_At_T1_sh_ND_05.c3d	310_At_T1_sh_ND_05.c3d	310_At_T1_sh_ND_05.c3d	310_At_T1_sh_ND_06.c3d	310_At_T1_sh_ND_06.c3d	310_At_T1_sh_ND_06.c3d	310_At_T1_sh_ND_06.c3d	310_At_T1_sh_ND_06.c3d	310_At_T1_sh_ND_06.c3d	310_At_T1_sh_ND_06.c3d	310_At_T1_sh_ND_06.c3d	310_At_T1_sh_ND_07.c3d	310_At_T1_sh_ND_07.c3d	310_At_T1_sh_ND_07.c3d	310_At_T1_sh_ND_07.c3d	310_At_T1_sh_ND_07.c3d	310_At_T1_sh_ND_07.c3d	310_At_T1_sh_ND_07.c3d	310_At_T1_sh_ND_07.c3d	310_At_T1_sh_ND_08.c3d	310_At_T1_sh_ND_08.c3d	310_At_T1_sh_ND_08.c3d	310_At_T1_sh_ND_08.c3d	310_At_T1_sh_ND_08.c3d	310_At_T1_sh_ND_08.c3d	310_At_T1_sh_ND_08.c3d	310_At_T1_sh_ND_08.c3d	310_At_T1_sh_ND_09.c3d	310_At_T1_sh_ND_09.c3d	310_At_T1_sh_ND_09.c3d	310_At_T1_sh_ND_09.c3d	310_At_T1_sh_ND_09.c3d	310_At_T1_sh_ND_09.c3d	310_At_T1_sh_ND_09.c3d	310_At_T1_sh_ND_09.c3d	310_At_T1_sh_ND_10.c3d	310_At_T1_sh_ND_10.c3d	310_At_T1_sh_ND_10.c3d	310_At_T1_sh_ND_10.c3d	310_At_T1_sh_ND_10.c3d	310_At_T1_sh_ND_10.c3d	310_At_T1_sh_ND_10.c3d	310_At_T1_sh_ND_10.c3d
	Biceps femoris_lat	Semitendinosus_lat	Vastus lateralis_lat	Vastus medialis_lat	Biceps femoris_med	Semitendinosus_med	Vastus lateralis_med	Vastus medialis_med	Biceps femoris_lat	Semitendinosus_lat	Vastus lateralis_lat	Vastus medialis_lat	Biceps femoris_med	Semitendinosus_med	Vastus lateralis_med	Vastus medialis_med	Biceps femoris_lat	Semitendinosus_lat	Vastus lateralis_lat	Vastus medialis_lat	Biceps femoris_med	Semitendinosus_med	Vastus lateralis_med	Vastus medialis_med	Biceps femoris_lat	Semitendinosus_lat	Vastus lateralis_lat	Vastus medialis_lat	Biceps femoris_med	Semitendinosus_med	Vastus lateralis_med	Vastus medialis_med	Biceps femoris_lat	Semitendinosus_lat	Vastus lateralis_lat	Vastus medialis_lat	Biceps femoris_med	Semitendinosus_med	Vastus lateralis_med	Vastus medialis_med	Biceps femoris_lat	Semitendinosus_lat	Vastus lateralis_lat	Vastus medialis_lat	Biceps femoris_med	Semitendinosus_med	Vastus lateralis_med	Vastus medialis_med	Biceps femoris_lat	Semitendinosus_lat	Vastus lateralis_lat	Vastus medialis_lat	Biceps femoris_med	Semitendinosus_med	Vastus lateralis_med	Vastus medialis_med	Biceps femoris_lat	Semitendinosus_lat	Vastus lateralis_lat	Vastus medialis_lat	Biceps femoris_med	Semitendinosus_med	Vastus lateralis_med	Vastus medialis_med	Biceps femoris_lat	Semitendinosus_lat	Vastus lateralis_lat	Vastus medialis_lat	Biceps femoris_med	Semitendinosus_med	Vastus lateralis_med	Vastus medialis_med	Biceps femoris_lat	Semitendinosus_lat	Vastus lateralis_lat	Vastus medialis_lat	Biceps femoris_med	Semitendinosus_med	Vastus lateralis_med	Vastus medialis_med
	P2D	P2D	P2D	P2D	P2D	P2D	P2D	P2D	P2D	P2D	P2D	P2D	P2D	P2D	P2D	P2D	P2D	P2D	P2D	P2D	P2D	P2D	P2D	P2D	P2D	P2D	P2D	P2D	P2D	P2D	P2D	P2D	P2D	P2D	P2D	P2D	P2D	P2D	P2D	P2D	P2D	P2D	P2D	P2D	P2D	P2D	P2D	P2D	P2D	P2D	P2D	P2D	P2D	P2D	P2D	P2D	P2D	P2D	P2D	P2D	P2D	P2D	P2D	P2D	P2D	P2D	P2D	P2D	P2D	P2D	P2D	P2D	P2D	P2D	P2D	P2D	P2D	P2D	P2D	P2D
	EMG_lat	EMG_lat	EMG_lat	EMG_lat	EMG_med	EMG_med	EMG_med	EMG_med	EMG_lat	EMG_lat	EMG_lat	EMG_lat	EMG_med	EMG_med	EMG_med	EMG_med	EMG_lat	EMG_lat	EMG_lat	EMG_lat	EMG_med	EMG_med	EMG_med	EMG_med	EMG_lat	EMG_lat	EMG_lat	EMG_lat	EMG_med	EMG_med	EMG_med	EMG_med	EMG_lat	EMG_lat	EMG_lat	EMG_lat	EMG_med	EMG_med	EMG_med	EMG_med	EMG_lat	EMG_lat	EMG_lat	EMG_lat	EMG_med	EMG_med	EMG_med	EMG_med	EMG_lat	EMG_lat	EMG_lat	EMG_lat	EMG_med	EMG_med	EMG_med	EMG_med	EMG_lat	EMG_lat	EMG_lat	EMG_lat	EMG_med	EMG_med	EMG_med	EMG_med	EMG_lat	EMG_lat	EMG_lat	EMG_lat	EMG_med	EMG_med	EMG_med	EMG_med	EMG_lat	EMG_lat	EMG_lat	EMG_lat	EMG_med	EMG_med	EMG_med	EMG_med
ITEM	Y	Y	Y	Y	Y	Y	Y	Y	Y	Y	Y	Y	Y	Y	Y	Y	Y	Y	Y	Y	Y	Y	Y	Y	Y	Y	Y	Y	Y	Y	Y	Y	Y	Y	Y	Y	Y	Y	Y	Y	Y	Y	Y	Y	Y	Y	Y	Y	Y	Y	Y	Y	Y	Y	Y	Y	Y	Y	Y	Y	Y	Y	Y	Y	Y	Y	Y	Y	Y	Y	Y	Y	Y	Y	Y	Y	Y	Y	Y	Y
1	0.581665	0.700336	0.074890	0.079008	0.611600	0.631115	0.101698	0.065269	0.703442	0.330589	0.072537	0.251443	0.636987	0.445751	0.103389	0.102417	0.476450	0.352250	0.125455	0.145182	0.710588	0.738698	0.057601	0.076353	0.762646	0.527750	0.105371	0.119070	0.511974	0.438223	0.056428	0.061065	0.728754	0.108951	0.044710	0.124790	0.650266	0.524459	0.115864	0.073849	0.471846	0.526196	0.134005	0.238985	0.572987	0.183639	0.151143	0.133865	0.744183	0.120948	0.066320	0.109064	0.690654	0.683891	0.094335	0.129196	0.497739	0.172835	0.130989	0.151079	0.762979	0.218453	0.117002	0.113248	0.406197	0.318594	0.090140	0.190897	0.646505	0.330314	0.072796	0.042381	0.761577	0.489918	0.041816	0.038448	0.695386	0.263783	0.125435	0.071903
2	0.540543	0.710846	0.066597	0.074163	0.613102	0.635626	0.112181	0.060424	0.781533	0.268695	0.078797	0.246613	0.636041	0.450396	0.102949	0.099956	0.494043	0.347304	0.159619	0.149074	0.709118	0.701399	0.065366	0.079707	0.735274	0.549678	0.109027	0.118555	0.525912	0.440638	0.047417	0.063314	0.731378	0.105400	0.041828	0.118351	0.685368	0.341449	0.121974	0.073576	0.469086	0.512413	0.133900	0.239658	0.615948	0.150904	0.147407	0.085987	0.742013	0.101621	0.076710	0.115634	0.682202	0.624910	0.103794	0.137496	0.625460	0.163012	0.131344	0.150513	0.756092	0.194076	0.135963	0.126385	0.506498	0.406309	0.125650	0.210545	0.628972	0.329118	0.073420	0.042647	0.767948	0.481378	0.049853	0.046567	0.656278	0.271966	0.129021	0.070016
3	0.540207	0.718907	0.066600	0.099238	0.602520	0.634114	0.114997	0.069875	0.800673	0.247398	0.083854	0.233674	0.613481	0.504380	0.110196	0.111097	0.573782	0.351401	0.177206	0.194721	0.738313	0.644145	0.093574	0.082834	0.672896	0.569282	0.106738	0.118636	0.527690	0.446609	0.051107	0.063633	0.686578	0.101183	0.072653	0.159501	0.676148	0.330631	0.124902	0.069693	0.500799	0.509719	0.134758	0.219510	0.604395	0.132451	0.143594	0.093490	0.581359	0.106301	0.113974	0.153616	0.695802	0.578315	0.104580	0.125125	0.628625	0.155635	0.128898	0.149062	0.670968	0.182552	0.137831	0.128958	0.641320	0.420151	0.138072	0.220640	0.623994	0.332139	0.069664	0.042680	0.805155	0.392092	0.052409	0.054770	0.654349	0.269140	0.141691	0.076575
4	0.573494	0.656285	0.073441	0.104575	0.611167	0.638345	0.161490	0.107304	0.726922	0.255779	0.081375	0.217988	0.563503	0.485719	0.134393	0.114246	0.547940	0.246369	0.195048	0.199051	0.701906	0.631194	0.106950	0.087861	0.585094	0.580819	0.104435	0.088220	0.657270	0.464164	0.121634	0.071852	0.630298	0.107139	0.099131	0.163534	0.647602	0.322930	0.122235	0.070469	0.529211	0.492946	0.139542	0.172297	0.598932	0.122385	0.126594	0.121233	0.593239	0.120959	0.215683	0.252833	0.658933	0.345694	0.104541	0.117947	0.629356	0.173598	0.121882	0.141269	0.759872	0.095577	0.169416	0.150866	0.679386	0.429028	0.139297	0.227649	0.618308	0.327960	0.062600	0.046021	0.799943	0.268835	0.071208	0.102815	0.771783	0.266291	0.155460	0.079013
5	0.597631	0.444806	0.083329	0.124496	0.664105	0.619720	0.161109	0.121691	0.755410	0.252882	0.082284	0.214433	0.458582	0.441941	0.131379	0.113881	0.545155	0.168119	0.201901	0.227463	0.433366	0.427685	0.134721	0.090166	0.511043	0.574778	0.124699	0.098774	0.747790	0.507861	0.159822	0.075598	0.661528	0.108481	0.104483	0.160931	0.640173	0.318285	0.180802	0.079662	0.442335	0.434065	0.146611	0.180103	0.557414	0.069390	0.159651	0.152131	0.506356	0.117545	0.233221	0.260735	0.630135	0.302672	0.118801	0.123376	0.647886	0.146040	0.081647	0.129578	0.734763	0.096383	0.191050	0.147235	0.687610	0.434829	0.140856	0.224748	0.508351	0.265928	0.043639	0.049822	0.669688	0.200898	0.083184	0.107639	0.772424	0.243375	0.160119	0.082941
6	0.576481	0.379322	0.126375	0.193042	0.687855	0.487574	0.159691	0.128309	0.748268	0.244271	0.082482	0.175538	0.521137	0.416685	0.138551	0.123854	0.534613	0.149861	0.227957	0.329797	0.466529	0.395520	0.196790	0.086888	0.539766	0.567422	0.154792	0.169195	0.789620	0.494595	0.163610	0.082121	0.619619	0.117893	0.148480	0.168623	0.635696	0.302182	0.218432	0.085479	0.400449	0.382895	0.156973	0.153662	0.567826	0.080653	0.175567	0.159429	0.547551	0.108997	0.234097	0.294883	0.599395	0.293233	0.125329	0.109766	0.616096	0.153278	0.130702	0.173363	0.694623	0.101083	0.199002	0.134793	0.743326	0.435426	0.138795	0.224795	0.513287	0.222772	0.059988	0.070168	0.730353	0.200853	0.088315	0.126907	0.771204	0.212430	0.164203	0.104145
7	0.484948	0.254461	0.127671	0.215418	0.718203	0.401886	0.201507	0.145248	0.757322	0.189166	0.095589	0.213479	0.571991	0.423858	0.127569	0.111434	0.508995	0.147468	0.247224	0.348668	0.483294	0.408753	0.208070	0.065817	0.583559	0.544031	0.154612	0.176058	0.781808	0.461806	0.165401	0.144700	0.617067	0.131505	0.164443	0.172068	0.470382	0.299405	0.219929	0.085651	0.430617	0.238810	0.113890	0.114498	0.574900	0.077408	0.217437	0.187796	0.553193	0.110301	0.288907	0.326100	0.587581	0.294111	0.186005	0.134208	0.609481	0.152264	0.202600	0.210521	0.661296	0.100998	0.192345	0.130150	0.786897	0.428958	0.148344	0.208810	0.540227	0.231857	0.078093	0.119148	0.779027	0.195937	0.126286	0.137857	0.786049	0.206804	0.165906	0.113279
8	0.519819	0.239870	0.128831	0.232436	0.720372	0.207811	0.260328	0.224246	0.654530	0.152810	0.123630	0.271848	0.618035	0.401957	0.116917	0.118392	0.502772	0.179045	0.250460	0.342229	0.441332	0.433946	0.225545	0.069866	0.571817	0.419050	0.167216	0.179623	0.816126	0.395466	0.165932	0.223488	0.628122	0.131382	0.172146	0.170535	0.472000	0.227722	0.220707	0.086532	0.434971	0.247685	0.129528	0.101579	0.481796	0.078712	0.308946	0.212492	0.569672	0.118252	0.324206	0.328209	0.539090	0.297427	0.238177	0.144956	0.600760	0.159349	0.227531	0.218919	0.711452	0.098574	0.190205	0.139775	0.789028	0.363928	0.163167	0.215007	0.555642	0.224835	0.139883	0.167768	0.702266	0.174133	0.161984	0.164618	0.754140	0.208442	0.168805	0.115564
9	0.615128	0.241831	0.130730	0.234381	0.733589	0.219734	0.269376	0.236137	0.555730	0.249240	0.125839	0.287845	0.569385	0.398516	0.222569	0.232139	0.512550	0.182341	0.285285	0.387904	0.459343	0.406374	0.231083	0.075122	0.582169	0.334887	0.175767	0.181508	0.828750	0.396612	0.184204	0.227346	0.616994	0.151273	0.186340	0.157511	0.482574	0.193184	0.251040	0.088103	0.496799	0.205184	0.131075	0.183722	0.499382	0.079690	0.313296	0.213362	0.506903	0.116883	0.325189	0.325268	0.535022	0.282940	0.247581	0.142485	0.613758	0.164927	0.231633	0.217476	0.707034	0.094251	0.220007	0.152234	0.794438	0.367426	0.166181	0.198689	0.596220	0.231791	0.195828	0.171248	0.739890	0.145216	0.183845	0.179683	0.645152	0.213308	0.179773	0.143832
10	0.614247	0.260147	0.132587	0.228522	0.764277	0.187824	0.332044	0.243544	0.513997	0.273009	0.156540	0.331496	0.570377	0.400668	0.271963	0.262472	0.467663	0.184137	0.300294	0.428558	0.528891	0.293573	0.223302	0.082716	0.623489	0.285906	0.175811	0.190930	0.823638	0.392435	0.186937	0.244229	0.632278	0.181774	0.198990	0.195109	0.473220	0.176013	0.263949	0.095502	0.479602	0.179841	0.130872	0.194583	0.482186	0.078780	0.304029	0.191264	0.561512	0.119366	0.324922	0.325885	0.489557	0.278130	0.308286	0.151322	0.623640	0.180091	0.242215	0.217458	0.823430	0.108897	0.297417	0.185737	0.766683	0.285026	0.153645	0.171879	0.551356	0.223655	0.202150	0.187131	0.697833	0.136664	0.193015	0.178709	0.609830	0.188301	0.209234	0.196807
11	0.598055	0.231027	0.129738	0.227065	0.684695	0.165144	0.314013	0.251701	0.510243	0.271153	0.181914	0.339698	0.550587	0.343123	0.274482	0.263927	0.464604	0.167535	0.300086	0.419261	0.522566	0.234152	0.222976	0.220428	0.601544	0.228705	0.173544	0.209054	0.846161	0.380896	0.237802	0.282454	0.586897	0.209540	0.218936	0.244988	0.418893	0.143889	0.262591	0.093854	0.497994	0.165386	0.128692	0.214064	0.681812	0.071007	0.299218	0.183541	0.629037	0.125738	0.322915	0.320313	0.512827	0.274819	0.327639	0.150076	0.608664	0.183689	0.277541	0.227454	0.830433	0.102348	0.321404	0.196802	0.665317	0.243342	0.138767	0.198418	0.516975	0.218741	0.215294	0.216471	0.694582	0.138988	0.217077	0.161917	0.688559	0.117873	0.215120	0.208782
12	0.669597	0.218665	0.115678	0.201507	0.479792	0.136609	0.321565	0.256961	0.516259	0.260083	0.213718	0.366131	0.573734	0.328831	0.322531	0.262265	0.612367	0.146728	0.289141	0.420163	0.586140	0.219134	0.226875	0.262887	0.571800	0.196458	0.176560	0.224189	0.825868	0.383340	0.294660	0.287495	0.606325	0.215774	0.218139	0.249854	0.401881	0.142252	0.260590	0.091943	0.495972	0.161459	0.129251	0.219275	0.749229	0.059051	0.274452	0.170804	0.679562	0.116542	0.292636	0.273288	0.548486	0.270810	0.330273	0.155450	0.499239	0.203735	0.310210	0.259040	0.777292	0.131714	0.308303	0.188870	0.652416	0.243171	0.137230	0.215409	0.486272	0.216526	0.255283	0.238934	0.674300	0.151675	0.215113	0.156654	0.732379	0.126582	0.208386	0.210290
13	0.716313	0.214225	0.071430	0.163426	0.508306	0.126403	0.321701	0.297828	0.517512	0.261558	0.217356	0.366768	0.593332	0.248285	0.345961	0.261155	0.630533	0.143172	0.315599	0.424640	0.574214	0.197235	0.198445	0.288169	0.616605	0.166544	0.174644	0.238894	0.755868	0.395483	0.297249	0.287141	0.606941	0.228150	0.228251	0.275479	0.413176	0.137555	0.259101	0.091345	0.501978	0.202563	0.124103	0.216372	0.734032	0.059660	0.266857	0.156745	0.640537	0.093503	0.245043	0.229031	0.523819	0.267128	0.326188	0.157334	0.460253	0.226691	0.322519	0.287222	0.842045	0.150910	0.296236	0.192248	0.623315	0.269195	0.138156	0.222214	0.485881	0.211450	0.300028	0.240353	0.617557	0.153574	0.216351	0.167403	0.612153	0.126044	0.205906	0.208807
14	0.698613	0.214782	0.065389	0.157337	0.513083	0.170765	0.296383	0.318109	0.543445	0.268207	0.229158	0.377432	0.529284	0.234985	0.342414	0.256089	0.633646	0.143652	0.348053	0.372656	0.588236	0.190788	0.233863	0.339252	0.531277	0.147071	0.164422	0.212426	0.721275	0.322757	0.269555	0.284958	0.574299	0.277078	0.310547	0.315632	0.420069	0.138714	0.256284	0.089709	0.639351	0.278147	0.123820	0.215818	0.788592	0.055146	0.146844	0.102126	0.605448	0.090770	0.242158	0.222342	0.560464	0.258412	0.322472	0.158709	0.538795	0.225715	0.325186	0.292275	0.936378	0.202728	0.287492	0.192540	0.573995	0.289058	0.161666	0.274986	0.487502	0.206425	0.306562	0.241513	0.593594	0.152282	0.198975	0.181707	0.619648	0.120682	0.201205	0.223157
15	0.776794	0.205054	0.103972	0.143968	0.546838	0.199980	0.266171	0.272064	0.554718	0.256452	0.241373	0.324059	0.480012	0.190196	0.341422	0.256536	0.676374	0.126670	0.341679	0.362704	0.722758	0.161168	0.247212	0.368580	0.518621	0.131706	0.161380	0.205684	0.552879	0.243974	0.259822	0.283622	0.537704	0.489363	0.339080	0.342125	0.448805	0.167052	0.217107	0.075392	0.662213	0.280099	0.108975	0.240210	0.749761	0.049395	0.094350	0.116799	0.606925	0.090956	0.229265	0.163785	0.545366	0.249939	0.303332	0.159707	0.576514	0.227757	0.324154	0.289759	0.946245	0.252194	0.286422	0.194865	0.683937	0.311840	0.164451	0.309903	0.506175	0.209106	0.308946	0.242367	0.534924	0.146372	0.187851	0.175642	0.604390	0.114728	0.206126	0.229288
16	0.708444	0.144014	0.148690	0.144791	0.499193	0.243812	0.236692	0.265594	0.628247	0.223177	0.237853	0.312296	0.414380	0.194317	0.341816	0.257762	0.675045	0.069009	0.364532	0.368383	0.714141	0.191516	0.238782	0.369219	0.560183	0.110757	0.149302	0.206686	0.554216	0.224649	0.260729	0.281104	0.538541	0.541554	0.342795	0.348744	0.435257	0.178509	0.232933	0.079863	0.589703	0.286218	0.134820	0.222864	0.779602	0.059566	0.147775	0.180345	0.572794	0.086509	0.126867	0.127297	0.574738	0.196519	0.278860	0.182819	0.539675	0.227521	0.310473	0.269561	0.917697	0.270443	0.285344	0.189224	0.724303	0.327242	0.156171	0.310187	0.498326	0.191914	0.311823	0.241468	0.436854	0.143712	0.150789	0.158890	0.575508	0.096937	0.239456	0.228116
17	0.735136	0.072251	0.150908	0.144199	0.656593	0.250795	0.157511	0.256399	0.688388	0.162906	0.234029	0.276884	0.508373	0.204593	0.288161	0.200806	0.656544	0.129543	0.352291	0.326469	0.627902	0.240682	0.238759	0.368315	0.550108	0.106320	0.142982	0.220527	0.533430	0.229303	0.259842	0.228415	0.414262	0.614372	0.334997	0.351482	0.473343	0.186108	0.248052	0.094664	0.636236	0.284011	0.133620	0.224276	0.767390	0.064459	0.167446	0.189039	0.529666	0.085373	0.086097	0.150810	0.576101	0.165663	0.279075	0.206976	0.542420	0.225057	0.272890	0.231984	0.876762	0.277028	0.267801	0.186801	0.766027	0.291990	0.151717	0.308875	0.544116	0.157667	0.308236	0.235269	0.452489	0.144229	0.146583	0.166405	0.579726	0.132130	0.264902	0.232705
18	0.686755	0.069459	0.212472	0.151945	0.685683	0.249476	0.146649	0.228737	0.736195	0.191204	0.199312	0.240162	0.537142	0.199004	0.271944	0.203691	0.649670	0.157170	0.336560	0.280185	0.631961	0.295475	0.237037	0.331277	0.532769	0.092381	0.142092	0.229678	0.463996	0.248313	0.256851	0.188172	0.440591	0.613544	0.328733	0.338532	0.484957	0.184510	0.250572	0.101387	0.721203	0.277417	0.132145	0.203679	0.584752	0.068768	0.176761	0.219189	0.590674	0.106577	0.098498	0.167083	0.604124	0.176196	0.206017	0.200478	0.539504	0.223821	0.249381	0.216747	0.885890	0.272506	0.187230	0.196264	0.756585	0.273410	0.153763	0.306352	0.564418	0.141180	0.297254	0.201507	0.488443	0.157001	0.101012	0.167139	0.576586	0.133809	0.269658	0.232864
19	0.672025	0.081282	0.247852	0.161136	0.738088	0.258723	0.155044	0.227113	0.676292	0.196209	0.179565	0.210492	0.608561	0.230021	0.281520	0.210507	0.667019	0.165443	0.337347	0.275469	0.658865	0.317061	0.225243	0.271034	0.560763	0.106429	0.145117	0.218361	0.558602	0.255095	0.254574	0.192237	0.486169	0.604361	0.310428	0.276771	0.473521	0.171342	0.232934	0.099515	0.720753	0.263713	0.135018	0.225202	0.771704	0.071884	0.194923	0.234292	0.510022	0.107618	0.103623	0.167674	0.589667	0.185490	0.176101	0.201454	0.609628	0.237957	0.259395	0.220553	0.900720	0.271823	0.129135	0.191312	0.732569	0.266011	0.212030	0.304856	0.538236	0.135847	0.267083	0.186108	0.613399	0.163876	0.084782	0.164913	0.580760	0.133439	0.234128	0.188716
20	0.646203	0.086341	0.259876	0.147314	0.837717	0.250728	0.230868	0.278741	0.687734	0.216223	0.155370	0.186298	0.583773	0.274621	0.211287	0.210361	0.537372	0.167328	0.343082	0.275465	0.623448	0.380397	0.240885	0.281551	0.685489	0.113455	0.140998	0.202913	0.472073	0.258880	0.253870	0.155189	0.471645	0.605374	0.300814	0.262446	0.538653	0.187195	0.245091	0.104645	0.723696	0.246919	0.159433	0.256135	0.743696	0.097531	0.208255	0.234731	0.427869	0.101267	0.095490	0.166044	0.537692	0.181057	0.207203	0.216045	0.591410	0.238774	0.256369	0.219626	0.931350	0.259911	0.129325	0.189424	0.695331	0.262264	0.284399	0.324223	0.612969	0.093391	0.254338	0.182585	0.599847	0.187213	0.086229	0.153238	0.549389	0.134238	0.214480	0.160966
21	0.674602	0.089044	0.263579	0.135268	0.865499	0.229166	0.246150	0.274067	0.676138	0.282836	0.154039	0.176414	0.590370	0.270015	0.169765	0.210820	0.518827	0.191801	0.306084	0.221556	0.672126	0.396090	0.265156	0.230987	0.677788	0.115689	0.126339	0.180864	0.513909	0.259434	0.184603	0.098969	0.440571	0.613442	0.295272	0.243227	0.537535	0.240354	0.246155	0.134314	0.579937	0.189930	0.219498	0.281736	0.731480	0.166411	0.204674	0.235972	0.422396	0.101986	0.095893	0.164999	0.538932	0.180324	0.259548	0.238534	0.655207	0.227969	0.226862	0.211252	0.848962	0.257630	0.138741	0.198649	0.731792	0.232569	0.379243	0.424127	0.742582	0.079322	0.254927	0.152132	0.562278	0.185160	0.089440	0.150551	0.460363	0.143013	0.216755	0.153677
22	0.607300	0.092263	0.243572	0.114444	0.892024	0.200386	0.250724	0.275461	0.669713	0.298307	0.114715	0.119085	0.764463	0.275336	0.170316	0.213107	0.507079	0.198467	0.258001	0.204698	0.489806	0.387131	0.263055	0.188569	0.695864	0.117453	0.102946	0.174806	0.529341	0.236253	0.121789	0.102126	0.425888	0.604748	0.210182	0.213005	0.561052	0.288299	0.245505	0.150743	0.575815	0.201891	0.236614	0.252851	0.841237	0.200939	0.192846	0.204262	0.414190	0.101027	0.109691	0.159491	0.479685	0.177110	0.281156	0.257305	0.686870	0.220822	0.176636	0.179471	0.806349	0.249146	0.139145	0.218673	0.784579	0.214666	0.404226	0.422174	0.791507	0.080020	0.231728	0.102672	0.687429	0.177988	0.103665	0.162411	0.417909	0.152200	0.215247	0.153410
23	0.629121	0.101638	0.273988	0.144201	1.010515	0.143492	0.287406	0.284693	0.590045	0.325503	0.112490	0.065333	0.750471	0.275502	0.173185	0.217838	0.535446	0.197985	0.281403	0.233985	0.486735	0.382107	0.258249	0.181777	0.797241	0.121172	0.208628	0.236627	0.533880	0.208888	0.132653	0.118263	0.485508	0.465745	0.222409	0.244751	0.580499	0.308675	0.245506	0.157177	0.604945	0.225306	0.237678	0.230858	0.825781	0.248904	0.242893	0.210615	0.402584	0.103517	0.154875	0.171670	0.498424	0.183764	0.267633	0.241564	0.724422	0.209174	0.188366	0.149156	0.873687	0.210079	0.139847	0.217090	0.771593	0.194269	0.405007	0.404443	0.806985	0.083290	0.167994	0.084058	0.754235	0.173622	0.103276	0.162176	0.406470	0.159275	0.206685	0.140729
24	0.650184	0.121575	0.274368	0.152326	0.898239	0.137631	0.317618	0.324670	0.532134	0.340269	0.238086	0.168851	0.812789	0.275867	0.192037	0.216100	0.622380	0.193609	0.254052	0.213377	0.536503	0.419243	0.261570	0.189808	0.778681	0.146717	0.364877	0.300979	0.553630	0.201078	0.190084	0.126840	0.592663	0.376664	0.254320	0.244242	0.707040	0.314872	0.244800	0.157910	0.522808	0.223875	0.292663	0.249772	0.837604	0.275905	0.245775	0.207824	0.398902	0.119209	0.206521	0.268155	0.471979	0.169228	0.252356	0.218906	0.778850	0.213708	0.282610	0.215428	0.859431	0.191338	0.141268	0.222339	0.813334	0.157251	0.448434	0.446395	0.882524	0.106922	0.119104	0.087321	0.737457	0.194939	0.114201	0.176025	0.595219	0.174745	0.204954	0.119362
25	0.735261	0.129324	0.249133	0.149504	0.892721	0.133185	0.332451	0.356180	0.490562	0.330439	0.280695	0.304718	0.838853	0.275238	0.222744	0.189985	0.675659	0.158419	0.221076	0.184430	0.572809	0.398352	0.295636	0.249464	0.815644	0.165920	0.412890	0.314686	0.576388	0.194262	0.240531	0.144976	0.622826	0.288603	0.261975	0.239092	0.726019	0.305109	0.226764	0.157158	0.336492	0.225392	0.307874	0.250153	0.728761	0.273481	0.233608	0.184148	0.430870	0.159899	0.301637	0.324422	0.534014	0.160830	0.238919	0.199174	0.767289	0.218293	0.322299	0.248359	0.885099	0.178002	0.135427	0.220530	0.948086	0.156005	0.527253	0.495332	0.888778	0.132540	0.117597	0.083406	0.755920	0.203604	0.127076	0.193087	0.620131	0.175197	0.178093	0.110639
26	0.730337	0.120568	0.268738	0.172110	0.784668	0.115331	0.314342	0.338222	0.463657	0.336836	0.282274	0.322135	0.827388	0.277227	0.223988	0.146187	0.699926	0.133067	0.236362	0.183370	0.590742	0.385174	0.309065	0.260318	0.817559	0.183977	0.425067	0.311163	0.565333	0.189641	0.277303	0.189674	0.601080	0.312409	0.271391	0.248048	0.763770	0.300543	0.180733	0.147732	0.358461	0.222742	0.307701	0.214086	0.755986	0.275319	0.231784	0.206836	0.405423	0.176804	0.321148	0.315550	0.486023	0.162419	0.238584	0.197198	0.818185	0.219178	0.325782	0.248324	0.774351	0.175813	0.126257	0.183727	1.006778	0.183622	0.555897	0.516182	0.893740	0.172766	0.101255	0.082545	0.691373	0.195736	0.136851	0.216167	0.581225	0.162281	0.137462	0.138057
27	0.752850	0.119135	0.257640	0.177366	0.699465	0.142676	0.324863	0.335641	0.490886	0.339077	0.314334	0.333682	0.770979	0.238877	0.207284	0.124344	0.675022	0.125310	0.240841	0.180688	0.612173	0.330536	0.297458	0.247430	0.817374	0.176345	0.477493	0.344076	0.659856	0.224219	0.294098	0.194314	0.620429	0.313778	0.296588	0.266373	0.741857	0.296047	0.166557	0.139184	0.533208	0.185804	0.290955	0.173067	0.740404	0.269191	0.236604	0.260537	0.335271	0.201012	0.322446	0.319106	0.519012	0.246909	0.243644	0.207785	0.910695	0.228309	0.328693	0.263368	0.782045	0.174508	0.227517	0.203875	1.009051	0.210116	0.548570	0.514405	0.939672	0.185728	0.099094	0.070973	0.723457	0.158775	0.144514	0.226180	0.663196	0.139179	0.149491	0.196164
28	0.740344	0.167342	0.260325	0.181400	0.716327	0.146512	0.383602	0.461231	0.515296	0.308595	0.346035	0.395185	0.831485	0.183677	0.211486	0.127834	0.689019	0.120604	0.251205	0.207664	0.611790	0.305225	0.246670	0.256144	0.752659	0.168704	0.519482	0.369608	0.686953	0.232901	0.292467	0.190112	0.649670	0.306042	0.314407	0.275827	0.798553	0.297489	0.157533	0.137154	0.560550	0.161163	0.260187	0.153220	0.607294	0.244025	0.274612	0.285432	0.323472	0.213659	0.379012	0.355831	0.594537	0.270612	0.219820	0.195002	0.993723	0.235985	0.340476	0.265883	0.739403	0.173937	0.274057	0.246418	1.053198	0.215766	0.516613	0.493609	0.906644	0.193621	0.101579	0.061474	0.770562	0.153328	0.159408	0.219309	0.686807	0.137037	0.175185	0.206722
29	0.828263	0.188855	0.253634	0.247032	0.662486	0.138333	0.386237	0.467494	0.529371	0.254364	0.354650	0.439707	0.825117	0.183923	0.232590	0.126987	0.711278	0.086775	0.249850	0.210321	0.562970	0.320099	0.202114	0.245234	0.715422	0.170027	0.533534	0.373847	0.747326	0.254159	0.283025	0.184014	0.652474	0.281423	0.327843	0.283165	0.847549	0.297399	0.138327	0.139813	0.603808	0.108783	0.289695	0.223352	0.633270	0.202878	0.228004	0.286208	0.308748	0.212756	0.439595	0.403458	0.659399	0.272009	0.156783	0.161654	0.966030	0.217662	0.337457	0.261753	0.760088	0.158139	0.269558	0.241008	1.041687	0.234651	0.467225	0.427694	0.950397	0.194657	0.108803	0.063179	0.721504	0.171084	0.321014	0.339483	0.691537	0.137757	0.173512	0.220376
30	0.785626	0.201502	0.255591	0.304218	0.502470	0.178157	0.420207	0.504590	0.484942	0.250363	0.375454	0.451508	0.764313	0.187887	0.244958	0.126197	0.791179	0.075015	0.251883	0.193236	0.575681	0.300198	0.196915	0.246438	0.780845	0.168274	0.533448	0.365719	0.761604	0.256189	0.284876	0.177667	0.748803	0.268411	0.326439	0.271946	0.859086	0.310128	0.108468	0.138941	0.628501	0.051113	0.303039	0.232353	0.633417	0.113805	0.200083	0.261713	0.286146	0.212026	0.458351	0.420653	0.726792	0.273124	0.111244	0.126171	0.950394	0.197974	0.331510	0.260597	0.721150	0.128942	0.281667	0.225863	1.171907	0.258470	0.446325	0.421863	0.915024	0.195151	0.127446	0.084998	0.627590	0.187663	0.403458	0.460842	0.687259	0.136704	0.189815	0.250465
31	0.698927	0.202310	0.275443	0.310224	0.502479	0.223141	0.459669	0.541465	0.477095	0.207085	0.349578	0.449219	0.771503	0.197332	0.270221	0.157483	0.751258	0.074522	0.226061	0.156975	0.583021	0.252777	0.202565	0.275695	0.676092	0.160169	0.509459	0.355605	0.710340	0.265410	0.298696	0.178807	0.773791	0.262414	0.272254	0.194218	0.851912	0.301708	0.123118	0.120136	0.637076	0.069510	0.263301	0.210680	0.696440	0.111654	0.210587	0.286699	0.377336	0.211472	0.453010	0.424272	0.693672	0.269222	0.116541	0.124260	1.008021	0.194520	0.335586	0.262628	0.694089	0.077342	0.348132	0.267580	1.101002	0.284153	0.488356	0.482137	0.863510	0.261419	0.142419	0.114678	0.625841	0.190159	0.411301	0.463030	0.686716	0.119254	0.227949	0.283960
32	0.626660	0.202585	0.258879	0.366373	0.521215	0.227005	0.470872	0.559888	0.426671	0.182849	0.298161	0.397116	0.728406	0.217845	0.261991	0.154180	0.798534	0.080611	0.214407	0.165328	0.573754	0.193018	0.171765	0.251717	0.693676	0.139587	0.437675	0.373989	0.746100	0.286576	0.309613	0.190305	0.674747	0.264109	0.244332	0.214762	0.830681	0.277709	0.129428	0.123175	0.663372	0.072146	0.250585	0.232457	0.622523	0.119885	0.210218	0.300079	0.441992	0.209404	0.436774	0.438213	0.692863	0.273080	0.114040	0.143866	1.052237	0.192224	0.337985	0.265765	0.681349	0.123227	0.393757	0.330387	1.036233	0.297346	0.477228	0.457471	0.826691	0.342022	0.151233	0.121004	0.583284	0.172741	0.476543	0.516329	0.685829	0.127462	0.248670	0.297401
33	0.658408	0.207652	0.266525	0.375832	0.512444	0.224351	0.471286	0.560268	0.438342	0.141457	0.302892	0.338163	0.649606	0.204164	0.243234	0.152327	0.802036	0.080478	0.199428	0.165637	0.544429	0.195844	0.147393	0.258488	0.687707	0.116428	0.399500	0.380368	0.742705	0.293470	0.296753	0.190847	0.658216	0.227303	0.324335	0.275915	0.900917	0.265499	0.138336	0.136349	0.673704	0.071338	0.285804	0.297795	0.649865	0.076176	0.202998	0.271133	0.449338	0.186862	0.409946	0.410258	0.668885	0.284026	0.122128	0.153349	1.062245	0.176287	0.322790	0.258692	0.684737	0.146654	0.406621	0.362712	0.987263	0.296549	0.392253	0.401080	0.834962	0.360790	0.154892	0.124213	0.546884	0.198983	0.549836	0.560012	0.581539	0.102818	0.250058	0.299733
34	0.664546	0.222197	0.290143	0.377925	0.560690	0.203283	0.424237	0.483686	0.440169	0.102023	0.301426	0.333532	0.655896	0.176935	0.246947	0.196509	0.824811	0.078371	0.181481	0.248961	0.662080	0.205155	0.216974	0.300471	0.766213	0.084818	0.386964	0.376270	0.718586	0.299229	0.259258	0.187949	0.653455	0.083842	0.344156	0.273244	0.890692	0.260502	0.144428	0.138654	0.665898	0.090644	0.346326	0.349660	0.674942	0.071165	0.241098	0.318002	0.472204	0.163112	0.372928	0.426931	0.732682	0.280754	0.135552	0.151559	1.010620	0.151417	0.253764	0.209423	0.643762	0.164159	0.403345	0.361152	0.872589	0.291960	0.355936	0.395384	0.774321	0.361214	0.183629	0.164161	0.489889	0.229034	0.565609	0.571372	0.479241	0.103258	0.249219	0.300021
35	0.559897	0.223587	0.288561	0.375489	0.560271	0.210323	0.384844	0.399491	0.580554	0.095576	0.251878	0.299582	0.657911	0.175897	0.283431	0.261047	0.841864	0.084909	0.178142	0.308132	0.620126	0.223698	0.214317	0.289177	0.813026	0.094985	0.325463	0.368247	0.719564	0.304830	0.213360	0.178954	0.644686	0.073913	0.324317	0.271445	0.840846	0.259881	0.153002	0.144695	0.739303	0.097419	0.341380	0.348220	0.791714	0.073099	0.315141	0.399291	0.462381	0.126035	0.369400	0.427705	0.702760	0.205507	0.128079	0.151367	1.012129	0.128102	0.173980	0.148244	0.652706	0.166548	0.359338	0.349022	0.886670	0.304047	0.360027	0.405607	0.724207	0.360804	0.205698	0.212721	0.407223	0.234083	0.566219	0.576576	0.483304	0.126245	0.256502	0.304601
36	0.516438	0.256672	0.277337	0.310648	0.545170	0.219554	0.385093	0.393630	0.570530	0.098116	0.236357	0.202700	0.605367	0.174422	0.283095	0.274592	0.819504	0.084085	0.256605	0.329650	0.609243	0.192211	0.212914	0.279204	0.790995	0.116779	0.276464	0.392868	0.698685	0.285017	0.167709	0.159261	0.618405	0.091549	0.326270	0.266111	0.924776	0.276371	0.166320	0.168016	0.753664	0.097681	0.302478	0.305371	0.723267	0.087657	0.339210	0.413852	0.445101	0.080023	0.358569	0.446111	0.605628	0.178519	0.149756	0.174058	1.006615	0.117107	0.175796	0.142098	0.596038	0.165576	0.322980	0.319183	0.887803	0.320672	0.356654	0.418072	0.712685	0.346509	0.224085	0.233117	0.362714	0.223313	0.515108	0.534432	0.393646	0.153033	0.256502	0.277019
37	0.536119	0.282048	0.238524	0.298643	0.562763	0.167441	0.307278	0.326002	0.642462	0.162677	0.213822	0.146620	0.589249	0.172770	0.265931	0.284374	0.786480	0.069013	0.266656	0.341794	0.607175	0.179160	0.215711	0.299231	0.824415	0.145129	0.274443	0.423436	0.635170	0.236821	0.157380	0.161178	0.637884	0.153936	0.323369	0.270056	0.927770	0.280466	0.192705	0.194934	0.786896	0.102231	0.273834	0.295378	0.622442	0.104547	0.343349	0.406200	0.444568	0.089858	0.290693	0.445505	0.554271	0.179274	0.202416	0.180682	0.922121	0.109192	0.184688	0.122003	0.675434	0.170815	0.319558	0.312436	0.867764	0.317397	0.354748	0.418101	0.692614	0.332046	0.231758	0.234598	0.368006	0.225530	0.428363	0.404623	0.376966	0.163387	0.233650	0.254002
38	0.525728	0.315787	0.331124	0.422470	0.526318	0.113199	0.314896	0.440338	0.776439	0.201279	0.183856	0.147619	0.456065	0.168113	0.261538	0.315555	0.727694	0.085178	0.302964	0.403830	0.602663	0.177017	0.238322	0.307672	0.871728	0.162474	0.277933	0.436308	0.517537	0.216836	0.159925	0.201637	0.594703	0.193601	0.320896	0.299572	0.934655	0.294131	0.197592	0.203142	0.806355	0.097376	0.272201	0.308197	0.655687	0.121073	0.354198	0.417817	0.468563	0.110448	0.227241	0.430700	0.531623	0.181568	0.218862	0.183041	0.806897	0.084847	0.160526	0.132798	0.678613	0.173954	0.315816	0.316115	0.753644	0.290798	0.330231	0.387614	0.647955	0.325194	0.232578	0.240817	0.339033	0.212712	0.422384	0.393507	0.391885	0.171705	0.230141	0.270752
39	0.541452	0.316001	0.358107	0.396644	0.537341	0.111866	0.352568	0.437955	0.777155	0.214030	0.193100	0.153439	0.513476	0.169031	0.285497	0.359113	0.597048	0.127295	0.335769	0.438068	0.579712	0.162433	0.253225	0.289555	0.914217	0.164861	0.255508	0.416265	0.495835	0.189423	0.161636	0.234586	0.648575	0.206712	0.330859	0.356615	0.987502	0.292433	0.186870	0.201722	0.797810	0.100730	0.297784	0.359860	0.692135	0.128076	0.357990	0.438270	0.410512	0.111151	0.208929	0.426432	0.541699	0.178870	0.211565	0.182291	0.777830	0.083834	0.135089	0.136767	0.590733	0.174937	0.252693	0.291199	0.662822	0.260972	0.259141	0.294225	0.589359	0.324547	0.256864	0.284948	0.345950	0.204285	0.370010	0.357682	0.426614	0.173078	0.222419	0.260572
40	0.603564	0.348405	0.327831	0.385791	0.580041	0.147094	0.367851	0.462831	0.777247	0.221364	0.149529	0.146075	0.494342	0.133474	0.353050	0.397263	0.637153	0.164962	0.346492	0.440131	0.613498	0.152446	0.261762	0.326173	0.898857	0.163706	0.209836	0.353657	0.459614	0.185119	0.141096	0.237410	0.674527	0.206104	0.337644	0.368320	0.958194	0.251807	0.176529	0.196920	0.815866	0.113224	0.295088	0.343383	0.672325	0.129956	0.338533	0.410942	0.375744	0.110496	0.212255	0.405942	0.532441	0.175244	0.210317	0.189177	0.787266	0.083965	0.136860	0.136089	0.546613	0.147248	0.160999	0.215204	0.668419	0.253546	0.203949	0.246274	0.499881	0.327003	0.311215	0.351778	0.390070	0.208689	0.229736	0.283841	0.614437	0.182298	0.201444	0.225951
41	0.532216	0.347539	0.376464	0.395887	0.530454	0.223161	0.452867	0.506272	0.767046	0.231228	0.141407	0.155220	0.519604	0.141369	0.371113	0.402730	0.585344	0.166639	0.344567	0.438912	0.453654	0.142023	0.322063	0.416103	0.881115	0.167498	0.210125	0.355712	0.394412	0.166352	0.116701	0.235148	0.773430	0.204258	0.254764	0.325387	0.980421	0.211556	0.176978	0.198898	0.783045	0.119660	0.241523	0.306707	0.771873	0.136263	0.250715	0.307031	0.389093	0.123271	0.205322	0.371005	0.501997	0.146541	0.215728	0.209613	0.798302	0.088780	0.135727	0.133434	0.501559	0.118530	0.120416	0.140031	0.516732	0.256929	0.201691	0.240819	0.485599	0.316307	0.336115	0.375465	0.633948	0.181699	0.149245	0.252518	0.660334	0.175515	0.182014	0.199245
42	0.637581	0.324834	0.390171	0.408860	0.572224	0.217301	0.467630	0.511503	0.717941	0.238113	0.196103	0.281021	0.506976	0.134647	0.347061	0.382062	0.543568	0.171580	0.343988	0.394948	0.566578	0.109818	0.403666	0.448986	0.799933	0.167599	0.226387	0.388203	0.504384	0.145277	0.132963	0.243302	0.799374	0.204770	0.213961	0.342487	0.984542	0.193132	0.218031	0.225937	0.736529	0.160863	0.276704	0.344420	0.763753	0.143237	0.200485	0.245147	0.369704	0.146179	0.174718	0.316088	0.420403	0.223876	0.231557	0.218278	0.581140	0.086458	0.124146	0.119094	0.513248	0.101040	0.126295	0.174178	0.507155	0.248155	0.164253	0.195356	0.455076	0.225707	0.341676	0.381012	0.687563	0.172002	0.163919	0.246644	0.690082	0.182640	0.177984	0.201486
43	0.665636	0.280491	0.394732	0.447137	0.591259	0.216110	0.478319	0.528022	0.729859	0.243636	0.279544	0.439825	0.526380	0.116359	0.318833	0.344091	0.592917	0.183690	0.337111	0.365874	0.571121	0.110760	0.407749	0.449464	0.737554	0.175821	0.239595	0.383011	0.493289	0.131506	0.132074	0.250529	0.784132	0.203672	0.220914	0.354314	0.894643	0.186322	0.224422	0.223837	0.745947	0.238234	0.282092	0.354422	0.780666	0.138052	0.200754	0.242474	0.385369	0.153814	0.162769	0.299132	0.446607	0.224215	0.232892	0.227318	0.523138	0.086215	0.132050	0.127644	0.581821	0.096769	0.144169	0.188443	0.565558	0.205903	0.126602	0.162735	0.274859	0.154795	0.341237	0.382055	0.707311	0.169352	0.246390	0.290095	0.694947	0.184767	0.185730	0.202157
44	0.670604	0.235256	0.375986	0.412964	0.570185	0.229389	0.528247	0.514633	0.662373	0.238222	0.305341	0.450894	0.613491	0.112655	0.317032	0.333729	0.638676	0.200228	0.294152	0.347977	0.595219	0.144565	0.414083	0.446123	0.711844	0.177957	0.225364	0.334515	0.484438	0.111099	0.155043	0.271284	0.753675	0.199180	0.211072	0.349067	0.826580	0.184015	0.223073	0.223878	0.748333	0.257864	0.299554	0.381929	0.793943	0.109242	0.165884	0.211372	0.576266	0.145018	0.190463	0.295067	0.463221	0.217334	0.233974	0.220378	0.588548	0.088605	0.159502	0.124794	0.631759	0.101731	0.200539	0.188362	0.536393	0.165525	0.127758	0.129068	0.246558	0.181048	0.349769	0.401491	0.712143	0.140023	0.268991	0.320272	0.741268	0.175915	0.217157	0.186083
45	0.678504	0.222136	0.284469	0.331526	0.581574	0.294021	0.485303	0.362230	0.649694	0.237707	0.307535	0.448181	0.608454	0.114210	0.318248	0.326674	0.746136	0.210028	0.293436	0.345576	0.573290	0.146279	0.416985	0.439838	0.786326	0.162247	0.194619	0.301914	0.475814	0.096486	0.173644	0.299758	0.747448	0.161140	0.200057	0.346481	0.817526	0.182048	0.218180	0.222316	0.739814	0.255134	0.371458	0.419682	0.766983	0.097811	0.179798	0.186229	0.596125	0.149691	0.270335	0.405022	0.436150	0.217632	0.204041	0.232681	0.561972	0.086925	0.182783	0.159473	0.581173	0.094242	0.210072	0.189558	0.591110	0.137223	0.130545	0.105830	0.335813	0.236223	0.361676	0.414044	0.727276	0.130127	0.268073	0.404089	0.775892	0.166497	0.216245	0.169485
46	0.677952	0.229274	0.272167	0.340184	0.678339	0.308384	0.514340	0.377079	0.529207	0.232255	0.330515	0.492638	0.617402	0.095587	0.316776	0.298487	0.760096	0.220029	0.269766	0.343169	0.609159	0.148051	0.414629	0.445407	0.657883	0.145241	0.215783	0.313284	0.496272	0.095191	0.184755	0.325552	0.772306	0.102662	0.219854	0.324626	0.710556	0.139833	0.225420	0.214547	0.768233	0.254183	0.339128	0.356017	0.760570	0.081123	0.217804	0.185899	0.673806	0.160651	0.358413	0.423472	0.345911	0.212755	0.187268	0.231025	0.564382	0.086258	0.187642	0.200492	0.621886	0.120761	0.211418	0.190709	0.619895	0.130528	0.139294	0.109672	0.389901	0.251420	0.377331	0.414807	0.725030	0.132809	0.337415	0.517441	0.793598	0.147577	0.221292	0.187618
47	0.653745	0.139661	0.274880	0.344410	0.747521	0.298676	0.496392	0.333319	0.529686	0.220397	0.388484	0.570671	0.570070	0.074142	0.276170	0.232794	0.754046	0.216586	0.303955	0.393183	0.619567	0.144702	0.430956	0.437874	0.626141	0.147967	0.244934	0.342511	0.623333	0.095013	0.181238	0.324087	0.647936	0.060261	0.213869	0.290828	0.687846	0.130929	0.206025	0.207215	0.716458	0.250367	0.329153	0.375271	0.624260	0.073145	0.223911	0.189171	0.675372	0.186190	0.389935	0.417246	0.330071	0.209708	0.187985	0.232403	0.550994	0.082003	0.191317	0.249003	0.612354	0.136937	0.219481	0.188866	0.591855	0.132446	0.172659	0.204132	0.409197	0.267248	0.389966	0.417421	0.763829	0.122858	0.417648	0.550506	0.728851	0.137922	0.229558	0.205629
48	0.660671	0.176599	0.190140	0.328106	0.769668	0.303200	0.423260	0.272480	0.519262	0.219883	0.418834	0.616182	0.737594	0.073502	0.184004	0.182973	0.663305	0.206506	0.362238	0.540885	0.633080	0.130339	0.391794	0.304203	0.663449	0.147529	0.246656	0.341622	0.564929	0.106932	0.175953	0.295731	0.605019	0.051774	0.215241	0.343881	0.505656	0.092648	0.206472	0.204051	0.682902	0.242981	0.449998	0.425840	0.552758	0.050826	0.223493	0.195680	0.696065	0.193235	0.403536	0.434091	0.428433	0.205337	0.202257	0.222056	0.558272	0.077217	0.206861	0.261974	0.611490	0.140686	0.223258	0.223958	0.578412	0.101482	0.240070	0.254274	0.438847	0.272539	0.392549	0.416911	0.703120	0.108222	0.429832	0.541006	0.733942	0.132050	0.232499	0.203079
49	0.541867	0.196617	0.182956	0.320921	0.730929	0.306716	0.452924	0.284805	0.532161	0.215368	0.420478	0.612733	0.710504	0.057193	0.123242	0.161101	0.672877	0.221197	0.370113	0.574109	0.577051	0.118509	0.274167	0.200641	0.689489	0.140636	0.235678	0.312306	0.609682	0.111252	0.176634	0.306434	0.493247	0.071376	0.252342	0.357116	0.527969	0.102957	0.225367	0.208123	0.596244	0.204061	0.470766	0.407990	0.579627	0.044261	0.210855	0.205335	0.673541	0.194927	0.463501	0.455960	0.442646	0.200596	0.192546	0.195076	0.588516	0.073683	0.219625	0.260470	0.737044	0.142262	0.265870	0.257744	0.613726	0.132545	0.267806	0.262943	0.444050	0.274022	0.388745	0.404641	0.670195	0.102374	0.442081	0.566152	0.796066	0.121128	0.234100	0.197807
50	0.503085	0.220869	0.243195	0.327524	0.863846	0.304990	0.475194	0.261567	0.395380	0.215386	0.384260	0.541207	0.805416	0.058510	0.123080	0.171538	0.679865	0.229308	0.375200	0.606325	0.586983	0.124887	0.242217	0.201987	0.708969	0.139925	0.219569	0.265734	0.650227	0.113325	0.178268	0.358624	0.464868	0.104486	0.266516	0.344302	0.554709	0.127262	0.238900	0.210610	0.608318	0.124380	0.480046	0.403569	0.538472	0.044712	0.210816	0.209977	0.688827	0.185241	0.494469	0.461799	0.509655	0.100344	0.166385	0.214878	0.664827	0.073607	0.268524	0.289964	0.735241	0.134336	0.277984	0.239454	0.615134	0.175105	0.270404	0.262733	0.458774	0.272564	0.349786	0.354694	0.687040	0.106439	0.438478	0.620264	0.734015	0.108945	0.213303	0.199479
51	0.519668	0.224658	0.304657	0.339455	0.886128	0.295740	0.431627	0.246958	0.367879	0.245491	0.348629	0.508947	0.829624	0.059589	0.161182	0.195435	0.635471	0.224093	0.423317	0.712215	0.592509	0.097470	0.233476	0.193202	0.705089	0.120809	0.222639	0.270921	0.640062	0.096844	0.175102	0.407704	0.445967	0.108355	0.268370	0.322162	0.511866	0.143806	0.226991	0.202476	0.555427	0.083684	0.461596	0.366407	0.492844	0.046941	0.200734	0.171517	0.701043	0.170786	0.499982	0.462514	0.499151	0.096343	0.170583	0.206468	0.631505	0.078100	0.336042	0.333697	0.670466	0.134590	0.287985	0.255186	0.536649	0.178407	0.304564	0.265338	0.525003	0.269906	0.301130	0.307122	0.736149	0.118922	0.420599	0.610882	0.710437	0.097336	0.220654	0.210237
52	0.548927	0.222928	0.308502	0.289587	0.916832	0.249835	0.425409	0.231348	0.394513	0.237231	0.368563	0.549593	0.787580	0.061260	0.275493	0.295923	0.679685	0.252798	0.440109	0.741832	0.585330	0.098393	0.237111	0.230530	0.763001	0.097716	0.240907	0.365722	0.572057	0.101553	0.170879	0.397760	0.452236	0.108162	0.255342	0.337035	0.518319	0.150763	0.186347	0.157325	0.587370	0.089343	0.415860	0.321619	0.557981	0.060701	0.176328	0.133873	0.623248	0.169620	0.499711	0.463683	0.489683	0.102049	0.156805	0.189249	0.630212	0.106217	0.394112	0.394776	0.660828	0.132788	0.288280	0.319879	0.503920	0.193243	0.338209	0.282043	0.627586	0.267553	0.282607	0.284928	0.742036	0.139353	0.426629	0.592169	0.690986	0.083504	0.246004	0.230259
53	0.515807	0.228349	0.292481	0.280868	0.905278	0.245689	0.410314	0.222980	0.353029	0.202521	0.383972	0.570590	0.789611	0.055037	0.335563	0.342857	0.567379	0.255975	0.440704	0.734741	0.596852	0.102189	0.280688	0.283370	0.693805	0.078763	0.242658	0.364149	0.585344	0.107576	0.176379	0.394465	0.427306	0.107587	0.249489	0.352366	0.512858	0.151624	0.174810	0.153018	0.591720	0.143457	0.436265	0.330491	0.534075	0.073141	0.171100	0.134893	0.630295	0.169891	0.478960	0.434817	0.494075	0.098433	0.155626	0.200231	0.632027	0.137472	0.415565	0.444753	0.686383	0.134756	0.308126	0.352925	0.470281	0.211061	0.342689	0.283769	0.632765	0.265835	0.273301	0.279853	0.858814	0.146318	0.412744	0.496758	0.735936	0.091909	0.239891	0.243872
54	0.515327	0.240025	0.292369	0.281873	1.008108	0.221941	0.435853	0.250826	0.393419	0.196368	0.335477	0.506003	0.793233	0.052234	0.352832	0.350067	0.555959	0.240074	0.421467	0.719793	0.561367	0.105851	0.272062	0.279361	0.744511	0.091541	0.223373	0.343373	0.597674	0.112067	0.156159	0.368785	0.418555	0.125723	0.228819	0.364236	0.595007	0.141053	0.173540	0.151544	0.571305	0.157230	0.436829	0.304231	0.474157	0.082295	0.160653	0.127286	0.612942	0.154302	0.442981	0.331696	0.544354	0.100237	0.188948	0.237395	0.603360	0.159337	0.419804	0.446594	0.654944	0.101523	0.312021	0.352139	0.457757	0.242880	0.337770	0.284575	0.698067	0.252244	0.268943	0.267858	0.880506	0.135454	0.338824	0.416382	0.700706	0.082982	0.211465	0.247750
55	0.521612	0.199714	0.325456	0.301541	1.002774	0.180699	0.439123	0.257990	0.478165	0.196598	0.294520	0.466522	0.789406	0.095516	0.427136	0.367825	0.585884	0.222115	0.359634	0.712321	0.552845	0.115328	0.282084	0.316988	0.752628	0.220111	0.240185	0.341055	0.594681	0.174269	0.137169	0.336081	0.549227	0.134166	0.270372	0.467855	0.598873	0.137170	0.170442	0.145829	0.525978	0.170337	0.321623	0.235145	0.610204	0.119407	0.146720	0.110314	0.624921	0.116659	0.452799	0.417800	0.707192	0.093361	0.207768	0.250932	0.625696	0.165470	0.438797	0.463166	0.665037	0.081842	0.308175	0.350295	0.461775	0.251797	0.332618	0.255077	0.694613	0.188569	0.237274	0.201574	0.911420	0.123089	0.300193	0.411115	0.700758	0.081937	0.197828	0.244456
56	0.511461	0.181267	0.340701	0.289353	0.975085	0.175874	0.384980	0.224602	0.567643	0.189869	0.294697	0.457443	0.648574	0.135467	0.508342	0.437872	0.617873	0.209554	0.307227	0.614041	0.642244	0.148178	0.323140	0.338357	0.785177	0.346478	0.244660	0.382715	0.479836	0.221809	0.137234	0.319903	0.578927	0.133413	0.296253	0.466831	0.582657	0.137051	0.187837	0.165523	0.647729	0.174088	0.272966	0.216594	0.621512	0.122592	0.145024	0.089273	0.657369	0.084432	0.454203	0.431016	0.765440	0.090821	0.194875	0.245122	0.619636	0.167009	0.459702	0.496444	0.713051	0.070787	0.309049	0.330233	0.482077	0.249734	0.290733	0.211412	0.662982	0.146953	0.195511	0.147698	0.846769	0.125027	0.284714	0.386667	0.712692	0.083725	0.184932	0.217764
57	0.562724	0.194174	0.284612	0.225848	0.829134	0.174347	0.313273	0.195443	0.568312	0.192859	0.303049	0.478713	0.656697	0.143065	0.545556	0.491376	0.600234	0.193835	0.310309	0.600331	0.655338	0.158791	0.326451	0.339226	0.816699	0.371139	0.245982	0.399139	0.491195	0.256598	0.154450	0.318335	0.543336	0.123927	0.278534	0.453149	0.576447	0.144369	0.254988	0.207784	0.620648	0.176687	0.257090	0.220722	0.694776	0.127110	0.154479	0.100429	0.671959	0.082554	0.454015	0.477894	0.786677	0.083128	0.192875	0.240839	0.618538	0.174501	0.482304	0.507450	0.672870	0.066474	0.276342	0.303456	0.420612	0.238599	0.257835	0.221715	0.673405	0.101222	0.159890	0.114114	0.774283	0.125545	0.236491	0.275718	0.720052	0.093522	0.179562	0.189686
58	0.622016	0.238013	0.239156	0.198822	0.817155	0.156778	0.311344	0.188446	0.615337	0.180164	0.298902	0.456966	0.519946	0.143899	0.553837	0.506309	0.596871	0.181179	0.301364	0.566529	0.660499	0.154404	0.375948	0.384703	0.803694	0.380169	0.245905	0.399454	0.491218	0.271337	0.157324	0.316263	0.612655	0.097765	0.262031	0.454047	0.618952	0.148374	0.294333	0.242807	0.681001	0.190979	0.258348	0.227214	0.691326	0.145592	0.157160	0.117184	0.686672	0.072780	0.440769	0.574494	0.761507	0.070786	0.190488	0.211416	0.613848	0.188573	0.481395	0.493625	0.683840	0.070930	0.255932	0.301043	0.418833	0.201964	0.257711	0.240993	0.653769	0.074998	0.135219	0.116602	0.735658	0.114437	0.239872	0.200293	0.703934	0.112455	0.176304	0.185660
59	0.609852	0.275938	0.254160	0.236422	0.722635	0.120878	0.293866	0.185287	0.638174	0.128017	0.290249	0.413357	0.564536	0.150840	0.542332	0.495697	0.563554	0.176598	0.218144	0.440545	0.669186	0.155675	0.430052	0.457197	0.807519	0.440770	0.219794	0.374685	0.505904	0.288859	0.163649	0.279551	0.646921	0.091659	0.252915	0.462273	0.555261	0.149347	0.300976	0.257952	0.709838	0.190342	0.246477	0.216065	0.642930	0.159707	0.143099	0.117288	0.689226	0.108964	0.455753	0.629559	0.784936	0.058666	0.182691	0.199843	0.576263	0.196637	0.480332	0.493316	0.700143	0.075598	0.242962	0.284663	0.409147	0.204689	0.227737	0.241508	0.653421	0.068453	0.139823	0.119528	0.789461	0.094976	0.375502	0.254533	0.543991	0.157149	0.180204	0.198461
60	0.568129	0.273381	0.276586	0.261199	0.660946	0.098122	0.253793	0.172471	0.677035	0.106059	0.290438	0.374543	0.505316	0.163104	0.494286	0.442723	0.473163	0.106613	0.193240	0.401953	0.689765	0.156191	0.393096	0.409031	0.753748	0.451622	0.190603	0.280329	0.497147	0.288601	0.198772	0.189232	0.779824	0.099053	0.258832	0.470020	0.679776	0.144721	0.298819	0.255598	0.685396	0.149162	0.202637	0.185814	0.631324	0.159441	0.145661	0.115794	0.677309	0.145019	0.454633	0.634314	0.798816	0.051886	0.172496	0.198768	0.483069	0.197046	0.459697	0.490672	0.692965	0.070580	0.204212	0.213266	0.405002	0.197654	0.155057	0.209017	0.665193	0.099848	0.152029	0.123845	0.702662	0.072329	0.391719	0.258604	0.568937	0.222553	0.172627	0.196575
61	0.539390	0.327605	0.259165	0.255550	0.400552	0.071665	0.193636	0.172666	0.673167	0.085509	0.324274	0.353099	0.482525	0.176270	0.456044	0.406726	0.464788	0.116595	0.193894	0.398516	0.683231	0.155157	0.405563	0.463419	0.921619	0.463235	0.187763	0.267593	0.502258	0.328215	0.194770	0.125039	0.862725	0.101237	0.268226	0.462247	0.701640	0.128585	0.327286	0.267727	0.680808	0.134826	0.127002	0.169511	0.617434	0.139819	0.187677	0.157401	0.626514	0.149048	0.460374	0.633256	0.807279	0.052988	0.158040	0.167487	0.516311	0.194155	0.444980	0.570529	0.588032	0.066639	0.149986	0.142382	0.446721	0.180970	0.127120	0.202559	0.620195	0.153555	0.156623	0.128021	0.652458	0.075806	0.379918	0.246401	0.565547	0.226479	0.138085	0.167090
62	0.536165	0.331595	0.245383	0.272469	0.464118	0.070407	0.190014	0.175007	0.643346	0.096084	0.323051	0.322789	0.529951	0.178491	0.439817	0.397527	0.490928	0.128154	0.193029	0.352701	0.684566	0.155315	0.471150	0.483108	0.858997	0.462231	0.179099	0.259134	0.605852	0.345422	0.188462	0.151234	0.865568	0.080757	0.267918	0.454587	0.696006	0.123413	0.347676	0.302192	0.700334	0.118318	0.155560	0.208157	0.563582	0.131855	0.207733	0.176462	0.613943	0.164893	0.446583	0.621880	0.786714	0.051063	0.122080	0.125734	0.513739	0.188007	0.434947	0.608912	0.613544	0.062623	0.144164	0.130830	0.442297	0.143419	0.154583	0.246126	0.680255	0.168421	0.148206	0.129036	0.635731	0.075139	0.456625	0.290804	0.505643	0.241941	0.094002	0.135400
63	0.579357	0.344443	0.323714	0.412252	0.455389	0.089869	0.222383	0.216945	0.566762	0.130219	0.311414	0.259805	0.578510	0.163187	0.362044	0.373597	0.475901	0.132722	0.190899	0.259488	0.594350	0.166010	0.443504	0.463960	0.812560	0.428524	0.110765	0.219028	0.656149	0.348073	0.203261	0.164309	0.781888	0.065449	0.241667	0.349447	0.767889	0.124989	0.366730	0.327484	0.561277	0.107526	0.236928	0.239073	0.577314	0.136392	0.208066	0.179875	0.526482	0.181072	0.393976	0.588887	0.711045	0.063185	0.102889	0.132107	0.505853	0.169244	0.466259	0.581684	0.629046	0.055481	0.156288	0.147844	0.450589	0.114816	0.197695	0.282814	0.709526	0.261283	0.143014	0.128376	0.582420	0.069865	0.536038	0.340551	0.475140	0.272296	0.075212	0.122782
64	0.519694	0.332718	0.356613	0.426028	0.498179	0.137666	0.223742	0.240611	0.524643	0.133494	0.331032	0.208467	0.566651	0.140138	0.228199	0.273568	0.471187	0.129679	0.185488	0.258284	0.525055	0.149594	0.445020	0.463112	0.856461	0.338767	0.111460	0.131284	0.720765	0.341810	0.225449	0.184106	0.764363	0.089046	0.226675	0.301835	0.782432	0.135398	0.375051	0.334021	0.563689	0.113003	0.241289	0.234580	0.515307	0.115365	0.202910	0.171614	0.511323	0.194155	0.338978	0.541041	0.592305	0.075191	0.111496	0.142059	0.508050	0.153637	0.514477	0.581574	0.604095	0.055179	0.153033	0.163877	0.435460	0.117463	0.247132	0.319195	0.817575	0.278094	0.141587	0.127882	0.597255	0.107930	0.554543	0.356578	0.498457	0.285486	0.073114	0.110914
65	0.484011	0.315379	0.351896	0.433979	0.561104	0.153093	0.224409	0.254175	0.520603	0.128651	0.334835	0.170368	0.646962	0.133807	0.127190	0.177850	0.568403	0.131245	0.204543	0.248667	0.510849	0.141039	0.443849	0.453152	0.815303	0.367965	0.113012	0.087063	0.803170	0.310718	0.224774	0.183927	0.775586	0.146519	0.265380	0.361163	0.853770	0.138406	0.371061	0.332025	0.487290	0.091463	0.241704	0.231108	0.514716	0.128702	0.184491	0.164226	0.455189	0.196779	0.321626	0.524532	0.696747	0.082270	0.114780	0.145760	0.320097	0.145349	0.495747	0.585852	0.499931	0.050813	0.160829	0.167939	0.511477	0.135150	0.300352	0.370880	0.823922	0.284311	0.141753	0.125656	0.683838	0.133203	0.551545	0.357108	0.496403	0.387055	0.067947	0.108564
66	0.471050	0.302994	0.371451	0.499311	0.641955	0.163060	0.208153	0.270852	0.580647	0.129438	0.330308	0.170044	0.696822	0.133219	0.121360	0.142267	0.573264	0.130245	0.305932	0.266512	0.508179	0.164936	0.375167	0.345872	0.827493	0.362017	0.177505	0.101841	0.826192	0.286624	0.223305	0.183953	0.729271	0.168499	0.289417	0.363982	0.965900	0.138659	0.348589	0.309235	0.344908	0.084435	0.254746	0.235900	0.628879	0.142847	0.185278	0.180995	0.459682	0.197066	0.255908	0.415184	0.684352	0.082270	0.114192	0.146495	0.361931	0.144350	0.471038	0.591189	0.481481	0.044996	0.194199	0.180383	0.511147	0.133687	0.313443	0.367798	0.824165	0.305620	0.138489	0.123616	0.795622	0.134990	0.488821	0.327860	0.573359	0.393984	0.067670	0.108443
67	0.467424	0.326193	0.400217	0.565898	0.662656	0.188526	0.174105	0.241495	0.539754	0.137471	0.305380	0.141677	0.622892	0.125699	0.142200	0.151548	0.589111	0.123330	0.359411	0.250965	0.441022	0.167678	0.370909	0.336953	0.838872	0.286499	0.253559	0.101751	0.888479	0.263174	0.217077	0.194175	0.698569	0.187241	0.294069	0.361285	0.976939	0.120463	0.305497	0.276092	0.382786	0.083076	0.324823	0.289926	0.651944	0.141323	0.171735	0.194081	0.501891	0.192161	0.206027	0.271896	0.701787	0.084386	0.117167	0.154325	0.364893	0.136631	0.460973	0.587696	0.448344	0.047488	0.223224	0.221802	0.525185	0.122633	0.314550	0.378706	0.797594	0.313835	0.130714	0.134740	0.767584	0.154146	0.444189	0.314085	0.657927	0.399794	0.068165	0.106461
68	0.490989	0.292315	0.436477	0.582311	0.736219	0.220063	0.174062	0.231203	0.636700	0.170547	0.255643	0.159863	0.627058	0.109988	0.139948	0.152338	0.600191	0.193834	0.358990	0.246424	0.441665	0.169669	0.362887	0.272392	0.904563	0.273040	0.269317	0.101813	0.883515	0.240793	0.217601	0.213393	0.539163	0.186090	0.302998	0.341327	0.931570	0.118840	0.268438	0.252300	0.441050	0.087399	0.387349	0.355310	0.715227	0.141960	0.143035	0.168751	0.543912	0.161378	0.178285	0.202860	0.686974	0.092825	0.112755	0.157494	0.488790	0.135572	0.514166	0.609698	0.449739	0.067565	0.219789	0.229039	0.580200	0.108837	0.337855	0.433348	0.783235	0.333990	0.116122	0.134463	0.702107	0.163361	0.445236	0.316894	0.686857	0.394369	0.075481	0.092988
69	0.525758	0.286872	0.409313	0.538001	0.728907	0.265420	0.167407	0.224103	0.640874	0.182704	0.226559	0.213010	0.660688	0.087995	0.142636	0.164788	0.686291	0.202263	0.378994	0.251301	0.370463	0.168419	0.259918	0.193096	0.759532	0.253585	0.268864	0.106647	0.854561	0.236227	0.235907	0.283246	0.399909	0.185829	0.313760	0.354893	0.952948	0.118105	0.259213	0.240998	0.460479	0.099144	0.374149	0.357632	0.685332	0.136743	0.125941	0.165242	0.593345	0.150987	0.169215	0.263194	0.685141	0.094914	0.106252	0.163978	0.489384	0.173803	0.572398	0.623954	0.508676	0.073414	0.231364	0.240839	0.573719	0.120517	0.375822	0.456962	0.786416	0.334135	0.110890	0.129795	0.699901	0.163319	0.387763	0.296482	0.666179	0.360568	0.091405	0.104645
70	0.534940	0.256827	0.343426	0.456015	0.769720	0.259964	0.135094	0.196186	0.646119	0.171991	0.223735	0.238810	0.627106	0.101315	0.153205	0.169941	0.683790	0.205956	0.444590	0.267758	0.395481	0.154408	0.251909	0.202592	0.755539	0.251066	0.294256	0.133693	0.871166	0.224793	0.311694	0.318747	0.377663	0.195461	0.334904	0.393329	0.863905	0.110680	0.247422	0.240395	0.498239	0.104962	0.355902	0.351340	0.673927	0.135354	0.114255	0.153685	0.581534	0.145784	0.154385	0.251554	0.709082	0.104237	0.096393	0.153632	0.495832	0.198517	0.589172	0.621838	0.467901	0.088978	0.253822	0.252043	0.550826	0.134398	0.380067	0.446877	0.783758	0.333191	0.103031	0.130363	0.688723	0.165903	0.269780	0.252940	0.722420	0.351606	0.110133	0.126785
71	0.617310	0.249830	0.324762	0.439996	0.703451	0.234584	0.188448	0.243262	0.629632	0.158150	0.216131	0.243360	0.592984	0.109265	0.155801	0.171478	0.689103	0.232162	0.479118	0.287038	0.391942	0.151673	0.283486	0.217964	0.743930	0.227051	0.360305	0.217339	0.907416	0.152826	0.331158	0.307762	0.456863	0.211393	0.331863	0.398862	0.853430	0.114110	0.209192	0.219715	0.543477	0.107294	0.389300	0.372398	0.683813	0.126040	0.113018	0.156883	0.574699	0.128539	0.155126	0.234785	0.651169	0.101481	0.078931	0.140927	0.488078	0.203031	0.584587	0.553233	0.426002	0.144702	0.249622	0.250639	0.539031	0.136142	0.358934	0.427076	0.775482	0.313987	0.116310	0.143414	0.692217	0.155303	0.186951	0.227720	0.725809	0.346254	0.118606	0.134599
72	0.641732	0.237960	0.357328	0.439400	0.745715	0.219773	0.250570	0.259556	0.681361	0.146575	0.204857	0.287385	0.723739	0.111434	0.158316	0.163943	0.680910	0.258802	0.491936	0.304371	0.373546	0.154076	0.279022	0.212829	0.672363	0.220698	0.397423	0.228065	0.876289	0.137868	0.322685	0.305725	0.493705	0.232712	0.300272	0.360954	0.853563	0.121940	0.179923	0.173306	0.578632	0.109669	0.403616	0.380978	0.616237	0.074168	0.113812	0.147024	0.748990	0.098770	0.153501	0.237890	0.677896	0.097498	0.099357	0.144500	0.510711	0.200255	0.568630	0.459062	0.403799	0.178006	0.242834	0.247418	0.547996	0.132771	0.333840	0.406928	0.730772	0.296518	0.122946	0.164367	0.615562	0.126497	0.182478	0.225023	0.713018	0.333545	0.121943	0.135184
73	0.632740	0.189400	0.378171	0.341569	0.687892	0.215994	0.259500	0.256056	0.626769	0.145396	0.247661	0.321471	0.642917	0.119180	0.146778	0.140212	0.567836	0.271998	0.479518	0.296325	0.385208	0.145217	0.273556	0.211074	0.651442	0.116657	0.410636	0.219572	0.807091	0.164185	0.314893	0.307257	0.466481	0.214557	0.248062	0.280630	0.878655	0.119762	0.144959	0.133038	0.580940	0.113243	0.390601	0.388451	0.563023	0.073918	0.094400	0.105306	0.752473	0.081830	0.154450	0.250797	0.552547	0.094303	0.112473	0.148331	0.555876	0.199526	0.542719	0.437137	0.492216	0.178436	0.241137	0.252735	0.514059	0.126517	0.304005	0.372878	0.765010	0.270819	0.128048	0.169908	0.432011	0.132308	0.171644	0.221890	0.681019	0.318391	0.141182	0.146104
74	0.661826	0.128635	0.366055	0.276171	0.678892	0.172706	0.272925	0.289848	0.686474	0.144642	0.256112	0.312526	0.667004	0.120231	0.118864	0.112325	0.598459	0.277381	0.416625	0.236749	0.377135	0.112403	0.289605	0.221330	0.636292	0.104467	0.386762	0.214300	0.787193	0.194896	0.319341	0.313488	0.638192	0.196763	0.217073	0.272334	0.827734	0.107693	0.132424	0.121442	0.545461	0.122995	0.327350	0.354878	0.686188	0.067392	0.053201	0.067614	0.754466	0.092043	0.162380	0.256810	0.553766	0.113516	0.116229	0.149994	0.627983	0.194733	0.494691	0.432514	0.533025	0.179828	0.218473	0.242409	0.480698	0.120906	0.332836	0.369245	0.796527	0.197554	0.137865	0.175295	0.480857	0.128286	0.190633	0.259681	0.708676	0.225644	0.149817	0.151959
75	0.677867	0.095103	0.342359	0.258705	0.692539	0.128995	0.283740	0.293544	0.615275	0.124111	0.278462	0.329519	0.678949	0.141398	0.105423	0.099353	0.615033	0.273970	0.364715	0.215271	0.380232	0.119133	0.313382	0.240667	0.647773	0.111251	0.345909	0.216444	0.784878	0.203612	0.322807	0.319397	0.637228	0.178778	0.207400	0.261635	0.767155	0.110582	0.132387	0.121217	0.487392	0.125254	0.263703	0.277421	0.574975	0.063407	0.075383	0.101822	0.694246	0.093849	0.164537	0.262183	0.480257	0.137881	0.110567	0.143544	0.634358	0.194730	0.484915	0.425144	0.531806	0.182914	0.194421	0.213524	0.475674	0.135929	0.344042	0.369497	0.631761	0.197487	0.143819	0.177939	0.487810	0.117999	0.213229	0.277641	0.751932	0.162309	0.151278	0.155965
76	0.642258	0.115332	0.357671	0.265634	0.822027	0.043097	0.277231	0.307962	0.543122	0.085019	0.290945	0.316065	0.675056	0.227882	0.104382	0.095430	0.597137	0.226536	0.366197	0.224636	0.395989	0.121817	0.340121	0.259493	0.549692	0.101249	0.340131	0.239358	0.666363	0.198192	0.339015	0.326860	0.685201	0.175486	0.216135	0.319347	0.648270	0.113307	0.129522	0.119689	0.473130	0.129349	0.262322	0.263612	0.643169	0.075736	0.215739	0.168162	0.649815	0.092777	0.169019	0.264189	0.528163	0.138156	0.135748	0.176423	0.651145	0.196210	0.532414	0.419069	0.614242	0.197362	0.227394	0.211203	0.413178	0.179377	0.329888	0.315242	0.607912	0.170878	0.143354	0.177976	0.476073	0.116550	0.247369	0.276344	0.812278	0.151731	0.150570	0.158154
77	0.557870	0.113370	0.378078	0.289076	0.818291	0.043090	0.273505	0.295825	0.516837	0.083795	0.290388	0.286027	0.724470	0.265384	0.093425	0.072331	0.535354	0.218825	0.353105	0.244265	0.353233	0.123252	0.331496	0.244340	0.440182	0.106759	0.390576	0.304031	0.667170	0.212587	0.352376	0.321716	0.711473	0.176486	0.267710	0.367910	0.700208	0.128007	0.124004	0.115449	0.459013	0.124339	0.226799	0.250057	0.646008	0.094777	0.262034	0.183344	0.601282	0.092929	0.209973	0.228285	0.547101	0.148495	0.160210	0.175862	0.641279	0.198057	0.683214	0.482139	0.581590	0.206614	0.234158	0.202141	0.404035	0.235509	0.288253	0.264997	0.595874	0.156809	0.134184	0.172106	0.486913	0.115017	0.249138	0.262320	0.758504	0.128865	0.149366	0.171952
78	0.499748	0.102398	0.395883	0.319129	0.820841	0.043005	0.232653	0.268394	0.515658	0.093336	0.291147	0.288677	0.782129	0.317431	0.088482	0.080001	0.543406	0.212188	0.318162	0.286841	0.444064	0.120255	0.300996	0.230242	0.533045	0.114782	0.427518	0.338157	0.654164	0.222820	0.353521	0.295845	0.758414	0.167082	0.270064	0.350396	0.702629	0.134631	0.109344	0.096831	0.396219	0.117631	0.233266	0.317055	0.652201	0.095009	0.285113	0.189065	0.577747	0.103602	0.216981	0.178452	0.524097	0.203915	0.160829	0.176596	0.562589	0.206969	0.871985	0.547235	0.591618	0.205852	0.201768	0.184558	0.406471	0.255575	0.287259	0.278445	0.590824	0.094612	0.129801	0.161016	0.470968	0.111565	0.276244	0.265772	0.761864	0.129779	0.142607	0.178655
79	0.467272	0.098136	0.350178	0.300976	0.796097	0.055976	0.173836	0.255558	0.499326	0.089293	0.268805	0.273008	0.775646	0.313909	0.129636	0.095889	0.565279	0.185990	0.278943	0.290841	0.446618	0.122822	0.274098	0.215893	0.683679	0.123227	0.408217	0.301947	0.650809	0.221830	0.300957	0.223438	0.715643	0.148005	0.274016	0.371144	0.654329	0.123544	0.094529	0.078606	0.304358	0.110119	0.325438	0.382055	0.672523	0.137132	0.372088	0.243880	0.625668	0.110345	0.221294	0.178709	0.592824	0.222290	0.160793	0.166032	0.585539	0.183774	0.940260	0.577001	0.622148	0.178786	0.195410	0.174637	0.404371	0.301124	0.331520	0.296377	0.645011	0.079951	0.128029	0.162315	0.496772	0.123654	0.318310	0.312333	0.763104	0.135255	0.128935	0.155961
80	0.498750	0.100457	0.289790	0.260765	0.782464	0.075089	0.166288	0.238751	0.451236	0.104990	0.267114	0.221375	0.653894	0.309248	0.130719	0.097270	0.539533	0.153339	0.256692	0.281923	0.449034	0.119367	0.301178	0.242474	0.644524	0.124044	0.369426	0.296381	0.682794	0.221163	0.222973	0.192246	0.677007	0.118724	0.396779	0.536084	0.651584	0.116943	0.094492	0.075476	0.300542	0.107257	0.342395	0.372536	0.562441	0.207036	0.404789	0.267472	0.637371	0.114305	0.240316	0.171889	0.610233	0.223638	0.139879	0.152432	0.597088	0.161382	0.931371	0.579380	0.633062	0.138689	0.203188	0.164010	0.409514	0.392821	0.364220	0.306456	0.655085	0.078154	0.127477	0.160657	0.570243	0.144331	0.348250	0.350140	0.712460	0.130717	0.123047	0.143503
81	0.425997	0.118560	0.312555	0.325623	0.801086	0.075073	0.136186	0.200429	0.421581	0.113611	0.242434	0.192677	0.710310	0.308802	0.133894	0.095715	0.537622	0.127720	0.268067	0.320605	0.472389	0.120418	0.343526	0.255992	0.704823	0.115661	0.376199	0.315257	0.707173	0.227848	0.213678	0.190423	0.677471	0.095284	0.534532	0.666367	0.686493	0.114841	0.089383	0.063562	0.449301	0.103837	0.346968	0.354487	0.571039	0.258241	0.407589	0.269013	0.467822	0.126017	0.249024	0.124848	0.585872	0.223366	0.128119	0.148440	0.625296	0.154902	0.954669	0.607333	0.656580	0.142333	0.201998	0.149986	0.413819	0.425191	0.367296	0.313127	0.652223	0.072951	0.112147	0.148916	0.500710	0.207573	0.350358	0.336155	0.714173	0.116914	0.141491	0.147935
82	0.412702	0.147141	0.321861	0.405290	0.620005	0.071249	0.119382	0.191315	0.497644	0.151431	0.240763	0.189627	0.664397	0.309515	0.154723	0.101695	0.465061	0.139195	0.318144	0.413193	0.686067	0.115391	0.326003	0.237484	0.718358	0.117098	0.391777	0.322286	0.658368	0.222585	0.211810	0.167663	0.509755	0.117237	0.562578	0.691280	0.636491	0.102555	0.074959	0.041262	0.444308	0.102049	0.367832	0.374387	0.547839	0.268288	0.381222	0.234223	0.570711	0.121426	0.249351	0.111270	0.575514	0.214576	0.131422	0.150881	0.633356	0.161612	1.036042	0.655870	0.585990	0.142282	0.206988	0.196541	0.442127	0.429888	0.323912	0.285705	0.706012	0.071661	0.094868	0.109204	0.460648	0.224076	0.338891	0.294067	0.734812	0.102379	0.134503	0.146004
83	0.424226	0.139209	0.329620	0.413301	0.506656	0.069882	0.132086	0.182750	0.595722	0.166642	0.328074	0.246540	0.755130	0.301176	0.161831	0.106575	0.452945	0.142293	0.343212	0.448682	0.687168	0.106662	0.294199	0.201897	0.693442	0.130838	0.395519	0.326398	0.661149	0.212066	0.189054	0.145196	0.737464	0.134965	0.566083	0.695067	0.534783	0.100660	0.062933	0.031992	0.420326	0.103210	0.386211	0.397790	0.460629	0.290810	0.324323	0.210764	0.598163	0.113792	0.249601	0.102418	0.661288	0.199425	0.156687	0.153702	0.603534	0.175492	1.105570	0.695753	0.661363	0.136504	0.204910	0.224263	0.478001	0.427776	0.292953	0.273826	0.649064	0.067258	0.092265	0.083385	0.446436	0.227130	0.305563	0.287649	0.729362	0.080197	0.123639	0.134435
84	0.439394	0.147573	0.314255	0.409688	0.474506	0.070084	0.130429	0.165545	0.633215	0.163649	0.366483	0.281934	0.754479	0.241729	0.175984	0.111501	0.485553	0.139278	0.333001	0.442794	0.704892	0.102350	0.312398	0.180284	0.709213	0.129383	0.391592	0.321694	0.616366	0.255321	0.178534	0.118965	0.820442	0.138225	0.593508	0.725803	0.622270	0.101719	0.057993	0.035233	0.411669	0.100056	0.393613	0.397715	0.497224	0.366350	0.317796	0.216385	0.622594	0.114062	0.244014	0.169876	0.656191	0.200429	0.147322	0.108933	0.539001	0.184885	1.125385	0.709233	0.645164	0.108530	0.159102	0.212910	0.583989	0.416947	0.291547	0.278270	0.672353	0.062929	0.080389	0.071118	0.453726	0.246057	0.300746	0.289932	0.664062	0.085873	0.128668	0.134511
85	0.389077	0.154855	0.312298	0.442611	0.477063	0.071867	0.113499	0.129592	0.694653	0.158799	0.377476	0.288013	0.758946	0.206028	0.191259	0.135591	0.498061	0.132210	0.326373	0.434385	0.749874	0.108890	0.314691	0.178504	0.770025	0.128161	0.360937	0.323092	0.589731	0.260949	0.179211	0.119572	0.782288	0.186766	0.610820	0.773769	0.662221	0.096804	0.057640	0.035707	0.436541	0.098773	0.367231	0.390462	0.503032	0.378168	0.240956	0.182371	0.619246	0.115966	0.307168	0.341979	0.627201	0.191555	0.121000	0.092061	0.550697	0.182128	1.133736	0.711722	0.603211	0.085695	0.137751	0.242710	0.657591	0.395941	0.292042	0.283328	0.656179	0.079555	0.070301	0.059629	0.462241	0.295739	0.281624	0.315038	0.542714	0.105253	0.136366	0.136220
86	0.322449	0.157555	0.408341	0.480061	0.456702	0.055864	0.099687	0.112213	0.733541	0.154593	0.413476	0.348876	0.737311	0.103810	0.187506	0.138944	0.482035	0.122828	0.321297	0.408265	0.794454	0.100748	0.316377	0.183503	0.782585	0.121143	0.337481	0.350893	0.600499	0.262938	0.205955	0.163196	0.820003	0.245592	0.619932	0.815547	0.673246	0.091661	0.093584	0.065006	0.434862	0.117740	0.341764	0.388251	0.450691	0.345951	0.124562	0.116465	0.622713	0.122133	0.396646	0.409667	0.602620	0.122929	0.122257	0.087736	0.495935	0.178556	1.121453	0.691302	0.588430	0.075981	0.214932	0.276826	0.676813	0.377761	0.286965	0.292700	0.677593	0.117624	0.069910	0.062321	0.434658	0.301522	0.260391	0.302032	0.464959	0.117787	0.142297	0.125078
87	0.333903	0.169673	0.454863	0.488218	0.472826	0.045286	0.101204	0.110834	0.816132	0.188239	0.446174	0.409327	0.738603	0.112175	0.161340	0.125588	0.437684	0.113600	0.326023	0.396385	0.806699	0.104025	0.305211	0.162671	0.672198	0.118190	0.297085	0.357191	0.637918	0.256926	0.289877	0.314097	0.800826	0.270679	0.629853	0.815604	0.637397	0.082376	0.126256	0.077998	0.433752	0.141489	0.352469	0.400575	0.383311	0.329366	0.077382	0.098591	0.655287	0.157771	0.451949	0.435663	0.556118	0.082427	0.131436	0.081256	0.486624	0.178061	1.059018	0.627560	0.576814	0.088276	0.222774	0.284707	0.650347	0.359258	0.236403	0.303340	0.687942	0.122822	0.072485	0.078663	0.373205	0.306114	0.296417	0.281738	0.543592	0.124669	0.137106	0.091395
88	0.360481	0.152877	0.425611	0.401961	0.362581	0.052764	0.103731	0.117373	0.797733	0.244158	0.438484	0.425835	0.821691	0.140065	0.157005	0.123974	0.460025	0.110339	0.329810	0.393935	0.784341	0.121806	0.229988	0.102681	0.654675	0.137009	0.317713	0.389575	0.650740	0.256801	0.335272	0.383288	0.837257	0.263676	0.576309	0.740407	0.630241	0.067736	0.130501	0.078682	0.362508	0.134017	0.371935	0.446911	0.510653	0.316645	0.084908	0.098291	0.669132	0.205204	0.453221	0.453753	0.617191	0.073036	0.146095	0.080475	0.478651	0.167938	0.898483	0.553226	0.647803	0.095198	0.214452	0.286017	0.647741	0.257206	0.192626	0.296879	0.696819	0.122677	0.072558	0.077435	0.275952	0.271342	0.371240	0.381150	0.689852	0.135678	0.133551	0.079082
89	0.414119	0.126739	0.408057	0.353835	0.360160	0.081112	0.137109	0.143433	0.793272	0.246137	0.445771	0.455705	0.821823	0.135228	0.154791	0.122033	0.489708	0.104687	0.362479	0.346346	0.614185	0.127190	0.193525	0.079758	0.577349	0.138011	0.338766	0.382296	0.764495	0.255470	0.338238	0.391575	0.864396	0.272255	0.459260	0.662917	0.628508	0.066772	0.131460	0.082897	0.554086	0.128037	0.364822	0.449223	0.501376	0.325874	0.095193	0.115067	0.775324	0.206124	0.483700	0.516588	0.632564	0.072478	0.146844	0.074875	0.559527	0.157882	0.743035	0.485044	0.714148	0.090390	0.212086	0.287713	0.682519	0.159377	0.221642	0.343133	0.677967	0.123902	0.075325	0.073255	0.423097	0.238591	0.458619	0.453200	0.678563	0.181613	0.132208	0.078156
90	0.402936	0.131403	0.392728	0.351228	0.428642	0.090330	0.238696	0.151406	0.665138	0.230909	0.421845	0.438723	0.799774	0.173462	0.132842	0.116085	0.490698	0.075739	0.333111	0.290890	0.699019	0.131568	0.192685	0.073301	0.632351	0.138019	0.361457	0.450468	0.655482	0.252227	0.355526	0.410619	0.859888	0.294197	0.465853	0.654804	0.606990	0.067509	0.148954	0.097661	0.588827	0.130426	0.377083	0.500028	0.646081	0.266875	0.093817	0.124335	0.713814	0.224563	0.543004	0.587111	0.644221	0.071967	0.141325	0.064295	0.563441	0.159294	0.725159	0.488334	0.717072	0.089038	0.207165	0.263170	0.761462	0.134534	0.351088	0.447764	0.661508	0.123986	0.077252	0.071239	0.412256	0.232968	0.461673	0.502337	0.692142	0.186549	0.113909	0.068105
91	0.364677	0.129269	0.427108	0.355185	0.454024	0.091370	0.241662	0.200892	0.602686	0.241890	0.354234	0.398943	0.689787	0.177177	0.123499	0.130432	0.618244	0.078514	0.337723	0.293130	0.761934	0.127122	0.139460	0.080853	0.639686	0.115653	0.389718	0.529083	0.611584	0.261391	0.380835	0.414792	0.721952	0.302365	0.518400	0.696977	0.605104	0.133976	0.182793	0.113875	0.615958	0.141112	0.372565	0.513633	0.628276	0.201808	0.081659	0.104345	0.686513	0.257790	0.597817	0.620579	0.565638	0.073640	0.116856	0.052067	0.507203	0.163233	0.702485	0.469168	0.655717	0.086503	0.202081	0.220984	0.757597	0.160124	0.397624	0.528293	0.665499	0.128155	0.085593	0.072470	0.484316	0.231239	0.555604	0.626471	0.685949	0.186039	0.098783	0.056395
92	0.355285	0.137422	0.428437	0.304121	0.477006	0.094095	0.305020	0.233159	0.512557	0.284543	0.321070	0.387326	0.706024	0.176604	0.144538	0.213535	0.592786	0.106038	0.338096	0.312865	0.653455	0.112860	0.115496	0.091518	0.641456	0.117847	0.413533	0.540091	0.604091	0.306166	0.389487	0.415048	0.621992	0.304156	0.556246	0.698241	0.632074	0.202104	0.185584	0.124547	0.616368	0.142624	0.430501	0.524508	0.663689	0.202145	0.077001	0.103812	0.623706	0.280135	0.611208	0.622710	0.521219	0.066738	0.111198	0.051833	0.495415	0.163880	0.586933	0.403097	0.667769	0.082935	0.201109	0.209752	0.721585	0.174872	0.412826	0.547255	0.683797	0.149582	0.085642	0.074072	0.547132	0.209810	0.736788	0.684256	0.663663	0.186313	0.096007	0.054980
93	0.350357	0.130081	0.357037	0.248363	0.460010	0.122862	0.318802	0.255675	0.515441	0.328596	0.313959	0.428451	0.628493	0.170357	0.194440	0.264384	0.540648	0.116312	0.344536	0.358317	0.616315	0.105601	0.117975	0.090368	0.582952	0.124980	0.408431	0.505031	0.614142	0.323083	0.404717	0.415863	0.689981	0.287386	0.524888	0.627281	0.663654	0.221212	0.192027	0.164214	0.653937	0.145725	0.517833	0.556465	0.673103	0.197835	0.084043	0.103568	0.618606	0.299099	0.594802	0.583752	0.548479	0.058452	0.114951	0.061675	0.484307	0.149351	0.400812	0.310785	0.688306	0.081120	0.197237	0.170316	0.684543	0.165465	0.412822	0.549406	0.555493	0.168628	0.082150	0.075945	0.588748	0.209400	0.757613	0.689724	0.657336	0.187362	0.080196	0.048131
94	0.420704	0.116401	0.316732	0.246114	0.471853	0.133108	0.330835	0.257782	0.393088	0.334723	0.248011	0.397424	0.570069	0.166636	0.219415	0.259469	0.572249	0.115883	0.409836	0.430214	0.651682	0.103127	0.125371	0.102301	0.543343	0.128779	0.402250	0.484094	0.619982	0.304558	0.409220	0.416609	0.670998	0.246836	0.497670	0.553822	0.577192	0.227105	0.213538	0.171552	0.666965	0.200339	0.521922	0.552675	0.624803	0.158385	0.112203	0.126982	0.672372	0.298961	0.535977	0.496846	0.612821	0.064184	0.121660	0.086940	0.462481	0.130992	0.341896	0.262359	0.764596	0.078902	0.126426	0.121296	0.654381	0.147837	0.421776	0.590544	0.545521	0.194875	0.082189	0.077765	0.596195	0.196918	0.760782	0.737593	0.708935	0.180405	0.073753	0.036842
95	0.393955	0.157978	0.344848	0.267186	0.470631	0.132661	0.336123	0.277829	0.436261	0.308532	0.267283	0.435255	0.566580	0.165467	0.227280	0.278171	0.573009	0.140060	0.414553	0.445225	0.685610	0.079523	0.130454	0.109041	0.607892	0.120463	0.530789	0.571889	0.616899	0.298722	0.400988	0.417380	0.706124	0.211822	0.580443	0.679498	0.526634	0.231386	0.228848	0.172173	0.582143	0.210166	0.500264	0.504373	0.638171	0.151282	0.106770	0.125303	0.636249	0.287684	0.465650	0.465880	0.663723	0.073360	0.136827	0.106311	0.491209	0.133694	0.388430	0.285668	0.770834	0.070076	0.135775	0.107144	0.626157	0.147538	0.449811	0.623357	0.572905	0.195893	0.077726	0.077801	0.600468	0.193170	0.793389	0.714221	0.727302	0.172421	0.064744	0.032611
96	0.392567	0.171960	0.385298	0.276256	0.671807	0.117270	0.350558	0.290851	0.544562	0.289126	0.315737	0.482734	0.563447	0.141733	0.267118	0.302599	0.570982	0.148932	0.442537	0.470650	0.686354	0.073169	0.130306	0.110344	0.620800	0.107293	0.661364	0.681849	0.586617	0.292148	0.402450	0.403356	0.702353	0.265413	0.763986	0.928779	0.528444	0.239072	0.212088	0.164466	0.500504	0.208151	0.480378	0.505036	0.638193	0.098842	0.124865	0.131924	0.576003	0.250580	0.457657	0.479644	0.569269	0.088881	0.150328	0.110502	0.508701	0.137461	0.417810	0.291458	0.718919	0.069621	0.158501	0.125075	0.647436	0.175020	0.517023	0.655700	0.561588	0.179085	0.074118	0.074510	0.548530	0.208206	0.740324	0.646548	0.745841	0.170992	0.071452	0.042315
97	0.613179	0.164652	0.375844	0.261237	0.623524	0.115372	0.329101	0.294203	0.572965	0.328652	0.461125	0.484896	0.490241	0.145737	0.288786	0.315046	0.607174	0.152277	0.506889	0.525953	0.689592	0.061484	0.159936	0.138935	0.626042	0.146490	0.703060	0.772532	0.547038	0.285170	0.404953	0.300193	0.697223	0.361372	0.841119	0.942595	0.572268	0.235108	0.218043	0.174259	0.450482	0.198169	0.489986	0.487519	0.519804	0.128516	0.181963	0.190453	0.573787	0.232824	0.522819	0.608213	0.578509	0.095507	0.149941	0.110506	0.527310	0.157247	0.412626	0.288941	0.572209	0.097770	0.161709	0.130217	0.678646	0.228410	0.630424	0.837762	0.552438	0.165650	0.070946	0.058588	0.529616	0.208510	0.776792	0.628488	0.677143	0.169121	0.084926	0.045926
98	0.666631	0.155335	0.333157	0.195740	0.621668	0.115130	0.327360	0.259954	0.589126	0.345596	0.522701	0.501317	0.507216	0.106255	0.296580	0.320938	0.633704	0.173685	0.568034	0.520923	0.621012	0.057877	0.188196	0.157168	0.599750	0.201375	0.700728	0.755339	0.510566	0.286702	0.395250	0.284187	0.855087	0.390973	0.818204	0.946196	0.578689	0.235803	0.231890	0.191025	0.435190	0.196000	0.509095	0.463454	0.532099	0.137083	0.206582	0.214843	0.489787	0.225012	0.511390	0.632618	0.568373	0.095568	0.150892	0.110714	0.565145	0.176389	0.422381	0.295621	0.590604	0.103621	0.162472	0.132489	0.606105	0.252520	0.647944	0.868582	0.556790	0.177576	0.072580	0.049450	0.499014	0.231515	0.751083	0.512715	0.618967	0.125402	0.082412	0.043830
99	0.693028	0.147550	0.301404	0.190038	0.724186	0.112668	0.359323	0.314162	0.689486	0.334638	0.531235	0.526637	0.596583	0.104828	0.295720	0.315446	0.505504	0.214927	0.557639	0.502587	0.564074	0.062664	0.224425	0.236642	0.596393	0.204623	0.784391	0.835434	0.477171	0.291090	0.393206	0.260729	0.861507	0.389760	0.827976	1.007905	0.585361	0.236670	0.243810	0.196147	0.399174	0.200212	0.407199	0.376673	0.580245	0.154981	0.214841	0.220690	0.489698	0.229444	0.471010	0.588953	0.581504	0.103736	0.162356	0.114686	0.504124	0.174182	0.457185	0.331119	0.605606	0.104989	0.159087	0.136804	0.580385	0.260070	0.624874	0.814265	0.590865	0.188816	0.073852	0.069579	0.442058	0.202276	0.608587	0.424272	0.617711	0.084831	0.083776	0.043894
100	0.678370	0.145493	0.391627	0.395687	0.805465	0.092239	0.402593	0.335341	0.700820	0.286820	0.552749	0.520124	0.570438	0.108895	0.280594	0.264594	0.505719	0.214588	0.583143	0.485127	0.602391	0.068923	0.273315	0.264568	0.573290	0.237049	0.859768	0.916373	0.625235	0.287437	0.370203	0.239586	0.812290	0.454497	0.821511	0.992510	0.598227	0.237983	0.235413	0.191310	0.394071	0.167326	0.280500	0.320980	0.611666	0.161670	0.205586	0.207397	0.545679	0.214973	0.434377	0.605437	0.591620	0.135670	0.166980	0.121127	0.618505	0.162896	0.476843	0.357883	0.617025	0.108044	0.176300	0.150969	0.534870	0.272598	0.666604	0.857207	0.592919	0.189471	0.071855	0.071060	0.436231	0.154769	0.550387	0.408880	0.629917	0.084283	0.093637	0.048395
101	0.742019	0.138387	0.435916	0.421484	0.810768	0.137097	0.407104	0.344486	0.712451	0.274056	0.582758	0.461762	0.635699	0.112298	0.237885	0.199661	0.500838	0.214122	0.565358	0.437779	0.566777	0.071207	0.281725	0.262471	0.552551	0.271072	0.881810	0.932095	0.666390	0.266140	0.345871	0.236940	0.753628	0.505965	0.807082	0.980097	0.630947	0.204963	0.213829	0.183749	0.421322	0.120719	0.294082	0.340176	0.606515	0.186395	0.225081	0.232825	0.550423	0.183493	0.478936	0.697401	0.694838	0.177332	0.174820	0.148767	0.667288	0.159571	0.477655	0.349179	0.718026	0.109452	0.184545	0.164090	0.507685	0.306884	0.785846	1.017783	0.582948	0.188436	0.084297	0.070544	0.469731	0.156042	0.602090	0.431008	0.626555	0.100706	0.107130	0.055392
