	312_At_T1_sh_ND_01.c3d	312_At_T1_sh_ND_01.c3d	312_At_T1_sh_ND_01.c3d	312_At_T1_sh_ND_01.c3d	312_At_T1_sh_ND_01.c3d	312_At_T1_sh_ND_01.c3d	312_At_T1_sh_ND_01.c3d	312_At_T1_sh_ND_01.c3d	312_At_T1_sh_ND_02.c3d	312_At_T1_sh_ND_02.c3d	312_At_T1_sh_ND_02.c3d	312_At_T1_sh_ND_02.c3d	312_At_T1_sh_ND_02.c3d	312_At_T1_sh_ND_02.c3d	312_At_T1_sh_ND_02.c3d	312_At_T1_sh_ND_02.c3d	312_At_T1_sh_ND_03.c3d	312_At_T1_sh_ND_03.c3d	312_At_T1_sh_ND_03.c3d	312_At_T1_sh_ND_03.c3d	312_At_T1_sh_ND_03.c3d	312_At_T1_sh_ND_03.c3d	312_At_T1_sh_ND_03.c3d	312_At_T1_sh_ND_03.c3d	312_At_T1_sh_ND_04.c3d	312_At_T1_sh_ND_04.c3d	312_At_T1_sh_ND_04.c3d	312_At_T1_sh_ND_04.c3d	312_At_T1_sh_ND_04.c3d	312_At_T1_sh_ND_04.c3d	312_At_T1_sh_ND_04.c3d	312_At_T1_sh_ND_04.c3d	312_At_T1_sh_ND_05.c3d	312_At_T1_sh_ND_05.c3d	312_At_T1_sh_ND_05.c3d	312_At_T1_sh_ND_05.c3d	312_At_T1_sh_ND_05.c3d	312_At_T1_sh_ND_05.c3d	312_At_T1_sh_ND_05.c3d	312_At_T1_sh_ND_05.c3d	312_At_T1_sh_ND_06.c3d	312_At_T1_sh_ND_06.c3d	312_At_T1_sh_ND_06.c3d	312_At_T1_sh_ND_06.c3d	312_At_T1_sh_ND_06.c3d	312_At_T1_sh_ND_06.c3d	312_At_T1_sh_ND_06.c3d	312_At_T1_sh_ND_06.c3d	312_At_T1_sh_ND_07.c3d	312_At_T1_sh_ND_07.c3d	312_At_T1_sh_ND_07.c3d	312_At_T1_sh_ND_07.c3d	312_At_T1_sh_ND_07.c3d	312_At_T1_sh_ND_07.c3d	312_At_T1_sh_ND_07.c3d	312_At_T1_sh_ND_07.c3d	312_At_T1_sh_ND_08.c3d	312_At_T1_sh_ND_08.c3d	312_At_T1_sh_ND_08.c3d	312_At_T1_sh_ND_08.c3d	312_At_T1_sh_ND_08.c3d	312_At_T1_sh_ND_08.c3d	312_At_T1_sh_ND_08.c3d	312_At_T1_sh_ND_08.c3d	312_At_T1_sh_ND_09.c3d	312_At_T1_sh_ND_09.c3d	312_At_T1_sh_ND_09.c3d	312_At_T1_sh_ND_09.c3d	312_At_T1_sh_ND_09.c3d	312_At_T1_sh_ND_09.c3d	312_At_T1_sh_ND_09.c3d	312_At_T1_sh_ND_09.c3d	312_At_T1_sh_ND_10.c3d	312_At_T1_sh_ND_10.c3d	312_At_T1_sh_ND_10.c3d	312_At_T1_sh_ND_10.c3d	312_At_T1_sh_ND_10.c3d	312_At_T1_sh_ND_10.c3d	312_At_T1_sh_ND_10.c3d	312_At_T1_sh_ND_10.c3d
	Biceps femoris_lat	Semitendinosus_lat	Vastus lateralis_lat	Vastus medialis_lat	Biceps femoris_med	Semitendinosus_med	Vastus lateralis_med	Vastus medialis_med	Biceps femoris_lat	Semitendinosus_lat	Vastus lateralis_lat	Vastus medialis_lat	Biceps femoris_med	Semitendinosus_med	Vastus lateralis_med	Vastus medialis_med	Biceps femoris_lat	Semitendinosus_lat	Vastus lateralis_lat	Vastus medialis_lat	Biceps femoris_med	Semitendinosus_med	Vastus lateralis_med	Vastus medialis_med	Biceps femoris_lat	Semitendinosus_lat	Vastus lateralis_lat	Vastus medialis_lat	Biceps femoris_med	Semitendinosus_med	Vastus lateralis_med	Vastus medialis_med	Biceps femoris_lat	Semitendinosus_lat	Vastus lateralis_lat	Vastus medialis_lat	Biceps femoris_med	Semitendinosus_med	Vastus lateralis_med	Vastus medialis_med	Biceps femoris_lat	Semitendinosus_lat	Vastus lateralis_lat	Vastus medialis_lat	Biceps femoris_med	Semitendinosus_med	Vastus lateralis_med	Vastus medialis_med	Biceps femoris_lat	Semitendinosus_lat	Vastus lateralis_lat	Vastus medialis_lat	Biceps femoris_med	Semitendinosus_med	Vastus lateralis_med	Vastus medialis_med	Biceps femoris_lat	Semitendinosus_lat	Vastus lateralis_lat	Vastus medialis_lat	Biceps femoris_med	Semitendinosus_med	Vastus lateralis_med	Vastus medialis_med	Biceps femoris_lat	Semitendinosus_lat	Vastus lateralis_lat	Vastus medialis_lat	Biceps femoris_med	Semitendinosus_med	Vastus lateralis_med	Vastus medialis_med	Biceps femoris_lat	Semitendinosus_lat	Vastus lateralis_lat	Vastus medialis_lat	Biceps femoris_med	Semitendinosus_med	Vastus lateralis_med	Vastus medialis_med
	P2D	P2D	P2D	P2D	P2D	P2D	P2D	P2D	P2D	P2D	P2D	P2D	P2D	P2D	P2D	P2D	P2D	P2D	P2D	P2D	P2D	P2D	P2D	P2D	P2D	P2D	P2D	P2D	P2D	P2D	P2D	P2D	P2D	P2D	P2D	P2D	P2D	P2D	P2D	P2D	P2D	P2D	P2D	P2D	P2D	P2D	P2D	P2D	P2D	P2D	P2D	P2D	P2D	P2D	P2D	P2D	P2D	P2D	P2D	P2D	P2D	P2D	P2D	P2D	P2D	P2D	P2D	P2D	P2D	P2D	P2D	P2D	P2D	P2D	P2D	P2D	P2D	P2D	P2D	P2D
	EMG_lat	EMG_lat	EMG_lat	EMG_lat	EMG_med	EMG_med	EMG_med	EMG_med	EMG_lat	EMG_lat	EMG_lat	EMG_lat	EMG_med	EMG_med	EMG_med	EMG_med	EMG_lat	EMG_lat	EMG_lat	EMG_lat	EMG_med	EMG_med	EMG_med	EMG_med	EMG_lat	EMG_lat	EMG_lat	EMG_lat	EMG_med	EMG_med	EMG_med	EMG_med	EMG_lat	EMG_lat	EMG_lat	EMG_lat	EMG_med	EMG_med	EMG_med	EMG_med	EMG_lat	EMG_lat	EMG_lat	EMG_lat	EMG_med	EMG_med	EMG_med	EMG_med	EMG_lat	EMG_lat	EMG_lat	EMG_lat	EMG_med	EMG_med	EMG_med	EMG_med	EMG_lat	EMG_lat	EMG_lat	EMG_lat	EMG_med	EMG_med	EMG_med	EMG_med	EMG_lat	EMG_lat	EMG_lat	EMG_lat	EMG_med	EMG_med	EMG_med	EMG_med	EMG_lat	EMG_lat	EMG_lat	EMG_lat	EMG_med	EMG_med	EMG_med	EMG_med
ITEM	Y	Y	Y	Y	Y	Y	Y	Y	Y	Y	Y	Y	Y	Y	Y	Y	Y	Y	Y	Y	Y	Y	Y	Y	Y	Y	Y	Y	Y	Y	Y	Y	Y	Y	Y	Y	Y	Y	Y	Y	Y	Y	Y	Y	Y	Y	Y	Y	Y	Y	Y	Y	Y	Y	Y	Y	Y	Y	Y	Y	Y	Y	Y	Y	Y	Y	Y	Y	Y	Y	Y	Y	Y	Y	Y	Y	Y	Y	Y	Y
1	0.223391	0.268955	0.230615	0.296282	0.129949	0.295997	0.168156	0.091348	0.352460	1.005515	0.248489	0.317171	0.345488	0.778358	0.177260	0.108938	0.204069	0.176222	0.263052	0.445877	0.032326	0.041703	0.210198	0.126715	0.134487	0.169132	0.175545	0.165491	0.364657	0.482764	0.155523	0.229814	0.161009	0.226038	0.097595	0.189681	0.250238	0.231797	0.205124	0.234096	0.526544	0.368993	0.169678	0.182031	0.093714	0.164736	0.191498	0.069319	0.089511	0.096754	0.183569	0.240123	0.086490	0.127888	0.149011	0.110150	0.058213	0.146841	0.143450	0.159665	0.115740	0.126119	0.219303	0.135432	0.161161	0.184626	0.249775	0.276706	0.062994	0.100392	0.189727	0.054352	0.402459	0.547887	0.175853	0.262483	0.104011	0.141831	0.347315	0.141655
2	0.205209	0.255154	0.224604	0.285256	0.121929	0.292483	0.170359	0.092535	0.297066	0.846887	0.241137	0.283730	0.344221	0.777122	0.169455	0.109930	0.209640	0.183213	0.333597	0.450845	0.038815	0.052460	0.197394	0.170302	0.139668	0.161992	0.160492	0.132397	0.330832	0.439346	0.156257	0.230872	0.158251	0.211311	0.094801	0.221857	0.231573	0.224301	0.237062	0.249247	0.430710	0.281985	0.127814	0.204136	0.093661	0.167494	0.144886	0.070624	0.069450	0.096154	0.190686	0.207522	0.084653	0.147174	0.147578	0.124656	0.086132	0.093703	0.161074	0.238997	0.121023	0.118916	0.200445	0.107097	0.187052	0.195469	0.236676	0.282043	0.058046	0.093519	0.187542	0.058703	0.395214	0.528378	0.198078	0.289748	0.103806	0.139380	0.327989	0.141815
3	0.152556	0.139917	0.218973	0.287378	0.102489	0.283959	0.170890	0.108192	0.261960	0.690920	0.235286	0.364155	0.338056	0.766962	0.164128	0.112373	0.215772	0.186826	0.348094	0.458878	0.046922	0.067854	0.203203	0.186001	0.127819	0.123086	0.159580	0.151404	0.322983	0.422731	0.153237	0.235664	0.141082	0.202957	0.107777	0.220290	0.215536	0.211708	0.254328	0.284874	0.389984	0.258083	0.158669	0.214453	0.091732	0.168755	0.138943	0.073098	0.058869	0.085097	0.172012	0.200192	0.094205	0.146463	0.147736	0.141667	0.103818	0.085148	0.188307	0.240988	0.124276	0.117435	0.168206	0.105946	0.200085	0.193753	0.231958	0.283006	0.074463	0.114401	0.181158	0.058749	0.358829	0.483415	0.199132	0.302030	0.102808	0.144250	0.328325	0.132242
4	0.135778	0.115968	0.151479	0.305973	0.095509	0.277766	0.180976	0.132703	0.255656	0.673489	0.296326	0.588609	0.319035	0.656064	0.153533	0.107221	0.264193	0.210704	0.347722	0.459123	0.049830	0.071532	0.199481	0.174626	0.117734	0.094710	0.139806	0.152537	0.322887	0.418164	0.149297	0.230848	0.136989	0.192319	0.159513	0.210859	0.226651	0.218627	0.272162	0.299682	0.312919	0.236211	0.249570	0.253878	0.088085	0.168394	0.168482	0.074372	0.059948	0.081183	0.201988	0.183018	0.104792	0.165984	0.152282	0.138992	0.107348	0.103724	0.228868	0.234839	0.125019	0.116433	0.163574	0.094464	0.229033	0.193410	0.229170	0.245060	0.104993	0.153867	0.175123	0.059454	0.296255	0.395439	0.200575	0.331415	0.095128	0.131633	0.313838	0.099452
5	0.132634	0.119001	0.184435	0.303498	0.111283	0.264117	0.219299	0.141983	0.243635	0.600161	0.431233	0.654436	0.321996	0.509645	0.127728	0.096297	0.288788	0.227931	0.347041	0.455989	0.050544	0.069381	0.182233	0.168348	0.124346	0.103769	0.133777	0.153823	0.168491	0.220332	0.142866	0.216692	0.129651	0.139266	0.166752	0.218832	0.183757	0.184331	0.353950	0.301551	0.187346	0.217065	0.307092	0.366593	0.088734	0.160485	0.174450	0.081001	0.056414	0.079510	0.212436	0.190424	0.107692	0.181262	0.150084	0.133905	0.130557	0.142791	0.232684	0.249675	0.115605	0.115126	0.129849	0.071146	0.221036	0.176547	0.222412	0.241959	0.106807	0.158625	0.174645	0.075135	0.265396	0.354385	0.197120	0.341707	0.076000	0.095639	0.227733	0.090531
6	0.123306	0.139066	0.218916	0.313215	0.112782	0.250771	0.222725	0.144156	0.143407	0.545697	0.457409	0.654423	0.354437	0.466529	0.114270	0.074323	0.289178	0.229930	0.347420	0.439332	0.050714	0.069399	0.145006	0.166338	0.107103	0.104735	0.118664	0.141896	0.098146	0.135138	0.096981	0.210069	0.115309	0.098902	0.166831	0.224359	0.119573	0.114084	0.389711	0.300648	0.181974	0.219283	0.322953	0.378670	0.080907	0.130470	0.177499	0.087785	0.048830	0.066569	0.199945	0.173911	0.108042	0.184539	0.151618	0.138353	0.164804	0.171633	0.228590	0.250451	0.107618	0.112482	0.103600	0.062906	0.209201	0.163239	0.207742	0.244865	0.107144	0.159117	0.153764	0.089049	0.255205	0.332448	0.185848	0.350259	0.073507	0.088402	0.216239	0.093591
7	0.110355	0.144788	0.221985	0.339222	0.112444	0.232850	0.221880	0.144020	0.090777	0.463413	0.454695	0.754820	0.349956	0.456865	0.090760	0.062755	0.279602	0.222534	0.320953	0.359458	0.051567	0.071144	0.161094	0.166733	0.104917	0.108121	0.120865	0.152436	0.085641	0.116560	0.094519	0.196795	0.081929	0.075359	0.172240	0.237571	0.122810	0.112023	0.401158	0.297726	0.136126	0.190718	0.324671	0.399459	0.080022	0.123496	0.177918	0.083353	0.046854	0.062529	0.199900	0.171422	0.108078	0.187283	0.146103	0.150839	0.166967	0.174539	0.218066	0.270422	0.106688	0.112099	0.091233	0.062696	0.185393	0.130607	0.207033	0.239517	0.107394	0.160384	0.141735	0.092321	0.216056	0.284393	0.168048	0.356816	0.071858	0.087363	0.217099	0.094252
8	0.112131	0.134192	0.227057	0.329513	0.108544	0.194253	0.209794	0.140035	0.103723	0.422552	0.473150	0.863891	0.305597	0.451402	0.084702	0.060226	0.279984	0.217352	0.308798	0.330451	0.051560	0.071307	0.161506	0.166399	0.104588	0.107194	0.161067	0.191064	0.070107	0.099559	0.145251	0.163139	0.084697	0.069836	0.187250	0.250427	0.122494	0.110420	0.407927	0.303059	0.132641	0.197334	0.340677	0.486349	0.072914	0.122000	0.167839	0.077698	0.046883	0.065330	0.227429	0.215659	0.109232	0.191844	0.127503	0.163999	0.174331	0.176702	0.225357	0.272177	0.105187	0.110334	0.089051	0.060380	0.184322	0.115280	0.151369	0.187453	0.108033	0.160399	0.203012	0.133667	0.119324	0.196228	0.185923	0.351262	0.070297	0.091585	0.217914	0.103417
9	0.111193	0.130165	0.286061	0.314137	0.106161	0.165716	0.185516	0.135460	0.112450	0.373090	0.588595	0.909082	0.258932	0.410925	0.091124	0.061369	0.255364	0.197174	0.295881	0.321532	0.050552	0.070965	0.162304	0.170223	0.104995	0.105490	0.164104	0.222922	0.068931	0.092213	0.180974	0.129573	0.089387	0.064751	0.195046	0.246445	0.120696	0.110779	0.405191	0.299855	0.097745	0.172634	0.396551	0.569465	0.068600	0.120486	0.162196	0.077428	0.044242	0.068525	0.274215	0.261038	0.111586	0.195789	0.102801	0.172835	0.175885	0.183749	0.220726	0.286362	0.096597	0.087442	0.086242	0.055117	0.182249	0.113940	0.109933	0.146949	0.111527	0.168320	0.263662	0.175652	0.095880	0.148282	0.164812	0.436064	0.070565	0.098621	0.220048	0.112324
10	0.115221	0.135391	0.300140	0.316516	0.104151	0.154982	0.180025	0.137289	0.111584	0.348349	0.669983	0.915577	0.257785	0.371169	0.092046	0.066679	0.246583	0.194070	0.286858	0.284429	0.049485	0.071943	0.164099	0.183559	0.102705	0.106528	0.171729	0.229586	0.067830	0.089198	0.187841	0.125528	0.093416	0.067002	0.204423	0.239296	0.116874	0.106719	0.390350	0.254111	0.091058	0.142057	0.404427	0.582352	0.075729	0.126104	0.163183	0.071339	0.041006	0.064899	0.285207	0.252741	0.108081	0.195055	0.096493	0.175515	0.164063	0.183824	0.204831	0.297248	0.093858	0.072034	0.081886	0.070616	0.169386	0.107991	0.091186	0.113577	0.114757	0.177379	0.290885	0.191961	0.083934	0.133916	0.159533	0.432082	0.070372	0.095593	0.225822	0.104718
11	0.115239	0.137285	0.305325	0.315496	0.103960	0.139505	0.179332	0.134201	0.109671	0.324953	0.705689	0.914424	0.261572	0.367578	0.086452	0.068609	0.223870	0.183207	0.248372	0.231150	0.050363	0.076137	0.197317	0.193625	0.094347	0.104957	0.170600	0.246624	0.066017	0.083816	0.207010	0.098585	0.147752	0.092133	0.205521	0.259721	0.119685	0.109972	0.385516	0.252436	0.093121	0.136923	0.415684	0.566990	0.080483	0.110676	0.164697	0.068254	0.035224	0.057544	0.281787	0.228595	0.103828	0.185573	0.082991	0.175485	0.166095	0.181284	0.185837	0.302401	0.083702	0.069169	0.092312	0.089979	0.138282	0.086508	0.100186	0.128645	0.110432	0.170682	0.294994	0.194962	0.084609	0.134446	0.178640	0.439686	0.068849	0.105745	0.232197	0.095486
12	0.115291	0.135682	0.311496	0.307340	0.103467	0.137244	0.177092	0.131932	0.109521	0.323888	0.711083	0.901686	0.271937	0.376496	0.099327	0.067335	0.216383	0.173001	0.128760	0.225789	0.049796	0.073501	0.197739	0.185923	0.091852	0.105567	0.163385	0.303302	0.060768	0.078640	0.225289	0.082264	0.148653	0.103380	0.225158	0.276560	0.117677	0.108975	0.372549	0.230104	0.093234	0.133716	0.398895	0.559527	0.067860	0.084581	0.158664	0.071747	0.051420	0.062433	0.260059	0.227517	0.095615	0.155217	0.087376	0.176938	0.159438	0.162343	0.178755	0.326323	0.058297	0.069292	0.105735	0.121653	0.098243	0.065073	0.101739	0.128264	0.108731	0.166153	0.294924	0.193557	0.083644	0.129476	0.204880	0.466548	0.058476	0.106303	0.227078	0.093081
13	0.107537	0.124485	0.311679	0.240487	0.103013	0.130833	0.175470	0.152551	0.108852	0.321080	0.709951	0.834570	0.273475	0.375473	0.128174	0.076282	0.209353	0.168430	0.103838	0.216153	0.044412	0.063503	0.190973	0.143381	0.066519	0.079315	0.171898	0.304562	0.042684	0.060424	0.223847	0.068600	0.150240	0.113867	0.238296	0.264022	0.110718	0.101137	0.377543	0.181003	0.092645	0.132343	0.345454	0.539809	0.065449	0.082022	0.148576	0.075475	0.053433	0.064039	0.256960	0.245025	0.093749	0.149919	0.126549	0.170457	0.111057	0.121124	0.192086	0.415536	0.037849	0.060822	0.103892	0.130006	0.049715	0.049072	0.103583	0.128237	0.107353	0.163364	0.287447	0.194328	0.082938	0.125143	0.275947	0.459552	0.050997	0.105200	0.220452	0.096105
14	0.100768	0.117266	0.287484	0.232719	0.105863	0.111492	0.180181	0.182211	0.108395	0.319224	0.659211	0.701377	0.260614	0.308705	0.131811	0.081104	0.129867	0.122576	0.112422	0.240915	0.030259	0.048144	0.185214	0.112750	0.044265	0.061870	0.206310	0.305216	0.035600	0.055053	0.220058	0.063825	0.150296	0.114465	0.236134	0.254913	0.081153	0.080866	0.360940	0.150428	0.091251	0.131144	0.302784	0.477345	0.066375	0.084026	0.149598	0.077657	0.067919	0.076672	0.274434	0.299273	0.077485	0.145346	0.173319	0.173855	0.112353	0.127779	0.225517	0.444064	0.017757	0.041035	0.121857	0.132700	0.045996	0.049013	0.112584	0.140611	0.083846	0.136178	0.286973	0.200531	0.076452	0.113520	0.285856	0.448721	0.050902	0.104879	0.222802	0.097544
15	0.086490	0.099118	0.253645	0.238418	0.104498	0.101277	0.188438	0.199875	0.111326	0.313477	0.601543	0.727143	0.215875	0.216039	0.128532	0.091412	0.068661	0.066102	0.126473	0.245642	0.024729	0.045522	0.189842	0.115219	0.037388	0.067160	0.226373	0.322537	0.032396	0.052580	0.219663	0.063629	0.148575	0.114599	0.203958	0.253669	0.075981	0.079779	0.295350	0.154340	0.086260	0.125458	0.284206	0.468159	0.066399	0.083894	0.133134	0.077739	0.070681	0.081083	0.268115	0.308189	0.057588	0.109063	0.181369	0.183016	0.100474	0.124576	0.246860	0.447953	0.011513	0.035980	0.140306	0.140672	0.046009	0.049369	0.106773	0.154493	0.056630	0.098401	0.291765	0.205278	0.061663	0.092355	0.287074	0.440396	0.039344	0.097230	0.217581	0.099147
16	0.076904	0.066216	0.248182	0.214157	0.100196	0.114363	0.207151	0.200229	0.115216	0.296475	0.598524	0.712848	0.154193	0.173165	0.140564	0.104830	0.049055	0.036095	0.134472	0.244258	0.023080	0.045293	0.188002	0.114625	0.034923	0.063305	0.226545	0.343824	0.031239	0.051372	0.217584	0.066600	0.147048	0.115121	0.199866	0.245377	0.049757	0.062516	0.268874	0.155586	0.081420	0.121172	0.282704	0.448186	0.066051	0.083396	0.149054	0.071694	0.070392	0.074122	0.198715	0.255478	0.055680	0.092734	0.184444	0.184484	0.085546	0.113216	0.243673	0.409572	0.011743	0.035084	0.138959	0.147383	0.042357	0.052855	0.144926	0.161820	0.057321	0.097410	0.306463	0.214810	0.046066	0.062547	0.273889	0.437076	0.034183	0.093454	0.194500	0.106565
17	0.054254	0.065523	0.247063	0.194811	0.097907	0.115679	0.231408	0.187822	0.110176	0.259110	0.609584	0.570118	0.126131	0.153951	0.194870	0.106128	0.041390	0.026400	0.136711	0.225610	0.021727	0.044767	0.183699	0.115139	0.041121	0.071013	0.212028	0.332917	0.031886	0.051147	0.198389	0.063003	0.144667	0.114516	0.201458	0.239279	0.045101	0.062599	0.247832	0.155701	0.069197	0.100151	0.253482	0.330977	0.065141	0.084832	0.149852	0.061821	0.070095	0.071140	0.162430	0.246061	0.055488	0.086567	0.180757	0.176921	0.066198	0.095935	0.237379	0.392632	0.013033	0.036501	0.133994	0.161155	0.041648	0.058838	0.160407	0.175505	0.056719	0.095267	0.316682	0.229800	0.029747	0.038833	0.269230	0.363364	0.032246	0.093681	0.151630	0.114617
18	0.055990	0.066145	0.195521	0.203264	0.072249	0.105110	0.251814	0.179878	0.077223	0.170299	0.568006	0.438699	0.108280	0.129974	0.209361	0.106799	0.028109	0.022782	0.126850	0.223035	0.020861	0.041130	0.158781	0.114236	0.040380	0.073781	0.222171	0.310817	0.031491	0.050456	0.162791	0.050158	0.142331	0.113698	0.193360	0.227070	0.048310	0.070572	0.243499	0.169531	0.046009	0.057232	0.162019	0.164832	0.065275	0.084807	0.148894	0.054321	0.069808	0.073031	0.151717	0.252713	0.054602	0.078792	0.180623	0.164796	0.050556	0.083420	0.227361	0.416838	0.015279	0.041290	0.134835	0.165688	0.043159	0.061723	0.158240	0.178682	0.056063	0.093982	0.321871	0.227751	0.029360	0.038222	0.264782	0.300463	0.031874	0.093570	0.129531	0.117929
19	0.047020	0.055899	0.144400	0.202573	0.061831	0.105942	0.252525	0.179337	0.063210	0.121417	0.439942	0.422277	0.108266	0.129973	0.219407	0.115812	0.028526	0.024496	0.143092	0.202914	0.021465	0.041061	0.157290	0.112630	0.036489	0.070992	0.213919	0.302308	0.031819	0.047052	0.141576	0.050329	0.136889	0.113338	0.181128	0.221644	0.051458	0.074478	0.247960	0.182396	0.027003	0.044700	0.137981	0.112059	0.066781	0.085395	0.152453	0.055427	0.064476	0.085251	0.291106	0.340900	0.050481	0.065628	0.181989	0.151139	0.050022	0.087412	0.236546	0.416542	0.020651	0.046810	0.162225	0.166016	0.043062	0.063215	0.151126	0.186565	0.055882	0.096211	0.288321	0.201032	0.033533	0.045995	0.251328	0.316196	0.032607	0.094155	0.129683	0.118597
20	0.041750	0.052435	0.126555	0.206030	0.062750	0.105458	0.250674	0.178357	0.057345	0.095454	0.364746	0.434990	0.106661	0.128255	0.222109	0.120989	0.029853	0.025201	0.160844	0.170358	0.021228	0.040992	0.147443	0.104259	0.036322	0.071208	0.214851	0.299048	0.032079	0.036822	0.135094	0.049370	0.130614	0.112030	0.188064	0.229059	0.050749	0.075556	0.235903	0.174181	0.020523	0.068191	0.054532	0.106606	0.064493	0.085903	0.159480	0.055209	0.076515	0.105844	0.490348	0.424785	0.044392	0.059885	0.185717	0.138035	0.049450	0.089750	0.261733	0.329481	0.020911	0.047213	0.228007	0.169062	0.050103	0.077867	0.215877	0.311283	0.042979	0.072410	0.239474	0.185788	0.045826	0.076934	0.279115	0.266033	0.035382	0.098300	0.129186	0.142076
21	0.040898	0.049533	0.093337	0.210856	0.061309	0.105384	0.250305	0.180672	0.059177	0.088060	0.330727	0.437630	0.100889	0.115994	0.223103	0.119370	0.036681	0.032967	0.163480	0.154078	0.020723	0.037272	0.139227	0.077553	0.038600	0.074097	0.241027	0.273529	0.031667	0.032080	0.088568	0.086930	0.122595	0.106586	0.195895	0.233942	0.039943	0.069575	0.223686	0.172662	0.020105	0.072706	0.045330	0.103809	0.059066	0.080388	0.169199	0.051446	0.066323	0.099389	0.493242	0.396675	0.039128	0.068436	0.188987	0.136592	0.040521	0.072629	0.276776	0.270348	0.021931	0.047259	0.274696	0.168359	0.061557	0.098193	0.314535	0.451628	0.034098	0.055664	0.217863	0.191615	0.055610	0.094513	0.252172	0.211033	0.039693	0.107962	0.160627	0.198600
22	0.040747	0.049758	0.093289	0.211664	0.061954	0.105534	0.250274	0.194877	0.061854	0.085945	0.331435	0.438169	0.068318	0.077513	0.227155	0.123020	0.036460	0.034690	0.167911	0.170267	0.018756	0.027996	0.083673	0.050853	0.042916	0.079377	0.283456	0.313121	0.033281	0.040319	0.114324	0.216204	0.037953	0.082498	0.204907	0.219789	0.044061	0.082438	0.212371	0.188655	0.019696	0.072407	0.033090	0.076934	0.038570	0.059072	0.168391	0.052128	0.080995	0.118369	0.515706	0.408425	0.038918	0.124853	0.198180	0.137462	0.038134	0.069663	0.243175	0.268620	0.023382	0.047401	0.277140	0.155679	0.065429	0.113371	0.356187	0.476331	0.032419	0.051187	0.242077	0.193038	0.056514	0.096356	0.255768	0.218804	0.044690	0.117870	0.190289	0.206765
23	0.041021	0.049887	0.092019	0.211125	0.065099	0.107768	0.254344	0.221920	0.062205	0.086390	0.332870	0.437988	0.043783	0.053927	0.217793	0.129947	0.039923	0.042537	0.170530	0.168439	0.022366	0.029653	0.087924	0.065734	0.043618	0.079204	0.267334	0.350202	0.030442	0.039337	0.121298	0.228271	0.029754	0.066819	0.185687	0.183304	0.049295	0.091999	0.181872	0.196384	0.020806	0.095488	0.080076	0.231735	0.037250	0.059005	0.176069	0.050433	0.096286	0.144874	0.558657	0.422211	0.033986	0.145943	0.197400	0.132832	0.041683	0.073165	0.242204	0.278738	0.024440	0.046145	0.296510	0.146045	0.077684	0.124804	0.363295	0.490007	0.031755	0.050262	0.253641	0.194122	0.059728	0.097163	0.272241	0.239828	0.039718	0.103512	0.194338	0.206493
24	0.041029	0.051686	0.084547	0.255423	0.067198	0.114418	0.286068	0.248246	0.061279	0.087904	0.329924	0.398027	0.043056	0.055486	0.207756	0.127618	0.043074	0.049915	0.162615	0.133019	0.028476	0.041367	0.120603	0.115383	0.047089	0.072873	0.242333	0.359944	0.031655	0.038738	0.122829	0.264367	0.020818	0.048250	0.167968	0.164178	0.049086	0.090466	0.166303	0.184403	0.049944	0.157876	0.215594	0.324299	0.035320	0.056401	0.189802	0.067930	0.096680	0.145701	0.561603	0.426965	0.047409	0.168122	0.167462	0.126788	0.047270	0.078472	0.248570	0.291137	0.024300	0.041262	0.344101	0.152327	0.089674	0.136082	0.418104	0.553487	0.036879	0.064329	0.254719	0.263128	0.064234	0.101219	0.310563	0.282042	0.038774	0.095516	0.195765	0.206744
25	0.038000	0.053820	0.188936	0.354418	0.072489	0.125913	0.348756	0.262605	0.053015	0.084824	0.340950	0.422968	0.044711	0.063390	0.206348	0.125641	0.043648	0.050339	0.158407	0.161747	0.033210	0.053403	0.184262	0.193844	0.050319	0.075456	0.265052	0.346736	0.030970	0.039226	0.139561	0.299962	0.014454	0.041380	0.168495	0.158747	0.048730	0.086052	0.102973	0.173291	0.063191	0.184458	0.280544	0.344324	0.029700	0.048460	0.189786	0.088219	0.096993	0.146933	0.566730	0.429714	0.063676	0.267044	0.143129	0.118746	0.045241	0.072761	0.257265	0.273574	0.024280	0.041366	0.360888	0.147869	0.106038	0.150545	0.424466	0.586116	0.042326	0.083578	0.280161	0.380955	0.069551	0.108817	0.334732	0.313956	0.044041	0.099194	0.194653	0.210521
26	0.050109	0.070051	0.266444	0.359510	0.073985	0.127454	0.373520	0.258709	0.053118	0.098237	0.394481	0.493221	0.040794	0.073690	0.203893	0.115527	0.045642	0.052327	0.228894	0.213555	0.040644	0.065106	0.207060	0.226581	0.053075	0.074198	0.296420	0.364348	0.037243	0.053471	0.181212	0.303609	0.011297	0.033062	0.163851	0.159466	0.052334	0.089133	0.097559	0.173008	0.063844	0.186390	0.284294	0.356636	0.030369	0.053160	0.184903	0.102270	0.096126	0.140951	0.548523	0.392023	0.070239	0.272840	0.160671	0.121473	0.047554	0.067287	0.261524	0.255202	0.024887	0.043143	0.364134	0.146329	0.112524	0.161285	0.431047	0.592524	0.046507	0.100021	0.298641	0.391441	0.069509	0.109491	0.351209	0.312427	0.049193	0.107518	0.211092	0.211380
27	0.058492	0.080418	0.271121	0.344446	0.071135	0.127065	0.376212	0.241106	0.076802	0.123277	0.407260	0.502293	0.042424	0.082183	0.154541	0.120867	0.045616	0.054241	0.253357	0.224245	0.041105	0.066031	0.207917	0.227583	0.055858	0.075258	0.294347	0.391792	0.037128	0.055459	0.203617	0.349795	0.011698	0.028361	0.162370	0.168905	0.051288	0.087626	0.101136	0.167363	0.065523	0.188799	0.322296	0.401229	0.028170	0.053103	0.149848	0.106795	0.083681	0.124618	0.351073	0.298907	0.070059	0.278658	0.160372	0.125460	0.057947	0.070622	0.244712	0.241270	0.025194	0.047904	0.365727	0.145404	0.112612	0.161321	0.448732	0.593898	0.046127	0.104578	0.290688	0.416445	0.069148	0.108636	0.351954	0.300696	0.049402	0.114008	0.220747	0.211718
28	0.057212	0.080221	0.291429	0.347266	0.065220	0.120658	0.371848	0.221119	0.095258	0.135503	0.410753	0.480168	0.042253	0.082985	0.124838	0.126458	0.045205	0.058110	0.257922	0.232294	0.042683	0.065875	0.208044	0.228322	0.065397	0.089543	0.303830	0.418047	0.039613	0.059657	0.247267	0.413158	0.014600	0.068358	0.160739	0.192586	0.046680	0.081094	0.088863	0.141528	0.066862	0.191514	0.380884	0.451110	0.025673	0.049843	0.147090	0.117550	0.080202	0.123168	0.302518	0.297355	0.074308	0.281881	0.160268	0.131238	0.057327	0.070803	0.182712	0.227617	0.025376	0.048676	0.365864	0.136757	0.112546	0.159910	0.451726	0.587283	0.048587	0.105357	0.281561	0.477835	0.062324	0.096206	0.333232	0.272017	0.053731	0.145796	0.221495	0.215185
29	0.059954	0.083564	0.302662	0.385101	0.060804	0.103755	0.362769	0.213287	0.098618	0.139473	0.403112	0.465688	0.050163	0.094788	0.103526	0.127169	0.046029	0.058916	0.272029	0.275261	0.050778	0.075223	0.208206	0.238953	0.065666	0.090940	0.300229	0.430402	0.038522	0.060476	0.261825	0.416489	0.014548	0.077156	0.160801	0.194212	0.042977	0.074908	0.077596	0.121199	0.070608	0.188029	0.392211	0.478734	0.027093	0.054170	0.202006	0.198895	0.065889	0.105248	0.273940	0.266348	0.082914	0.329805	0.160103	0.161788	0.055572	0.070656	0.176343	0.191911	0.025323	0.047126	0.366929	0.150650	0.108112	0.150727	0.410804	0.506577	0.053868	0.113986	0.291037	0.532399	0.052959	0.071863	0.335313	0.283694	0.058865	0.187465	0.229052	0.216301
30	0.067037	0.093332	0.310600	0.401839	0.059979	0.086133	0.349870	0.211682	0.110922	0.156018	0.439084	0.518521	0.055552	0.106540	0.091531	0.118443	0.046212	0.061853	0.317492	0.333110	0.051678	0.076286	0.211674	0.272210	0.065470	0.088366	0.289763	0.418542	0.038450	0.062755	0.261274	0.434477	0.022305	0.084855	0.157233	0.192981	0.043389	0.074934	0.096817	0.119952	0.073221	0.189980	0.402508	0.486513	0.026196	0.060233	0.233138	0.257081	0.031874	0.053206	0.144897	0.226473	0.086232	0.332000	0.175729	0.195642	0.055132	0.069532	0.197955	0.206411	0.026465	0.047505	0.347914	0.151582	0.100884	0.136048	0.342645	0.405486	0.063717	0.124813	0.363710	0.546991	0.050550	0.062630	0.331227	0.313620	0.061543	0.197721	0.243772	0.216741
31	0.068291	0.094746	0.316030	0.418099	0.059314	0.084133	0.325991	0.209284	0.119019	0.169290	0.496296	0.565546	0.056954	0.111953	0.100211	0.120803	0.044286	0.064860	0.379653	0.367959	0.058418	0.081080	0.214017	0.276583	0.062716	0.083291	0.249839	0.383196	0.045996	0.070699	0.260009	0.413204	0.054935	0.124100	0.151647	0.225524	0.043496	0.072478	0.110260	0.106803	0.075348	0.192907	0.410343	0.484799	0.033334	0.071654	0.246595	0.272759	0.027600	0.048041	0.113608	0.228972	0.089101	0.331454	0.239274	0.214392	0.050052	0.060795	0.245557	0.243774	0.027179	0.046890	0.305108	0.168198	0.095921	0.121271	0.324359	0.408502	0.066469	0.125227	0.385427	0.541076	0.046630	0.064154	0.339038	0.320570	0.069515	0.254448	0.245645	0.222504
32	0.070901	0.099851	0.323348	0.433664	0.054631	0.083769	0.297164	0.205195	0.129792	0.177699	0.516837	0.594455	0.057015	0.115837	0.103154	0.131269	0.052881	0.072335	0.390856	0.372472	0.062558	0.082973	0.215156	0.303312	0.064123	0.083826	0.290752	0.364206	0.046355	0.074493	0.289753	0.390739	0.068858	0.146133	0.146396	0.226560	0.038783	0.056229	0.117201	0.091300	0.073142	0.178296	0.402746	0.421525	0.037778	0.077667	0.242623	0.277534	0.028841	0.045678	0.089153	0.219461	0.089185	0.327349	0.263216	0.215432	0.049963	0.061819	0.239289	0.221564	0.028207	0.048102	0.272125	0.180060	0.086728	0.114127	0.321766	0.396451	0.065288	0.123236	0.376310	0.535989	0.045667	0.064353	0.324198	0.289709	0.069341	0.254243	0.245820	0.209744
33	0.074127	0.102904	0.338917	0.429394	0.050499	0.083159	0.298061	0.205320	0.131358	0.177806	0.527968	0.604615	0.058605	0.121624	0.085532	0.134620	0.049074	0.067998	0.391677	0.369914	0.062028	0.082814	0.216905	0.335123	0.061228	0.082126	0.316875	0.337191	0.047512	0.076956	0.293350	0.398384	0.073884	0.152272	0.138592	0.222657	0.033427	0.043701	0.126300	0.094038	0.055301	0.124977	0.373755	0.417150	0.038856	0.079140	0.241643	0.318041	0.026664	0.040784	0.064364	0.219565	0.086826	0.307245	0.258118	0.210465	0.057473	0.076499	0.230713	0.210048	0.030420	0.048927	0.273868	0.178488	0.066454	0.091097	0.306510	0.357858	0.064899	0.123177	0.359562	0.535401	0.032318	0.053260	0.301564	0.275165	0.068111	0.247401	0.227640	0.150693
34	0.073273	0.100440	0.322875	0.330291	0.050641	0.083702	0.302821	0.210033	0.132211	0.173859	0.532234	0.585004	0.062455	0.127384	0.081630	0.166338	0.049594	0.068368	0.392366	0.389258	0.061138	0.082359	0.212847	0.378426	0.059468	0.083584	0.315263	0.335211	0.050229	0.079486	0.289718	0.373694	0.083281	0.156894	0.137900	0.246192	0.037183	0.048053	0.137552	0.113461	0.047504	0.091141	0.444561	0.558148	0.042989	0.083839	0.260471	0.366645	0.027326	0.040850	0.064544	0.165536	0.086383	0.300330	0.256083	0.211623	0.040853	0.064818	0.235059	0.210107	0.031207	0.048943	0.250025	0.176725	0.046253	0.065642	0.455406	0.346124	0.064641	0.122009	0.354529	0.536286	0.032594	0.053616	0.299768	0.269744	0.064601	0.242217	0.198793	0.142418
35	0.064991	0.090541	0.248554	0.307379	0.050903	0.083900	0.305577	0.215986	0.131379	0.166497	0.474195	0.478205	0.062666	0.125840	0.083127	0.168383	0.053863	0.073594	0.383732	0.416749	0.063910	0.087746	0.201107	0.382376	0.057728	0.084281	0.271961	0.323689	0.046778	0.072330	0.287314	0.364132	0.084715	0.159106	0.166519	0.257375	0.042002	0.055919	0.143859	0.117385	0.056679	0.092506	0.491302	0.605218	0.048290	0.090023	0.305347	0.387195	0.024881	0.033162	0.061990	0.130761	0.070480	0.256328	0.263442	0.226552	0.040981	0.067874	0.245782	0.211053	0.037664	0.053369	0.193643	0.185857	0.030901	0.036399	0.503391	0.340755	0.060483	0.112745	0.351574	0.498202	0.037869	0.062804	0.333695	0.292754	0.064408	0.241221	0.187329	0.164824
36	0.051713	0.075597	0.248947	0.341858	0.046907	0.079393	0.305553	0.201755	0.121741	0.150237	0.435908	0.539432	0.060937	0.118208	0.081421	0.182308	0.056930	0.079204	0.357511	0.397701	0.067033	0.098388	0.195721	0.357121	0.060058	0.089132	0.258302	0.322116	0.046316	0.071051	0.282977	0.352875	0.084779	0.159314	0.181592	0.259822	0.038903	0.054012	0.142664	0.174859	0.063591	0.090099	0.473366	0.581438	0.050961	0.091198	0.325659	0.387692	0.023456	0.029835	0.052381	0.095601	0.063453	0.200563	0.258464	0.245399	0.041098	0.069022	0.247284	0.237201	0.038533	0.053995	0.168170	0.190253	0.030728	0.037221	0.496299	0.347665	0.056564	0.099448	0.328396	0.447006	0.036958	0.062101	0.350389	0.302269	0.064902	0.241205	0.182486	0.182664
37	0.052119	0.077242	0.275815	0.388402	0.046514	0.076285	0.306328	0.169469	0.108699	0.140258	0.527882	0.711883	0.053413	0.107639	0.082167	0.214803	0.061367	0.082544	0.384647	0.396641	0.072150	0.108168	0.230572	0.343233	0.048975	0.072046	0.243600	0.287443	0.045554	0.067657	0.245570	0.261987	0.084845	0.160259	0.187041	0.305273	0.053422	0.086569	0.194057	0.253317	0.065566	0.081660	0.442101	0.583284	0.051444	0.088839	0.333478	0.384358	0.021248	0.023516	0.039775	0.091084	0.057609	0.189122	0.255430	0.268194	0.042478	0.070636	0.240133	0.247296	0.040410	0.055287	0.157006	0.189408	0.037909	0.054387	0.536442	0.358641	0.053773	0.087670	0.313685	0.457384	0.035230	0.060889	0.334348	0.298514	0.062521	0.240345	0.181187	0.179683
38	0.053697	0.078579	0.306210	0.365262	0.039401	0.052356	0.273963	0.132800	0.104724	0.150561	0.615937	0.789652	0.053545	0.111474	0.125155	0.232056	0.062020	0.080523	0.438677	0.400925	0.085009	0.146493	0.246418	0.343635	0.048714	0.070774	0.244279	0.266223	0.042848	0.066487	0.221116	0.251000	0.085100	0.161592	0.224291	0.373853	0.066864	0.103960	0.221303	0.265337	0.068399	0.088240	0.483993	0.616349	0.051992	0.088500	0.333855	0.386444	0.021959	0.025784	0.038754	0.052342	0.058477	0.184267	0.264235	0.283849	0.044255	0.070715	0.194612	0.197582	0.039562	0.050821	0.155060	0.186975	0.039105	0.059879	0.583656	0.384855	0.059328	0.096747	0.320662	0.417451	0.028937	0.056610	0.300134	0.261744	0.058109	0.239200	0.166862	0.187503
39	0.042649	0.060979	0.337870	0.336812	0.031147	0.034782	0.213609	0.120658	0.106930	0.151576	0.685343	0.795557	0.047959	0.105082	0.135218	0.263198	0.067464	0.094624	0.436684	0.429279	0.085749	0.174362	0.247746	0.342867	0.052558	0.080410	0.253542	0.262803	0.043444	0.067415	0.239501	0.235211	0.084958	0.148937	0.257146	0.369938	0.069147	0.106864	0.221992	0.270313	0.069343	0.090088	0.514930	0.631709	0.051928	0.089175	0.339655	0.407412	0.020596	0.023196	0.034391	0.109104	0.050082	0.164114	0.269554	0.280570	0.050657	0.079454	0.190305	0.287085	0.040480	0.049920	0.157653	0.181893	0.040647	0.063999	0.623141	0.398006	0.059217	0.097054	0.322836	0.334578	0.027608	0.052699	0.288825	0.228861	0.062024	0.240604	0.169516	0.200099
40	0.041222	0.057605	0.340787	0.311813	0.029462	0.032240	0.197577	0.171448	0.107303	0.144139	0.721386	0.757706	0.042635	0.093699	0.133988	0.351766	0.073483	0.103931	0.391639	0.410228	0.092146	0.218623	0.247865	0.334869	0.060241	0.094197	0.292758	0.292716	0.036145	0.064245	0.272312	0.203567	0.085217	0.145819	0.261914	0.370158	0.076153	0.114398	0.225628	0.285713	0.071029	0.089121	0.524715	0.632284	0.052455	0.095034	0.325116	0.431549	0.020372	0.039383	0.075096	0.400267	0.042402	0.048544	0.280055	0.277506	0.053681	0.077084	0.207820	0.305029	0.039128	0.045891	0.156513	0.205729	0.039686	0.062759	0.627417	0.377636	0.050505	0.081813	0.269083	0.261049	0.028981	0.055009	0.257631	0.223006	0.059691	0.228661	0.188043	0.199297
41	0.039780	0.051007	0.358385	0.294374	0.029059	0.031488	0.197531	0.197230	0.087939	0.125842	0.694397	0.751954	0.042779	0.088338	0.137839	0.398930	0.081335	0.108862	0.345855	0.387740	0.096410	0.285163	0.244266	0.310396	0.060207	0.093766	0.252596	0.314257	0.035282	0.059349	0.252831	0.200468	0.088736	0.145769	0.263216	0.377052	0.082024	0.122563	0.246094	0.292762	0.071883	0.089214	0.527382	0.632080	0.053654	0.099165	0.320454	0.447216	0.019604	0.068932	0.149917	0.424565	0.035153	0.045616	0.257355	0.272220	0.054736	0.079332	0.176000	0.313094	0.037297	0.042363	0.171779	0.228417	0.039235	0.063982	0.616052	0.334851	0.039662	0.065146	0.175171	0.246634	0.027623	0.048249	0.255127	0.206350	0.055085	0.197880	0.198655	0.208011
42	0.032762	0.040371	0.374992	0.290762	0.030512	0.031755	0.215751	0.198160	0.090342	0.141769	0.715261	0.798664	0.044170	0.083243	0.168521	0.399763	0.093362	0.126407	0.336891	0.433929	0.094695	0.288220	0.246739	0.314222	0.058739	0.095469	0.237664	0.356639	0.036728	0.058317	0.289882	0.183777	0.082743	0.120099	0.267105	0.383472	0.082921	0.123365	0.268398	0.289821	0.072021	0.088646	0.500261	0.588704	0.052986	0.095913	0.330828	0.461301	0.037177	0.106374	0.215213	0.466736	0.035640	0.056772	0.195135	0.263928	0.059309	0.082879	0.167363	0.352706	0.037442	0.042094	0.180705	0.220412	0.034040	0.060395	0.570432	0.272914	0.036123	0.062109	0.148626	0.249040	0.028143	0.046394	0.238357	0.204366	0.053248	0.187991	0.184610	0.214775
43	0.036271	0.041357	0.368589	0.301382	0.030574	0.031775	0.229864	0.206336	0.113114	0.184133	0.768998	0.876630	0.047992	0.076841	0.209124	0.412242	0.095271	0.128740	0.367498	0.499626	0.092879	0.292165	0.254502	0.314904	0.056549	0.094343	0.259856	0.366959	0.036222	0.059933	0.301555	0.159360	0.073789	0.094030	0.285206	0.408561	0.082997	0.125081	0.276898	0.324278	0.068300	0.086250	0.404996	0.443141	0.052001	0.092322	0.345549	0.461335	0.053377	0.124633	0.278270	0.541748	0.036196	0.061289	0.174670	0.325070	0.059457	0.082722	0.212737	0.354981	0.034836	0.040342	0.185693	0.213864	0.038183	0.058228	0.443218	0.247574	0.035702	0.061567	0.163102	0.250960	0.027493	0.036975	0.195077	0.267674	0.041503	0.105893	0.194628	0.208228
44	0.037252	0.043705	0.380336	0.308779	0.030267	0.031187	0.235231	0.235551	0.123826	0.200002	0.858281	0.936223	0.045124	0.066816	0.222246	0.425923	0.095081	0.128019	0.412905	0.489587	0.093481	0.294880	0.259191	0.330832	0.052436	0.090255	0.265701	0.355114	0.035503	0.059840	0.293213	0.152505	0.069442	0.086326	0.303142	0.423755	0.082207	0.126671	0.314040	0.342064	0.061242	0.083637	0.352459	0.380908	0.052085	0.098090	0.347752	0.444131	0.065201	0.129394	0.351210	0.558690	0.036566	0.061171	0.218864	0.377216	0.058394	0.081305	0.216068	0.338998	0.034028	0.038346	0.176583	0.215632	0.040789	0.057707	0.414569	0.245483	0.036036	0.061761	0.164950	0.251999	0.027927	0.037256	0.145223	0.282449	0.042891	0.098647	0.228549	0.215058
45	0.037481	0.042851	0.382945	0.282884	0.031604	0.033273	0.233109	0.276103	0.124033	0.199659	0.915356	0.947797	0.045692	0.059576	0.229291	0.431412	0.092828	0.125164	0.425519	0.464081	0.097344	0.310596	0.266045	0.306109	0.047380	0.082443	0.264910	0.325307	0.035039	0.058427	0.277407	0.160442	0.057848	0.077818	0.308254	0.423790	0.079986	0.122977	0.321748	0.350717	0.052622	0.081045	0.342925	0.372098	0.054733	0.111531	0.341022	0.407555	0.067206	0.128995	0.362497	0.559292	0.037562	0.060838	0.267912	0.393657	0.058002	0.082315	0.251800	0.408480	0.031977	0.036013	0.156833	0.237685	0.039875	0.056489	0.397151	0.226488	0.037524	0.066260	0.171236	0.246613	0.029565	0.041038	0.145085	0.281530	0.041505	0.098674	0.232642	0.219298
46	0.035785	0.039564	0.358946	0.215441	0.035158	0.038875	0.235117	0.306876	0.123441	0.195552	0.908358	0.847685	0.047669	0.060173	0.237645	0.436877	0.088977	0.120390	0.407187	0.464629	0.096097	0.312952	0.274223	0.292388	0.044515	0.081258	0.265549	0.317592	0.033275	0.058026	0.276864	0.153254	0.056076	0.073244	0.296348	0.421648	0.079218	0.120121	0.323661	0.354269	0.047219	0.077571	0.328946	0.307245	0.054561	0.118185	0.310085	0.381440	0.067169	0.130303	0.366411	0.558979	0.038570	0.062497	0.279594	0.406468	0.067809	0.092561	0.356306	0.519025	0.026252	0.032469	0.140526	0.272803	0.044495	0.047931	0.332914	0.186767	0.044643	0.099172	0.164525	0.230642	0.034111	0.047508	0.141570	0.296279	0.040481	0.099286	0.229304	0.222178
47	0.035269	0.038828	0.321964	0.182833	0.037683	0.041333	0.238877	0.319574	0.119564	0.186761	0.845056	0.733049	0.048041	0.066417	0.280583	0.432262	0.086181	0.118002	0.367892	0.463289	0.092550	0.307848	0.240529	0.290624	0.043171	0.080377	0.265842	0.317377	0.033357	0.057878	0.275372	0.140464	0.056711	0.071591	0.287362	0.419243	0.072110	0.102944	0.299839	0.335301	0.038573	0.060581	0.246288	0.185141	0.053240	0.116508	0.277069	0.375614	0.076799	0.141871	0.390383	0.440411	0.060399	0.122962	0.324518	0.479888	0.059087	0.081984	0.366629	0.504261	0.025993	0.056731	0.136479	0.293716	0.047572	0.042643	0.231116	0.117631	0.050484	0.178968	0.158118	0.205700	0.036251	0.048539	0.122122	0.308868	0.041901	0.100485	0.230510	0.256833
48	0.039509	0.045079	0.289695	0.182626	0.036910	0.041351	0.237734	0.321906	0.114767	0.176591	0.786177	0.670131	0.051397	0.077925	0.290565	0.427411	0.086290	0.118605	0.298614	0.454346	0.089598	0.305107	0.182861	0.299886	0.040815	0.075371	0.262952	0.316769	0.033985	0.055008	0.261537	0.132754	0.058141	0.070156	0.283015	0.386460	0.065351	0.099905	0.368146	0.332878	0.030795	0.045605	0.159448	0.112527	0.052311	0.115579	0.263551	0.399644	0.085634	0.137514	0.451971	0.386343	0.076457	0.188659	0.375770	0.522676	0.057590	0.080851	0.366684	0.527044	0.025733	0.090470	0.155746	0.304728	0.058469	0.049518	0.145805	0.080315	0.054467	0.192916	0.157449	0.201504	0.036019	0.047562	0.119040	0.309482	0.043292	0.102184	0.239916	0.258792
49	0.041506	0.046008	0.276043	0.182161	0.035669	0.041470	0.238621	0.318456	0.103862	0.169093	0.702124	0.660749	0.123106	0.163637	0.315536	0.420970	0.082094	0.109885	0.301007	0.429845	0.078902	0.289560	0.166167	0.318431	0.026436	0.052484	0.220583	0.292994	0.033719	0.049097	0.232466	0.132621	0.058063	0.066783	0.252763	0.317790	0.062312	0.097490	0.387395	0.329219	0.024715	0.041049	0.102287	0.101251	0.052510	0.115573	0.267302	0.452458	0.080839	0.126238	0.446252	0.354763	0.085222	0.222867	0.388794	0.538866	0.059448	0.088363	0.467401	0.578846	0.028311	0.091655	0.166991	0.304366	0.061646	0.052061	0.115786	0.102033	0.056722	0.266016	0.147839	0.246103	0.033769	0.044397	0.118370	0.310794	0.042823	0.101133	0.246846	0.265949
50	0.049696	0.056634	0.258675	0.176143	0.033650	0.039224	0.233702	0.317486	0.102362	0.169553	0.662775	0.662068	0.206474	0.231005	0.320518	0.356047	0.076333	0.100551	0.304335	0.426867	0.079062	0.280243	0.169855	0.325911	0.022081	0.045924	0.212576	0.240383	0.033488	0.043817	0.198724	0.128102	0.058072	0.066576	0.220304	0.309812	0.051833	0.084611	0.377585	0.314672	0.023343	0.042436	0.087988	0.099775	0.057394	0.116470	0.268798	0.475499	0.076094	0.101242	0.442495	0.222942	0.084873	0.237330	0.390528	0.538369	0.069901	0.088238	0.495066	0.585580	0.026208	0.103356	0.163171	0.300972	0.063126	0.054496	0.113011	0.202080	0.057807	0.270677	0.174924	0.279912	0.034425	0.044884	0.130561	0.308505	0.042708	0.095116	0.244648	0.279269
51	0.053490	0.060815	0.210142	0.164173	0.033797	0.040015	0.202803	0.317467	0.103518	0.167131	0.655847	0.615304	0.308764	0.279112	0.318474	0.291227	0.064816	0.090738	0.297755	0.420895	0.065333	0.242371	0.171691	0.333660	0.022149	0.040309	0.194031	0.163171	0.032822	0.042340	0.164927	0.152601	0.058338	0.066419	0.215955	0.307190	0.041089	0.072950	0.360544	0.313394	0.023120	0.041801	0.087016	0.100521	0.057308	0.112622	0.263018	0.435430	0.064800	0.103311	0.399796	0.136271	0.091853	0.264695	0.388620	0.529671	0.071889	0.089091	0.491450	0.584914	0.025446	0.112070	0.161453	0.274564	0.068476	0.068092	0.151616	0.316016	0.057979	0.270634	0.197411	0.288660	0.038131	0.046760	0.129257	0.255340	0.034459	0.086047	0.231130	0.286696
52	0.049187	0.057735	0.196636	0.144008	0.034136	0.039124	0.183550	0.317496	0.089172	0.142381	0.612452	0.518831	0.336483	0.287629	0.303285	0.300021	0.039863	0.060363	0.295206	0.351203	0.063582	0.174137	0.175352	0.339486	0.022710	0.033747	0.134480	0.182622	0.027725	0.032686	0.050558	0.183903	0.049169	0.054925	0.214668	0.291190	0.040813	0.073485	0.346677	0.311940	0.020810	0.039434	0.085864	0.101002	0.056475	0.106074	0.243515	0.401969	0.062365	0.109139	0.391232	0.132479	0.101185	0.352745	0.388799	0.523989	0.081186	0.089153	0.484082	0.564396	0.025477	0.111988	0.139057	0.258132	0.074445	0.087919	0.179935	0.341417	0.057903	0.270672	0.200155	0.284337	0.043867	0.048088	0.112198	0.169189	0.031256	0.080146	0.215945	0.299136
53	0.048644	0.056974	0.173215	0.135150	0.034262	0.049381	0.179759	0.319631	0.053550	0.077324	0.506775	0.369013	0.349210	0.315114	0.277245	0.300944	0.033801	0.052530	0.241661	0.282358	0.073155	0.215895	0.173918	0.332295	0.027678	0.042696	0.099735	0.249539	0.027594	0.029269	0.054014	0.186781	0.032244	0.045578	0.198544	0.242429	0.041127	0.068868	0.331631	0.261565	0.018937	0.039395	0.083457	0.096349	0.056618	0.105544	0.217132	0.361191	0.064726	0.108567	0.390395	0.135920	0.099444	0.352749	0.389341	0.521644	0.077781	0.076539	0.409181	0.412299	0.025232	0.112442	0.134763	0.256236	0.075375	0.089611	0.178781	0.343042	0.058012	0.270581	0.194540	0.283402	0.093937	0.080275	0.094445	0.165950	0.035638	0.098566	0.209214	0.293032
54	0.049881	0.060057	0.161776	0.232927	0.035785	0.060614	0.182746	0.336270	0.044719	0.062383	0.339522	0.234753	0.412837	0.353661	0.259803	0.261687	0.030432	0.051910	0.166562	0.284832	0.073737	0.214291	0.162023	0.307438	0.034524	0.060065	0.111449	0.309475	0.029578	0.037486	0.085048	0.197720	0.027938	0.044126	0.156832	0.186060	0.039380	0.068816	0.294180	0.241945	0.017776	0.040425	0.072751	0.074881	0.055608	0.102167	0.183076	0.360412	0.058749	0.095446	0.386907	0.123681	0.099532	0.354550	0.387237	0.476895	0.095011	0.075605	0.373157	0.370886	0.024529	0.112982	0.120149	0.256137	0.078012	0.097185	0.176227	0.355082	0.058074	0.270580	0.188342	0.283341	0.119169	0.090891	0.090003	0.147652	0.036951	0.104040	0.211766	0.288294
55	0.055550	0.069453	0.191289	0.301398	0.044278	0.081457	0.187974	0.376175	0.055741	0.068680	0.222412	0.187191	0.468362	0.399474	0.258754	0.239512	0.032964	0.054544	0.146533	0.283049	0.073553	0.214394	0.157103	0.252860	0.038753	0.068129	0.165073	0.318747	0.031389	0.047771	0.088431	0.247546	0.051590	0.082045	0.113667	0.136826	0.043621	0.079469	0.286479	0.218580	0.016639	0.038684	0.050815	0.050749	0.058964	0.100947	0.174402	0.363186	0.047958	0.082361	0.330169	0.134556	0.099414	0.355114	0.356488	0.447264	0.116544	0.078935	0.369596	0.351509	0.024836	0.113692	0.116150	0.248544	0.073059	0.098344	0.169167	0.377437	0.058251	0.271006	0.186275	0.301047	0.135372	0.093870	0.098456	0.104066	0.038043	0.106355	0.206545	0.290674
56	0.060110	0.078432	0.214914	0.295082	0.059628	0.103751	0.191165	0.401563	0.066550	0.074474	0.183339	0.187243	0.476451	0.407613	0.251473	0.227111	0.035633	0.057453	0.162482	0.281253	0.068786	0.191413	0.149207	0.221647	0.039474	0.068643	0.201485	0.354998	0.043035	0.079373	0.106993	0.448811	0.088572	0.178494	0.092918	0.082366	0.047576	0.088929	0.279833	0.152078	0.015365	0.038730	0.039019	0.100184	0.054955	0.082696	0.186325	0.372755	0.042794	0.076830	0.302070	0.142984	0.098527	0.355244	0.322364	0.440464	0.127405	0.064102	0.290899	0.213471	0.025459	0.113738	0.109298	0.209009	0.071218	0.098989	0.163432	0.405643	0.058307	0.270655	0.182113	0.318100	0.185699	0.122463	0.097296	0.095106	0.034565	0.105593	0.170668	0.287310
57	0.057892	0.079676	0.225939	0.307091	0.069525	0.124055	0.217687	0.396819	0.067636	0.073563	0.182991	0.188515	0.486273	0.416524	0.208161	0.202551	0.034681	0.056777	0.162575	0.281847	0.065985	0.186062	0.122447	0.214189	0.045864	0.075776	0.205010	0.418065	0.052666	0.102729	0.138560	0.465262	0.106106	0.213930	0.085220	0.080309	0.040327	0.080035	0.268550	0.096316	0.015633	0.043182	0.027954	0.227994	0.049314	0.058119	0.189036	0.384013	0.041362	0.073783	0.293840	0.144167	0.096409	0.352773	0.318413	0.403156	0.149948	0.069094	0.063231	0.090234	0.025089	0.112823	0.111998	0.149873	0.061143	0.096760	0.160463	0.434381	0.051644	0.250898	0.185283	0.320751	0.201939	0.128385	0.096719	0.095973	0.034062	0.105286	0.172229	0.282134
58	0.057025	0.080794	0.264236	0.361835	0.070989	0.127505	0.260131	0.386851	0.083420	0.076361	0.182276	0.179906	0.534829	0.457519	0.181820	0.196610	0.035236	0.058025	0.156107	0.332056	0.065589	0.186680	0.111582	0.201728	0.047355	0.078719	0.217973	0.454019	0.056528	0.114561	0.164645	0.470634	0.107986	0.231666	0.127130	0.285626	0.036340	0.070459	0.127080	0.093088	0.016183	0.049815	0.067520	0.264402	0.047973	0.055245	0.188228	0.382880	0.043794	0.072222	0.241785	0.144109	0.082880	0.332506	0.235882	0.304443	0.171014	0.069639	0.091329	0.225818	0.022506	0.093596	0.107716	0.155696	0.062856	0.101597	0.162294	0.449649	0.048553	0.205072	0.193583	0.317347	0.204217	0.130100	0.068955	0.126128	0.034303	0.104937	0.183334	0.278912
59	0.052189	0.078403	0.270296	0.364525	0.078356	0.138913	0.270833	0.365571	0.120928	0.100478	0.173108	0.161626	0.547453	0.448754	0.113050	0.204535	0.046142	0.077016	0.167568	0.481936	0.059789	0.182098	0.117478	0.186303	0.050266	0.084371	0.301792	0.459950	0.056823	0.118704	0.194067	0.495431	0.152887	0.315116	0.225640	0.433457	0.037367	0.075021	0.088451	0.086091	0.019217	0.056532	0.138427	0.266937	0.047034	0.054356	0.187857	0.371401	0.048634	0.075096	0.229937	0.151406	0.071606	0.300969	0.173053	0.216192	0.234273	0.126676	0.156876	0.267715	0.025475	0.078298	0.091815	0.198909	0.064777	0.105172	0.199965	0.417253	0.036212	0.179380	0.197483	0.292310	0.205804	0.135441	0.069794	0.146434	0.032641	0.106416	0.183194	0.238778
60	0.044517	0.073821	0.269165	0.377821	0.077973	0.139305	0.267329	0.349292	0.122570	0.102362	0.156867	0.137431	0.536289	0.427225	0.084699	0.205934	0.059699	0.098113	0.236336	0.500073	0.058228	0.179262	0.120782	0.177970	0.050129	0.084501	0.335290	0.458466	0.057610	0.122769	0.246456	0.526801	0.200229	0.362189	0.306032	0.495017	0.060289	0.171013	0.088248	0.086168	0.021257	0.059238	0.162461	0.293157	0.047456	0.055651	0.196206	0.380574	0.054070	0.086889	0.228962	0.167965	0.070510	0.285180	0.138307	0.179192	0.238383	0.131827	0.212215	0.274364	0.029152	0.084627	0.094114	0.340160	0.068067	0.102207	0.222591	0.347900	0.029168	0.052693	0.194690	0.264549	0.204810	0.137332	0.071603	0.146538	0.029951	0.108848	0.164463	0.234303
61	0.045698	0.077351	0.268525	0.455945	0.078044	0.139124	0.282167	0.360492	0.122259	0.101004	0.134674	0.114572	0.545631	0.445624	0.083110	0.205741	0.062808	0.104260	0.323879	0.509664	0.055690	0.169646	0.146453	0.234898	0.049591	0.083464	0.339278	0.447247	0.074994	0.124038	0.278249	0.518309	0.212462	0.384536	0.384410	0.512296	0.091826	0.400581	0.087841	0.073535	0.038301	0.088266	0.164978	0.348635	0.042114	0.055992	0.218360	0.436145	0.052702	0.088118	0.225315	0.180263	0.069660	0.278168	0.121544	0.175165	0.245712	0.151401	0.223432	0.320863	0.033814	0.066486	0.102753	0.378981	0.063734	0.091039	0.232816	0.331414	0.026632	0.055542	0.163040	0.238807	0.195620	0.128974	0.067364	0.145394	0.029942	0.113752	0.159376	0.243456
62	0.050934	0.093677	0.386793	0.536275	0.078407	0.138955	0.281372	0.385496	0.121826	0.100666	0.115353	0.093112	0.601051	0.488503	0.079741	0.181457	0.063603	0.105591	0.402760	0.543377	0.054982	0.164251	0.161639	0.244396	0.047913	0.080449	0.338802	0.413270	0.200280	0.168498	0.277608	0.515538	0.214417	0.387963	0.432884	0.512665	0.102557	0.425589	0.083385	0.065624	0.047696	0.104888	0.217465	0.384439	0.042128	0.057600	0.251166	0.479402	0.050739	0.089114	0.196191	0.153466	0.056237	0.203057	0.122793	0.174982	0.239836	0.154394	0.332744	0.352386	0.037896	0.071602	0.131366	0.384368	0.068591	0.088982	0.238322	0.325048	0.027151	0.057818	0.143850	0.232734	0.175341	0.114940	0.079518	0.160902	0.032933	0.121434	0.182268	0.229381
63	0.051949	0.099532	0.435440	0.525472	0.078776	0.139820	0.288960	0.395302	0.121213	0.100199	0.113465	0.083393	0.599781	0.473565	0.073932	0.152472	0.067599	0.117090	0.414972	0.590351	0.049412	0.156267	0.169397	0.239650	0.043077	0.070174	0.336544	0.382662	0.299456	0.229740	0.282791	0.509501	0.214987	0.388976	0.439328	0.515300	0.122703	0.529546	0.080524	0.067473	0.050853	0.108226	0.294090	0.398307	0.046469	0.069385	0.291331	0.475374	0.148521	0.162352	0.124195	0.148346	0.054845	0.094131	0.123751	0.173037	0.236261	0.150017	0.360784	0.357573	0.042710	0.075245	0.137325	0.423259	0.084087	0.091124	0.238056	0.314467	0.027786	0.058673	0.142766	0.232450	0.164092	0.117462	0.100197	0.172027	0.033677	0.122932	0.202197	0.209592
64	0.046548	0.095016	0.429133	0.479980	0.078973	0.139927	0.294833	0.398209	0.123609	0.101310	0.121536	0.109127	0.570432	0.450212	0.076917	0.150257	0.077807	0.133056	0.513813	0.610260	0.027279	0.074509	0.172440	0.260361	0.037651	0.057509	0.321910	0.364417	0.340528	0.268938	0.288382	0.508398	0.219122	0.394121	0.480582	0.552895	0.122680	0.552455	0.076585	0.067762	0.050990	0.108267	0.307630	0.399805	0.049153	0.070749	0.306405	0.469270	0.305779	0.407198	0.119124	0.162570	0.057476	0.087822	0.126976	0.166449	0.232580	0.148862	0.365025	0.355879	0.052865	0.091263	0.137751	0.479766	0.118654	0.100846	0.237525	0.282754	0.027115	0.058765	0.139859	0.232200	0.140325	0.103980	0.107531	0.217585	0.035508	0.118576	0.205069	0.182472
65	0.039773	0.086499	0.415242	0.475948	0.080280	0.141563	0.299269	0.422618	0.122363	0.096999	0.112015	0.121171	0.521061	0.413218	0.072259	0.148863	0.081394	0.138839	0.579669	0.616078	0.025037	0.064967	0.197945	0.282780	0.037718	0.056151	0.312569	0.389672	0.439713	0.287539	0.288982	0.380234	0.221041	0.396886	0.562885	0.603886	0.121474	0.553624	0.071813	0.062353	0.051602	0.109567	0.310713	0.398679	0.048556	0.071233	0.310374	0.482969	0.377782	0.614735	0.119462	0.170380	0.068021	0.081641	0.129543	0.160358	0.210613	0.147785	0.360548	0.318883	0.053936	0.094661	0.141725	0.514336	0.146682	0.106527	0.236259	0.240352	0.026517	0.058369	0.136648	0.226455	0.069502	0.081755	0.171821	0.245815	0.033294	0.100108	0.195660	0.181510
66	0.037101	0.080387	0.405315	0.472616	0.084068	0.145256	0.305840	0.465233	0.120419	0.096638	0.124859	0.131846	0.528067	0.406732	0.084463	0.148210	0.082295	0.142117	0.597189	0.620597	0.025256	0.054004	0.234684	0.310238	0.036324	0.051490	0.353370	0.380045	0.490302	0.302149	0.326315	0.287362	0.217905	0.391856	0.585369	0.637530	0.119769	0.552857	0.052788	0.061245	0.056257	0.115617	0.342102	0.396743	0.045346	0.072506	0.318110	0.501060	0.482594	0.628892	0.117074	0.166121	0.069604	0.080328	0.132865	0.153700	0.153237	0.121224	0.341573	0.262869	0.058659	0.101495	0.175329	0.525588	0.151868	0.112786	0.236444	0.186957	0.024855	0.055965	0.135900	0.191719	0.061156	0.086771	0.210844	0.237568	0.032328	0.099046	0.186239	0.180597
67	0.037919	0.077529	0.371895	0.431432	0.085782	0.143690	0.322619	0.453391	0.138216	0.117044	0.141771	0.148621	0.539397	0.410935	0.091208	0.153569	0.083322	0.144109	0.609045	0.619292	0.025438	0.055617	0.246823	0.321644	0.048464	0.063907	0.388360	0.332228	0.489812	0.310444	0.410919	0.283274	0.206357	0.359636	0.589629	0.661197	0.119746	0.553296	0.031323	0.061779	0.063658	0.119816	0.397834	0.405494	0.049101	0.078425	0.315810	0.510308	0.500971	0.659993	0.104226	0.148509	0.069676	0.077825	0.132252	0.144867	0.132885	0.119821	0.355061	0.268104	0.059392	0.103391	0.218363	0.527686	0.192767	0.152710	0.242066	0.150296	0.020164	0.046726	0.131838	0.144374	0.059448	0.091855	0.263741	0.224801	0.035580	0.099155	0.180367	0.176817
68	0.051644	0.079975	0.366949	0.423808	0.084125	0.137274	0.326345	0.423447	0.131612	0.119995	0.142789	0.170738	0.497246	0.369968	0.091084	0.146617	0.081646	0.140364	0.609745	0.566102	0.024870	0.047134	0.252950	0.324890	0.048467	0.058139	0.344026	0.316278	0.490065	0.414926	0.402190	0.252758	0.198818	0.342350	0.618111	0.673303	0.119669	0.553317	0.025211	0.062839	0.069528	0.120294	0.427702	0.410971	0.048984	0.078564	0.299880	0.508435	0.512382	0.793850	0.080271	0.121510	0.069587	0.078117	0.116496	0.106717	0.097850	0.089388	0.366692	0.235106	0.059388	0.103522	0.222421	0.526094	0.203457	0.164521	0.288528	0.232771	0.020365	0.048141	0.125480	0.123262	0.057914	0.085296	0.270403	0.224592	0.052069	0.106758	0.177157	0.200547
69	0.073171	0.086718	0.365064	0.414384	0.077838	0.124017	0.315579	0.405501	0.170597	0.149234	0.143979	0.182092	0.472590	0.347102	0.082525	0.106040	0.076482	0.131422	0.620258	0.533838	0.024162	0.042994	0.254267	0.323679	0.054070	0.068193	0.293614	0.315990	0.490117	0.539999	0.391173	0.176492	0.197818	0.329930	0.618647	0.614317	0.118775	0.551808	0.025371	0.063078	0.069623	0.118606	0.426723	0.391006	0.049076	0.080205	0.316250	0.511502	0.515722	0.827994	0.070622	0.117660	0.069019	0.071856	0.100853	0.077899	0.099318	0.083198	0.303956	0.179651	0.058793	0.103780	0.222962	0.509008	0.223089	0.183683	0.354911	0.303786	0.020341	0.050192	0.103733	0.122833	0.059700	0.092252	0.281099	0.229918	0.057318	0.116080	0.184737	0.209087
70	0.090279	0.094023	0.366117	0.353576	0.068639	0.107647	0.312519	0.431289	0.171874	0.152107	0.144366	0.189733	0.526160	0.375696	0.077558	0.104257	0.070331	0.124537	0.626744	0.566513	0.025014	0.041615	0.250445	0.319382	0.056812	0.074254	0.312245	0.308841	0.491764	0.569752	0.352831	0.100098	0.161861	0.250684	0.590197	0.521572	0.105798	0.519271	0.025179	0.061763	0.062497	0.099952	0.443363	0.391253	0.049155	0.080335	0.322366	0.512006	0.506255	0.823984	0.074876	0.106914	0.064937	0.108845	0.095365	0.084039	0.085168	0.094731	0.294896	0.162791	0.056582	0.100208	0.216007	0.475137	0.224589	0.188017	0.383847	0.316466	0.017358	0.049876	0.074914	0.103077	0.064988	0.108431	0.289000	0.233830	0.058546	0.117092	0.187497	0.215986
71	0.089218	0.082183	0.288385	0.184589	0.074011	0.125614	0.320858	0.460369	0.204339	0.161441	0.145399	0.201586	0.501021	0.341501	0.081157	0.093057	0.073944	0.122309	0.594316	0.556613	0.025776	0.042805	0.245675	0.309910	0.057426	0.077319	0.317794	0.307565	0.474433	0.642254	0.354002	0.102894	0.101912	0.179078	0.554665	0.466449	0.084623	0.373634	0.021971	0.057784	0.069041	0.097593	0.447577	0.416983	0.048760	0.079618	0.317946	0.481152	0.442020	0.772749	0.138184	0.141482	0.067371	0.165631	0.101121	0.087559	0.073692	0.105666	0.315669	0.163697	0.055658	0.102936	0.211092	0.391841	0.223595	0.188129	0.393655	0.316110	0.016422	0.038860	0.074078	0.059625	0.074155	0.122037	0.349365	0.236310	0.068068	0.151944	0.184250	0.232813
72	0.115778	0.087480	0.174394	0.111616	0.082333	0.179626	0.340734	0.468353	0.235985	0.177872	0.163249	0.204303	0.394495	0.245277	0.091092	0.087440	0.126099	0.136354	0.567720	0.521656	0.026549	0.043112	0.232248	0.272955	0.057193	0.078231	0.317710	0.318433	0.422571	0.678378	0.364144	0.121192	0.073982	0.125908	0.504133	0.451485	0.061264	0.345683	0.025626	0.053732	0.100892	0.109891	0.461143	0.431208	0.047499	0.077632	0.300558	0.372979	0.354294	0.575017	0.320049	0.307993	0.071498	0.225979	0.099814	0.087428	0.072589	0.104675	0.315330	0.146601	0.054780	0.124255	0.202893	0.374474	0.213810	0.181648	0.407498	0.346690	0.013883	0.031690	0.056944	0.043063	0.075015	0.131329	0.406372	0.228641	0.119621	0.325119	0.184459	0.233625
73	0.131952	0.089524	0.175120	0.176020	0.078670	0.223341	0.354045	0.474167	0.320501	0.251206	0.239239	0.203615	0.399744	0.272248	0.123154	0.091481	0.156078	0.142398	0.558455	0.459144	0.029284	0.043120	0.229597	0.263463	0.057892	0.078392	0.321542	0.366804	0.378606	0.802782	0.356543	0.119997	0.067877	0.115475	0.465163	0.464377	0.029724	0.145332	0.033673	0.051693	0.149369	0.125755	0.493252	0.434343	0.047278	0.076464	0.269295	0.292323	0.242144	0.552807	0.456296	0.383385	0.069190	0.230431	0.089779	0.086900	0.072527	0.101626	0.315464	0.151803	0.055015	0.126292	0.187745	0.362123	0.193160	0.175556	0.450197	0.364963	0.012843	0.027744	0.038268	0.043206	0.075433	0.131298	0.396200	0.184784	0.203394	0.599867	0.183113	0.232296
74	0.135040	0.114535	0.204230	0.215266	0.078353	0.262614	0.342705	0.470182	0.322122	0.257610	0.254629	0.184860	0.452756	0.326826	0.133839	0.094996	0.164632	0.128348	0.480781	0.460826	0.028684	0.045596	0.226579	0.264059	0.058366	0.079964	0.398522	0.402559	0.349881	0.826312	0.355138	0.109073	0.065686	0.112043	0.461386	0.470521	0.041384	0.066316	0.039326	0.065756	0.187110	0.139672	0.499213	0.418069	0.043737	0.074772	0.223264	0.273930	0.139489	0.524029	0.485520	0.461294	0.066553	0.248595	0.088432	0.086881	0.063184	0.085475	0.284641	0.155605	0.049405	0.131754	0.186704	0.300484	0.181821	0.174711	0.484298	0.437360	0.012116	0.026251	0.030259	0.043786	0.074328	0.128636	0.375112	0.184811	0.230371	0.753163	0.179082	0.238285
75	0.224457	0.186829	0.240463	0.239608	0.093786	0.332705	0.346623	0.449652	0.324048	0.258230	0.315825	0.184345	0.561010	0.375331	0.132703	0.093897	0.180221	0.134561	0.427542	0.475119	0.029754	0.048483	0.223511	0.242672	0.067975	0.087023	0.511900	0.370006	0.125311	0.820598	0.341493	0.101456	0.049354	0.090508	0.416080	0.425979	0.094346	0.069796	0.052645	0.171837	0.217666	0.147385	0.476473	0.386143	0.034045	0.073912	0.180321	0.273737	0.105703	0.353038	0.599350	0.483657	0.063561	0.265408	0.076406	0.081962	0.058878	0.080547	0.230197	0.150431	0.047506	0.135048	0.188124	0.203710	0.170699	0.167482	0.508725	0.529953	0.012265	0.026200	0.027806	0.042691	0.071816	0.124593	0.359289	0.187386	0.255164	0.772432	0.175834	0.240929
76	0.269607	0.237702	0.276195	0.245840	0.119328	0.481521	0.346601	0.428319	0.323886	0.255836	0.321833	0.190942	0.554548	0.390631	0.133130	0.101504	0.182851	0.133666	0.409785	0.497905	0.028485	0.046627	0.198074	0.213251	0.064713	0.080710	0.521901	0.358833	0.122949	0.812554	0.220397	0.121942	0.045368	0.082255	0.296688	0.351651	0.097854	0.072405	0.117467	0.274637	0.219316	0.150615	0.423746	0.401682	0.034291	0.076543	0.172819	0.254746	0.092205	0.176366	0.784849	0.485473	0.054540	0.265158	0.069690	0.079270	0.060885	0.089918	0.258751	0.212776	0.046726	0.170693	0.182200	0.137116	0.142503	0.161208	0.522335	0.581403	0.012113	0.025918	0.029449	0.048206	0.071651	0.129777	0.415103	0.188966	0.289973	0.878587	0.193766	0.241686
77	0.270795	0.241277	0.280601	0.253867	0.124456	0.508917	0.346864	0.426572	0.316986	0.248223	0.356788	0.180936	0.535022	0.388023	0.126827	0.123295	0.183444	0.132292	0.406043	0.509040	0.028536	0.044057	0.149442	0.172124	0.060836	0.077451	0.515851	0.362500	0.122338	0.797042	0.176740	0.181730	0.039554	0.073544	0.260526	0.294660	0.101960	0.076715	0.154177	0.281714	0.220218	0.151605	0.408913	0.433395	0.038241	0.125917	0.149371	0.209479	0.105124	0.180995	0.807138	0.485996	0.054256	0.268433	0.078263	0.091532	0.064854	0.087502	0.372897	0.317698	0.050291	0.185213	0.142178	0.109154	0.108283	0.137657	0.479516	0.562737	0.012130	0.023979	0.031629	0.105177	0.085904	0.140110	0.433278	0.176994	0.291954	0.894223	0.216158	0.237042
78	0.269355	0.247439	0.303559	0.260536	0.154449	0.611648	0.338296	0.416506	0.299615	0.235135	0.359981	0.172645	0.571373	0.394825	0.146347	0.141747	0.187271	0.135747	0.412883	0.495820	0.026463	0.038201	0.124754	0.148293	0.061192	0.083057	0.531456	0.372694	0.123165	0.712173	0.217194	0.200426	0.035927	0.068018	0.259037	0.251984	0.103298	0.077699	0.172276	0.296981	0.220203	0.151947	0.419436	0.435240	0.032160	0.121552	0.147090	0.154138	0.114949	0.190223	0.803767	0.511697	0.058496	0.276061	0.094422	0.138165	0.060099	0.068140	0.378191	0.345069	0.056985	0.227199	0.097377	0.106393	0.084313	0.119650	0.421528	0.534330	0.012257	0.023665	0.032810	0.129332	0.095167	0.138410	0.432919	0.170136	0.292303	0.899547	0.222681	0.232744
79	0.264157	0.246048	0.336121	0.316637	0.165142	0.697852	0.336431	0.373188	0.286515	0.238450	0.359571	0.184226	0.612776	0.402879	0.155304	0.149707	0.191547	0.134385	0.377975	0.366734	0.025734	0.049030	0.126081	0.142367	0.072483	0.108251	0.576401	0.380736	0.122866	0.664022	0.232687	0.204190	0.032422	0.059752	0.194373	0.222842	0.166542	0.162152	0.176785	0.320692	0.220056	0.149992	0.404249	0.404397	0.033415	0.126409	0.139310	0.115111	0.116194	0.192829	0.769181	0.495241	0.063477	0.281430	0.107149	0.170336	0.075446	0.107676	0.382171	0.389727	0.057456	0.228242	0.098558	0.109141	0.082146	0.118876	0.391800	0.535586	0.011879	0.022720	0.033260	0.129522	0.092534	0.129530	0.409301	0.144446	0.293633	0.920470	0.222724	0.232351
80	0.264624	0.246259	0.399603	0.385560	0.165138	0.720559	0.325831	0.339005	0.283438	0.240056	0.361917	0.192980	0.575065	0.381602	0.172293	0.151881	0.195374	0.133494	0.332552	0.323593	0.027815	0.067892	0.128504	0.144748	0.073789	0.111795	0.587720	0.382622	0.115297	0.598313	0.228741	0.242943	0.037312	0.056889	0.168195	0.220237	0.256182	0.228743	0.208472	0.332700	0.217124	0.144122	0.367498	0.355864	0.033817	0.135273	0.088099	0.083261	0.114265	0.193448	0.708371	0.432076	0.065290	0.282335	0.107112	0.166138	0.086193	0.128403	0.495334	0.420103	0.057993	0.227245	0.091371	0.113256	0.082705	0.119718	0.424011	0.573553	0.010922	0.019952	0.032042	0.141930	0.077556	0.105555	0.338465	0.147166	0.291623	0.927054	0.222666	0.211284
81	0.264879	0.254462	0.434985	0.401057	0.165292	0.731680	0.312214	0.338795	0.259440	0.234142	0.376850	0.188164	0.560078	0.370934	0.193855	0.151462	0.191778	0.131753	0.321015	0.315363	0.027714	0.071679	0.130415	0.142243	0.073815	0.113270	0.604226	0.406979	0.127304	0.590153	0.233272	0.289954	0.040165	0.054064	0.164482	0.218767	0.311537	0.258080	0.240870	0.347914	0.204127	0.135931	0.299972	0.367880	0.040454	0.154864	0.036828	0.086457	0.124000	0.204756	0.752515	0.538428	0.063345	0.260180	0.102819	0.165253	0.088297	0.131130	0.529692	0.410083	0.058940	0.227456	0.096267	0.112335	0.082209	0.119821	0.458054	0.558429	0.014054	0.021346	0.029933	0.158661	0.080417	0.105633	0.316116	0.134991	0.291259	0.929964	0.210836	0.200151
82	0.256706	0.254370	0.452955	0.383109	0.165824	0.741378	0.308313	0.327034	0.179206	0.195786	0.377976	0.217359	0.618630	0.410511	0.195346	0.190574	0.155663	0.112744	0.306972	0.312778	0.029444	0.083979	0.145687	0.125872	0.081708	0.124845	0.651519	0.425089	0.108712	0.404904	0.250809	0.309556	0.041992	0.052085	0.158068	0.216173	0.325095	0.260945	0.251165	0.353626	0.177588	0.142297	0.258235	0.455085	0.044044	0.169137	0.027817	0.121695	0.122001	0.192443	0.702730	0.503246	0.056758	0.218645	0.104481	0.173727	0.088490	0.130270	0.533334	0.418801	0.058694	0.228152	0.099551	0.113972	0.082087	0.119790	0.429763	0.548589	0.031451	0.039358	0.037855	0.168465	0.083617	0.107267	0.326051	0.142329	0.290905	0.930475	0.196735	0.192594
83	0.254945	0.246049	0.449420	0.361908	0.169720	0.749338	0.305406	0.292567	0.083274	0.125645	0.334121	0.258803	0.672159	0.469539	0.194724	0.265972	0.134578	0.094608	0.402634	0.398795	0.043737	0.116976	0.166234	0.105310	0.087842	0.126797	0.660881	0.390371	0.089627	0.250920	0.254710	0.310720	0.055695	0.060746	0.158023	0.209686	0.445139	0.341431	0.250714	0.354022	0.141195	0.146055	0.287175	0.473962	0.044937	0.171823	0.026689	0.166608	0.107680	0.159902	0.500538	0.505660	0.058673	0.181678	0.134850	0.181962	0.085479	0.123851	0.542285	0.422187	0.058217	0.219883	0.122229	0.121034	0.083733	0.121328	0.413097	0.509501	0.055535	0.061655	0.050290	0.168975	0.096601	0.124850	0.360003	0.242778	0.289612	0.926450	0.196609	0.169981
84	0.214590	0.214446	0.466533	0.348890	0.170703	0.751210	0.276853	0.228353	0.080084	0.124567	0.311000	0.263012	0.654396	0.443241	0.253927	0.293981	0.118201	0.098051	0.469813	0.435674	0.052778	0.141356	0.157958	0.080660	0.094926	0.135690	0.602660	0.346258	0.090434	0.231882	0.254506	0.310808	0.144587	0.115509	0.154445	0.178500	0.466240	0.353771	0.251871	0.352472	0.103337	0.136370	0.302374	0.462439	0.044759	0.172128	0.024776	0.190898	0.099424	0.143737	0.417107	0.517365	0.055238	0.173562	0.138912	0.183068	0.082964	0.122873	0.475527	0.339992	0.055670	0.215186	0.138666	0.125423	0.085943	0.115399	0.386862	0.421091	0.067041	0.069248	0.050498	0.169777	0.098903	0.124570	0.351540	0.260825	0.275987	0.886653	0.198856	0.149086
85	0.113291	0.141254	0.536871	0.360526	0.164790	0.742572	0.215938	0.166706	0.075923	0.130037	0.317621	0.312431	0.571904	0.400617	0.295258	0.296182	0.096635	0.092830	0.485313	0.418474	0.053020	0.141364	0.149467	0.077650	0.092560	0.133893	0.577217	0.342668	0.091664	0.233949	0.250922	0.307639	0.221721	0.140766	0.146940	0.178921	0.462457	0.356539	0.254546	0.310196	0.103202	0.135804	0.331687	0.475227	0.044279	0.170171	0.048115	0.195086	0.089404	0.136014	0.423533	0.495931	0.055982	0.136557	0.138890	0.192862	0.075997	0.123050	0.419753	0.323989	0.054943	0.211815	0.147444	0.122100	0.070998	0.096937	0.360628	0.369103	0.068951	0.069723	0.053730	0.170307	0.093682	0.113403	0.286225	0.295177	0.225785	0.737743	0.200685	0.126005
86	0.094067	0.121676	0.555589	0.359615	0.162440	0.730442	0.165379	0.136867	0.069356	0.128749	0.331751	0.365910	0.598403	0.423056	0.303935	0.303103	0.094446	0.092085	0.482343	0.415204	0.053163	0.140776	0.146264	0.095150	0.094922	0.143955	0.598113	0.405955	0.091923	0.234489	0.244322	0.285371	0.285886	0.158725	0.152169	0.283942	0.463040	0.357135	0.236035	0.244288	0.105826	0.148284	0.419302	0.576116	0.044675	0.164886	0.090032	0.202325	0.101008	0.155270	0.433803	0.484501	0.063625	0.120849	0.141373	0.195552	0.066755	0.105706	0.428284	0.261345	0.049785	0.192665	0.147762	0.110009	0.064100	0.095175	0.363604	0.409747	0.103091	0.094306	0.062957	0.172287	0.089509	0.113967	0.318367	0.427891	0.193271	0.569681	0.189707	0.105276
87	0.093129	0.118745	0.561380	0.406952	0.163347	0.716349	0.154339	0.124853	0.069893	0.131511	0.322910	0.373303	0.674334	0.482417	0.309712	0.315432	0.095267	0.093852	0.507083	0.426450	0.054753	0.144096	0.149792	0.111496	0.111307	0.160886	0.672290	0.436813	0.095040	0.237160	0.212110	0.263708	0.311146	0.172466	0.187057	0.320227	0.462539	0.356202	0.218436	0.242144	0.109603	0.155311	0.428823	0.612326	0.044715	0.163759	0.134887	0.205498	0.104779	0.161689	0.461466	0.488796	0.077513	0.125425	0.147822	0.196354	0.041620	0.067618	0.336913	0.238955	0.047487	0.172006	0.145027	0.098621	0.067814	0.106642	0.384504	0.418834	0.119804	0.111517	0.067704	0.169637	0.109399	0.141166	0.403884	0.454490	0.180031	0.552036	0.174492	0.105585
88	0.093578	0.112286	0.576381	0.479606	0.205605	0.709881	0.140142	0.129091	0.078911	0.135368	0.362120	0.441398	0.718761	0.524892	0.345945	0.322603	0.086668	0.086781	0.585729	0.469479	0.053793	0.144783	0.157421	0.120976	0.108076	0.152441	0.775964	0.506593	0.099973	0.240227	0.195367	0.280529	0.532156	0.337910	0.219129	0.315349	0.462516	0.360361	0.214494	0.231527	0.111649	0.156262	0.424774	0.608650	0.037729	0.130937	0.176023	0.208250	0.098983	0.153413	0.388995	0.317538	0.081832	0.114299	0.138489	0.193554	0.043586	0.068101	0.230521	0.357148	0.035768	0.133242	0.138953	0.093875	0.064834	0.102181	0.376475	0.452434	0.123070	0.114043	0.068140	0.133993	0.120880	0.155404	0.426786	0.478072	0.126502	0.369256	0.156231	0.102313
89	0.091554	0.113085	0.551537	0.434281	0.250843	0.656036	0.131402	0.139008	0.093503	0.139460	0.416421	0.505597	0.704409	0.535413	0.366012	0.320434	0.136511	0.115418	0.619546	0.498848	0.053432	0.144497	0.159269	0.119711	0.131419	0.171758	0.810326	0.538735	0.112522	0.235869	0.212451	0.283379	0.551045	0.352366	0.307255	0.359873	0.436995	0.328948	0.209356	0.211978	0.110057	0.155661	0.423346	0.632581	0.039345	0.127866	0.184583	0.209275	0.082760	0.138893	0.361093	0.305255	0.091945	0.097443	0.123842	0.166896	0.067321	0.101414	0.338473	0.379911	0.027136	0.073183	0.132309	0.091016	0.084175	0.109416	0.318708	0.439429	0.123848	0.114395	0.070804	0.125875	0.135158	0.185230	0.468885	0.553597	0.120522	0.314585	0.126707	0.101946
90	0.080470	0.092085	0.516591	0.449763	0.281443	0.593973	0.146141	0.146967	0.093996	0.139241	0.467149	0.514079	0.736930	0.548869	0.366496	0.319431	0.187628	0.143536	0.625306	0.508186	0.053681	0.140386	0.148947	0.120250	0.154801	0.196053	0.820296	0.612413	0.119035	0.201176	0.207405	0.243751	0.551697	0.352828	0.390301	0.420430	0.390242	0.290107	0.180453	0.196825	0.110499	0.156987	0.422359	0.633318	0.038912	0.125744	0.187307	0.224817	0.083002	0.138611	0.365967	0.301613	0.089879	0.083600	0.119006	0.152278	0.074828	0.107182	0.489625	0.363875	0.027019	0.073414	0.131818	0.087290	0.107744	0.141108	0.250036	0.450673	0.123965	0.113691	0.073128	0.123888	0.156355	0.208493	0.566515	0.563836	0.120565	0.303123	0.112689	0.108159
91	0.078491	0.087045	0.497540	0.525797	0.292710	0.566615	0.168221	0.152214	0.094908	0.138036	0.461184	0.516708	0.768096	0.570109	0.356636	0.320185	0.279686	0.235277	0.628542	0.629103	0.058298	0.133731	0.149916	0.138123	0.172332	0.212380	0.797326	0.686740	0.145081	0.161755	0.168613	0.191597	0.551382	0.353344	0.398479	0.430625	0.352024	0.270548	0.145207	0.170316	0.099706	0.142511	0.453039	0.612929	0.039363	0.114643	0.202701	0.257632	0.081543	0.136991	0.418876	0.304931	0.089163	0.078009	0.124571	0.155504	0.071951	0.107806	0.511418	0.352129	0.025542	0.072661	0.133859	0.084447	0.121276	0.155090	0.229224	0.443689	0.123865	0.113935	0.072808	0.108949	0.157173	0.208519	0.574971	0.582175	0.118842	0.239532	0.114568	0.114500
92	0.087871	0.102364	0.567504	0.589269	0.287935	0.404168	0.179102	0.150848	0.108977	0.141394	0.463986	0.511472	0.759872	0.570307	0.355320	0.309391	0.324138	0.280034	0.666050	0.774569	0.128289	0.162565	0.161930	0.162574	0.180504	0.233665	0.859369	0.708742	0.144109	0.140960	0.159547	0.191485	0.551790	0.353990	0.418106	0.486697	0.349877	0.304543	0.130433	0.165531	0.102247	0.133613	0.477104	0.611293	0.039674	0.107226	0.236586	0.287929	0.075223	0.126177	0.426762	0.301153	0.088774	0.078242	0.126682	0.151860	0.069865	0.106346	0.595733	0.354190	0.020376	0.064514	0.130227	0.083962	0.126593	0.157783	0.244484	0.407656	0.123768	0.114497	0.072430	0.084848	0.150638	0.199381	0.559973	0.582223	0.120143	0.210241	0.140831	0.116419
93	0.096807	0.112403	0.599551	0.594158	0.383987	0.359872	0.179599	0.145885	0.135541	0.164283	0.532185	0.525273	0.706527	0.523853	0.354264	0.247214	0.434312	0.375186	0.743498	0.753416	0.287653	0.250022	0.155358	0.170239	0.178647	0.233563	0.952997	0.721723	0.143971	0.129131	0.160112	0.204051	0.553180	0.355746	0.442304	0.532771	0.189618	0.468080	0.131846	0.166124	0.106206	0.140458	0.473519	0.682942	0.035909	0.065767	0.251959	0.288316	0.057379	0.095326	0.483088	0.317266	0.086113	0.069043	0.112417	0.138730	0.071719	0.104706	0.613585	0.354417	0.014549	0.026379	0.127134	0.074048	0.134037	0.163230	0.259096	0.428288	0.118978	0.111461	0.064766	0.070350	0.149073	0.196993	0.570714	0.581154	0.120727	0.196605	0.157662	0.116095
94	0.098352	0.115924	0.527956	0.590144	0.476621	0.366790	0.180089	0.143580	0.142473	0.168469	0.551763	0.518220	0.701733	0.516982	0.314317	0.193751	0.460230	0.396627	0.755989	0.749680	0.374883	0.286587	0.126892	0.167486	0.183454	0.239593	0.939474	0.806694	0.143543	0.119104	0.172539	0.220049	0.552496	0.356492	0.474630	0.610170	0.170945	0.591264	0.127562	0.160158	0.106243	0.148796	0.478599	0.686119	0.034973	0.061991	0.264267	0.268372	0.054925	0.095089	0.477731	0.285983	0.083416	0.063776	0.082211	0.132155	0.073769	0.104498	0.612412	0.355490	0.012328	0.021725	0.102973	0.052354	0.188393	0.211857	0.249756	0.436147	0.110475	0.106852	0.061952	0.071112	0.150698	0.196824	0.566714	0.550236	0.122704	0.192809	0.157844	0.119807
95	0.099528	0.115297	0.488038	0.590939	0.483514	0.346431	0.197241	0.144248	0.139863	0.168696	0.523113	0.480704	0.698000	0.515974	0.269747	0.184140	0.467455	0.404651	0.752930	0.778810	0.374810	0.277585	0.122940	0.167400	0.194829	0.256604	1.030120	0.797537	0.143682	0.115342	0.193349	0.229792	0.535739	0.344268	0.584969	0.670074	0.204680	0.790531	0.109084	0.143004	0.111559	0.149513	0.407623	0.588141	0.035028	0.061111	0.274525	0.246476	0.068602	0.089125	0.516752	0.277333	0.083372	0.070365	0.088289	0.138838	0.072938	0.107528	0.613986	0.354228	0.021755	0.023041	0.084843	0.033669	0.351033	0.404039	0.212986	0.420916	0.121573	0.176702	0.062551	0.081503	0.135620	0.175785	0.520704	0.504835	0.122143	0.192542	0.163437	0.132093
96	0.109973	0.112334	0.530094	0.609368	0.482590	0.327770	0.209015	0.142805	0.141340	0.167868	0.510481	0.462629	0.671990	0.495559	0.254159	0.177045	0.468856	0.408989	0.778204	0.785613	0.383960	0.294880	0.126655	0.162259	0.202602	0.266010	1.074423	0.792674	0.142186	0.110307	0.200892	0.239139	0.509104	0.335984	0.624471	0.679270	0.205658	0.819543	0.112404	0.143113	0.111511	0.145470	0.396989	0.623122	0.035493	0.061807	0.275493	0.243986	0.081071	0.098364	0.499054	0.271336	0.081258	0.070991	0.096778	0.149879	0.057301	0.095846	0.580309	0.315450	0.089997	0.093526	0.070366	0.025842	0.495916	0.534351	0.341906	0.470764	0.174215	0.285647	0.062413	0.090905	0.117701	0.154584	0.477069	0.635744	0.121076	0.193309	0.183695	0.187534
97	0.114718	0.111611	0.577281	0.630658	0.480929	0.315428	0.208767	0.139379	0.162350	0.174306	0.522099	0.445611	0.602793	0.437830	0.256541	0.146445	0.480470	0.420199	0.834439	0.785946	0.504049	0.381505	0.129966	0.153500	0.224408	0.270606	0.987994	0.765420	0.137609	0.104257	0.195830	0.232337	0.477037	0.328712	0.631035	0.640371	0.206288	0.829674	0.117579	0.143424	0.133542	0.170006	0.397426	0.659343	0.034267	0.061451	0.267019	0.233998	0.086791	0.101826	0.512079	0.287190	0.075909	0.101682	0.094460	0.157385	0.036401	0.078691	0.454429	0.330744	0.133928	0.139187	0.066817	0.023991	0.545922	0.559976	0.417328	0.468941	0.193309	0.328137	0.059639	0.090633	0.118103	0.145150	0.508755	0.700828	0.123281	0.198015	0.190911	0.210605
98	0.114294	0.112489	0.564090	0.629224	0.480548	0.310889	0.205963	0.136403	0.157767	0.159451	0.504911	0.382703	0.533779	0.375920	0.216879	0.111619	0.496618	0.431155	0.814176	0.764603	0.565525	0.417459	0.126072	0.146065	0.215341	0.261260	0.933287	0.729887	0.128254	0.097262	0.171965	0.208997	0.460736	0.320226	0.623435	0.624152	0.206659	0.834292	0.110725	0.120487	0.148719	0.180379	0.398707	0.633866	0.033625	0.060387	0.250956	0.233289	0.112386	0.141662	0.481606	0.359074	0.065157	0.101132	0.083852	0.154221	0.071844	0.104168	0.387107	0.378077	0.162748	0.151386	0.066581	0.023442	0.558137	0.568271	0.417682	0.459926	0.204457	0.344772	0.056478	0.086790	0.099738	0.111435	0.424969	0.715907	0.125295	0.186169	0.186487	0.205973
99	0.125805	0.120360	0.570201	0.638247	0.480349	0.309453	0.204449	0.135306	0.148244	0.139606	0.463228	0.476493	0.504500	0.367849	0.170668	0.114772	0.493289	0.428489	0.792375	0.763789	0.567515	0.418447	0.116162	0.145972	0.192900	0.237018	0.908458	0.694195	0.121279	0.094960	0.156856	0.197264	0.157421	0.134010	0.615039	0.624798	0.206740	0.833567	0.108087	0.100959	0.200912	0.198822	0.394983	0.644611	0.033345	0.060009	0.233130	0.237918	0.124480	0.153195	0.459699	0.353632	0.055510	0.117369	0.083251	0.140878	0.106878	0.128511	0.291938	0.379522	0.234298	0.207634	0.066574	0.023464	0.817714	0.733215	0.443287	0.460551	0.223099	0.346806	0.060601	0.087820	0.081387	0.099325	0.466482	0.835080	0.113523	0.155475	0.182832	0.207897
100	0.131022	0.122502	0.566441	0.584280	0.480156	0.309023	0.205348	0.136012	0.151487	0.139460	0.425090	0.479783	0.510815	0.458666	0.182698	0.131961	0.501867	0.424096	0.799823	0.748960	0.568120	0.418497	0.114080	0.154675	0.177449	0.224664	0.919100	0.615321	0.043030	0.063648	0.176267	0.230555	0.088728	0.094773	0.585415	0.635962	0.206710	0.833740	0.093293	0.094074	0.247173	0.209148	0.336566	0.657150	0.031506	0.058902	0.239603	0.248623	0.125381	0.156832	0.399289	0.342821	0.050420	0.148093	0.084541	0.132767	0.278331	0.242771	0.182414	0.405482	0.289286	0.241786	0.061655	0.021450	0.839940	0.770205	0.449487	0.563571	0.316812	0.403732	0.062570	0.090733	0.111592	0.152020	0.528088	0.854599	0.093039	0.143515	0.177787	0.216491
101	0.123721	0.110044	0.504224	0.513246	0.474335	0.301172	0.205538	0.129113	0.152084	0.141346	0.443069	0.543789	0.512280	0.496144	0.240896	0.131843	0.459636	0.372930	0.791606	0.634876	0.568324	0.418486	0.113475	0.155100	0.168423	0.206047	0.882608	0.566733	0.030351	0.062867	0.232081	0.331355	0.085456	0.096149	0.541086	0.648515	0.206125	0.833839	0.099489	0.095579	0.301935	0.251719	0.302711	0.709253	0.029047	0.055855	0.254939	0.242113	0.132428	0.175835	0.388620	0.365172	0.059536	0.155606	0.080447	0.128131	0.408329	0.303919	0.300467	0.416329	0.290403	0.256305	0.053568	0.018381	0.857131	0.793388	0.485377	0.701235	0.367176	0.446169	0.062488	0.098532	0.117824	0.164199	0.519734	0.868295	0.107832	0.142578	0.177682	0.227198
