	312_At_T2_sh_ND_01.c3d	312_At_T2_sh_ND_01.c3d	312_At_T2_sh_ND_01.c3d	312_At_T2_sh_ND_01.c3d	312_At_T2_sh_ND_01.c3d	312_At_T2_sh_ND_01.c3d	312_At_T2_sh_ND_01.c3d	312_At_T2_sh_ND_01.c3d	312_At_T2_sh_ND_02.c3d	312_At_T2_sh_ND_02.c3d	312_At_T2_sh_ND_02.c3d	312_At_T2_sh_ND_02.c3d	312_At_T2_sh_ND_02.c3d	312_At_T2_sh_ND_02.c3d	312_At_T2_sh_ND_02.c3d	312_At_T2_sh_ND_02.c3d	312_At_T2_sh_ND_03.c3d	312_At_T2_sh_ND_03.c3d	312_At_T2_sh_ND_03.c3d	312_At_T2_sh_ND_03.c3d	312_At_T2_sh_ND_03.c3d	312_At_T2_sh_ND_03.c3d	312_At_T2_sh_ND_03.c3d	312_At_T2_sh_ND_03.c3d	312_At_T2_sh_ND_04.c3d	312_At_T2_sh_ND_04.c3d	312_At_T2_sh_ND_04.c3d	312_At_T2_sh_ND_04.c3d	312_At_T2_sh_ND_04.c3d	312_At_T2_sh_ND_04.c3d	312_At_T2_sh_ND_04.c3d	312_At_T2_sh_ND_04.c3d	312_At_T2_sh_ND_05.c3d	312_At_T2_sh_ND_05.c3d	312_At_T2_sh_ND_05.c3d	312_At_T2_sh_ND_05.c3d	312_At_T2_sh_ND_05.c3d	312_At_T2_sh_ND_05.c3d	312_At_T2_sh_ND_05.c3d	312_At_T2_sh_ND_05.c3d	312_At_T2_sh_ND_06.c3d	312_At_T2_sh_ND_06.c3d	312_At_T2_sh_ND_06.c3d	312_At_T2_sh_ND_06.c3d	312_At_T2_sh_ND_06.c3d	312_At_T2_sh_ND_06.c3d	312_At_T2_sh_ND_06.c3d	312_At_T2_sh_ND_06.c3d	312_At_T2_sh_ND_07.c3d	312_At_T2_sh_ND_07.c3d	312_At_T2_sh_ND_07.c3d	312_At_T2_sh_ND_07.c3d	312_At_T2_sh_ND_07.c3d	312_At_T2_sh_ND_07.c3d	312_At_T2_sh_ND_07.c3d	312_At_T2_sh_ND_07.c3d	312_At_T2_sh_ND_08.c3d	312_At_T2_sh_ND_08.c3d	312_At_T2_sh_ND_08.c3d	312_At_T2_sh_ND_08.c3d	312_At_T2_sh_ND_08.c3d	312_At_T2_sh_ND_08.c3d	312_At_T2_sh_ND_08.c3d	312_At_T2_sh_ND_08.c3d	312_At_T2_sh_ND_09.c3d	312_At_T2_sh_ND_09.c3d	312_At_T2_sh_ND_09.c3d	312_At_T2_sh_ND_09.c3d	312_At_T2_sh_ND_09.c3d	312_At_T2_sh_ND_09.c3d	312_At_T2_sh_ND_09.c3d	312_At_T2_sh_ND_09.c3d	312_At_T2_sh_ND_10.c3d	312_At_T2_sh_ND_10.c3d	312_At_T2_sh_ND_10.c3d	312_At_T2_sh_ND_10.c3d	312_At_T2_sh_ND_10.c3d	312_At_T2_sh_ND_10.c3d	312_At_T2_sh_ND_10.c3d	312_At_T2_sh_ND_10.c3d
	Biceps femoris_lat	Semitendinosus_lat	Vastus lateralis_lat	Vastus medialis_lat	Biceps femoris_med	Semitendinosus_med	Vastus lateralis_med	Vastus medialis_med	Biceps femoris_lat	Semitendinosus_lat	Vastus lateralis_lat	Vastus medialis_lat	Biceps femoris_med	Semitendinosus_med	Vastus lateralis_med	Vastus medialis_med	Biceps femoris_lat	Semitendinosus_lat	Vastus lateralis_lat	Vastus medialis_lat	Biceps femoris_med	Semitendinosus_med	Vastus lateralis_med	Vastus medialis_med	Biceps femoris_lat	Semitendinosus_lat	Vastus lateralis_lat	Vastus medialis_lat	Biceps femoris_med	Semitendinosus_med	Vastus lateralis_med	Vastus medialis_med	Biceps femoris_lat	Semitendinosus_lat	Vastus lateralis_lat	Vastus medialis_lat	Biceps femoris_med	Semitendinosus_med	Vastus lateralis_med	Vastus medialis_med	Biceps femoris_lat	Semitendinosus_lat	Vastus lateralis_lat	Vastus medialis_lat	Biceps femoris_med	Semitendinosus_med	Vastus lateralis_med	Vastus medialis_med	Biceps femoris_lat	Semitendinosus_lat	Vastus lateralis_lat	Vastus medialis_lat	Biceps femoris_med	Semitendinosus_med	Vastus lateralis_med	Vastus medialis_med	Biceps femoris_lat	Semitendinosus_lat	Vastus lateralis_lat	Vastus medialis_lat	Biceps femoris_med	Semitendinosus_med	Vastus lateralis_med	Vastus medialis_med	Biceps femoris_lat	Semitendinosus_lat	Vastus lateralis_lat	Vastus medialis_lat	Biceps femoris_med	Semitendinosus_med	Vastus lateralis_med	Vastus medialis_med	Biceps femoris_lat	Semitendinosus_lat	Vastus lateralis_lat	Vastus medialis_lat	Biceps femoris_med	Semitendinosus_med	Vastus lateralis_med	Vastus medialis_med
	P2D	P2D	P2D	P2D	P2D	P2D	P2D	P2D	P2D	P2D	P2D	P2D	P2D	P2D	P2D	P2D	P2D	P2D	P2D	P2D	P2D	P2D	P2D	P2D	P2D	P2D	P2D	P2D	P2D	P2D	P2D	P2D	P2D	P2D	P2D	P2D	P2D	P2D	P2D	P2D	P2D	P2D	P2D	P2D	P2D	P2D	P2D	P2D	P2D	P2D	P2D	P2D	P2D	P2D	P2D	P2D	P2D	P2D	P2D	P2D	P2D	P2D	P2D	P2D	P2D	P2D	P2D	P2D	P2D	P2D	P2D	P2D	P2D	P2D	P2D	P2D	P2D	P2D	P2D	P2D
	EMG_lat	EMG_lat	EMG_lat	EMG_lat	EMG_med	EMG_med	EMG_med	EMG_med	EMG_lat	EMG_lat	EMG_lat	EMG_lat	EMG_med	EMG_med	EMG_med	EMG_med	EMG_lat	EMG_lat	EMG_lat	EMG_lat	EMG_med	EMG_med	EMG_med	EMG_med	EMG_lat	EMG_lat	EMG_lat	EMG_lat	EMG_med	EMG_med	EMG_med	EMG_med	EMG_lat	EMG_lat	EMG_lat	EMG_lat	EMG_med	EMG_med	EMG_med	EMG_med	EMG_lat	EMG_lat	EMG_lat	EMG_lat	EMG_med	EMG_med	EMG_med	EMG_med	EMG_lat	EMG_lat	EMG_lat	EMG_lat	EMG_med	EMG_med	EMG_med	EMG_med	EMG_lat	EMG_lat	EMG_lat	EMG_lat	EMG_med	EMG_med	EMG_med	EMG_med	EMG_lat	EMG_lat	EMG_lat	EMG_lat	EMG_med	EMG_med	EMG_med	EMG_med	EMG_lat	EMG_lat	EMG_lat	EMG_lat	EMG_med	EMG_med	EMG_med	EMG_med
ITEM	Y	Y	Y	Y	Y	Y	Y	Y	Y	Y	Y	Y	Y	Y	Y	Y	Y	Y	Y	Y	Y	Y	Y	Y	Y	Y	Y	Y	Y	Y	Y	Y	Y	Y	Y	Y	Y	Y	Y	Y	Y	Y	Y	Y	Y	Y	Y	Y	Y	Y	Y	Y	Y	Y	Y	Y	Y	Y	Y	Y	Y	Y	Y	Y	Y	Y	Y	Y	Y	Y	Y	Y	Y	Y	Y	Y	Y	Y	Y	Y
1	0.186759	0.192682	0.183056	0.147135	0.259881	0.308209	0.207726	0.098289	0.212154	0.158211	0.335448	0.281708	0.102246	0.121425	0.217376	0.092762	0.090982	0.115831	0.183187	0.283743	0.263469	0.329165	0.339217	0.047397	0.318756	0.253959	0.367518	0.210022	0.098451	0.084100	0.378526	0.083679	0.136537	0.141903	0.322073	0.207795	0.537427	0.611987	0.250035	0.146727	0.196942	0.105789	0.139909	0.290506	0.127702	0.149937	0.536340	0.159075	0.153992	0.181018	0.319003	0.127012	0.063258	0.124552	0.468383	0.143190	0.133379	0.150793	0.198766	0.148729	0.213420	0.232343	0.276969	0.076543	0.237888	0.201703	0.294684	0.243634	0.122597	0.184513	0.492462	0.139473	0.093017	0.136474	0.493367	0.451240	0.468980	0.464393	0.394068	0.140170
2	0.193026	0.195721	0.166298	0.149428	0.263040	0.320757	0.214478	0.102012	0.216779	0.165202	0.400923	0.291431	0.090509	0.098759	0.216549	0.095019	0.085995	0.113345	0.230177	0.292174	0.274197	0.344826	0.237574	0.049603	0.319906	0.265416	0.411493	0.273140	0.120705	0.086810	0.425954	0.092033	0.136520	0.141056	0.305854	0.186180	0.526389	0.603142	0.312737	0.172701	0.241823	0.143462	0.279516	0.348265	0.092039	0.122353	0.532597	0.157072	0.340427	0.315966	0.355647	0.157998	0.103895	0.188859	0.491811	0.148364	0.122354	0.138568	0.199910	0.138526	0.226444	0.238782	0.284421	0.077167	0.189711	0.195979	0.411754	0.325515	0.129652	0.189432	0.490649	0.122666	0.109481	0.151600	0.499470	0.452181	0.470064	0.464466	0.394102	0.144000
3	0.193554	0.182392	0.178829	0.180753	0.262520	0.329942	0.221129	0.104569	0.177347	0.144445	0.380456	0.314127	0.085093	0.093943	0.213805	0.108935	0.082546	0.118191	0.279811	0.340066	0.249117	0.269054	0.217095	0.057938	0.314833	0.266011	0.607638	0.380634	0.127233	0.114375	0.443938	0.097146	0.133528	0.136408	0.351616	0.213130	0.503436	0.574917	0.414957	0.170348	0.352409	0.162347	0.300194	0.338035	0.089522	0.116155	0.528651	0.151516	0.430792	0.367004	0.357853	0.199882	0.166761	0.243046	0.502293	0.147554	0.121284	0.145292	0.235644	0.224795	0.237474	0.241953	0.321282	0.063904	0.168374	0.184542	0.435134	0.315845	0.129918	0.194051	0.500255	0.123050	0.113903	0.161365	0.572572	0.455832	0.470651	0.464092	0.399501	0.146106
4	0.196713	0.185867	0.230511	0.190898	0.183659	0.288877	0.232211	0.104807	0.127176	0.143729	0.444989	0.340443	0.085987	0.099933	0.201326	0.114075	0.086819	0.121440	0.365090	0.375741	0.153963	0.194575	0.230613	0.069756	0.281414	0.251143	0.682242	0.431627	0.151175	0.252221	0.443991	0.104628	0.132822	0.130598	0.418552	0.229836	0.437396	0.528014	0.464428	0.169997	0.357285	0.185710	0.350034	0.353948	0.096425	0.121296	0.516467	0.142112	0.434952	0.383927	0.373024	0.293298	0.195985	0.257805	0.517349	0.148180	0.097882	0.118156	0.238753	0.232724	0.241814	0.239260	0.402432	0.058142	0.184975	0.182458	0.437250	0.354752	0.130364	0.198718	0.496457	0.120478	0.110541	0.147891	0.554167	0.472052	0.460731	0.443291	0.376709	0.149833
5	0.197940	0.190441	0.220094	0.180509	0.161212	0.273210	0.259720	0.103225	0.153332	0.155437	0.495878	0.359725	0.089547	0.107275	0.194796	0.109548	0.095328	0.122742	0.398766	0.379693	0.144582	0.190541	0.230233	0.066269	0.210936	0.216975	0.680049	0.413042	0.181525	0.279744	0.442699	0.107050	0.110982	0.116933	0.442316	0.225512	0.301789	0.414523	0.473024	0.171406	0.356293	0.204430	0.457755	0.392443	0.103711	0.111179	0.497382	0.140135	0.680996	0.582437	0.437316	0.327471	0.203421	0.263528	0.521287	0.137462	0.075541	0.139243	0.255168	0.296751	0.271494	0.271317	0.397891	0.056125	0.182818	0.171177	0.484890	0.423236	0.130351	0.201719	0.466531	0.098589	0.108635	0.142044	0.549783	0.504921	0.394955	0.345149	0.308462	0.139547
6	0.187776	0.184216	0.238090	0.210671	0.176411	0.282373	0.282123	0.099894	0.163142	0.152459	0.516439	0.374586	0.089629	0.108901	0.198643	0.109780	0.135495	0.156485	0.398543	0.383112	0.143789	0.188547	0.240730	0.074556	0.177124	0.188104	0.657906	0.425414	0.198426	0.280414	0.448610	0.102689	0.070006	0.092976	0.430072	0.282535	0.264226	0.383570	0.489839	0.173700	0.377532	0.241560	0.515390	0.362144	0.103120	0.110732	0.427839	0.137630	0.773730	0.642109	0.519007	0.335318	0.230269	0.295012	0.493307	0.129388	0.090475	0.165186	0.301463	0.313010	0.274064	0.275950	0.419652	0.054730	0.185427	0.180263	0.615482	0.469092	0.130195	0.203662	0.443813	0.085187	0.109078	0.151270	0.586571	0.519741	0.347477	0.312751	0.288587	0.137097
7	0.193545	0.214970	0.279783	0.231899	0.185620	0.293804	0.276194	0.100229	0.175000	0.172903	0.711994	0.414986	0.087225	0.108676	0.205535	0.111495	0.145437	0.163823	0.415217	0.384324	0.144890	0.190180	0.291947	0.140492	0.176809	0.202623	0.720177	0.456261	0.197339	0.287588	0.448203	0.106145	0.056763	0.093970	0.523901	0.343875	0.185892	0.273856	0.493314	0.183567	0.356994	0.238041	0.581014	0.375612	0.104220	0.098147	0.419583	0.121089	0.773224	0.644565	0.531763	0.387891	0.247545	0.319933	0.426559	0.131607	0.086994	0.153294	0.304097	0.370624	0.269687	0.274184	0.444509	0.048453	0.182928	0.182473	0.713292	0.477443	0.130469	0.202686	0.403478	0.090735	0.107037	0.150624	0.564191	0.459720	0.338682	0.306578	0.276768	0.141524
8	0.256032	0.253727	0.287317	0.233021	0.189677	0.297505	0.260099	0.104769	0.164993	0.175868	0.754837	0.406154	0.073192	0.100744	0.225820	0.111272	0.227871	0.231867	0.431931	0.384852	0.146726	0.194049	0.305912	0.157482	0.175753	0.218353	0.760174	0.475127	0.199490	0.328562	0.451773	0.107328	0.059399	0.097522	0.605186	0.420341	0.175419	0.280556	0.493644	0.184827	0.317732	0.218589	0.664540	0.412346	0.105790	0.093504	0.417828	0.118785	0.771135	0.652438	0.627381	0.441916	0.250998	0.330473	0.369346	0.149649	0.082497	0.150821	0.314964	0.405851	0.268354	0.266430	0.468438	0.045836	0.183098	0.180880	0.724308	0.464890	0.129168	0.202325	0.395963	0.088037	0.104572	0.147820	0.436152	0.301695	0.297663	0.242235	0.272820	0.137807
9	0.330281	0.270275	0.297062	0.235027	0.192561	0.298762	0.298302	0.103952	0.150280	0.166666	0.731618	0.388955	0.067771	0.101453	0.245869	0.106749	0.233809	0.235975	0.436482	0.356242	0.143074	0.189802	0.331349	0.159964	0.178247	0.234112	0.764318	0.484096	0.204959	0.360014	0.431108	0.108149	0.058410	0.094210	0.623353	0.459231	0.147005	0.248977	0.488656	0.180913	0.209620	0.211711	0.679313	0.415180	0.092947	0.088473	0.387643	0.111024	0.771449	0.656204	0.679775	0.463560	0.256664	0.345143	0.366688	0.156854	0.086188	0.149428	0.347964	0.414675	0.236946	0.254797	0.479868	0.044685	0.182988	0.180179	0.722552	0.471076	0.128113	0.202153	0.384482	0.090330	0.082655	0.131123	0.402655	0.302660	0.172334	0.149997	0.218420	0.125378
10	0.360493	0.290153	0.301881	0.250608	0.184075	0.273625	0.314311	0.090958	0.147174	0.163245	0.848622	0.412498	0.068000	0.103142	0.251629	0.100350	0.234204	0.235402	0.442392	0.354508	0.141008	0.189336	0.358892	0.171668	0.171098	0.230895	0.760918	0.489291	0.204149	0.360580	0.394423	0.108785	0.057865	0.094080	0.622191	0.461911	0.093978	0.162466	0.534738	0.182107	0.187661	0.194657	0.703110	0.459787	0.085474	0.082316	0.303116	0.095859	0.771844	0.657094	0.685868	0.470831	0.259367	0.349565	0.364716	0.166174	0.083722	0.143963	0.345354	0.434250	0.233912	0.251423	0.476104	0.050210	0.174795	0.174304	0.720242	0.471510	0.128380	0.200977	0.362717	0.106331	0.056753	0.108045	0.382325	0.302129	0.113940	0.117738	0.232728	0.123968
11	0.441758	0.356966	0.305692	0.256085	0.180002	0.273239	0.296308	0.091672	0.149018	0.160460	0.885652	0.457567	0.069532	0.110009	0.247165	0.105008	0.236655	0.244505	0.462880	0.363889	0.138450	0.193833	0.548395	0.182995	0.101835	0.194360	0.762025	0.479079	0.202105	0.357952	0.392391	0.102293	0.064592	0.098150	0.606201	0.485967	0.090169	0.156274	0.568384	0.166134	0.183508	0.191789	0.706968	0.484682	0.086762	0.080233	0.256325	0.087903	0.748085	0.630879	0.658897	0.466133	0.259075	0.343825	0.365148	0.167671	0.074632	0.127029	0.335400	0.399728	0.247267	0.247207	0.470656	0.048650	0.141766	0.139866	0.704478	0.464174	0.115946	0.168879	0.338871	0.109806	0.061238	0.095433	0.278103	0.290118	0.092260	0.104754	0.245750	0.122483
12	0.449588	0.362335	0.305628	0.240310	0.181086	0.286715	0.294134	0.103361	0.121675	0.133058	0.847831	0.448763	0.072391	0.116311	0.254071	0.112069	0.284038	0.294618	0.436941	0.304702	0.103756	0.141178	0.575964	0.185483	0.087782	0.185930	0.660558	0.413592	0.213105	0.358656	0.389764	0.105050	0.067906	0.112400	0.612613	0.504036	0.087430	0.157078	0.519617	0.118779	0.096753	0.116978	0.640322	0.463816	0.080751	0.066804	0.259675	0.088163	0.678064	0.577090	0.650664	0.460598	0.254607	0.324936	0.338879	0.149628	0.065264	0.135374	0.301015	0.387706	0.236884	0.213209	0.469026	0.050598	0.116521	0.114544	0.635866	0.399734	0.055561	0.112522	0.282688	0.111739	0.056489	0.106127	0.302932	0.314887	0.078604	0.097363	0.256336	0.121331
13	0.448550	0.358151	0.307240	0.236135	0.180893	0.266536	0.297976	0.107777	0.109510	0.125590	0.832641	0.455293	0.075078	0.126646	0.336336	0.116542	0.350651	0.345011	0.387652	0.263808	0.081850	0.110096	0.610592	0.196269	0.084646	0.181855	0.517241	0.310881	0.212908	0.359133	0.362815	0.105276	0.076080	0.121183	0.642671	0.511481	0.091029	0.154157	0.420809	0.105679	0.103775	0.119813	0.650315	0.456165	0.076782	0.062747	0.258625	0.088479	0.656292	0.564293	0.649146	0.421637	0.232004	0.290229	0.315366	0.168636	0.065674	0.137568	0.280623	0.333406	0.216035	0.188011	0.559585	0.125892	0.112811	0.113402	0.610403	0.392778	0.047199	0.106393	0.245159	0.129358	0.073669	0.144485	0.287378	0.301391	0.080378	0.098528	0.269391	0.115402
14	0.447584	0.354854	0.330818	0.239169	0.165510	0.218671	0.300095	0.105362	0.068299	0.101701	0.710993	0.416189	0.074187	0.129188	0.359700	0.116099	0.354269	0.342683	0.367957	0.259769	0.082842	0.108397	0.616920	0.195462	0.083060	0.182914	0.487212	0.300594	0.199867	0.360883	0.313682	0.097475	0.118104	0.145702	0.672187	0.519960	0.088522	0.152897	0.391220	0.106651	0.091015	0.119162	0.530974	0.399219	0.075775	0.060362	0.245535	0.088687	0.619946	0.506112	0.624042	0.373600	0.196996	0.267461	0.292909	0.182490	0.067237	0.139807	0.262331	0.295921	0.204317	0.183713	0.585917	0.162918	0.065026	0.090516	0.606033	0.366157	0.046482	0.101173	0.221320	0.136709	0.096085	0.169689	0.235509	0.290075	0.077145	0.098806	0.258046	0.108726
15	0.447794	0.357381	0.356617	0.215763	0.158900	0.214412	0.317238	0.124619	0.045474	0.076075	0.598520	0.407332	0.068221	0.123008	0.367107	0.115893	0.376979	0.366983	0.351383	0.251393	0.078263	0.102928	0.613000	0.194018	0.082894	0.184499	0.467820	0.280493	0.196500	0.341777	0.299380	0.089008	0.170113	0.176791	0.657440	0.527081	0.086037	0.141233	0.386827	0.103445	0.069848	0.106106	0.463709	0.380459	0.056338	0.048131	0.255893	0.088205	0.212160	0.206166	0.563277	0.380607	0.181723	0.263940	0.266279	0.178758	0.061704	0.136522	0.142196	0.217885	0.157790	0.132615	0.583867	0.169387	0.045878	0.083174	0.578906	0.289829	0.045470	0.092466	0.205477	0.136039	0.096345	0.168335	0.220896	0.338523	0.077319	0.099859	0.256246	0.109305
16	0.443058	0.347270	0.331380	0.273527	0.162780	0.222448	0.451009	0.166047	0.045305	0.070436	0.585304	0.397432	0.061035	0.113671	0.384168	0.118534	0.443112	0.425401	0.339399	0.251150	0.078625	0.103034	0.631227	0.203563	0.080801	0.188557	0.389362	0.261898	0.174748	0.259411	0.307668	0.083340	0.230328	0.204846	0.617501	0.537164	0.085895	0.139099	0.393355	0.111116	0.056800	0.092915	0.415978	0.334272	0.042554	0.051182	0.269297	0.101870	0.116167	0.176371	0.556713	0.447051	0.154420	0.243323	0.267056	0.178972	0.066117	0.137454	0.145568	0.295033	0.136771	0.127747	0.579118	0.181768	0.036429	0.061367	0.463028	0.186640	0.041935	0.076300	0.174247	0.137218	0.101565	0.176324	0.210763	0.350775	0.076399	0.095099	0.252683	0.109257
17	0.412590	0.321035	0.342141	0.333739	0.151069	0.219520	0.496362	0.186874	0.048135	0.069246	0.433467	0.388207	0.052763	0.104088	0.385878	0.120963	0.419117	0.404825	0.322818	0.250317	0.078576	0.101959	0.617333	0.194329	0.069488	0.185147	0.469745	0.313977	0.143451	0.243958	0.306444	0.082070	0.252778	0.212248	0.604824	0.539872	0.085522	0.139926	0.437231	0.116619	0.049219	0.087236	0.301998	0.200595	0.042895	0.047066	0.266347	0.110787	0.114694	0.155798	0.545863	0.454633	0.115341	0.204288	0.260726	0.176832	0.069139	0.129956	0.144840	0.305198	0.140173	0.135251	0.556756	0.211449	0.029838	0.043959	0.260155	0.136842	0.041332	0.073590	0.171099	0.134374	0.102345	0.180672	0.210496	0.349309	0.067651	0.068747	0.238467	0.107330
18	0.348881	0.284382	0.335111	0.341906	0.139639	0.213307	0.504797	0.189054	0.039741	0.058991	0.163536	0.305850	0.050772	0.098035	0.384485	0.121379	0.421286	0.409399	0.322776	0.286563	0.073292	0.094904	0.592866	0.159274	0.060347	0.177781	0.516380	0.324994	0.129116	0.242505	0.299730	0.078256	0.285339	0.236458	0.584000	0.507926	0.082704	0.129300	0.482183	0.138331	0.050549	0.079030	0.280954	0.191570	0.034407	0.044260	0.249359	0.114378	0.108835	0.110818	0.431494	0.415740	0.098215	0.184734	0.238973	0.168805	0.060100	0.094382	0.114440	0.364830	0.144222	0.142996	0.523919	0.220257	0.027953	0.044463	0.171674	0.134907	0.039810	0.075563	0.171129	0.139550	0.101593	0.180926	0.207068	0.347961	0.064888	0.057013	0.238408	0.102287
19	0.316212	0.264459	0.340674	0.388562	0.132312	0.207034	0.506153	0.187415	0.036328	0.056369	0.124425	0.253262	0.051704	0.098238	0.381542	0.123766	0.422761	0.410523	0.259262	0.248962	0.066162	0.088909	0.573759	0.158935	0.066585	0.177187	0.516439	0.314212	0.128989	0.229891	0.298057	0.074627	0.325779	0.278900	0.487317	0.466730	0.066735	0.107050	0.480260	0.142804	0.034641	0.074954	0.163191	0.186011	0.031149	0.042087	0.251549	0.116075	0.108478	0.100784	0.371284	0.426044	0.083342	0.168340	0.190362	0.153630	0.062187	0.109877	0.099863	0.392841	0.138719	0.137364	0.504269	0.219288	0.025864	0.043795	0.162235	0.080590	0.042265	0.089899	0.174536	0.160920	0.095929	0.180282	0.203523	0.345857	0.060252	0.054682	0.241119	0.100614
20	0.156319	0.147120	0.360289	0.428867	0.131583	0.203375	0.521662	0.193891	0.034626	0.054984	0.126036	0.241512	0.054116	0.102197	0.372576	0.127770	0.420754	0.402949	0.229863	0.240899	0.062930	0.091168	0.569613	0.151242	0.067893	0.169936	0.522632	0.321497	0.143542	0.170816	0.271116	0.074592	0.334166	0.289253	0.401272	0.396069	0.067094	0.109014	0.425948	0.139504	0.042009	0.062352	0.092215	0.244647	0.031647	0.042850	0.241299	0.115112	0.112957	0.099809	0.342612	0.444131	0.065409	0.147748	0.169446	0.148776	0.061577	0.113337	0.099535	0.394210	0.132301	0.132078	0.503520	0.220101	0.023673	0.042832	0.163479	0.069416	0.051393	0.115087	0.175129	0.158688	0.094190	0.168963	0.155761	0.271543	0.058386	0.056492	0.224829	0.097338
21	0.089698	0.115999	0.365202	0.440756	0.127586	0.192706	0.579003	0.207536	0.026890	0.035901	0.094293	0.211756	0.050967	0.099223	0.358331	0.127623	0.371074	0.348207	0.176993	0.250560	0.054589	0.099615	0.470474	0.135237	0.072119	0.163186	0.544013	0.367092	0.144190	0.147443	0.225599	0.075235	0.337936	0.294342	0.386862	0.369884	0.065921	0.106122	0.376113	0.138185	0.036452	0.058087	0.072908	0.238985	0.031651	0.040908	0.210415	0.111728	0.112319	0.101701	0.322674	0.464050	0.060032	0.170659	0.160561	0.133885	0.061435	0.114340	0.098658	0.384009	0.085260	0.093760	0.503067	0.223748	0.024426	0.043049	0.145772	0.068559	0.050708	0.122086	0.180027	0.148191	0.074623	0.126341	0.127257	0.284573	0.058889	0.055989	0.168448	0.094750
22	0.091261	0.119025	0.345809	0.436774	0.122794	0.182674	0.606703	0.219445	0.033120	0.044449	0.098134	0.235953	0.050125	0.099074	0.352934	0.127790	0.326565	0.314506	0.162989	0.251607	0.052411	0.104033	0.315800	0.127939	0.077575	0.161589	0.555479	0.396304	0.146038	0.151551	0.204218	0.070821	0.340214	0.299156	0.390912	0.363567	0.061985	0.103916	0.377411	0.137703	0.043458	0.060480	0.058203	0.257530	0.029154	0.041022	0.187700	0.131170	0.094697	0.099006	0.322766	0.473218	0.059234	0.195963	0.124838	0.130914	0.049964	0.107440	0.074350	0.286536	0.066685	0.092343	0.499575	0.224093	0.024545	0.042380	0.100344	0.068636	0.044171	0.124019	0.165625	0.162498	0.045294	0.076097	0.088900	0.333054	0.061344	0.055506	0.154699	0.108749
23	0.087969	0.137829	0.303552	0.434397	0.118960	0.161909	0.612050	0.223333	0.053417	0.069292	0.112085	0.266314	0.050581	0.095449	0.352475	0.123664	0.319860	0.313096	0.158395	0.252529	0.042968	0.104238	0.288407	0.114537	0.080351	0.162281	0.556633	0.409225	0.146210	0.169913	0.201827	0.069803	0.341206	0.298997	0.388537	0.322402	0.048658	0.098593	0.379161	0.137477	0.042977	0.049156	0.045956	0.277850	0.037852	0.059192	0.205694	0.158218	0.076223	0.100198	0.322952	0.475313	0.052372	0.208741	0.105772	0.117378	0.043674	0.107344	0.042217	0.261951	0.068420	0.094037	0.373719	0.206390	0.023783	0.040729	0.102859	0.072302	0.043819	0.126256	0.127075	0.180663	0.045516	0.075577	0.080302	0.288864	0.059640	0.057104	0.134769	0.111679
24	0.085639	0.138349	0.267410	0.434426	0.110541	0.147572	0.612852	0.223084	0.060798	0.078435	0.117550	0.262461	0.046470	0.085385	0.346378	0.115324	0.222708	0.219551	0.157142	0.254175	0.025682	0.110890	0.216139	0.101745	0.081408	0.162551	0.555099	0.411897	0.128054	0.226086	0.166684	0.056963	0.341292	0.296166	0.369771	0.329567	0.045980	0.096209	0.350543	0.139512	0.051080	0.059761	0.042884	0.290366	0.039668	0.067656	0.204733	0.157817	0.064060	0.126745	0.319805	0.470545	0.035149	0.204407	0.104472	0.096271	0.036451	0.084018	0.067681	0.171477	0.068092	0.094213	0.205811	0.202323	0.023892	0.041929	0.104527	0.104224	0.049438	0.127311	0.120894	0.170546	0.029017	0.048595	0.080149	0.273511	0.049022	0.068266	0.118262	0.112295
25	0.076373	0.138980	0.246783	0.397672	0.109900	0.146494	0.609233	0.222507	0.074345	0.098242	0.115521	0.309122	0.043616	0.071022	0.274990	0.114487	0.105021	0.119220	0.158029	0.287299	0.022499	0.121776	0.216327	0.101956	0.080221	0.150728	0.552585	0.403641	0.133236	0.259388	0.134028	0.050125	0.338746	0.292851	0.329035	0.324000	0.048828	0.117828	0.342226	0.141890	0.050309	0.060253	0.052664	0.292567	0.041784	0.068337	0.202437	0.154642	0.063114	0.150928	0.281508	0.433925	0.033872	0.204441	0.133931	0.157473	0.038071	0.069000	0.167623	0.209748	0.066554	0.094119	0.186558	0.225832	0.024924	0.042106	0.110010	0.179597	0.058406	0.132083	0.141612	0.169339	0.030470	0.037656	0.077200	0.292070	0.048914	0.078477	0.136378	0.102822
26	0.072408	0.156870	0.210642	0.348357	0.091171	0.137071	0.607166	0.216540	0.089713	0.122053	0.108609	0.342462	0.050340	0.058515	0.185922	0.127362	0.088268	0.099502	0.145759	0.246073	0.018828	0.133710	0.196207	0.108338	0.074164	0.124502	0.461374	0.355611	0.132785	0.260218	0.124217	0.054942	0.323726	0.279601	0.249005	0.294509	0.050589	0.143220	0.310277	0.143768	0.045795	0.058443	0.086994	0.235873	0.046775	0.075480	0.174832	0.152898	0.060859	0.140543	0.159576	0.375290	0.038355	0.239672	0.149245	0.209830	0.082910	0.112866	0.210707	0.271915	0.064142	0.085543	0.136902	0.219661	0.030390	0.039058	0.111305	0.217503	0.061547	0.161368	0.145148	0.177993	0.044334	0.064211	0.081422	0.328202	0.047821	0.077617	0.140915	0.090652
27	0.076915	0.170719	0.210283	0.413528	0.082503	0.129981	0.514839	0.190554	0.092030	0.124789	0.115030	0.346298	0.050198	0.058125	0.177529	0.138235	0.076927	0.081386	0.098801	0.225677	0.037349	0.194119	0.124652	0.130235	0.065853	0.098650	0.276717	0.342495	0.127226	0.258089	0.115014	0.071328	0.297499	0.263501	0.222761	0.260317	0.052461	0.153566	0.240500	0.133490	0.057949	0.073918	0.136188	0.264480	0.046287	0.083392	0.156453	0.147925	0.089217	0.146651	0.107220	0.449617	0.043670	0.452704	0.145063	0.213047	0.089903	0.118227	0.235901	0.300057	0.062570	0.075916	0.106255	0.203129	0.033594	0.032245	0.112836	0.220449	0.070868	0.253526	0.163725	0.182382	0.050226	0.081351	0.078176	0.350905	0.047786	0.125712	0.144091	0.113791
28	0.089464	0.177685	0.215986	0.439343	0.070762	0.115294	0.435913	0.163974	0.092545	0.125055	0.136298	0.381259	0.049777	0.062176	0.121285	0.125434	0.068309	0.084947	0.089380	0.236868	0.043841	0.252291	0.103327	0.147167	0.065809	0.082135	0.250065	0.450478	0.125484	0.257407	0.088799	0.075167	0.253777	0.251361	0.220962	0.232044	0.044394	0.144498	0.123986	0.106349	0.055217	0.081309	0.340412	0.309465	0.046155	0.085273	0.152984	0.141287	0.110164	0.151157	0.106955	0.465081	0.052328	0.557499	0.155828	0.238009	0.113432	0.138846	0.258501	0.313208	0.052270	0.066147	0.088826	0.196959	0.038611	0.031992	0.116167	0.240740	0.073637	0.257359	0.188937	0.181554	0.050991	0.083166	0.078349	0.349450	0.056846	0.282718	0.152203	0.183056
29	0.083737	0.175415	0.225977	0.387850	0.069814	0.099605	0.420359	0.159144	0.104474	0.137956	0.141770	0.426900	0.049861	0.071968	0.090273	0.115492	0.072614	0.103366	0.071315	0.234661	0.050318	0.264593	0.089671	0.147302	0.064996	0.063582	0.234085	0.502934	0.121467	0.257328	0.087893	0.074677	0.242919	0.255888	0.220929	0.223670	0.044573	0.149733	0.101861	0.097938	0.060521	0.086980	0.428535	0.303783	0.047160	0.097565	0.150647	0.136517	0.110995	0.149986	0.111519	0.437500	0.080851	0.584517	0.162230	0.288832	0.112677	0.139248	0.285779	0.313948	0.050232	0.064027	0.087635	0.208474	0.038806	0.031565	0.111156	0.243452	0.076958	0.257432	0.188706	0.199850	0.047505	0.081979	0.079616	0.305103	0.059405	0.313210	0.170551	0.207802
30	0.066373	0.166165	0.202665	0.371707	0.086468	0.133525	0.419148	0.158364	0.108248	0.141463	0.126804	0.397457	0.049375	0.088081	0.090561	0.115866	0.068698	0.099429	0.068035	0.234673	0.068799	0.357652	0.092984	0.162417	0.079922	0.069579	0.166598	0.487506	0.121111	0.256683	0.084405	0.080522	0.188858	0.220887	0.220807	0.223201	0.050881	0.163225	0.103691	0.102593	0.064296	0.086178	0.490761	0.353684	0.046613	0.100185	0.148829	0.137052	0.105742	0.148686	0.159187	0.418365	0.088375	0.591381	0.165919	0.305985	0.112974	0.141138	0.298831	0.328180	0.051031	0.064370	0.109199	0.219023	0.039041	0.033611	0.112445	0.244185	0.075771	0.251185	0.194639	0.229411	0.046957	0.083694	0.065850	0.250187	0.057913	0.314577	0.168901	0.207610
31	0.072632	0.169432	0.203178	0.403082	0.165920	0.253724	0.396262	0.147442	0.105043	0.137535	0.132151	0.388882	0.048600	0.088604	0.074783	0.119332	0.064949	0.097623	0.065320	0.245116	0.069575	0.364764	0.097330	0.192663	0.088952	0.070729	0.126898	0.484525	0.116661	0.256184	0.090967	0.087592	0.119245	0.164203	0.220449	0.228124	0.051694	0.164002	0.093316	0.105056	0.064107	0.087024	0.497386	0.410396	0.046106	0.100010	0.149073	0.149345	0.103870	0.151909	0.162408	0.412832	0.088568	0.586007	0.168478	0.307029	0.112506	0.136932	0.273481	0.293059	0.051180	0.065663	0.117165	0.218854	0.039065	0.031744	0.110460	0.262646	0.071386	0.243888	0.196494	0.235632	0.047554	0.087922	0.151341	0.340358	0.064986	0.327348	0.175313	0.214571
32	0.078563	0.162416	0.203846	0.444850	0.348173	0.441901	0.273687	0.126072	0.104272	0.134141	0.170362	0.397314	0.048937	0.089521	0.074037	0.121673	0.060316	0.094601	0.063419	0.246440	0.069548	0.359105	0.099574	0.200199	0.090756	0.085652	0.106407	0.534522	0.089774	0.240060	0.075753	0.084347	0.099992	0.148577	0.217126	0.251342	0.056324	0.164087	0.079940	0.105527	0.068923	0.094281	0.504037	0.407765	0.046511	0.100018	0.144242	0.152993	0.105107	0.158870	0.161881	0.408100	0.090306	0.575720	0.170055	0.311194	0.087882	0.098826	0.280879	0.266611	0.042264	0.058382	0.125725	0.217859	0.038425	0.031550	0.109449	0.292387	0.070313	0.238756	0.202743	0.235238	0.052589	0.096339	0.163694	0.395252	0.068547	0.332577	0.175909	0.236097
33	0.078374	0.149911	0.206182	0.465961	0.448827	0.503693	0.177627	0.102604	0.093096	0.112317	0.198212	0.395419	0.047217	0.085798	0.072466	0.133401	0.060297	0.094680	0.045924	0.215684	0.069927	0.359299	0.113551	0.201290	0.119987	0.126760	0.106283	0.567538	0.086082	0.232161	0.070122	0.090273	0.086922	0.143004	0.215861	0.279576	0.064807	0.164195	0.069325	0.108314	0.060633	0.085179	0.492471	0.376068	0.048734	0.096376	0.128362	0.133048	0.106843	0.164029	0.178612	0.409983	0.092691	0.569043	0.171774	0.311520	0.082021	0.090066	0.258001	0.267120	0.039483	0.052724	0.127127	0.209150	0.040029	0.033969	0.114045	0.300037	0.072093	0.236342	0.215257	0.228162	0.050322	0.094642	0.172785	0.380763	0.066851	0.334661	0.185849	0.255370
34	0.079429	0.149945	0.212016	0.474249	0.450702	0.509370	0.149083	0.077648	0.094373	0.110812	0.207394	0.405006	0.048650	0.085250	0.061127	0.141868	0.061626	0.094751	0.055336	0.176540	0.075846	0.359782	0.112997	0.210586	0.132286	0.140379	0.106908	0.586725	0.082688	0.228324	0.078035	0.121007	0.076435	0.150306	0.206497	0.287353	0.073381	0.164655	0.071530	0.106299	0.055997	0.073399	0.388650	0.328889	0.047471	0.099009	0.106255	0.132000	0.129077	0.165490	0.182907	0.433679	0.092699	0.567529	0.176874	0.312816	0.048483	0.053885	0.236632	0.254069	0.044702	0.053091	0.122217	0.188224	0.041326	0.035829	0.148083	0.303751	0.072936	0.237622	0.236022	0.246680	0.040273	0.077078	0.176543	0.375203	0.066484	0.337119	0.204096	0.269170
35	0.082828	0.132007	0.205753	0.466469	0.456616	0.538852	0.128876	0.066692	0.100362	0.120532	0.196215	0.401006	0.048177	0.084582	0.056931	0.144182	0.060869	0.094463	0.059957	0.173719	0.081261	0.358517	0.107122	0.228742	0.134617	0.142831	0.116932	0.590327	0.081109	0.207627	0.081975	0.124054	0.068996	0.150368	0.176847	0.293083	0.097881	0.197122	0.076322	0.101678	0.050915	0.065977	0.322751	0.336168	0.048693	0.102708	0.108852	0.164416	0.136956	0.166290	0.208253	0.463890	0.098258	0.573037	0.160898	0.300461	0.050643	0.053195	0.210070	0.257915	0.045961	0.051099	0.128516	0.150941	0.059383	0.064094	0.217948	0.292835	0.068644	0.235651	0.236001	0.279169	0.038591	0.087361	0.211184	0.415947	0.064077	0.335981	0.197722	0.286093
36	0.078732	0.096051	0.197904	0.416127	0.584739	0.683893	0.121084	0.066564	0.093848	0.113148	0.188677	0.327976	0.045382	0.083739	0.053963	0.144119	0.055751	0.092224	0.064588	0.171333	0.083221	0.355872	0.108021	0.243122	0.134848	0.143538	0.130850	0.585530	0.061008	0.133205	0.097398	0.123753	0.067880	0.153137	0.175642	0.340942	0.186376	0.309024	0.076891	0.086541	0.040608	0.053939	0.174115	0.284489	0.046217	0.107569	0.102928	0.184124	0.135801	0.167010	0.201283	0.417267	0.100595	0.570127	0.134780	0.259984	0.048695	0.050513	0.193703	0.261700	0.044671	0.051140	0.128906	0.148171	0.058069	0.065957	0.228418	0.274992	0.062414	0.229414	0.224785	0.299058	0.038764	0.086803	0.257453	0.433456	0.066114	0.337457	0.183281	0.299996
37	0.066268	0.078936	0.190964	0.360358	0.636558	0.753410	0.114007	0.069479	0.080030	0.097117	0.199734	0.300429	0.042785	0.083154	0.074547	0.141835	0.056749	0.080124	0.068159	0.184093	0.080978	0.343777	0.112811	0.234678	0.134691	0.143869	0.161572	0.539231	0.042769	0.079920	0.136254	0.127044	0.069200	0.152312	0.180118	0.342421	0.264064	0.401103	0.085567	0.076935	0.046754	0.051411	0.199597	0.179852	0.042216	0.100131	0.099787	0.182733	0.112431	0.159454	0.204735	0.332818	0.100336	0.541844	0.131366	0.246510	0.045582	0.050377	0.178565	0.245032	0.038872	0.052433	0.123964	0.132309	0.054169	0.066542	0.232514	0.311626	0.057266	0.176420	0.221612	0.306384	0.039842	0.086841	0.290693	0.439803	0.066433	0.338035	0.183956	0.304217
38	0.068413	0.087521	0.170615	0.403880	0.693313	0.790188	0.112897	0.070674	0.068649	0.083367	0.197813	0.307746	0.035584	0.080993	0.097774	0.131476	0.060694	0.068207	0.072684	0.270314	0.079604	0.300971	0.111596	0.254977	0.132000	0.142228	0.168147	0.486407	0.037625	0.083381	0.177925	0.141074	0.067876	0.151340	0.189710	0.361573	0.309876	0.430555	0.086379	0.082616	0.045043	0.036847	0.174627	0.171404	0.041270	0.096065	0.100607	0.180525	0.098068	0.157640	0.205154	0.328068	0.096342	0.269616	0.177841	0.266822	0.043539	0.063426	0.103736	0.190234	0.038561	0.045363	0.115315	0.125878	0.056535	0.071695	0.244595	0.302568	0.047680	0.087213	0.199866	0.305445	0.041585	0.086035	0.290076	0.434458	0.066232	0.320986	0.185350	0.297309
39	0.096840	0.113509	0.229233	0.428970	0.708692	0.797466	0.112121	0.068036	0.060751	0.077198	0.183138	0.285286	0.040878	0.080540	0.099443	0.116874	0.067316	0.071702	0.107281	0.386950	0.089829	0.283593	0.113421	0.285257	0.123625	0.137070	0.209682	0.461714	0.036843	0.095506	0.183518	0.146096	0.066308	0.145252	0.216836	0.397341	0.424934	0.551657	0.095414	0.082421	0.061497	0.074055	0.193103	0.279470	0.044126	0.092579	0.097517	0.204770	0.098476	0.158178	0.194237	0.342904	0.090953	0.241205	0.263072	0.279410	0.044652	0.067934	0.102940	0.146269	0.038253	0.045487	0.113887	0.106711	0.056068	0.072697	0.347677	0.304439	0.045361	0.070116	0.181824	0.302532	0.055624	0.097317	0.270106	0.412269	0.055572	0.196310	0.178434	0.265367
40	0.102274	0.118658	0.237182	0.411299	0.713643	0.797971	0.103099	0.069835	0.061178	0.074816	0.175530	0.235041	0.040990	0.079650	0.106789	0.111604	0.068207	0.071890	0.119149	0.395154	0.080993	0.217725	0.114708	0.296038	0.112431	0.134896	0.250663	0.457679	0.045775	0.103445	0.187742	0.162373	0.073993	0.143274	0.232322	0.432358	0.444069	0.577696	0.121513	0.080216	0.071182	0.094777	0.220390	0.301468	0.048120	0.089070	0.137077	0.336152	0.099508	0.152674	0.169422	0.340131	0.069337	0.168352	0.307104	0.277603	0.152445	0.174003	0.097315	0.138477	0.037079	0.044679	0.095119	0.076762	0.057716	0.072130	0.391094	0.316645	0.038124	0.070504	0.181355	0.303983	0.086750	0.130649	0.325650	0.423642	0.048530	0.147554	0.158615	0.253661
41	0.099616	0.116953	0.263439	0.372539	0.711569	0.794385	0.089047	0.073518	0.057045	0.067867	0.153153	0.176361	0.040948	0.075386	0.109928	0.113943	0.066214	0.071702	0.135958	0.414113	0.079509	0.114031	0.110817	0.281922	0.106624	0.134340	0.248116	0.396436	0.045909	0.102707	0.188411	0.173401	0.073056	0.140568	0.282764	0.482110	0.461518	0.606883	0.136350	0.090811	0.072435	0.096800	0.222675	0.291593	0.048179	0.090128	0.148398	0.372031	0.100173	0.150383	0.166493	0.329567	0.068853	0.172811	0.319324	0.276637	0.379178	0.333212	0.080443	0.130155	0.036861	0.044073	0.088013	0.068741	0.065093	0.079526	0.393374	0.310853	0.051385	0.080702	0.217362	0.404948	0.093821	0.135273	0.353260	0.423634	0.052407	0.144439	0.160533	0.259023
42	0.110868	0.129760	0.273693	0.342504	0.703458	0.775386	0.077299	0.074868	0.038930	0.060035	0.173275	0.161345	0.044314	0.066003	0.110572	0.114999	0.072404	0.092562	0.158389	0.478522	0.079607	0.108990	0.116935	0.280080	0.088932	0.103397	0.250796	0.321863	0.044797	0.102345	0.187039	0.176704	0.072640	0.137642	0.306293	0.508274	0.466432	0.614576	0.202145	0.169506	0.073752	0.101773	0.241549	0.349685	0.047844	0.091308	0.153842	0.370473	0.100346	0.149747	0.161568	0.329360	0.068185	0.172605	0.377730	0.283229	0.452799	0.379235	0.051582	0.079668	0.037018	0.040644	0.201761	0.192512	0.069068	0.083291	0.394089	0.283960	0.058303	0.082476	0.235677	0.444408	0.093787	0.135934	0.369701	0.420360	0.047510	0.112560	0.157472	0.257966
43	0.123172	0.151462	0.288257	0.350174	0.646460	0.696463	0.067005	0.072082	0.035409	0.088895	0.176570	0.161797	0.046548	0.075046	0.122875	0.137004	0.079859	0.108107	0.216776	0.528429	0.081199	0.109546	0.172373	0.377322	0.047748	0.063496	0.269415	0.291232	0.043227	0.095158	0.184771	0.181970	0.075629	0.140601	0.309375	0.507988	0.536563	0.682846	0.325728	0.224501	0.070640	0.105749	0.207737	0.390710	0.045271	0.091144	0.158431	0.374792	0.097605	0.139608	0.189280	0.324698	0.065545	0.172873	0.439732	0.325747	0.643413	0.501231	0.040162	0.039270	0.034509	0.045306	0.312441	0.335667	0.068458	0.083358	0.402384	0.268858	0.056856	0.083974	0.267930	0.463366	0.092092	0.124887	0.361202	0.394293	0.045575	0.100316	0.202185	0.247407
44	0.126140	0.163128	0.293674	0.400545	0.562596	0.632255	0.055070	0.073232	0.038764	0.111014	0.171823	0.163210	0.048996	0.081161	0.126260	0.171726	0.080200	0.107347	0.243664	0.552632	0.088698	0.111253	0.202630	0.468265	0.037796	0.057331	0.269987	0.286986	0.038741	0.089409	0.186121	0.185098	0.076199	0.140552	0.317381	0.501639	0.663666	0.787866	0.343870	0.228713	0.067051	0.106508	0.209696	0.388411	0.044484	0.094449	0.158182	0.407290	0.068316	0.109376	0.266507	0.354568	0.065906	0.170057	0.472146	0.345227	0.649391	0.501586	0.094145	0.050860	0.034896	0.054110	0.322698	0.343480	0.068208	0.082961	0.403760	0.265504	0.055885	0.080228	0.315709	0.514952	0.092006	0.128532	0.332282	0.376632	0.049646	0.099713	0.302362	0.267732
45	0.126357	0.165336	0.294792	0.458689	0.556164	0.629800	0.048206	0.095862	0.050204	0.119585	0.167065	0.213675	0.047180	0.084250	0.126092	0.193156	0.075827	0.101102	0.278632	0.555647	0.094210	0.111744	0.206408	0.475373	0.042689	0.064658	0.275409	0.284598	0.038083	0.088655	0.184685	0.178500	0.079298	0.133816	0.322867	0.506599	0.742606	0.822432	0.358040	0.274394	0.055833	0.091313	0.204455	0.330799	0.042420	0.089461	0.171986	0.413169	0.059845	0.102567	0.251704	0.422876	0.063369	0.149769	0.475857	0.343897	0.650780	0.503999	0.284900	0.202034	0.052028	0.081615	0.333484	0.367121	0.056668	0.067203	0.365679	0.253967	0.053958	0.077373	0.307094	0.525671	0.091410	0.134155	0.309682	0.371386	0.049984	0.092284	0.341230	0.365720
46	0.127132	0.167239	0.297911	0.475579	0.555839	0.614100	0.045670	0.128288	0.050676	0.120808	0.158438	0.244248	0.047096	0.084710	0.130042	0.205347	0.070056	0.095113	0.362942	0.577105	0.090926	0.108786	0.206138	0.469459	0.045633	0.066880	0.261598	0.252877	0.037929	0.087752	0.179766	0.161856	0.081428	0.118527	0.323637	0.510681	0.748955	0.791270	0.402087	0.339262	0.033680	0.059653	0.162897	0.294897	0.045167	0.083257	0.173449	0.401395	0.061746	0.105452	0.252127	0.414432	0.057626	0.141779	0.479011	0.347313	0.640151	0.493293	0.466787	0.301300	0.055989	0.086875	0.361416	0.400412	0.051252	0.059698	0.374013	0.236571	0.052972	0.076442	0.313459	0.537196	0.090028	0.135154	0.308736	0.366217	0.049679	0.089982	0.346749	0.398468
47	0.125357	0.163814	0.283680	0.435967	0.449734	0.483962	0.059327	0.147248	0.047571	0.124315	0.147812	0.240278	0.048255	0.085235	0.134559	0.204834	0.070062	0.098943	0.369687	0.525198	0.101605	0.144941	0.233048	0.501560	0.049745	0.075856	0.269300	0.203329	0.038637	0.089482	0.178886	0.161131	0.084190	0.115959	0.334985	0.487992	0.796778	0.784827	0.437427	0.376572	0.029304	0.055569	0.159719	0.291512	0.049134	0.078140	0.202027	0.395277	0.062318	0.106269	0.274734	0.449698	0.057045	0.115910	0.484023	0.349542	0.540111	0.403434	0.535880	0.307006	0.060442	0.088841	0.398549	0.407716	0.051674	0.058638	0.377090	0.189354	0.056356	0.077084	0.315179	0.615004	0.079507	0.120567	0.291679	0.287332	0.046914	0.079368	0.370488	0.394719
48	0.108599	0.148101	0.223301	0.400429	0.345743	0.334554	0.065728	0.147802	0.066379	0.146657	0.145227	0.239926	0.047992	0.083891	0.134305	0.204746	0.079531	0.112195	0.367338	0.457442	0.112908	0.162094	0.287477	0.536886	0.051759	0.079209	0.262461	0.189982	0.038748	0.088711	0.170322	0.162007	0.082980	0.112242	0.311487	0.444078	0.782691	0.773829	0.456457	0.385958	0.029141	0.049077	0.120228	0.234424	0.057711	0.077658	0.206795	0.399325	0.064880	0.114964	0.293291	0.537019	0.054607	0.107898	0.482225	0.347757	0.483734	0.370767	0.537567	0.346249	0.062517	0.089276	0.400763	0.429681	0.048545	0.054188	0.374223	0.187966	0.057183	0.078418	0.344569	0.674669	0.128046	0.097948	0.221564	0.222443	0.054390	0.083196	0.481755	0.420595
49	0.096025	0.138082	0.216362	0.399584	0.218845	0.241046	0.068087	0.159019	0.070594	0.154343	0.140705	0.257290	0.047682	0.084366	0.131824	0.210286	0.082289	0.114521	0.367215	0.452789	0.109598	0.164960	0.313115	0.536116	0.052531	0.080586	0.223592	0.190443	0.037569	0.080323	0.132571	0.158521	0.085629	0.111325	0.307510	0.441143	0.741336	0.721553	0.455522	0.386286	0.048895	0.090837	0.339257	0.286544	0.068089	0.080115	0.204723	0.399831	0.072182	0.126738	0.309448	0.561683	0.053050	0.090714	0.439008	0.322346	0.153123	0.183125	0.546059	0.365507	0.070445	0.093473	0.402537	0.434729	0.046360	0.052091	0.306745	0.195122	0.061218	0.084468	0.356262	0.683111	0.323862	0.205779	0.187540	0.217656	0.058619	0.091846	0.546467	0.508786
50	0.089649	0.131352	0.183014	0.405720	0.191525	0.325572	0.080415	0.167654	0.088245	0.159686	0.172257	0.295833	0.046919	0.092901	0.129325	0.257087	0.084821	0.114486	0.368951	0.448854	0.103379	0.169907	0.317635	0.534466	0.049687	0.079239	0.197224	0.176453	0.036460	0.067614	0.087085	0.145578	0.086575	0.111643	0.311870	0.419559	0.805579	0.811614	0.448113	0.385448	0.063784	0.108989	0.371042	0.287271	0.066848	0.076805	0.203200	0.366922	0.071359	0.130305	0.347347	0.567685	0.058567	0.093194	0.398034	0.292646	0.130828	0.189430	0.562528	0.394086	0.073295	0.094751	0.407654	0.438571	0.046922	0.056488	0.220241	0.198390	0.061441	0.084805	0.356230	0.683974	0.478333	0.290784	0.147717	0.148542	0.065501	0.111341	0.568645	0.586175
51	0.080906	0.124046	0.234382	0.415518	0.355895	0.583206	0.094508	0.177328	0.093775	0.142645	0.187382	0.312450	0.042493	0.099466	0.232102	0.371425	0.078078	0.093262	0.366711	0.401103	0.103154	0.172702	0.318088	0.533309	0.051421	0.080077	0.234511	0.173963	0.030532	0.048149	0.094218	0.160054	0.087985	0.108800	0.301582	0.386983	0.798672	0.799661	0.443631	0.385744	0.070286	0.118766	0.374201	0.290057	0.081091	0.082193	0.193364	0.265490	0.076126	0.131023	0.389686	0.591521	0.058786	0.085818	0.385024	0.278586	0.139090	0.194901	0.522751	0.354208	0.079650	0.104835	0.411944	0.452504	0.042988	0.052304	0.248412	0.194794	0.059684	0.082267	0.352753	0.654523	0.502923	0.316474	0.136443	0.160912	0.076674	0.136135	0.572866	0.623447
52	0.060372	0.100330	0.248829	0.402620	0.476862	0.731981	0.094067	0.180349	0.104861	0.141757	0.193263	0.284212	0.047717	0.109614	0.298927	0.514696	0.073929	0.090392	0.374780	0.349808	0.103236	0.187612	0.317614	0.532604	0.051447	0.080312	0.224263	0.160953	0.024924	0.042386	0.147791	0.273797	0.079547	0.089392	0.291869	0.359109	0.808112	0.797528	0.419833	0.360907	0.071438	0.120718	0.437082	0.295273	0.089759	0.099208	0.219061	0.252808	0.071888	0.118242	0.396863	0.602001	0.059099	0.083134	0.344286	0.277369	0.125511	0.171200	0.354811	0.269083	0.099419	0.169856	0.374248	0.439466	0.031389	0.046703	0.248428	0.194704	0.047923	0.073525	0.347066	0.600235	0.669138	0.428694	0.216928	0.291348	0.077890	0.141045	0.572960	0.634339
53	0.056061	0.085675	0.239856	0.353953	0.548846	0.770993	0.109577	0.190909	0.102273	0.143106	0.197728	0.224257	0.067991	0.124453	0.319680	0.562639	0.075697	0.098296	0.370317	0.366600	0.102940	0.192078	0.306035	0.506626	0.047094	0.074290	0.233188	0.114936	0.030197	0.046864	0.177346	0.333560	0.075397	0.071555	0.236216	0.295364	0.772371	0.754125	0.337128	0.327508	0.073631	0.122595	0.454386	0.301324	0.095922	0.128475	0.224795	0.260112	0.067570	0.111382	0.355910	0.599790	0.058291	0.083072	0.271342	0.243617	0.121525	0.171190	0.240768	0.262927	0.109325	0.220472	0.286525	0.341819	0.038653	0.059203	0.239108	0.204534	0.044483	0.072419	0.353762	0.591058	0.694294	0.446667	0.255376	0.306948	0.075675	0.143521	0.572064	0.633554
54	0.062198	0.086193	0.244018	0.272852	0.603292	0.835580	0.110801	0.204294	0.105689	0.151458	0.217032	0.236506	0.071973	0.123853	0.322959	0.565968	0.080575	0.111023	0.315365	0.383003	0.099952	0.199516	0.272954	0.405899	0.041951	0.066386	0.273476	0.113604	0.030699	0.047850	0.179387	0.335417	0.079197	0.073016	0.216248	0.263072	0.720257	0.659604	0.331972	0.323968	0.078181	0.130028	0.463861	0.322549	0.097232	0.137238	0.224585	0.243675	0.070081	0.105735	0.334811	0.539191	0.054348	0.081049	0.160322	0.191768	0.113783	0.159559	0.236436	0.210759	0.108173	0.232756	0.276271	0.334502	0.041818	0.065640	0.234962	0.273224	0.044484	0.072601	0.346063	0.574307	0.705436	0.460405	0.259350	0.327561	0.074296	0.152898	0.558924	0.630609
55	0.061778	0.081113	0.261635	0.208051	0.734281	0.953790	0.116409	0.207113	0.100267	0.138673	0.350803	0.267442	0.075632	0.122277	0.341081	0.610871	0.079376	0.109267	0.256272	0.356390	0.086822	0.193112	0.259919	0.361384	0.039176	0.063582	0.285593	0.114719	0.034401	0.055153	0.178159	0.333680	0.080640	0.073616	0.228706	0.259570	0.642408	0.603058	0.320224	0.289251	0.076722	0.119271	0.362522	0.215139	0.098103	0.189771	0.211967	0.175977	0.066620	0.097762	0.384859	0.483118	0.053080	0.079945	0.104591	0.175425	0.094270	0.133753	0.218297	0.179402	0.102524	0.261699	0.260788	0.315226	0.043329	0.067214	0.293376	0.372913	0.043734	0.073647	0.320539	0.517109	0.708272	0.462252	0.290918	0.390953	0.071055	0.161223	0.505419	0.618333
56	0.062593	0.081898	0.344503	0.373785	0.755250	0.971650	0.126951	0.199846	0.105012	0.137119	0.389474	0.276754	0.080027	0.121935	0.372423	0.682446	0.065110	0.096924	0.253888	0.356618	0.085539	0.219591	0.260651	0.360383	0.031879	0.053277	0.281369	0.105039	0.034562	0.068600	0.185689	0.336685	0.086575	0.077460	0.226261	0.236754	0.616549	0.594296	0.263818	0.217118	0.058496	0.092425	0.306995	0.180051	0.097615	0.210474	0.205896	0.157750	0.063684	0.095950	0.548853	0.504352	0.051249	0.076523	0.096124	0.172942	0.077556	0.137134	0.154043	0.098276	0.100337	0.263633	0.220726	0.279509	0.049564	0.077010	0.329083	0.456989	0.043906	0.075407	0.316098	0.505722	0.694056	0.461453	0.377807	0.423795	0.073947	0.164372	0.475601	0.561050
57	0.071173	0.097270	0.351567	0.454535	0.780206	0.983755	0.129022	0.181478	0.095341	0.116004	0.382251	0.239422	0.082309	0.126829	0.395140	0.720976	0.051962	0.096389	0.322228	0.362918	0.083089	0.214184	0.254250	0.337051	0.025407	0.038616	0.264085	0.101765	0.035609	0.083136	0.187720	0.347716	0.084404	0.074943	0.223183	0.215970	0.517735	0.541640	0.200236	0.169066	0.055165	0.087111	0.297848	0.198360	0.094985	0.211052	0.199373	0.158760	0.063523	0.095639	0.643755	0.500457	0.043333	0.062936	0.062406	0.160115	0.037077	0.128111	0.057594	0.067194	0.096784	0.269110	0.138571	0.268891	0.120635	0.137477	0.354694	0.488192	0.043785	0.078890	0.312339	0.454631	0.616327	0.419081	0.404827	0.430050	0.080010	0.184753	0.472118	0.530683
58	0.074173	0.099748	0.370897	0.455493	0.809952	0.993332	0.127326	0.162653	0.085878	0.107441	0.381109	0.199372	0.086153	0.134208	0.407222	0.730679	0.057886	0.113953	0.417101	0.398351	0.058137	0.192598	0.194046	0.255997	0.022526	0.035931	0.264694	0.100075	0.037279	0.089528	0.196635	0.358206	0.082884	0.078591	0.218995	0.231140	0.519712	0.544181	0.178731	0.178549	0.057617	0.094946	0.253275	0.199496	0.092606	0.211570	0.172452	0.161381	0.059239	0.075919	0.658081	0.421936	0.041188	0.048693	0.036161	0.160217	0.037284	0.135607	0.087242	0.103113	0.095978	0.274759	0.131633	0.233153	0.197224	0.192314	0.358466	0.487966	0.039451	0.077580	0.312222	0.312007	0.521644	0.377072	0.402654	0.430960	0.080012	0.208230	0.451537	0.526330
59	0.078524	0.104194	0.374980	0.464339	0.822036	0.995942	0.122672	0.197603	0.070893	0.102794	0.402878	0.201341	0.089561	0.149884	0.409458	0.730260	0.063712	0.127386	0.443971	0.451301	0.044156	0.190812	0.122550	0.173765	0.022925	0.038344	0.273420	0.126137	0.037969	0.088687	0.213352	0.361247	0.080410	0.074441	0.196029	0.247476	0.534669	0.524366	0.185200	0.237672	0.055599	0.093580	0.194938	0.190081	0.085033	0.210830	0.173792	0.158153	0.053758	0.059397	0.639951	0.412108	0.041691	0.046914	0.033046	0.135243	0.061137	0.148371	0.285893	0.240228	0.090088	0.273083	0.128938	0.226887	0.251224	0.225626	0.362245	0.486509	0.039169	0.073193	0.281630	0.207783	0.487829	0.349760	0.439657	0.445924	0.074845	0.211260	0.325593	0.501439
60	0.089770	0.132118	0.353095	0.495026	0.907232	1.105328	0.124714	0.238245	0.103420	0.147883	0.462939	0.223700	0.093500	0.182400	0.410212	0.730349	0.065903	0.128245	0.428056	0.484839	0.046363	0.218393	0.082704	0.128495	0.028964	0.049839	0.279226	0.197490	0.038169	0.088704	0.234344	0.365964	0.082483	0.081582	0.228409	0.260175	0.475466	0.333438	0.189253	0.243836	0.051308	0.088240	0.173114	0.150645	0.080880	0.210478	0.181939	0.162732	0.055821	0.060049	0.652481	0.434338	0.029067	0.038299	0.032982	0.100881	0.070054	0.152886	0.304038	0.311646	0.087830	0.272853	0.119568	0.223594	0.277140	0.245561	0.382437	0.478066	0.041584	0.124200	0.289431	0.201190	0.205044	0.209993	0.509394	0.456866	0.073126	0.207670	0.195998	0.408613
61	0.095215	0.143737	0.322297	0.535390	1.165771	1.304026	0.121799	0.232639	0.116251	0.170813	0.480067	0.256280	0.094501	0.198635	0.431843	0.735902	0.063688	0.124755	0.408550	0.489992	0.047650	0.235931	0.075982	0.100925	0.038067	0.070850	0.356007	0.269056	0.038560	0.094469	0.266698	0.378744	0.097117	0.110294	0.266320	0.267493	0.529435	0.325492	0.202867	0.248588	0.040354	0.078983	0.164531	0.145489	0.077676	0.207606	0.180114	0.159384	0.059706	0.073651	0.692482	0.409053	0.024137	0.027560	0.030515	0.079605	0.072148	0.150131	0.303549	0.323511	0.082816	0.269275	0.106782	0.195960	0.364631	0.296449	0.380307	0.477023	0.043209	0.155447	0.301605	0.206727	0.154239	0.191339	0.501341	0.470393	0.067884	0.200661	0.137435	0.304943
62	0.089083	0.136368	0.365328	0.541417	1.151575	1.239113	0.120287	0.226501	0.113779	0.168833	0.447132	0.244348	0.111134	0.257743	0.465820	0.746387	0.067709	0.128792	0.432993	0.505456	0.053626	0.285900	0.072982	0.098191	0.042292	0.080977	0.385021	0.288550	0.038470	0.104812	0.272994	0.385437	0.162805	0.195646	0.260142	0.270988	0.531046	0.338683	0.210830	0.265362	0.040155	0.082110	0.142860	0.140861	0.063143	0.203785	0.156989	0.138160	0.060842	0.073475	0.784501	0.395260	0.023369	0.026605	0.027847	0.080920	0.085911	0.157938	0.323844	0.421564	0.057656	0.235596	0.094119	0.141816	0.367743	0.296199	0.387592	0.488473	0.042472	0.160562	0.312852	0.217837	0.091805	0.154382	0.503529	0.452001	0.060714	0.193462	0.200550	0.331187
63	0.082220	0.132088	0.398455	0.541481	1.107814	1.155549	0.188580	0.242864	0.107591	0.162876	0.346928	0.219174	0.115974	0.276944	0.451545	0.721765	0.078379	0.145202	0.498083	0.525261	0.054151	0.280418	0.061306	0.095466	0.059799	0.089496	0.366642	0.287374	0.037269	0.107040	0.262777	0.370395	0.241150	0.261054	0.259461	0.275137	0.538445	0.326420	0.222985	0.278552	0.042592	0.091334	0.164832	0.107578	0.051831	0.194983	0.115273	0.108569	0.060215	0.073238	0.825141	0.386353	0.023450	0.026644	0.050739	0.118754	0.094217	0.161328	0.355185	0.484020	0.033430	0.188148	0.091647	0.132234	0.368331	0.294980	0.420184	0.512465	0.041492	0.160865	0.326031	0.206477	0.122317	0.199216	0.494153	0.420525	0.063703	0.196537	0.276524	0.391343
64	0.082432	0.132999	0.409326	0.549878	1.100198	1.158360	0.190260	0.241206	0.107732	0.162911	0.359822	0.215372	0.114488	0.275121	0.399870	0.639344	0.082145	0.152528	0.524851	0.539785	0.054687	0.279398	0.052649	0.083827	0.071060	0.095598	0.346785	0.291810	0.032889	0.105450	0.230960	0.277100	0.289892	0.289164	0.262759	0.250135	0.527461	0.328940	0.201715	0.280128	0.039309	0.085060	0.125892	0.098008	0.041553	0.179018	0.099443	0.088765	0.055084	0.071695	0.823898	0.415763	0.023928	0.027183	0.062397	0.135197	0.091405	0.150521	0.364916	0.485122	0.030415	0.172948	0.085493	0.123196	0.369241	0.293063	0.458929	0.518869	0.039392	0.159961	0.311470	0.204634	0.128279	0.198850	0.437049	0.401700	0.065260	0.196936	0.295176	0.400217
65	0.080856	0.132621	0.337025	0.526821	1.098153	1.176655	0.205801	0.232634	0.108130	0.165966	0.347416	0.215399	0.107025	0.279719	0.378616	0.560080	0.081890	0.149921	0.517863	0.540643	0.056123	0.290473	0.041881	0.065128	0.077163	0.095307	0.343029	0.315090	0.028182	0.104117	0.219233	0.221209	0.299839	0.296762	0.263249	0.254164	0.531015	0.334931	0.226355	0.279260	0.039776	0.086056	0.193651	0.167037	0.040170	0.171044	0.095482	0.084292	0.055964	0.072149	0.771167	0.446024	0.028588	0.036422	0.069219	0.133408	0.078038	0.131404	0.252549	0.436511	0.025318	0.120420	0.085164	0.109133	0.369138	0.293486	0.440080	0.460507	0.042206	0.175928	0.275945	0.203521	0.131385	0.205208	0.425184	0.403174	0.066374	0.189643	0.303354	0.395818
66	0.077805	0.121618	0.325183	0.432982	1.034467	1.076317	0.210465	0.242965	0.108275	0.171373	0.344793	0.211026	0.100287	0.280258	0.391602	0.559623	0.078745	0.139985	0.459050	0.532477	0.054617	0.286848	0.045348	0.050280	0.080051	0.095870	0.369978	0.348341	0.026890	0.103538	0.230522	0.228210	0.443441	0.396832	0.281328	0.257492	0.550820	0.340680	0.274891	0.278522	0.053928	0.096704	0.218767	0.251947	0.032484	0.087336	0.096251	0.082987	0.055887	0.069920	0.662016	0.396888	0.030555	0.040997	0.070681	0.138264	0.069424	0.123651	0.228514	0.388375	0.026711	0.120351	0.085384	0.083357	0.369889	0.293426	0.407418	0.380554	0.044836	0.193143	0.273475	0.206287	0.134635	0.208849	0.430490	0.409221	0.067763	0.179899	0.309761	0.384934
67	0.073756	0.117059	0.314252	0.460765	1.020382	1.064578	0.204479	0.270000	0.086944	0.151561	0.258997	0.196882	0.099387	0.281059	0.395688	0.540816	0.073355	0.127507	0.396913	0.493352	0.052433	0.271003	0.060139	0.046187	0.090675	0.095662	0.439596	0.391634	0.025962	0.099670	0.248152	0.261496	0.496292	0.457664	0.326563	0.258511	0.588232	0.356210	0.318364	0.267891	0.061654	0.098807	0.277305	0.265897	0.032293	0.056602	0.093444	0.079898	0.054848	0.074774	0.661904	0.383758	0.030756	0.041218	0.101735	0.148107	0.067702	0.123281	0.227914	0.380023	0.025434	0.104380	0.110481	0.077984	0.359384	0.279240	0.364175	0.309722	0.048622	0.194793	0.290132	0.204393	0.138188	0.204853	0.365894	0.334009	0.064167	0.177398	0.318258	0.402720
68	0.073394	0.116446	0.301738	0.501877	1.011923	1.061173	0.222516	0.294196	0.052053	0.113837	0.183770	0.147489	0.095225	0.313960	0.364665	0.446714	0.068372	0.122655	0.394200	0.407936	0.054776	0.272351	0.148569	0.106688	0.093672	0.093920	0.453982	0.394164	0.030331	0.088525	0.247460	0.271799	0.497062	0.467811	0.368168	0.266675	0.612757	0.372876	0.314199	0.248434	0.069769	0.111270	0.330638	0.367327	0.032523	0.052999	0.088251	0.075134	0.055097	0.087000	0.735574	0.398848	0.030610	0.042003	0.121241	0.145502	0.048840	0.085962	0.201893	0.277554	0.022880	0.085547	0.140577	0.078443	0.329267	0.247902	0.359262	0.314646	0.054757	0.230669	0.295005	0.200946	0.137393	0.191875	0.239998	0.241332	0.061346	0.157809	0.322040	0.422052
69	0.063092	0.092990	0.296587	0.502471	0.991598	1.051593	0.235981	0.301501	0.039194	0.095086	0.205012	0.084301	0.093554	0.316839	0.336773	0.336659	0.072142	0.132700	0.416084	0.447369	0.053831	0.268465	0.227731	0.179500	0.096738	0.092091	0.451206	0.387981	0.032039	0.076881	0.249083	0.258375	0.498244	0.468725	0.372273	0.255520	0.608060	0.386859	0.313600	0.191037	0.082506	0.122668	0.320647	0.415509	0.032073	0.056138	0.088613	0.063526	0.061925	0.099133	0.770355	0.402155	0.031748	0.048689	0.204023	0.183084	0.034934	0.056806	0.144426	0.137826	0.026043	0.095977	0.138502	0.065395	0.285648	0.212535	0.352926	0.307133	0.053915	0.231560	0.289074	0.195944	0.137944	0.185642	0.242071	0.212284	0.063847	0.125766	0.356191	0.424288
70	0.051638	0.061545	0.290429	0.457638	1.024991	1.075444	0.237086	0.300931	0.039809	0.099063	0.259568	0.080813	0.092816	0.315437	0.315941	0.272694	0.074320	0.133940	0.408694	0.443684	0.052066	0.256641	0.255622	0.185480	0.106718	0.095967	0.417145	0.394408	0.030164	0.069578	0.252943	0.248872	0.528475	0.494211	0.388796	0.241876	0.562634	0.378888	0.324528	0.181732	0.081781	0.121239	0.319427	0.417876	0.031276	0.059017	0.080510	0.035651	0.055621	0.086332	0.745318	0.380084	0.044831	0.068510	0.366182	0.266682	0.030467	0.041663	0.100001	0.105919	0.032530	0.144431	0.149299	0.053477	0.272831	0.202434	0.342625	0.307199	0.050535	0.244056	0.281770	0.203683	0.132075	0.182981	0.261973	0.225404	0.064487	0.118749	0.369036	0.424772
71	0.048030	0.051766	0.236478	0.444419	1.057454	1.033586	0.239004	0.272022	0.038826	0.102337	0.243422	0.086655	0.091273	0.315952	0.304602	0.256420	0.078622	0.129859	0.378714	0.385440	0.048297	0.222084	0.256142	0.192651	0.122955	0.106676	0.412352	0.384056	0.032723	0.070576	0.247085	0.253745	0.598390	0.539889	0.403121	0.235187	0.506334	0.365601	0.322098	0.168815	0.083226	0.123433	0.298596	0.404386	0.061689	0.082696	0.088471	0.027888	0.046589	0.078963	0.677097	0.381301	0.043171	0.068162	0.393664	0.285992	0.031689	0.037954	0.119597	0.106878	0.031978	0.165590	0.166310	0.055378	0.128767	0.096369	0.304816	0.319778	0.046820	0.224085	0.286294	0.225790	0.121147	0.182689	0.290061	0.327562	0.063384	0.121932	0.401281	0.426835
72	0.046443	0.046576	0.151260	0.450645	0.810993	0.724490	0.245512	0.277031	0.033182	0.096558	0.288994	0.218693	0.086471	0.304203	0.302627	0.257424	0.068062	0.107333	0.306181	0.333544	0.039850	0.158827	0.282572	0.213670	0.126529	0.109972	0.433414	0.382213	0.035515	0.081293	0.221203	0.252680	0.624664	0.547091	0.381413	0.219536	0.485841	0.348486	0.318390	0.136667	0.085242	0.120450	0.261292	0.354013	0.098289	0.107954	0.105966	0.030461	0.054311	0.097160	0.635856	0.382141	0.094137	0.107188	0.403751	0.294804	0.032209	0.037428	0.164362	0.145037	0.034055	0.175971	0.165530	0.057786	0.086037	0.086599	0.343582	0.306913	0.054283	0.227097	0.272270	0.235794	0.161418	0.231530	0.291121	0.351390	0.062290	0.122758	0.403957	0.411817
73	0.045150	0.043453	0.090011	0.451837	0.755209	0.659244	0.244885	0.277988	0.055452	0.101162	0.521566	0.424160	0.087340	0.306823	0.308629	0.265189	0.067761	0.103447	0.287005	0.319580	0.043686	0.138463	0.342645	0.236800	0.139208	0.120159	0.424325	0.399610	0.051216	0.142231	0.186054	0.233921	0.632788	0.539703	0.365044	0.226553	0.506588	0.386173	0.305200	0.106542	0.106174	0.140174	0.219475	0.344817	0.143841	0.148888	0.107653	0.031212	0.056252	0.102869	0.744382	0.373672	0.134298	0.140090	0.422169	0.318870	0.038678	0.051206	0.186693	0.236646	0.034963	0.182845	0.163076	0.076775	0.085469	0.087978	0.326029	0.269372	0.081320	0.334324	0.235126	0.230283	0.159384	0.226666	0.291341	0.365223	0.061222	0.123685	0.372254	0.324929
74	0.044759	0.045156	0.119428	0.419396	0.885681	0.772740	0.202528	0.264891	0.070237	0.106095	0.537067	0.495877	0.077939	0.295390	0.278939	0.254793	0.077064	0.121136	0.312045	0.322322	0.042734	0.139266	0.371568	0.251466	0.304514	0.240857	0.421823	0.408924	0.061749	0.192518	0.179612	0.222537	0.646672	0.544924	0.493902	0.282273	0.570971	0.481489	0.303327	0.103938	0.135298	0.157691	0.090136	0.250627	0.174364	0.168453	0.115322	0.037176	0.067302	0.119087	0.767184	0.335308	0.159755	0.155203	0.443880	0.332712	0.046604	0.075388	0.208888	0.243008	0.037739	0.182848	0.161300	0.090373	0.075972	0.088823	0.261841	0.204498	0.089774	0.415073	0.202468	0.216562	0.156621	0.223623	0.284010	0.370489	0.055376	0.118932	0.369119	0.231189
75	0.044102	0.053042	0.199920	0.421907	0.981120	0.816437	0.187296	0.257788	0.081439	0.104927	0.616371	0.560955	0.058851	0.242102	0.270837	0.240346	0.083003	0.131492	0.379051	0.342169	0.040163	0.120382	0.377731	0.255506	0.620129	0.486208	0.417970	0.396750	0.063925	0.204167	0.179880	0.216679	0.796159	0.639202	0.685467	0.350066	0.618159	0.509009	0.281825	0.107942	0.126910	0.143359	0.063264	0.112428	0.196865	0.180202	0.124189	0.047016	0.073125	0.131576	0.781248	0.313887	0.182978	0.166049	0.497831	0.338714	0.043536	0.074331	0.206750	0.259782	0.036635	0.185230	0.164079	0.100210	0.078159	0.098017	0.247596	0.190753	0.097446	0.441397	0.185950	0.195445	0.152625	0.220283	0.311280	0.370148	0.053360	0.114285	0.453726	0.224079
76	0.041653	0.056055	0.235803	0.408140	1.072810	0.818696	0.175368	0.266763	0.106704	0.132672	0.729672	0.716641	0.058196	0.242289	0.278899	0.238940	0.083592	0.140423	0.376185	0.372074	0.038567	0.101029	0.377716	0.255603	0.781900	0.591363	0.364119	0.364438	0.071677	0.258713	0.180814	0.215144	0.820613	0.657726	0.701346	0.383676	0.602788	0.507589	0.234480	0.100482	0.124167	0.135776	0.062467	0.081705	0.276729	0.240887	0.130688	0.052941	0.078910	0.139060	0.795585	0.291530	0.202907	0.175552	0.508803	0.338168	0.047733	0.081545	0.206988	0.271693	0.036534	0.180427	0.168860	0.101236	0.076354	0.102657	0.267772	0.222239	0.106629	0.497779	0.222690	0.211074	0.150054	0.219396	0.408655	0.416338	0.052272	0.110961	0.490812	0.228266
77	0.038766	0.056553	0.252185	0.335345	1.103558	0.855571	0.182993	0.302397	0.111476	0.143209	0.777077	0.792951	0.058259	0.234976	0.273488	0.238897	0.092367	0.152747	0.357752	0.378648	0.039369	0.111947	0.377152	0.256159	0.836313	0.621770	0.353011	0.347279	0.072152	0.285169	0.182529	0.214685	0.814340	0.650703	0.711199	0.396043	0.727467	0.584652	0.163047	0.076691	0.125187	0.134011	0.048332	0.137213	0.331523	0.298077	0.135274	0.069774	0.086352	0.141979	0.746965	0.247407	0.204290	0.177295	0.508458	0.337022	0.055483	0.102858	0.203427	0.323477	0.036150	0.182662	0.154357	0.110884	0.084591	0.105801	0.272092	0.235240	0.111612	0.501041	0.229847	0.228166	0.152314	0.223493	0.472098	0.498550	0.050992	0.110395	0.498212	0.228601
78	0.028005	0.057407	0.264143	0.272462	1.097977	0.839354	0.217231	0.360878	0.114392	0.142171	0.798558	0.808537	0.058470	0.229627	0.261117	0.238517	0.095674	0.152781	0.349287	0.310698	0.039981	0.125022	0.370542	0.250992	0.983969	0.755403	0.380314	0.346950	0.072588	0.289111	0.200568	0.212928	0.739699	0.587361	0.715695	0.395565	0.737685	0.585673	0.136251	0.063899	0.121801	0.132281	0.037594	0.144639	0.336216	0.313613	0.190897	0.118003	0.087534	0.136400	0.706968	0.206988	0.207227	0.178627	0.502688	0.338170	0.063089	0.115409	0.200341	0.332048	0.042885	0.220329	0.125748	0.138897	0.088143	0.110096	0.278353	0.231414	0.111963	0.499550	0.216109	0.245712	0.156798	0.229598	0.482303	0.528924	0.050501	0.110869	0.491940	0.187176
79	0.029114	0.063832	0.354837	0.259147	1.090153	0.832364	0.230491	0.409666	0.114873	0.143424	0.794598	0.801548	0.058118	0.233678	0.271558	0.238810	0.090031	0.144430	0.371503	0.292732	0.045578	0.132983	0.348056	0.205204	1.161202	0.911829	0.380742	0.310655	0.072981	0.291588	0.194369	0.186885	0.720824	0.559367	0.697456	0.414678	0.765511	0.582340	0.127886	0.063018	0.113933	0.125052	0.045175	0.176483	0.336320	0.317415	0.198581	0.144257	0.082779	0.130429	0.682057	0.169514	0.208450	0.179404	0.502468	0.333365	0.059383	0.110416	0.185222	0.286775	0.055083	0.252165	0.160782	0.169214	0.068753	0.102454	0.277918	0.221753	0.118770	0.489242	0.222422	0.255870	0.126457	0.181286	0.627242	0.538649	0.045198	0.114204	0.495357	0.145586
80	0.029040	0.067751	0.389485	0.261889	1.089341	0.829268	0.219402	0.413939	0.111137	0.142649	0.694494	0.722650	0.054451	0.206514	0.308957	0.238490	0.083258	0.140309	0.352895	0.290734	0.046719	0.134870	0.321380	0.188737	1.171460	0.914400	0.342053	0.262539	0.072230	0.292550	0.191748	0.174916	0.721766	0.562939	0.692090	0.426109	0.769729	0.578225	0.090018	0.065617	0.045265	0.057099	0.044941	0.191986	0.336483	0.317303	0.219246	0.147766	0.083465	0.130963	0.673625	0.142328	0.206741	0.174252	0.424684	0.289272	0.053768	0.095103	0.163584	0.275536	0.059528	0.240986	0.159680	0.173992	0.070341	0.103827	0.274428	0.221481	0.150525	0.502102	0.222807	0.256244	0.079199	0.123600	0.709676	0.675476	0.052288	0.169306	0.477769	0.157463
81	0.030273	0.070327	0.400686	0.255217	1.057614	0.805538	0.222234	0.410339	0.101109	0.132301	0.657708	0.659329	0.053473	0.173163	0.314002	0.238631	0.095196	0.156731	0.354110	0.315852	0.047019	0.150471	0.318366	0.197899	1.189514	0.917901	0.282838	0.340619	0.072539	0.294423	0.189968	0.173744	0.720532	0.565505	0.687865	0.421754	0.774099	0.579661	0.063018	0.070030	0.043503	0.056687	0.047144	0.192670	0.337010	0.319072	0.235861	0.151819	0.083005	0.135011	0.681487	0.206947	0.206153	0.172253	0.352215	0.235857	0.051545	0.092157	0.165849	0.265048	0.059508	0.227001	0.158110	0.176551	0.068819	0.100767	0.276228	0.201922	0.164488	0.500133	0.213805	0.248253	0.103031	0.136830	0.709567	0.688887	0.058060	0.184799	0.473168	0.165014
82	0.030957	0.070665	0.403350	0.245621	1.002787	0.788331	0.227606	0.402904	0.093597	0.129049	0.622323	0.673938	0.048626	0.174009	0.318300	0.245003	0.104660	0.169215	0.368835	0.344726	0.047840	0.150445	0.325875	0.185445	1.190757	0.917929	0.311609	0.388078	0.075919	0.296029	0.184079	0.166817	0.689197	0.536226	0.706029	0.417958	0.775904	0.579519	0.054381	0.075340	0.044592	0.061346	0.051652	0.218475	0.333384	0.324734	0.225106	0.165861	0.097634	0.149600	0.765627	0.343400	0.203084	0.170904	0.345993	0.235793	0.056522	0.100062	0.181390	0.293826	0.058750	0.218832	0.161810	0.196780	0.068132	0.101128	0.260524	0.193041	0.167828	0.501209	0.192338	0.231730	0.105659	0.135264	0.712475	0.686187	0.059547	0.186653	0.445408	0.158816
83	0.030514	0.073563	0.485279	0.245748	0.944947	0.767533	0.219931	0.395838	0.070771	0.105083	0.502961	0.543351	0.044236	0.166912	0.322740	0.248400	0.097653	0.159626	0.352019	0.340606	0.045582	0.140495	0.286807	0.154728	1.176759	0.906225	0.372406	0.435346	0.074426	0.295989	0.219050	0.154533	0.634599	0.499011	0.747469	0.426795	0.752696	0.550729	0.051811	0.081758	0.043190	0.063234	0.068446	0.209209	0.329528	0.336653	0.219841	0.180051	0.139389	0.192221	0.732733	0.365850	0.178569	0.141443	0.328055	0.212218	0.062568	0.116390	0.188704	0.335087	0.063778	0.220787	0.162288	0.220101	0.067952	0.103261	0.271475	0.205800	0.164875	0.485368	0.192951	0.224135	0.108518	0.142431	0.701389	0.689209	0.059530	0.182589	0.438739	0.163302
84	0.045131	0.095227	0.712858	0.252620	0.916118	0.760385	0.220292	0.402135	0.048882	0.075318	0.334199	0.374591	0.043468	0.163273	0.323195	0.248175	0.094123	0.154226	0.298622	0.312898	0.047892	0.136548	0.225513	0.124897	1.092041	0.840882	0.473362	0.473867	0.072645	0.290843	0.222814	0.141180	0.614980	0.496180	0.757800	0.459063	0.662223	0.447867	0.051515	0.081890	0.041073	0.061608	0.122044	0.200392	0.312878	0.326687	0.218103	0.185805	0.159203	0.208659	0.729465	0.369500	0.158948	0.119917	0.306126	0.162199	0.066561	0.118542	0.158208	0.332163	0.068964	0.230195	0.165448	0.221455	0.075410	0.118586	0.287476	0.223314	0.161274	0.401996	0.192092	0.221771	0.110572	0.143841	0.703409	0.660371	0.054435	0.172530	0.441627	0.165121
85	0.057479	0.113311	0.738169	0.235278	0.861387	0.708869	0.235854	0.448025	0.046391	0.070183	0.235925	0.302116	0.040591	0.128529	0.339337	0.254348	0.091115	0.142292	0.332031	0.283556	0.055922	0.133394	0.207772	0.116834	0.962419	0.743864	0.510178	0.481352	0.061542	0.261587	0.225523	0.139784	0.606804	0.498810	0.749805	0.494746	0.600958	0.405372	0.057671	0.077489	0.040077	0.076154	0.265518	0.269681	0.307942	0.329844	0.212427	0.189115	0.169577	0.214297	0.741575	0.452332	0.144862	0.110518	0.233935	0.114880	0.070302	0.129194	0.254979	0.354490	0.070344	0.227453	0.164036	0.216828	0.087603	0.131637	0.283070	0.244839	0.167844	0.362236	0.190001	0.220301	0.104021	0.136806	0.680678	0.600144	0.054641	0.173049	0.399802	0.153718
86	0.060835	0.117257	0.741833	0.230891	0.933347	0.821294	0.297198	0.510133	0.039821	0.067590	0.222017	0.295740	0.049179	0.119390	0.433302	0.243493	0.080811	0.126685	0.396882	0.313713	0.057861	0.129566	0.205807	0.120097	0.861860	0.690804	0.501852	0.490016	0.055270	0.233675	0.237181	0.140334	0.535843	0.437301	0.637185	0.509850	0.601186	0.402157	0.060480	0.069436	0.048510	0.092988	0.301213	0.266294	0.277434	0.315380	0.206276	0.188619	0.202981	0.256801	0.747916	0.522401	0.111421	0.104782	0.149058	0.113972	0.097219	0.171923	0.266571	0.427590	0.074371	0.229648	0.161233	0.218717	0.091175	0.135755	0.256000	0.234866	0.172831	0.300591	0.181853	0.216282	0.105449	0.142586	0.697450	0.607817	0.060846	0.182712	0.284705	0.139325
87	0.066194	0.123276	0.771393	0.227940	1.192211	1.021113	0.347523	0.555945	0.038734	0.066732	0.200804	0.295911	0.051812	0.117229	0.452907	0.213721	0.096424	0.138890	0.379313	0.334247	0.067540	0.126304	0.205811	0.122026	0.798962	0.643871	0.504410	0.560851	0.051933	0.217963	0.255312	0.147758	0.251529	0.259770	0.465841	0.479035	0.399787	0.261513	0.077932	0.066402	0.049946	0.099494	0.301810	0.287388	0.193431	0.263511	0.201581	0.187951	0.216825	0.278260	0.728896	0.544250	0.098858	0.104003	0.146457	0.106819	0.099736	0.179926	0.265122	0.445389	0.074505	0.228213	0.193547	0.218573	0.086401	0.133900	0.256428	0.268585	0.170049	0.221975	0.145736	0.191133	0.109366	0.143021	0.558205	0.527076	0.064083	0.183319	0.199955	0.132539
88	0.066924	0.122445	0.766341	0.218504	1.401033	1.154773	0.367272	0.560656	0.037062	0.063360	0.166159	0.287090	0.051676	0.124090	0.455636	0.201959	0.097882	0.141479	0.368923	0.334645	0.070885	0.111700	0.205142	0.120071	0.391372	0.269168	0.511571	0.651391	0.044023	0.153676	0.265963	0.155013	0.184698	0.230474	0.457146	0.456324	0.323677	0.203454	0.101229	0.066714	0.073460	0.153637	0.367246	0.378324	0.114769	0.211843	0.191561	0.176777	0.216307	0.278225	0.716086	0.577253	0.096210	0.101050	0.140850	0.096948	0.095982	0.175795	0.296155	0.419922	0.071562	0.193521	0.201413	0.205972	0.080553	0.127764	0.255502	0.294157	0.167760	0.215810	0.158453	0.168588	0.101199	0.133604	0.498811	0.330831	0.070444	0.185725	0.171620	0.130692
89	0.067654	0.120082	0.765950	0.218256	1.510776	1.225498	0.365248	0.523136	0.038260	0.063258	0.105935	0.206756	0.052735	0.139567	0.490291	0.213145	0.095993	0.137585	0.364001	0.330222	0.080952	0.105878	0.185917	0.119920	0.293177	0.192679	0.519910	0.691235	0.045905	0.110686	0.259244	0.149284	0.174022	0.225140	0.448068	0.473466	0.186638	0.127696	0.099704	0.093475	0.079260	0.159211	0.396871	0.377258	0.112487	0.198904	0.139776	0.147277	0.220805	0.283105	0.720910	0.581838	0.087805	0.100264	0.139372	0.093757	0.086965	0.154008	0.309971	0.346564	0.078814	0.147394	0.176984	0.183191	0.077198	0.123720	0.255099	0.324820	0.166678	0.214941	0.141048	0.140201	0.073472	0.117195	0.596911	0.352589	0.074338	0.183795	0.169819	0.131214
90	0.070017	0.118968	0.786254	0.234752	2.011109	1.672772	0.350304	0.469160	0.039130	0.061575	0.074957	0.152918	0.061714	0.140005	0.510935	0.237362	0.081133	0.126384	0.403397	0.348904	0.116959	0.113473	0.163409	0.118856	0.204895	0.181537	0.531850	0.681637	0.044867	0.107728	0.235591	0.122020	0.166480	0.229077	0.453003	0.533391	0.137287	0.112347	0.099407	0.131140	0.081545	0.160836	0.398283	0.387380	0.112094	0.200018	0.133272	0.130793	0.226634	0.285226	0.749096	0.589226	0.087538	0.098296	0.113039	0.103599	0.078889	0.148351	0.312345	0.332870	0.096542	0.140708	0.167921	0.178625	0.083062	0.131494	0.258398	0.418182	0.151412	0.191542	0.134350	0.127734	0.074869	0.119608	0.629797	0.505120	0.085879	0.177214	0.149486	0.128381
91	0.074076	0.127249	0.798215	0.261505	2.151713	1.771520	0.362819	0.466652	0.047897	0.066996	0.072317	0.146317	0.074012	0.133853	0.527209	0.263752	0.074185	0.117444	0.429996	0.413840	0.120064	0.104447	0.161370	0.100356	0.185265	0.180911	0.526103	0.647369	0.042410	0.100360	0.228124	0.090000	0.167238	0.227531	0.502023	0.582543	0.109785	0.109123	0.103332	0.173541	0.085090	0.159009	0.373375	0.366644	0.111952	0.205245	0.073974	0.132370	0.226233	0.285131	0.690328	0.556730	0.087583	0.109716	0.099509	0.108122	0.079215	0.155700	0.297983	0.358406	0.098546	0.142001	0.158596	0.179711	0.114713	0.168562	0.257805	0.463432	0.125816	0.164357	0.134098	0.120790	0.101974	0.136644	0.646465	0.522554	0.079935	0.160861	0.125584	0.106098
92	0.075845	0.130744	0.846187	0.259399	2.161158	1.781035	0.364961	0.475864	0.051007	0.063335	0.060097	0.145170	0.080534	0.130095	0.519029	0.266590	0.099183	0.151009	0.408623	0.443271	0.119720	0.091125	0.148437	0.084366	0.177044	0.180111	0.493938	0.610497	0.041883	0.099137	0.225567	0.081175	0.171608	0.230114	0.541036	0.628865	0.094963	0.117541	0.121075	0.236561	0.077316	0.146463	0.319693	0.352471	0.110359	0.198869	0.040735	0.125902	0.212410	0.268957	0.499007	0.512989	0.083910	0.109946	0.100283	0.112567	0.065203	0.128826	0.310768	0.382905	0.100870	0.145215	0.162546	0.157596	0.128223	0.189931	0.258649	0.466933	0.110101	0.140441	0.137453	0.101562	0.114128	0.145817	0.577747	0.525237	0.077141	0.178020	0.106208	0.092076
93	0.073225	0.124708	0.672847	0.204219	2.162260	1.780410	0.364916	0.476589	0.065167	0.069599	0.099926	0.142962	0.087862	0.192110	0.510710	0.267500	0.107129	0.164996	0.405271	0.445096	0.119131	0.088780	0.115702	0.082396	0.176989	0.178532	0.425705	0.565423	0.037209	0.090832	0.223684	0.080833	0.173008	0.228607	0.567399	0.655002	0.094399	0.122065	0.211604	0.260667	0.077674	0.145795	0.327499	0.344240	0.102582	0.169603	0.026648	0.099586	0.191607	0.242821	0.472749	0.535797	0.083469	0.131297	0.100351	0.100797	0.081591	0.138819	0.342444	0.368817	0.098932	0.133513	0.163236	0.112821	0.131909	0.191538	0.235837	0.466387	0.107865	0.134891	0.140021	0.081329	0.118706	0.161153	0.591137	0.631558	0.076334	0.182204	0.105209	0.091836
94	0.059665	0.101768	0.588902	0.197128	2.162563	1.779440	0.381170	0.475713	0.065433	0.069772	0.312705	0.187659	0.104339	0.368125	0.509453	0.263493	0.113798	0.174458	0.382510	0.431896	0.117742	0.087852	0.103107	0.081937	0.176172	0.173345	0.320538	0.535295	0.032224	0.088335	0.205006	0.080595	0.172345	0.229560	0.515692	0.656693	0.086340	0.116595	0.228014	0.273060	0.058902	0.086758	0.289219	0.245742	0.086403	0.138985	0.027406	0.080309	0.181816	0.236348	0.487004	0.599195	0.081796	0.136392	0.089807	0.098368	0.099170	0.166259	0.311799	0.447966	0.095718	0.117128	0.164462	0.099960	0.141377	0.192227	0.221385	0.460193	0.100485	0.129167	0.138002	0.039114	0.154914	0.209103	0.638265	0.735198	0.080727	0.233040	0.110674	0.086315
95	0.062528	0.097540	0.588491	0.196440	2.164354	1.781574	0.383711	0.473743	0.066528	0.077474	0.344113	0.280003	0.109162	0.495798	0.505839	0.258323	0.111221	0.169501	0.377654	0.391895	0.114074	0.086441	0.096603	0.068868	0.173375	0.172035	0.320458	0.536375	0.034490	0.086365	0.169037	0.077862	0.168260	0.225421	0.456881	0.674168	0.082835	0.121330	0.244492	0.319253	0.060557	0.090488	0.241569	0.255921	0.070731	0.118554	0.026739	0.067120	0.166539	0.223027	0.476731	0.542764	0.069481	0.136539	0.092956	0.145337	0.099880	0.165749	0.350115	0.498412	0.094282	0.105803	0.163890	0.100986	0.136540	0.181974	0.271860	0.448641	0.091256	0.119009	0.136427	0.021971	0.173924	0.229528	0.685029	0.757248	0.081725	0.248280	0.103312	0.130292
96	0.070471	0.105870	0.550143	0.197334	2.161943	1.776262	0.377354	0.441374	0.111049	0.141220	0.376622	0.442414	0.122673	0.507724	0.505448	0.258110	0.112773	0.167053	0.453014	0.376899	0.111886	0.085854	0.086511	0.054508	0.164334	0.168616	0.316627	0.514782	0.034951	0.083002	0.167547	0.078914	0.167250	0.222056	0.508432	0.657025	0.080090	0.129753	0.286152	0.359020	0.058272	0.094715	0.230688	0.262736	0.078480	0.099894	0.028206	0.055276	0.124103	0.166307	0.469834	0.568138	0.062452	0.131403	0.100234	0.192310	0.099249	0.162446	0.358316	0.493610	0.090690	0.098947	0.162848	0.095476	0.132921	0.172636	0.342915	0.472359	0.063767	0.084653	0.131804	0.018281	0.180071	0.235381	0.677628	0.794087	0.085582	0.245515	0.097422	0.162134
97	0.069650	0.108866	0.515355	0.194927	2.091908	1.697507	0.340906	0.367577	0.118008	0.145754	0.420067	0.465250	0.140889	0.599384	0.502054	0.253775	0.122498	0.173558	0.484111	0.377945	0.109288	0.082225	0.085162	0.043029	0.152283	0.159519	0.359209	0.424058	0.032928	0.070932	0.161536	0.078319	0.163601	0.217117	0.559787	0.620049	0.084075	0.144346	0.299998	0.384652	0.053150	0.091611	0.188647	0.215560	0.093876	0.105722	0.027997	0.050250	0.121762	0.172066	0.469180	0.585882	0.041029	0.116942	0.085427	0.198333	0.097764	0.149242	0.351785	0.456582	0.090508	0.099033	0.123635	0.083093	0.131663	0.169682	0.347069	0.457985	0.036421	0.060055	0.128198	0.015482	0.183101	0.239189	0.589762	0.788412	0.088744	0.239237	0.106876	0.164869
98	0.070213	0.114447	0.485692	0.195812	1.915065	1.548215	0.279033	0.280582	0.124868	0.150002	0.656027	0.508165	0.140736	0.620799	0.441335	0.235390	0.122993	0.174310	0.497687	0.456051	0.103392	0.078948	0.086539	0.041688	0.133471	0.150187	0.351885	0.388118	0.031743	0.057426	0.141317	0.077881	0.144271	0.203716	0.630794	0.591930	0.093143	0.155765	0.314990	0.392419	0.051479	0.089375	0.183465	0.234637	0.098571	0.107068	0.027563	0.049982	0.126509	0.180634	0.458143	0.567306	0.041523	0.115951	0.092395	0.207980	0.116713	0.154894	0.351661	0.391793	0.090249	0.100513	0.112805	0.071700	0.133242	0.173448	0.366463	0.442099	0.027729	0.055963	0.090133	0.016090	0.178537	0.234263	0.588467	0.706574	0.092882	0.240564	0.116167	0.172287
99	0.068382	0.114129	0.442850	0.219248	1.717613	1.415235	0.244911	0.217638	0.124955	0.154116	0.681376	0.516166	0.137441	0.620528	0.355386	0.225848	0.143650	0.190766	0.472135	0.458279	0.101177	0.075736	0.078836	0.044474	0.092299	0.118673	0.335465	0.425632	0.029162	0.039560	0.103953	0.057554	0.125256	0.194613	0.726695	0.588480	0.093082	0.156742	0.319431	0.388546	0.060933	0.108543	0.174797	0.286729	0.105405	0.113286	0.027163	0.048952	0.112702	0.174900	0.461866	0.568261	0.042135	0.115344	0.110873	0.233865	0.111160	0.137081	0.401917	0.381970	0.079448	0.111194	0.116446	0.066486	0.133180	0.173537	0.366260	0.435909	0.024857	0.056193	0.058978	0.016029	0.162483	0.220790	0.612371	0.698619	0.089561	0.240910	0.120877	0.195919
100	0.068431	0.112205	0.418218	0.205229	1.597406	1.347351	0.214619	0.199943	0.118713	0.153236	0.681204	0.531223	0.136703	0.620659	0.350005	0.226197	0.169553	0.238813	0.566411	0.417989	0.071820	0.051144	0.072474	0.040795	0.090991	0.119904	0.328904	0.418083	0.029009	0.039163	0.078162	0.039957	0.112948	0.188883	0.743033	0.612179	0.093683	0.156010	0.325283	0.377630	0.065781	0.123482	0.185541	0.291587	0.110268	0.113947	0.027616	0.047792	0.107101	0.171985	0.421388	0.565524	0.043184	0.118820	0.129196	0.267445	0.098773	0.102821	0.476014	0.362319	0.048421	0.090595	0.121773	0.070210	0.132408	0.170710	0.368672	0.365386	0.028143	0.060354	0.056728	0.014132	0.165591	0.239859	0.634717	0.696377	0.119685	0.261659	0.126163	0.225294
101	0.076663	0.113340	0.282793	0.198548	1.023958	0.819840	0.210765	0.193282	0.125993	0.158009	0.638147	0.527931	0.137041	0.620501	0.298957	0.221600	0.188979	0.234851	0.618703	0.394660	0.033189	0.032766	0.054018	0.030606	0.091583	0.121953	0.334244	0.436659	0.025637	0.040730	0.061101	0.039245	0.114590	0.195353	0.736528	0.587267	0.093818	0.149286	0.328924	0.359415	0.059893	0.112942	0.133633	0.254506	0.112283	0.109494	0.027083	0.041514	0.107129	0.162962	0.407412	0.548419	0.044754	0.120991	0.129598	0.269596	0.101533	0.107736	0.468505	0.303466	0.045563	0.093566	0.110273	0.095905	0.109235	0.144614	0.368692	0.316391	0.035067	0.062725	0.048064	0.014741	0.162040	0.233874	0.600128	0.591146	0.139267	0.281931	0.126905	0.241204
