	313_At_T2_sh_R_ND_01.c3d	313_At_T2_sh_R_ND_01.c3d	313_At_T2_sh_R_ND_01.c3d	313_At_T2_sh_R_ND_01.c3d	313_At_T2_sh_R_ND_01.c3d	313_At_T2_sh_R_ND_01.c3d	313_At_T2_sh_R_ND_01.c3d	313_At_T2_sh_R_ND_01.c3d	313_At_T2_sh_R_ND_02.c3d	313_At_T2_sh_R_ND_02.c3d	313_At_T2_sh_R_ND_02.c3d	313_At_T2_sh_R_ND_02.c3d	313_At_T2_sh_R_ND_02.c3d	313_At_T2_sh_R_ND_02.c3d	313_At_T2_sh_R_ND_02.c3d	313_At_T2_sh_R_ND_02.c3d	313_At_T2_sh_R_ND_03.c3d	313_At_T2_sh_R_ND_03.c3d	313_At_T2_sh_R_ND_03.c3d	313_At_T2_sh_R_ND_03.c3d	313_At_T2_sh_R_ND_03.c3d	313_At_T2_sh_R_ND_03.c3d	313_At_T2_sh_R_ND_03.c3d	313_At_T2_sh_R_ND_03.c3d	313_At_T2_sh_R_ND_04.c3d	313_At_T2_sh_R_ND_04.c3d	313_At_T2_sh_R_ND_04.c3d	313_At_T2_sh_R_ND_04.c3d	313_At_T2_sh_R_ND_04.c3d	313_At_T2_sh_R_ND_04.c3d	313_At_T2_sh_R_ND_04.c3d	313_At_T2_sh_R_ND_04.c3d	313_At_T2_sh_R_ND_05.c3d	313_At_T2_sh_R_ND_05.c3d	313_At_T2_sh_R_ND_05.c3d	313_At_T2_sh_R_ND_05.c3d	313_At_T2_sh_R_ND_05.c3d	313_At_T2_sh_R_ND_05.c3d	313_At_T2_sh_R_ND_05.c3d	313_At_T2_sh_R_ND_05.c3d	313_At_T2_sh_R_ND_07.c3d	313_At_T2_sh_R_ND_07.c3d	313_At_T2_sh_R_ND_07.c3d	313_At_T2_sh_R_ND_07.c3d	313_At_T2_sh_R_ND_07.c3d	313_At_T2_sh_R_ND_07.c3d	313_At_T2_sh_R_ND_07.c3d	313_At_T2_sh_R_ND_07.c3d	313_At_T2_sh_R_ND_08.c3d	313_At_T2_sh_R_ND_08.c3d	313_At_T2_sh_R_ND_08.c3d	313_At_T2_sh_R_ND_08.c3d	313_At_T2_sh_R_ND_08.c3d	313_At_T2_sh_R_ND_08.c3d	313_At_T2_sh_R_ND_08.c3d	313_At_T2_sh_R_ND_08.c3d	313_At_T2_sh_R_ND_10.c3d	313_At_T2_sh_R_ND_10.c3d	313_At_T2_sh_R_ND_10.c3d	313_At_T2_sh_R_ND_10.c3d	313_At_T2_sh_R_ND_10.c3d	313_At_T2_sh_R_ND_10.c3d	313_At_T2_sh_R_ND_10.c3d	313_At_T2_sh_R_ND_10.c3d
	Biceps femoris_lat	Semitendinosus_lat	Vastus lateralis_lat	Vastus medialis_lat	Biceps femoris_med	Semitendinosus_med	Vastus lateralis_med	Vastus medialis_med	Biceps femoris_lat	Semitendinosus_lat	Vastus lateralis_lat	Vastus medialis_lat	Biceps femoris_med	Semitendinosus_med	Vastus lateralis_med	Vastus medialis_med	Biceps femoris_lat	Semitendinosus_lat	Vastus lateralis_lat	Vastus medialis_lat	Biceps femoris_med	Semitendinosus_med	Vastus lateralis_med	Vastus medialis_med	Biceps femoris_lat	Semitendinosus_lat	Vastus lateralis_lat	Vastus medialis_lat	Biceps femoris_med	Semitendinosus_med	Vastus lateralis_med	Vastus medialis_med	Biceps femoris_lat	Semitendinosus_lat	Vastus lateralis_lat	Vastus medialis_lat	Biceps femoris_med	Semitendinosus_med	Vastus lateralis_med	Vastus medialis_med	Biceps femoris_lat	Semitendinosus_lat	Vastus lateralis_lat	Vastus medialis_lat	Biceps femoris_med	Semitendinosus_med	Vastus lateralis_med	Vastus medialis_med	Biceps femoris_lat	Semitendinosus_lat	Vastus lateralis_lat	Vastus medialis_lat	Biceps femoris_med	Semitendinosus_med	Vastus lateralis_med	Vastus medialis_med	Biceps femoris_lat	Semitendinosus_lat	Vastus lateralis_lat	Vastus medialis_lat	Biceps femoris_med	Semitendinosus_med	Vastus lateralis_med	Vastus medialis_med
	P2D	P2D	P2D	P2D	P2D	P2D	P2D	P2D	P2D	P2D	P2D	P2D	P2D	P2D	P2D	P2D	P2D	P2D	P2D	P2D	P2D	P2D	P2D	P2D	P2D	P2D	P2D	P2D	P2D	P2D	P2D	P2D	P2D	P2D	P2D	P2D	P2D	P2D	P2D	P2D	P2D	P2D	P2D	P2D	P2D	P2D	P2D	P2D	P2D	P2D	P2D	P2D	P2D	P2D	P2D	P2D	P2D	P2D	P2D	P2D	P2D	P2D	P2D	P2D
	EMG_lat	EMG_lat	EMG_lat	EMG_lat	EMG_med	EMG_med	EMG_med	EMG_med	EMG_lat	EMG_lat	EMG_lat	EMG_lat	EMG_med	EMG_med	EMG_med	EMG_med	EMG_lat	EMG_lat	EMG_lat	EMG_lat	EMG_med	EMG_med	EMG_med	EMG_med	EMG_lat	EMG_lat	EMG_lat	EMG_lat	EMG_med	EMG_med	EMG_med	EMG_med	EMG_lat	EMG_lat	EMG_lat	EMG_lat	EMG_med	EMG_med	EMG_med	EMG_med	EMG_lat	EMG_lat	EMG_lat	EMG_lat	EMG_med	EMG_med	EMG_med	EMG_med	EMG_lat	EMG_lat	EMG_lat	EMG_lat	EMG_med	EMG_med	EMG_med	EMG_med	EMG_lat	EMG_lat	EMG_lat	EMG_lat	EMG_med	EMG_med	EMG_med	EMG_med
ITEM	Y	Y	Y	Y	Y	Y	Y	Y	Y	Y	Y	Y	Y	Y	Y	Y	Y	Y	Y	Y	Y	Y	Y	Y	Y	Y	Y	Y	Y	Y	Y	Y	Y	Y	Y	Y	Y	Y	Y	Y	Y	Y	Y	Y	Y	Y	Y	Y	Y	Y	Y	Y	Y	Y	Y	Y	Y	Y	Y	Y	Y	Y	Y	Y
1	0.181829	0.243065	0.152385	0.217756	0.051807	0.212293	0.117842	0.152968	0.099823	0.190246	0.083238	0.093848	0.039054	0.093392	0.197338	0.197043	0.247406	0.499230	0.064128	0.244063	0.036267	0.091650	0.168077	0.189456	0.104070	0.370500	0.120052	0.108360	0.184435	0.315620	0.296946	0.373387	0.156507	0.345023	0.066610	0.144407	0.079567	0.308383	0.144650	0.309194	0.124575	0.265594	0.074456	0.185086	0.090366	0.238588	0.121690	0.150390	0.081666	0.211659	0.151571	0.220484	0.033177	0.119563	0.089653	0.190589	0.056383	0.164623	0.062289	0.207479	0.072448	0.165645	0.143075	0.149546
2	0.183670	0.275110	0.154217	0.242727	0.051101	0.210683	0.118843	0.148384	0.097089	0.179655	0.097388	0.093786	0.044918	0.109743	0.203899	0.194028	0.240445	0.468590	0.067685	0.245551	0.038196	0.101301	0.169809	0.190199	0.082429	0.319712	0.130194	0.124526	0.190835	0.277347	0.311060	0.367381	0.156116	0.304197	0.070307	0.218310	0.069183	0.281994	0.145260	0.315840	0.112525	0.247212	0.073187	0.178729	0.095992	0.238472	0.120119	0.175117	0.081041	0.226747	0.124268	0.229919	0.037610	0.126876	0.092685	0.186861	0.046475	0.161059	0.056068	0.228176	0.076002	0.171279	0.152528	0.143864
3	0.183217	0.287510	0.154804	0.225049	0.045685	0.182274	0.115799	0.150828	0.083117	0.143879	0.096476	0.098876	0.068822	0.149710	0.204893	0.182383	0.169458	0.404867	0.070663	0.258316	0.038105	0.134932	0.165230	0.198938	0.087129	0.272437	0.130491	0.165634	0.221963	0.243779	0.291359	0.356468	0.129700	0.226471	0.079308	0.239748	0.069255	0.286092	0.164006	0.327546	0.111231	0.210041	0.075001	0.125377	0.095133	0.238440	0.128037	0.186630	0.079906	0.228430	0.117814	0.235623	0.034597	0.122692	0.101333	0.209846	0.049962	0.179247	0.062698	0.233514	0.072936	0.186148	0.150243	0.150102
4	0.182317	0.291959	0.155485	0.209699	0.036027	0.123302	0.113833	0.152871	0.054830	0.106430	0.112037	0.102863	0.067042	0.149359	0.195910	0.200215	0.098245	0.347526	0.073641	0.259639	0.039887	0.150716	0.138796	0.216265	0.112096	0.284369	0.126221	0.304833	0.223248	0.305246	0.248913	0.379026	0.085085	0.181065	0.077541	0.261277	0.058604	0.241977	0.168736	0.317738	0.095771	0.195146	0.161968	0.149283	0.107354	0.246479	0.136537	0.176125	0.078718	0.242949	0.116763	0.242502	0.035218	0.101375	0.099546	0.187391	0.048653	0.204587	0.066748	0.250037	0.070385	0.187285	0.152157	0.152529
5	0.171096	0.289545	0.149594	0.215896	0.035236	0.119768	0.122198	0.159374	0.054543	0.107547	0.125790	0.112197	0.073544	0.170100	0.177087	0.267203	0.096844	0.339634	0.076876	0.240800	0.045187	0.149931	0.105441	0.225663	0.133263	0.299921	0.126473	0.537619	0.203920	0.355781	0.279351	0.466246	0.066720	0.163766	0.079023	0.261781	0.050597	0.214858	0.156535	0.245778	0.083430	0.201219	0.266249	0.156348	0.108706	0.243203	0.099824	0.188807	0.075079	0.212950	0.111804	0.259062	0.032464	0.091336	0.103440	0.157595	0.048671	0.195152	0.076039	0.280292	0.070158	0.186528	0.163395	0.173199
6	0.166792	0.300226	0.147971	0.242438	0.036758	0.105355	0.138394	0.168437	0.055636	0.099441	0.125139	0.119285	0.073441	0.170959	0.150360	0.271080	0.131790	0.370372	0.075623	0.225872	0.055564	0.212346	0.094500	0.220201	0.152054	0.378076	0.139802	0.553934	0.205770	0.363488	0.301791	0.481248	0.067877	0.170459	0.072035	0.300729	0.050126	0.211321	0.149118	0.248417	0.063537	0.203805	0.272528	0.150163	0.103839	0.209734	0.113927	0.323717	0.068169	0.189834	0.100043	0.260970	0.032348	0.090505	0.125821	0.201146	0.057068	0.219814	0.082829	0.306298	0.070023	0.185757	0.210268	0.235319
7	0.165420	0.300174	0.138105	0.256060	0.057096	0.111465	0.137342	0.162487	0.054957	0.090966	0.137970	0.119534	0.076380	0.185932	0.161398	0.280674	0.139531	0.452092	0.056695	0.221771	0.057615	0.219257	0.092117	0.189613	0.154490	0.479746	0.152970	0.656548	0.210372	0.416750	0.296414	0.474963	0.068805	0.165767	0.071104	0.309125	0.048583	0.181508	0.172367	0.248378	0.058227	0.204752	0.281751	0.144556	0.095674	0.184071	0.212646	0.321085	0.050775	0.174590	0.096659	0.279056	0.032817	0.087472	0.138228	0.211816	0.052239	0.212456	0.113622	0.289696	0.069853	0.163626	0.355376	0.244004
8	0.136476	0.282235	0.119697	0.257807	0.079241	0.116067	0.146068	0.158201	0.048764	0.072266	0.150093	0.100858	0.082700	0.173114	0.214963	0.297701	0.133824	0.460793	0.053096	0.260688	0.071685	0.221662	0.086719	0.161320	0.154501	0.483548	0.149405	0.727918	0.213182	0.462161	0.304303	0.506985	0.068557	0.172425	0.123795	0.327294	0.044403	0.145368	0.182813	0.229567	0.059184	0.204168	0.342011	0.148775	0.083995	0.169029	0.230043	0.387318	0.037835	0.162178	0.094285	0.270981	0.032693	0.088106	0.145083	0.215367	0.051595	0.208770	0.121098	0.270447	0.069884	0.139589	0.385616	0.254233
9	0.133649	0.289382	0.120047	0.301546	0.098100	0.119717	0.148628	0.166340	0.039429	0.053028	0.155553	0.095332	0.093013	0.174036	0.401868	0.283924	0.142117	0.473585	0.051209	0.291521	0.073134	0.221802	0.084190	0.162133	0.160557	0.510657	0.153589	0.736134	0.218235	0.473712	0.296973	0.484245	0.063736	0.170732	0.130137	0.348526	0.032886	0.121896	0.178159	0.167772	0.056273	0.174824	0.372415	0.157767	0.078680	0.151545	0.232074	0.391035	0.041125	0.162018	0.104551	0.290521	0.032581	0.078603	0.172340	0.268723	0.051262	0.204948	0.126660	0.289054	0.077587	0.129211	0.396248	0.267445
10	0.105199	0.289206	0.124836	0.497346	0.110592	0.134589	0.159543	0.201144	0.035375	0.049570	0.139716	0.094701	0.114296	0.137844	0.445538	0.284012	0.148326	0.485761	0.054651	0.250855	0.072236	0.216984	0.085948	0.168313	0.169521	0.526069	0.148639	0.744705	0.220302	0.479059	0.274457	0.522867	0.059393	0.153232	0.164657	0.320636	0.032689	0.132483	0.171236	0.158795	0.057721	0.162186	0.376107	0.158308	0.073218	0.140857	0.255470	0.425918	0.040919	0.156225	0.116797	0.287448	0.031860	0.073512	0.203381	0.328872	0.055611	0.204325	0.150196	0.317214	0.088123	0.120568	0.418157	0.268684
11	0.068188	0.250224	0.198508	0.548266	0.112435	0.137299	0.165608	0.211671	0.031599	0.048640	0.137614	0.098695	0.148136	0.161700	0.557218	0.335178	0.151498	0.494817	0.055286	0.244379	0.069857	0.210943	0.111623	0.174554	0.177611	0.553903	0.173822	0.747412	0.211298	0.485663	0.248035	0.549998	0.055206	0.118593	0.202315	0.324294	0.044297	0.159426	0.165568	0.135377	0.062468	0.165362	0.368601	0.191018	0.057482	0.122122	0.266643	0.450687	0.047749	0.147732	0.139315	0.283679	0.026785	0.053636	0.203413	0.355694	0.063863	0.206145	0.172094	0.309300	0.089508	0.136997	0.500775	0.266743
12	0.064864	0.236444	0.238097	0.576081	0.115158	0.140303	0.173595	0.216706	0.029175	0.049490	0.143247	0.116068	0.186826	0.181684	0.694079	0.315021	0.154962	0.497753	0.051648	0.229956	0.068119	0.209224	0.111693	0.175302	0.184435	0.572260	0.184431	0.755265	0.187123	0.480370	0.261674	0.567646	0.054169	0.106343	0.212082	0.293839	0.045793	0.152208	0.148514	0.165731	0.056809	0.158277	0.304139	0.185866	0.049259	0.104997	0.278144	0.463094	0.073552	0.236853	0.152397	0.295366	0.044670	0.069425	0.214024	0.340308	0.070927	0.221783	0.173862	0.294638	0.104837	0.133475	0.556993	0.296579
13	0.065155	0.228308	0.252815	0.647586	0.120115	0.139117	0.166926	0.216702	0.031979	0.055466	0.138142	0.120464	0.202848	0.182097	0.729137	0.313964	0.155157	0.498200	0.055851	0.229078	0.070432	0.211662	0.110084	0.171430	0.187111	0.578927	0.181115	0.754616	0.138472	0.442036	0.277214	0.574822	0.054008	0.113321	0.223794	0.292683	0.052890	0.183497	0.160146	0.179721	0.047448	0.142171	0.282973	0.184962	0.041815	0.093456	0.283967	0.423132	0.076844	0.243497	0.181164	0.301298	0.046329	0.070740	0.227339	0.341753	0.068346	0.211313	0.180122	0.295285	0.110141	0.129826	0.582400	0.345379
14	0.064267	0.225561	0.308638	0.703459	0.119753	0.131163	0.149128	0.208192	0.025965	0.052889	0.135527	0.248991	0.202643	0.177610	0.732294	0.318701	0.148476	0.499856	0.059447	0.239958	0.071144	0.240582	0.138689	0.160689	0.182434	0.586880	0.210793	0.748952	0.138091	0.378049	0.260981	0.520719	0.053982	0.102844	0.270401	0.301457	0.054483	0.183557	0.164346	0.172122	0.044559	0.104535	0.281095	0.189387	0.039005	0.082113	0.262260	0.365219	0.090329	0.275395	0.184699	0.292580	0.047986	0.073258	0.233950	0.386433	0.071490	0.198925	0.181059	0.286751	0.110170	0.129381	0.590860	0.367216
15	0.071616	0.221264	0.351636	0.724588	0.119344	0.110267	0.130236	0.233349	0.029611	0.048458	0.132874	0.380707	0.202734	0.167568	0.723131	0.313014	0.114383	0.481461	0.058137	0.245603	0.068463	0.255832	0.174022	0.182210	0.171067	0.584685	0.291997	0.674865	0.125321	0.352056	0.214319	0.470970	0.046407	0.084166	0.299698	0.278815	0.056469	0.183646	0.151657	0.173630	0.041206	0.090000	0.229758	0.180752	0.034435	0.080589	0.196516	0.367514	0.094096	0.279729	0.183795	0.290168	0.047915	0.078165	0.226025	0.369045	0.076007	0.190598	0.177787	0.270005	0.110903	0.129371	0.585179	0.327023
16	0.080705	0.209174	0.374135	0.720517	0.104401	0.102448	0.147023	0.244638	0.032487	0.060560	0.130702	0.391794	0.195896	0.158565	0.691963	0.293818	0.118764	0.416156	0.059388	0.252431	0.072932	0.279046	0.175488	0.189782	0.153707	0.567719	0.331298	0.558339	0.105786	0.304014	0.214884	0.501886	0.046270	0.090387	0.294146	0.307865	0.056274	0.183859	0.132967	0.228052	0.039042	0.083317	0.128293	0.175319	0.034768	0.067441	0.203470	0.356078	0.093980	0.288400	0.184394	0.250037	0.047284	0.082247	0.212714	0.362451	0.070643	0.158275	0.180208	0.254751	0.111312	0.128026	0.540391	0.304323
17	0.078545	0.206573	0.384524	0.717452	0.095813	0.097028	0.181522	0.246656	0.034152	0.065459	0.186039	0.408793	0.190344	0.159695	0.630052	0.295024	0.144425	0.406466	0.061099	0.223405	0.074639	0.269772	0.174099	0.253610	0.141611	0.479494	0.324055	0.522544	0.097655	0.227868	0.208269	0.488283	0.047161	0.088584	0.295309	0.288704	0.053693	0.179507	0.133756	0.226512	0.042148	0.077072	0.101566	0.178359	0.039700	0.066646	0.225343	0.334276	0.095354	0.297579	0.192277	0.190084	0.046901	0.093631	0.206562	0.367170	0.086380	0.203706	0.176336	0.244779	0.111247	0.128532	0.473534	0.296939
18	0.073586	0.200473	0.384838	0.711514	0.065797	0.094523	0.191604	0.238389	0.041959	0.076729	0.216813	0.429841	0.150074	0.130488	0.647602	0.271607	0.149872	0.371171	0.064387	0.168490	0.064691	0.271741	0.171759	0.258499	0.139713	0.394661	0.319879	0.377804	0.081483	0.162506	0.235178	0.470364	0.055965	0.118071	0.316771	0.270380	0.052223	0.175722	0.137869	0.228441	0.030002	0.062073	0.099954	0.164489	0.045841	0.075615	0.263174	0.280037	0.095215	0.303838	0.182581	0.157772	0.051180	0.122453	0.193366	0.348825	0.092689	0.288513	0.179973	0.243316	0.103692	0.125351	0.470342	0.291439
19	0.076640	0.177388	0.387117	0.682743	0.052171	0.084014	0.181456	0.212794	0.043224	0.079158	0.234381	0.454511	0.125853	0.114703	0.492067	0.211257	0.139761	0.240149	0.105085	0.201864	0.067487	0.282241	0.187900	0.323207	0.141365	0.406225	0.319935	0.281832	0.070424	0.144730	0.316979	0.432717	0.055252	0.132260	0.310770	0.269280	0.041776	0.130642	0.122284	0.221569	0.034759	0.071359	0.077074	0.098516	0.047167	0.083735	0.252013	0.244305	0.102628	0.322882	0.170356	0.157528	0.072046	0.119460	0.181776	0.293919	0.116207	0.302753	0.177162	0.230860	0.080222	0.109554	0.468840	0.298286
20	0.087891	0.170155	0.414741	0.566058	0.050188	0.078717	0.175880	0.205568	0.048295	0.081778	0.287790	0.463946	0.053629	0.103975	0.397234	0.180252	0.152968	0.196032	0.191945	0.204456	0.068516	0.288717	0.219529	0.365789	0.132241	0.375667	0.316133	0.257893	0.072626	0.119370	0.323119	0.367574	0.077340	0.216202	0.297254	0.272759	0.042249	0.121541	0.117142	0.204578	0.034603	0.073619	0.053924	0.096685	0.074834	0.209591	0.273012	0.229808	0.114279	0.334996	0.145567	0.145000	0.086266	0.120621	0.179847	0.242804	0.154073	0.355622	0.154226	0.188933	0.076886	0.099566	0.399243	0.301714
21	0.094883	0.179373	0.393764	0.577998	0.037795	0.072494	0.163753	0.205810	0.050910	0.138945	0.314207	0.459237	0.041010	0.104060	0.377475	0.190237	0.168048	0.233443	0.197402	0.205310	0.076469	0.288499	0.233327	0.380669	0.116867	0.340063	0.311718	0.245609	0.076962	0.108921	0.339257	0.339883	0.084064	0.253127	0.294568	0.274047	0.048962	0.095080	0.112095	0.181286	0.034352	0.077094	0.053231	0.085179	0.102550	0.268995	0.281489	0.233521	0.147101	0.344607	0.134091	0.113210	0.089208	0.148650	0.170969	0.247289	0.155363	0.382523	0.129108	0.179768	0.061039	0.074134	0.301238	0.290105
22	0.094419	0.163782	0.382515	0.531180	0.031732	0.095471	0.161107	0.198071	0.051322	0.170780	0.313407	0.454731	0.052888	0.128136	0.378050	0.161570	0.180685	0.314974	0.210381	0.196184	0.085069	0.288852	0.259975	0.390943	0.111800	0.303718	0.294140	0.228526	0.069417	0.112698	0.351701	0.309697	0.093666	0.266625	0.273045	0.265927	0.052933	0.075782	0.093250	0.197721	0.034706	0.086902	0.054400	0.090338	0.131961	0.297236	0.281185	0.243869	0.153508	0.339544	0.101237	0.072833	0.091611	0.171953	0.161698	0.260231	0.158951	0.373882	0.162697	0.178902	0.042440	0.072724	0.316451	0.234516
23	0.097900	0.160239	0.366236	0.441440	0.057411	0.141382	0.159918	0.161986	0.052783	0.194103	0.313086	0.378126	0.053170	0.128142	0.381867	0.140433	0.180550	0.314158	0.224784	0.185911	0.087248	0.282499	0.268366	0.392375	0.151829	0.315175	0.296902	0.209379	0.061954	0.127439	0.349987	0.296760	0.100308	0.277296	0.228437	0.245268	0.049962	0.113924	0.090940	0.251150	0.035078	0.085543	0.057453	0.096855	0.133952	0.313771	0.281459	0.189263	0.163278	0.345389	0.092452	0.064913	0.092007	0.181970	0.154312	0.201367	0.164712	0.372143	0.226813	0.173109	0.043912	0.130053	0.377053	0.209841
24	0.103396	0.159283	0.317242	0.356740	0.074817	0.152141	0.162438	0.119579	0.062803	0.196942	0.313129	0.263607	0.057962	0.132198	0.368232	0.136968	0.181182	0.311615	0.241405	0.178613	0.085519	0.247405	0.264969	0.392573	0.165602	0.301360	0.314437	0.193881	0.061916	0.124360	0.351295	0.295312	0.154001	0.276216	0.261019	0.253871	0.050483	0.131254	0.088428	0.219919	0.028098	0.087109	0.062618	0.121203	0.137656	0.340809	0.282275	0.157750	0.172517	0.360083	0.091401	0.077325	0.092767	0.183743	0.151113	0.169541	0.162762	0.358591	0.232744	0.167598	0.045778	0.136871	0.371343	0.198989
25	0.099626	0.157102	0.277460	0.326894	0.076410	0.159143	0.223202	0.286311	0.070016	0.196517	0.301102	0.256632	0.060288	0.133016	0.249958	0.118440	0.171061	0.307209	0.248413	0.201396	0.085473	0.219521	0.241271	0.373125	0.160040	0.288505	0.297958	0.168332	0.070451	0.128395	0.347384	0.303681	0.222250	0.270267	0.294072	0.243639	0.050557	0.136714	0.078486	0.216780	0.039459	0.098212	0.061928	0.142903	0.141006	0.365039	0.261793	0.173169	0.173861	0.354715	0.121296	0.075812	0.094634	0.184287	0.151716	0.157928	0.160652	0.356155	0.250785	0.151066	0.045470	0.145523	0.371458	0.192941
26	0.096452	0.150812	0.263517	0.333336	0.081229	0.164044	0.213251	0.296775	0.068497	0.195984	0.263869	0.240183	0.059736	0.130885	0.248232	0.115894	0.155331	0.302137	0.250307	0.217816	0.077541	0.166418	0.237812	0.373076	0.161359	0.294828	0.264059	0.132533	0.075975	0.138678	0.350911	0.168304	0.239597	0.268212	0.276494	0.245216	0.061179	0.148253	0.067502	0.224611	0.052604	0.163345	0.057332	0.153740	0.149908	0.371774	0.226035	0.174366	0.172631	0.369437	0.217564	0.108629	0.098320	0.199341	0.159345	0.139466	0.160442	0.356154	0.255812	0.124112	0.045572	0.146924	0.396240	0.202670
27	0.099851	0.135142	0.258726	0.335488	0.081360	0.167721	0.220685	0.313926	0.064333	0.191675	0.256692	0.221222	0.060722	0.104694	0.235441	0.102400	0.142960	0.292568	0.249951	0.219026	0.075097	0.125340	0.238576	0.335223	0.161287	0.294976	0.245888	0.137305	0.089857	0.160317	0.347951	0.141361	0.293633	0.258821	0.266654	0.228807	0.069327	0.167823	0.075214	0.219183	0.053740	0.186526	0.060593	0.162318	0.163547	0.381724	0.212136	0.179458	0.171349	0.368751	0.255339	0.115850	0.098701	0.192852	0.172083	0.135191	0.152505	0.336760	0.247260	0.107578	0.045626	0.145883	0.422018	0.203543
28	0.112106	0.121438	0.258398	0.338323	0.082670	0.168649	0.240754	0.320258	0.064938	0.203567	0.231355	0.167449	0.062326	0.113904	0.221149	0.093412	0.149383	0.305763	0.240965	0.189522	0.073213	0.114495	0.238445	0.323995	0.159935	0.289884	0.251902	0.141175	0.125922	0.208839	0.279893	0.156635	0.350364	0.240231	0.261052	0.203000	0.070207	0.167488	0.080672	0.222343	0.061320	0.208676	0.063137	0.166438	0.164943	0.361002	0.164094	0.183851	0.167558	0.353452	0.255188	0.227793	0.091542	0.204244	0.175119	0.142515	0.148518	0.266836	0.249886	0.119565	0.045862	0.148176	0.427669	0.187675
29	0.113909	0.127058	0.247166	0.327851	0.085427	0.189922	0.251634	0.316783	0.059957	0.215291	0.167268	0.146899	0.101383	0.198723	0.221697	0.058568	0.136657	0.308139	0.299437	0.192664	0.071647	0.104522	0.232116	0.278262	0.161131	0.281569	0.266486	0.119357	0.138986	0.249476	0.249280	0.193512	0.351062	0.151086	0.264422	0.203709	0.065060	0.166802	0.081173	0.234731	0.062729	0.219841	0.144488	0.181836	0.145170	0.343244	0.174653	0.172748	0.153925	0.324727	0.255241	0.287010	0.074743	0.202511	0.173770	0.148659	0.131732	0.250041	0.277170	0.123183	0.043318	0.147234	0.444989	0.174347
30	0.104075	0.116273	0.174301	0.272554	0.090006	0.220756	0.257047	0.315127	0.077522	0.187724	0.121658	0.155281	0.193737	0.225706	0.224946	0.092748	0.114033	0.276286	0.409660	0.308471	0.074418	0.070663	0.202142	0.221126	0.156791	0.241269	0.282791	0.107522	0.134150	0.249707	0.238082	0.206186	0.351237	0.140010	0.270407	0.214175	0.055108	0.171179	0.094142	0.251458	0.064733	0.231683	0.245595	0.371999	0.134249	0.340048	0.190662	0.180860	0.110442	0.254898	0.261286	0.301065	0.080054	0.203001	0.186748	0.140447	0.082903	0.183348	0.281494	0.121762	0.042215	0.146377	0.449886	0.170672
31	0.101010	0.095431	0.132239	0.198282	0.089751	0.210029	0.267596	0.315237	0.107372	0.141115	0.115487	0.158490	0.197783	0.239900	0.265695	0.198499	0.091509	0.175084	0.416266	0.328365	0.075199	0.076542	0.222061	0.179612	0.156862	0.233610	0.289501	0.111413	0.135335	0.258859	0.192876	0.230028	0.348216	0.088891	0.272361	0.216524	0.054715	0.164878	0.113390	0.207577	0.064964	0.231677	0.295584	0.379606	0.136833	0.317386	0.191982	0.243608	0.103222	0.246269	0.291680	0.345618	0.075980	0.187124	0.184135	0.091905	0.077244	0.132932	0.289091	0.123420	0.035400	0.145901	0.427595	0.172774
32	0.101167	0.083051	0.126442	0.192797	0.071440	0.186717	0.269468	0.316682	0.110068	0.129571	0.119168	0.165735	0.198249	0.276081	0.439866	0.237514	0.089549	0.164200	0.415520	0.327243	0.065468	0.081681	0.292168	0.147780	0.158196	0.229554	0.290518	0.122486	0.145465	0.291494	0.162291	0.232135	0.340199	0.084130	0.258524	0.212929	0.057600	0.146165	0.114984	0.194952	0.063613	0.232024	0.301844	0.407656	0.137862	0.317803	0.249147	0.248156	0.072546	0.195330	0.330715	0.383502	0.077719	0.175337	0.188481	0.102107	0.065904	0.135226	0.291296	0.148759	0.027862	0.119442	0.316524	0.151282
33	0.097423	0.083107	0.164409	0.206012	0.062206	0.182403	0.261952	0.315570	0.106418	0.124899	0.129336	0.186243	0.218890	0.298357	0.443527	0.242392	0.088792	0.163998	0.438372	0.341795	0.066030	0.087764	0.340580	0.168590	0.142102	0.200675	0.291785	0.128639	0.145065	0.297047	0.158634	0.228051	0.310925	0.086426	0.190514	0.141904	0.058837	0.139920	0.131492	0.216867	0.048067	0.207030	0.333464	0.421834	0.132931	0.310310	0.256420	0.287348	0.047118	0.184101	0.362010	0.409493	0.085545	0.191298	0.256991	0.119559	0.047829	0.134314	0.263527	0.186960	0.023962	0.086414	0.297313	0.094408
34	0.101875	0.088902	0.228712	0.360353	0.060776	0.177532	0.200014	0.164932	0.105388	0.126435	0.139575	0.201245	0.238178	0.335247	0.435819	0.248804	0.090927	0.147538	0.486443	0.358128	0.071537	0.090054	0.388691	0.239282	0.084194	0.174132	0.295735	0.162621	0.143014	0.296961	0.162408	0.237523	0.272798	0.155681	0.174269	0.139363	0.061402	0.141504	0.293737	0.269014	0.046455	0.159833	0.381921	0.485953	0.119659	0.307130	0.287272	0.330023	0.059239	0.232897	0.361968	0.418399	0.083681	0.192591	0.449101	0.129998	0.044804	0.133591	0.271634	0.214012	0.022342	0.092847	0.304698	0.090201
35	0.099552	0.090017	0.248692	0.391656	0.057155	0.169542	0.206145	0.147843	0.113268	0.131093	0.136884	0.184043	0.245591	0.351368	0.463903	0.267094	0.083311	0.132962	0.528822	0.373516	0.073643	0.089318	0.397290	0.240288	0.077665	0.176750	0.306135	0.242609	0.138979	0.290223	0.276118	0.233865	0.264654	0.185915	0.158003	0.130597	0.051373	0.118619	0.334927	0.292660	0.045717	0.151163	0.422926	0.493653	0.091320	0.258656	0.303004	0.337172	0.069598	0.198287	0.314364	0.413437	0.088383	0.218496	0.543335	0.130860	0.055887	0.140766	0.263241	0.232424	0.018105	0.087840	0.306299	0.076746
36	0.094190	0.087599	0.238047	0.400211	0.063853	0.170275	0.271003	0.113125	0.135574	0.135341	0.128886	0.172940	0.241727	0.327735	0.507814	0.284966	0.091037	0.129704	0.541503	0.379596	0.073912	0.088280	0.450577	0.254395	0.079151	0.165033	0.282944	0.315545	0.137513	0.288252	0.540600	0.246423	0.124426	0.186422	0.295501	0.377892	0.052328	0.132800	0.354795	0.434804	0.038695	0.110289	0.436797	0.491161	0.084715	0.257506	0.309896	0.332522	0.070262	0.213038	0.288936	0.410773	0.099413	0.249427	0.541362	0.141247	0.081110	0.176709	0.258239	0.241998	0.017282	0.106535	0.306621	0.066141
37	0.089216	0.093437	0.258398	0.434750	0.070831	0.212872	0.288496	0.116989	0.143110	0.110082	0.119540	0.172895	0.196650	0.284867	0.514600	0.289089	0.078388	0.116689	0.542509	0.378432	0.072233	0.087611	0.501875	0.299479	0.076407	0.167540	0.246684	0.405207	0.112369	0.260170	0.678198	0.335408	0.086972	0.188562	0.486550	0.565944	0.052433	0.132531	0.380490	0.472473	0.034592	0.095946	0.405561	0.419978	0.085336	0.259749	0.312570	0.337085	0.074987	0.271437	0.298227	0.437861	0.099350	0.235709	0.561966	0.139088	0.094852	0.185049	0.258098	0.247399	0.017433	0.110529	0.297296	0.074880
38	0.071763	0.085736	0.291008	0.456704	0.069881	0.192697	0.326544	0.115667	0.142649	0.099436	0.176528	0.210383	0.160635	0.272247	0.506924	0.261520	0.069888	0.111275	0.492366	0.374139	0.068625	0.087416	0.509804	0.319617	0.078570	0.167893	0.248941	0.415548	0.074680	0.213543	0.699170	0.354217	0.077063	0.192859	0.500964	0.579531	0.056694	0.136335	0.454874	0.587822	0.034284	0.091038	0.359441	0.465838	0.084931	0.267759	0.309764	0.349110	0.074512	0.326183	0.399180	0.673941	0.106821	0.256053	0.571353	0.149370	0.095477	0.189232	0.253170	0.337050	0.024928	0.114010	0.302521	0.163484
39	0.062848	0.073624	0.315540	0.492441	0.079801	0.168326	0.350165	0.115738	0.136055	0.100470	0.241723	0.396963	0.160877	0.250320	0.404758	0.301315	0.069315	0.110927	0.419313	0.317278	0.063854	0.074391	0.514473	0.318984	0.078012	0.162807	0.262487	0.491444	0.070723	0.204616	0.751662	0.370974	0.073885	0.216071	0.497510	0.609815	0.055122	0.125649	0.465709	0.650979	0.035454	0.091178	0.384799	0.456677	0.080389	0.247055	0.295912	0.360743	0.073988	0.357925	0.473942	0.679353	0.114972	0.267634	0.596780	0.149090	0.097147	0.188591	0.282280	0.451377	0.029561	0.130720	0.330830	0.167143
40	0.071991	0.087680	0.342342	0.512493	0.082978	0.181961	0.360089	0.123364	0.124932	0.123396	0.295105	0.572684	0.151716	0.278415	0.331763	0.320787	0.068807	0.105084	0.454281	0.371571	0.059478	0.074121	0.524103	0.303011	0.073837	0.146686	0.298217	0.569522	0.067617	0.208077	0.826217	0.363322	0.074835	0.232334	0.498375	0.609767	0.055213	0.124060	0.470657	0.653536	0.044290	0.088505	0.377932	0.464681	0.071230	0.255428	0.225980	0.389957	0.074996	0.358254	0.474518	0.674063	0.110791	0.259700	0.669182	0.188527	0.099102	0.183910	0.346840	0.455065	0.029600	0.135674	0.330475	0.167291
41	0.088750	0.135935	0.346605	0.516488	0.085309	0.181535	0.373825	0.191995	0.125177	0.126209	0.303169	0.592537	0.177728	0.329048	0.334244	0.396034	0.069079	0.108980	0.480944	0.370861	0.052437	0.069161	0.520379	0.302710	0.081724	0.154189	0.322452	0.635584	0.053337	0.162506	0.881081	0.422827	0.071023	0.232671	0.512525	0.619233	0.053375	0.114353	0.469054	0.656004	0.046147	0.087757	0.334815	0.421870	0.071416	0.250348	0.203146	0.370397	0.075199	0.357479	0.451280	0.660444	0.108806	0.255764	0.736463	0.210377	0.101507	0.193387	0.365870	0.547063	0.033808	0.132798	0.379957	0.166821
42	0.097465	0.160981	0.346261	0.517753	0.091941	0.183570	0.375076	0.201698	0.123494	0.127083	0.299041	0.627047	0.262608	0.537261	0.304141	0.421649	0.068489	0.119831	0.454708	0.357593	0.050002	0.065282	0.476297	0.303947	0.120052	0.247509	0.319862	0.647287	0.051473	0.115599	0.928004	0.500340	0.075874	0.225669	0.523453	0.642938	0.047328	0.115684	0.446370	0.639468	0.067774	0.089235	0.303167	0.384961	0.071301	0.258956	0.162910	0.391051	0.096063	0.350737	0.430028	0.645767	0.101384	0.242173	0.780346	0.223658	0.103024	0.210046	0.369203	0.554669	0.037330	0.128906	0.432527	0.189060
43	0.099149	0.184841	0.334059	0.523702	0.091197	0.192408	0.374375	0.249169	0.121359	0.120645	0.297644	0.652715	0.291436	0.584602	0.221922	0.413708	0.066249	0.121167	0.403273	0.341548	0.044186	0.048085	0.432891	0.299573	0.128853	0.372104	0.386894	0.673636	0.078806	0.136060	0.953751	0.541622	0.080629	0.181823	0.529407	0.652080	0.045086	0.115457	0.366876	0.623427	0.075053	0.095934	0.240103	0.514407	0.066218	0.254436	0.136511	0.400779	0.097101	0.327858	0.424378	0.639433	0.099238	0.235974	0.758088	0.215412	0.103565	0.214179	0.356744	0.597857	0.040160	0.123923	0.433535	0.265247
44	0.102213	0.235092	0.449282	0.605706	0.092780	0.218321	0.376148	0.268757	0.111263	0.117531	0.322907	0.716365	0.367842	0.666806	0.147349	0.417690	0.064962	0.120252	0.366124	0.497587	0.034358	0.036604	0.380996	0.234729	0.148078	0.392765	0.457298	0.701948	0.110290	0.154021	0.947190	0.551684	0.077772	0.202301	0.536349	0.637737	0.040141	0.107532	0.370875	0.582147	0.075824	0.096387	0.369860	0.617339	0.072657	0.227071	0.173216	0.402307	0.094198	0.330681	0.422839	0.668533	0.096316	0.225201	0.653048	0.218180	0.103546	0.214459	0.348085	0.654648	0.047730	0.116892	0.451088	0.295527
45	0.106903	0.242988	0.554974	0.685812	0.086033	0.207790	0.308235	0.271855	0.087555	0.110278	0.340007	0.735731	0.392321	0.735473	0.159803	0.435027	0.044489	0.114521	0.345921	0.510433	0.027598	0.029162	0.426406	0.228819	0.208125	0.462634	0.496325	0.731383	0.114302	0.155614	0.881941	0.551502	0.068649	0.203267	0.417303	0.438604	0.041979	0.111776	0.364665	0.509127	0.075460	0.111995	0.397807	0.565783	0.070211	0.230898	0.210475	0.390543	0.096066	0.307586	0.431078	0.673346	0.081900	0.157864	0.646402	0.225289	0.098582	0.209725	0.354189	0.688302	0.049150	0.104236	0.466122	0.296291
46	0.126877	0.260123	0.592137	0.699910	0.087496	0.170926	0.296439	0.268470	0.080182	0.105565	0.342811	0.736570	0.398792	0.833394	0.298636	0.416834	0.035872	0.092250	0.348177	0.554163	0.030007	0.025816	0.490491	0.219970	0.214791	0.519433	0.593704	0.715776	0.114565	0.153148	0.723957	0.518912	0.053414	0.201887	0.334193	0.360719	0.037802	0.102009	0.303263	0.439273	0.075746	0.108843	0.375673	0.545450	0.074801	0.299814	0.228233	0.350372	0.092190	0.266933	0.443037	0.613928	0.080344	0.164592	0.652279	0.231236	0.079791	0.182206	0.358056	0.700473	0.049211	0.092760	0.459849	0.295864
47	0.128445	0.259339	0.584455	0.689719	0.086284	0.167067	0.230622	0.285928	0.079379	0.096734	0.310391	0.724211	0.421414	0.919599	0.523395	0.377984	0.030519	0.090029	0.364866	0.605891	0.035388	0.026007	0.485486	0.168983	0.217880	0.517269	0.648754	0.676635	0.118081	0.154772	0.678909	0.483535	0.060557	0.226854	0.339482	0.302635	0.034725	0.099531	0.227598	0.248834	0.072938	0.108549	0.377759	0.553909	0.073856	0.319282	0.305038	0.290158	0.096916	0.211809	0.358370	0.412578	0.083142	0.150143	0.635718	0.222270	0.067708	0.169003	0.377556	0.701699	0.047723	0.101086	0.453121	0.273248
48	0.134008	0.260507	0.573589	0.683618	0.074432	0.159873	0.225560	0.289527	0.063218	0.091016	0.257479	0.689919	0.431717	0.970655	0.547199	0.318228	0.031271	0.098405	0.366744	0.645798	0.045668	0.035380	0.498324	0.112189	0.223128	0.515267	0.652958	0.648767	0.122307	0.158931	0.658685	0.463701	0.078290	0.209832	0.349868	0.379612	0.035566	0.116981	0.220463	0.210016	0.070441	0.127924	0.399788	0.568538	0.074510	0.309559	0.358478	0.249631	0.098545	0.249569	0.276853	0.416526	0.066271	0.119364	0.632495	0.223078	0.081314	0.208450	0.406768	0.666466	0.043658	0.083977	0.410648	0.264938
49	0.141507	0.265481	0.600838	0.755232	0.069213	0.141156	0.193081	0.289454	0.046297	0.067056	0.208280	0.602481	0.370933	0.888410	0.600267	0.242538	0.034461	0.149718	0.326434	0.628565	0.051558	0.038148	0.513390	0.107879	0.224544	0.515053	0.652081	0.636962	0.125333	0.162434	0.556182	0.465823	0.079166	0.206157	0.379876	0.409529	0.047896	0.143627	0.217367	0.194629	0.059128	0.140456	0.406513	0.567568	0.078139	0.306896	0.375131	0.195205	0.125778	0.281641	0.247427	0.395689	0.055195	0.130305	0.561566	0.219587	0.083337	0.223896	0.381234	0.587389	0.043718	0.075046	0.399323	0.271898
50	0.134957	0.257528	0.669735	0.881997	0.065178	0.146696	0.177644	0.252489	0.046224	0.119971	0.206157	0.594799	0.351736	0.847310	0.626661	0.240939	0.036420	0.185892	0.288911	0.631770	0.053987	0.041506	0.562175	0.108661	0.225745	0.515010	0.673316	0.590450	0.125634	0.141894	0.484033	0.442645	0.080885	0.207217	0.388174	0.384697	0.057924	0.168697	0.213940	0.176992	0.032453	0.162919	0.405231	0.537754	0.088203	0.297485	0.377376	0.093784	0.157691	0.338758	0.246556	0.385081	0.053864	0.147391	0.476844	0.202378	0.111359	0.245240	0.322293	0.582519	0.043473	0.147123	0.392635	0.283644
51	0.125471	0.232620	0.744291	0.957221	0.056990	0.206276	0.197948	0.264994	0.065234	0.274480	0.220128	0.608505	0.276660	0.784656	0.635223	0.273250	0.080630	0.262375	0.286848	0.648282	0.055104	0.050909	0.596340	0.104597	0.225923	0.514814	0.711159	0.525942	0.119543	0.137014	0.409573	0.345074	0.078429	0.205781	0.396426	0.388540	0.065619	0.168682	0.205911	0.173708	0.031241	0.179359	0.311525	0.316780	0.084026	0.297374	0.385067	0.142665	0.153449	0.327392	0.240606	0.388010	0.056181	0.167652	0.414381	0.304234	0.133970	0.232239	0.298168	0.498773	0.042186	0.209714	0.328712	0.289033
52	0.120386	0.221878	0.777596	0.971665	0.084958	0.248777	0.217805	0.322356	0.069952	0.306989	0.214099	0.571066	0.218316	0.743667	0.631787	0.280577	0.089471	0.279431	0.282731	0.681321	0.059287	0.069871	0.617556	0.098474	0.219699	0.508724	0.736687	0.458297	0.114801	0.149841	0.322456	0.254233	0.077858	0.179853	0.386850	0.390117	0.066542	0.164249	0.182634	0.165952	0.031808	0.171688	0.212314	0.298438	0.108473	0.315281	0.463661	0.312619	0.179744	0.321474	0.238641	0.396839	0.056660	0.178615	0.402083	0.378799	0.136215	0.306795	0.275511	0.483946	0.053126	0.253568	0.307253	0.247135
53	0.114806	0.193405	0.775688	0.957804	0.100177	0.281456	0.212547	0.323912	0.069413	0.330327	0.165301	0.496515	0.188286	0.636852	0.640873	0.247992	0.090457	0.282794	0.257059	0.568522	0.061603	0.071260	0.626101	0.098722	0.199745	0.446841	0.752638	0.459958	0.084241	0.144957	0.286268	0.186034	0.085666	0.177024	0.362707	0.440753	0.071666	0.166344	0.152633	0.153406	0.030835	0.194702	0.208095	0.272712	0.131877	0.299761	0.452760	0.320471	0.193337	0.318409	0.250559	0.402383	0.069289	0.179393	0.385361	0.387131	0.159284	0.368714	0.272370	0.458469	0.052463	0.308320	0.294271	0.182431
54	0.106419	0.134718	0.683194	0.836849	0.105671	0.288878	0.215981	0.336583	0.072883	0.340532	0.140711	0.510000	0.180047	0.583485	0.487660	0.239428	0.092254	0.283296	0.287633	0.568979	0.062305	0.115110	0.624846	0.107244	0.196872	0.366664	0.726417	0.407750	0.069774	0.186205	0.295313	0.178945	0.088507	0.245912	0.332551	0.480787	0.073944	0.173323	0.106296	0.145462	0.030972	0.195758	0.182080	0.227433	0.129001	0.227591	0.431979	0.333526	0.195610	0.318184	0.233835	0.456007	0.073935	0.185348	0.390329	0.385871	0.161346	0.393482	0.276647	0.461374	0.049681	0.311101	0.256926	0.176169
55	0.096405	0.108605	0.605999	0.783489	0.108154	0.309204	0.219468	0.331939	0.092100	0.350139	0.162644	0.577805	0.093397	0.367532	0.441651	0.246355	0.093228	0.282546	0.299722	0.554709	0.063534	0.117771	0.601880	0.107099	0.167294	0.350332	0.727449	0.364594	0.073572	0.269462	0.291869	0.200275	0.089398	0.301948	0.316905	0.495557	0.076105	0.186619	0.103382	0.128495	0.031161	0.186371	0.114038	0.155861	0.128234	0.195226	0.381617	0.337156	0.195827	0.316348	0.212152	0.423432	0.072845	0.188093	0.384926	0.403483	0.161461	0.414543	0.285444	0.474206	0.049854	0.312764	0.374591	0.226269
56	0.074517	0.071812	0.582434	0.766647	0.105798	0.317086	0.227121	0.321066	0.124579	0.409953	0.183401	0.546002	0.080747	0.252239	0.378507	0.252363	0.093190	0.282821	0.281630	0.502654	0.063348	0.119544	0.524923	0.102107	0.090723	0.179158	0.699792	0.331340	0.116755	0.405224	0.284885	0.243306	0.127099	0.348156	0.317373	0.460270	0.078947	0.189330	0.106238	0.126405	0.029051	0.172234	0.232668	0.299439	0.129763	0.208433	0.375044	0.340557	0.194218	0.296434	0.248680	0.373591	0.065571	0.178473	0.391990	0.432592	0.164069	0.433937	0.302990	0.483461	0.051856	0.316054	0.434481	0.342470
57	0.078101	0.070801	0.590322	0.797057	0.108650	0.323636	0.218824	0.329054	0.126848	0.421929	0.186881	0.460447	0.082473	0.246883	0.321205	0.247939	0.092215	0.281189	0.249373	0.456153	0.061015	0.120035	0.461556	0.090877	0.082285	0.036982	0.613636	0.352844	0.129025	0.474447	0.280491	0.237385	0.128881	0.362178	0.289583	0.435856	0.078915	0.172618	0.100717	0.126728	0.023140	0.144023	0.308818	0.305763	0.130655	0.209431	0.366709	0.343224	0.194551	0.227477	0.264766	0.348384	0.063011	0.174577	0.424294	0.450829	0.164602	0.447725	0.281648	0.487062	0.052536	0.315440	0.435871	0.355018
58	0.066152	0.067309	0.598700	0.914347	0.114144	0.326679	0.224111	0.318081	0.129435	0.421607	0.187581	0.458329	0.083711	0.266539	0.309696	0.185745	0.095604	0.265868	0.222131	0.440963	0.055899	0.119356	0.420021	0.082227	0.064330	0.024240	0.576284	0.383087	0.144182	0.476651	0.289893	0.237599	0.141140	0.364837	0.313458	0.524028	0.068884	0.155272	0.097962	0.172240	0.024828	0.127387	0.310760	0.324694	0.125047	0.224714	0.366610	0.344355	0.172567	0.183083	0.264529	0.345233	0.062097	0.184400	0.447344	0.450343	0.158975	0.429150	0.233809	0.488918	0.052917	0.319550	0.440572	0.348601
59	0.051265	0.049354	0.641585	0.991300	0.114241	0.328174	0.230344	0.318560	0.129108	0.395563	0.190334	0.421853	0.088986	0.253170	0.309755	0.159809	0.106952	0.244564	0.194524	0.446242	0.047773	0.117707	0.429125	0.129785	0.045891	0.026412	0.575014	0.399134	0.144761	0.475956	0.278184	0.222509	0.141307	0.366746	0.296994	0.504897	0.065214	0.135639	0.106210	0.225667	0.026182	0.111247	0.311966	0.328669	0.119927	0.200999	0.301546	0.254776	0.147978	0.074051	0.263569	0.358395	0.061307	0.162668	0.451020	0.458156	0.157155	0.420595	0.213666	0.535467	0.052203	0.362383	0.449694	0.368762
60	0.050508	0.047328	0.697096	0.971484	0.114056	0.266187	0.196468	0.243966	0.120885	0.316330	0.201753	0.366946	0.081244	0.247137	0.305418	0.110301	0.088190	0.163596	0.216627	0.448655	0.049981	0.117449	0.396331	0.195787	0.039338	0.026064	0.572111	0.396800	0.144656	0.476234	0.199231	0.281447	0.142195	0.366573	0.296103	0.499585	0.063938	0.135747	0.114125	0.273537	0.033504	0.062756	0.358557	0.348623	0.072269	0.179454	0.187225	0.195779	0.138614	0.083517	0.266189	0.373558	0.064217	0.158167	0.434059	0.447749	0.137707	0.405686	0.212861	0.602742	0.054127	0.341355	0.475970	0.397763
61	0.049304	0.044032	0.682273	0.919831	0.084174	0.244632	0.177373	0.175586	0.119617	0.303383	0.198450	0.362757	0.061613	0.222202	0.238917	0.130566	0.077857	0.128469	0.250490	0.419644	0.061803	0.154075	0.363712	0.209446	0.037204	0.025839	0.526364	0.642566	0.145649	0.472852	0.259990	0.305416	0.137834	0.366331	0.298277	0.480170	0.060546	0.127680	0.112781	0.358779	0.051400	0.062013	0.390716	0.368320	0.053792	0.173579	0.207725	0.180924	0.095987	0.086618	0.305676	0.478756	0.064921	0.128248	0.357280	0.320219	0.109375	0.401327	0.227041	0.659625	0.052803	0.359721	0.512643	0.432038
62	0.049284	0.044354	0.655547	0.970375	0.075305	0.180793	0.171561	0.134974	0.115906	0.291277	0.208424	0.371950	0.062654	0.200061	0.272062	0.178685	0.087884	0.144804	0.248652	0.408924	0.062830	0.235550	0.355464	0.220719	0.036003	0.026126	0.452969	0.859437	0.144099	0.470645	0.321388	0.308237	0.135392	0.348039	0.287906	0.435318	0.054782	0.115668	0.128396	0.385792	0.053534	0.061121	0.433680	0.369780	0.056387	0.170651	0.217548	0.169902	0.063357	0.086947	0.359292	0.523267	0.058073	0.128410	0.356192	0.306411	0.106650	0.349489	0.242803	0.684907	0.045530	0.316771	0.527032	0.430648
63	0.048264	0.043982	0.671988	1.041608	0.062552	0.155552	0.164028	0.122041	0.112970	0.284926	0.209468	0.281138	0.064478	0.192854	0.272639	0.174098	0.092347	0.166747	0.211754	0.386377	0.107540	0.254571	0.346920	0.221202	0.029265	0.027721	0.495112	0.971063	0.142763	0.461924	0.329719	0.318648	0.131516	0.279036	0.279827	0.433703	0.053281	0.126290	0.158012	0.387939	0.054191	0.061215	0.411030	0.303448	0.056122	0.171848	0.200241	0.174140	0.054483	0.086212	0.405247	0.526525	0.046113	0.120097	0.477153	0.299427	0.070448	0.295499	0.248470	0.661569	0.053686	0.309292	0.526252	0.431066
64	0.056326	0.053593	0.716154	1.122683	0.053912	0.126347	0.152603	0.123409	0.089900	0.273891	0.183679	0.196817	0.060019	0.181850	0.258986	0.169656	0.092876	0.193230	0.184156	0.413180	0.133975	0.283715	0.354050	0.219762	0.029098	0.027042	0.573876	0.986461	0.140011	0.415729	0.334581	0.329616	0.123626	0.229154	0.279427	0.449461	0.051819	0.170336	0.162505	0.398824	0.056640	0.063442	0.365832	0.281496	0.040877	0.149850	0.192441	0.171622	0.055215	0.085809	0.408408	0.530778	0.043384	0.118730	0.521613	0.285251	0.064186	0.267551	0.241295	0.594613	0.054246	0.306410	0.462778	0.423769
65	0.088356	0.085591	0.746991	1.168583	0.051802	0.097888	0.135407	0.125697	0.066200	0.181601	0.188219	0.228881	0.056795	0.139457	0.230174	0.180168	0.092702	0.195217	0.215826	0.525222	0.134272	0.291946	0.378531	0.217649	0.029205	0.027140	0.556673	0.998612	0.127772	0.386840	0.344132	0.297807	0.079359	0.111059	0.278975	0.457513	0.044248	0.170148	0.164380	0.399201	0.057775	0.065066	0.445557	0.266606	0.039963	0.138458	0.204315	0.171890	0.055585	0.104103	0.371698	0.544072	0.045542	0.120939	0.526854	0.238481	0.066385	0.233520	0.215870	0.578515	0.053948	0.305936	0.358139	0.342797
66	0.107922	0.103406	0.751461	1.177807	0.044974	0.088073	0.132087	0.123103	0.075816	0.178586	0.217862	0.253912	0.053577	0.137212	0.220618	0.186779	0.095695	0.193520	0.231187	0.536263	0.134637	0.291569	0.400987	0.217655	0.028836	0.026722	0.505869	1.050076	0.090824	0.113381	0.433880	0.309111	0.071304	0.069420	0.255906	0.357898	0.047777	0.175908	0.164795	0.383941	0.056521	0.064918	0.460826	0.255266	0.040628	0.121275	0.200848	0.171693	0.060476	0.129305	0.368125	0.652079	0.046767	0.118867	0.500299	0.266638	0.062865	0.199624	0.205740	0.635015	0.051562	0.298405	0.351214	0.298333
67	0.106543	0.101709	0.748618	1.147583	0.032311	0.068982	0.120203	0.120604	0.069154	0.175289	0.225404	0.266730	0.046076	0.129574	0.227878	0.191484	0.093369	0.183715	0.231220	0.518940	0.141034	0.295024	0.410407	0.218033	0.030224	0.026733	0.486500	1.134153	0.092434	0.188364	0.525730	0.331377	0.049442	0.059784	0.157102	0.298275	0.062259	0.179992	0.152827	0.367820	0.055853	0.064267	0.494342	0.246467	0.040712	0.107812	0.220380	0.260055	0.080632	0.147812	0.387966	0.713779	0.065525	0.189988	0.479480	0.278445	0.055981	0.164384	0.236969	0.632773	0.051779	0.297198	0.347659	0.296820
68	0.116323	0.107916	0.732445	1.022900	0.044089	0.057740	0.110280	0.135395	0.068291	0.165398	0.220511	0.271156	0.063558	0.152710	0.225534	0.191644	0.081344	0.175428	0.277908	0.518572	0.152818	0.297815	0.414532	0.223306	0.038976	0.032723	0.488501	1.162327	0.134396	0.205990	0.570549	0.394566	0.046040	0.046199	0.151184	0.350121	0.058063	0.180218	0.171053	0.358678	0.042905	0.047544	0.511351	0.220742	0.046701	0.100870	0.226229	0.253675	0.088267	0.141256	0.394525	0.716277	0.074987	0.200844	0.505580	0.308081	0.053246	0.163249	0.243059	0.634270	0.052570	0.266451	0.334221	0.278628
69	0.123236	0.113337	0.647816	0.899612	0.047279	0.061571	0.092795	0.141721	0.072411	0.155176	0.204935	0.270700	0.077809	0.169919	0.173109	0.140533	0.072713	0.168372	0.315349	0.526735	0.153231	0.311550	0.405078	0.220869	0.040092	0.029950	0.491715	1.164255	0.185115	0.301032	0.579558	0.420092	0.044674	0.049772	0.179848	0.423287	0.059626	0.181368	0.182579	0.272828	0.043709	0.040362	0.501021	0.213879	0.045650	0.092263	0.221775	0.252075	0.084270	0.133187	0.421527	0.702718	0.073237	0.203826	0.528042	0.326841	0.052184	0.163294	0.243230	0.604610	0.052164	0.187487	0.295591	0.226862
70	0.125296	0.114998	0.504812	0.811903	0.046568	0.060998	0.085683	0.140850	0.074954	0.141655	0.228714	0.266139	0.077281	0.170672	0.107460	0.127478	0.071902	0.161557	0.301981	0.500154	0.152609	0.312831	0.374793	0.181865	0.040840	0.030779	0.491277	1.163285	0.235395	0.312784	0.574503	0.379086	0.045941	0.051256	0.191673	0.414424	0.063444	0.177465	0.197766	0.198595	0.054787	0.045230	0.487028	0.224945	0.044436	0.075691	0.207220	0.246289	0.085637	0.131625	0.410014	0.645044	0.075264	0.214617	0.534112	0.337436	0.051270	0.163188	0.240839	0.540298	0.044730	0.154394	0.211170	0.133831
71	0.125264	0.115059	0.451535	0.795044	0.046112	0.060362	0.085274	0.130422	0.102416	0.165597	0.291153	0.285214	0.077907	0.170209	0.100598	0.128291	0.058472	0.142183	0.307372	0.499734	0.147997	0.304335	0.342137	0.150330	0.040919	0.037105	0.480242	1.148841	0.285345	0.314594	0.522621	0.377152	0.045943	0.050959	0.193332	0.403780	0.066422	0.176345	0.177486	0.163616	0.054651	0.053950	0.531049	0.381795	0.061503	0.107501	0.189173	0.237515	0.087094	0.140172	0.367561	0.590340	0.076162	0.222868	0.537454	0.339469	0.051729	0.163993	0.228901	0.468734	0.041809	0.085955	0.137746	0.078460
72	0.125301	0.114899	0.446409	0.716698	0.048404	0.059185	0.079822	0.128633	0.112504	0.164387	0.300048	0.281407	0.077315	0.170177	0.102547	0.121774	0.049174	0.116328	0.312235	0.510468	0.147081	0.251521	0.303072	0.137519	0.039279	0.040326	0.476194	1.002465	0.299063	0.315974	0.517802	0.376494	0.046697	0.071266	0.210934	0.401797	0.065453	0.114849	0.160312	0.156388	0.051797	0.093206	0.502096	0.384508	0.063051	0.115580	0.180814	0.243327	0.089811	0.145242	0.344013	0.564655	0.076606	0.233327	0.468084	0.338980	0.048235	0.147065	0.239709	0.436166	0.031840	0.033673	0.115922	0.076985
73	0.125664	0.115505	0.404964	0.599386	0.056755	0.050789	0.072152	0.143654	0.112766	0.138088	0.301528	0.282821	0.079921	0.177095	0.098202	0.108413	0.047805	0.051495	0.368181	0.484659	0.129962	0.217192	0.274801	0.136380	0.040581	0.044662	0.477335	0.841191	0.307290	0.338727	0.539040	0.390467	0.048375	0.138407	0.242985	0.366724	0.065448	0.095558	0.171918	0.181392	0.051595	0.101025	0.474381	0.389129	0.062375	0.122381	0.176536	0.245430	0.092591	0.159987	0.333314	0.566997	0.076744	0.243194	0.349829	0.338107	0.042167	0.099946	0.233894	0.457159	0.029264	0.049749	0.115269	0.084280
74	0.120146	0.108778	0.328135	0.467245	0.058699	0.050632	0.065023	0.169393	0.101715	0.135476	0.349827	0.288053	0.078895	0.157565	0.065329	0.096981	0.047208	0.034627	0.492845	0.503159	0.088023	0.165218	0.268280	0.134895	0.043298	0.045948	0.423098	0.738679	0.312621	0.346266	0.555110	0.387255	0.052245	0.167652	0.270501	0.367942	0.065418	0.072246	0.190707	0.185524	0.051403	0.104719	0.452040	0.388207	0.062341	0.121706	0.180890	0.220770	0.132673	0.267261	0.456701	0.594036	0.078142	0.245597	0.333782	0.358169	0.044693	0.083294	0.232757	0.469008	0.030688	0.056252	0.098406	0.087984
75	0.095737	0.083274	0.313430	0.338538	0.058895	0.046955	0.080988	0.165906	0.097324	0.129817	0.429358	0.373964	0.084921	0.219199	0.191104	0.108777	0.041200	0.014514	0.564290	0.585924	0.084091	0.121954	0.244475	0.132901	0.043968	0.046046	0.385508	0.738461	0.341267	0.369631	0.529563	0.382956	0.086026	0.275868	0.310172	0.367798	0.049499	0.061509	0.192959	0.184684	0.053049	0.106567	0.399645	0.404789	0.062212	0.114999	0.137539	0.120281	0.136104	0.281997	0.460018	0.470339	0.081473	0.249873	0.316565	0.349756	0.046939	0.085288	0.252913	0.426659	0.030856	0.084125	0.066245	0.084049
76	0.075605	0.064575	0.345295	0.313457	0.077898	0.050152	0.079599	0.171761	0.097289	0.127525	0.445473	0.359930	0.056772	0.185627	0.199180	0.120208	0.034718	0.014174	0.610257	0.620255	0.083432	0.121869	0.210317	0.134442	0.044269	0.046429	0.421212	0.706639	0.352560	0.352291	0.430797	0.379909	0.101134	0.313473	0.320130	0.373727	0.046719	0.062395	0.202858	0.148467	0.059116	0.109383	0.411598	0.424139	0.063471	0.122495	0.144765	0.113012	0.134297	0.346096	0.506092	0.427154	0.075004	0.222797	0.347136	0.306291	0.042579	0.070227	0.331502	0.322349	0.032393	0.092071	0.066534	0.088486
77	0.072971	0.062511	0.423490	0.334515	0.073690	0.074422	0.071373	0.159894	0.094787	0.122875	0.442059	0.375375	0.054737	0.208114	0.214821	0.097391	0.029569	0.018692	0.619815	0.612256	0.078814	0.118549	0.204134	0.139762	0.052635	0.052772	0.439517	0.583524	0.356231	0.358549	0.331696	0.370587	0.107253	0.321069	0.314808	0.260724	0.045769	0.062896	0.177726	0.154000	0.055502	0.111765	0.443893	0.438750	0.062869	0.120820	0.232474	0.105154	0.133463	0.345961	0.548926	0.445492	0.057929	0.178582	0.311602	0.294682	0.040574	0.046753	0.408599	0.439009	0.050523	0.101775	0.073193	0.096923
78	0.054804	0.046595	0.522218	0.312018	0.073291	0.105996	0.075941	0.155844	0.092391	0.116792	0.448807	0.376184	0.047565	0.214377	0.218096	0.091583	0.031620	0.030330	0.604378	0.594769	0.051161	0.121518	0.233313	0.137471	0.064852	0.060527	0.440662	0.403051	0.324889	0.298338	0.293214	0.309576	0.107523	0.321720	0.367328	0.273345	0.037077	0.056035	0.167946	0.157517	0.050244	0.109514	0.434385	0.343278	0.059049	0.114925	0.235306	0.101798	0.143146	0.345976	0.533890	0.451756	0.053675	0.175222	0.253478	0.242256	0.040747	0.045554	0.415195	0.485116	0.066293	0.131747	0.076790	0.097558
79	0.049254	0.040128	0.530869	0.262500	0.083887	0.119367	0.080559	0.158088	0.084553	0.108496	0.449980	0.403778	0.046013	0.219568	0.219630	0.086705	0.035001	0.037215	0.633665	0.610443	0.065601	0.092571	0.262836	0.125001	0.062836	0.058524	0.440792	0.310429	0.315551	0.306805	0.279742	0.286979	0.107531	0.322305	0.431861	0.295510	0.028826	0.051470	0.148912	0.157505	0.050566	0.084664	0.361017	0.278835	0.040287	0.071341	0.254948	0.086093	0.142493	0.352063	0.523643	0.420784	0.048996	0.158374	0.228096	0.215608	0.040590	0.045402	0.420837	0.493905	0.067668	0.135530	0.080845	0.163999
80	0.046779	0.036802	0.558302	0.277463	0.087649	0.131197	0.093733	0.163938	0.055155	0.061940	0.466539	0.516964	0.048537	0.232313	0.225118	0.087830	0.043911	0.066373	0.630317	0.643345	0.089021	0.126706	0.293234	0.123773	0.065208	0.060872	0.515656	0.497392	0.259064	0.298386	0.278038	0.283940	0.107090	0.321319	0.436732	0.268527	0.024152	0.048014	0.219713	0.156148	0.050641	0.061080	0.380595	0.296771	0.040211	0.090744	0.271102	0.064638	0.143076	0.357586	0.513382	0.389768	0.045852	0.153593	0.335267	0.206173	0.045621	0.048833	0.424645	0.495106	0.070251	0.135535	0.094512	0.367537
81	0.047248	0.038503	0.575938	0.276042	0.100058	0.135241	0.096279	0.180770	0.062746	0.069886	0.519695	0.586500	0.090884	0.238890	0.229227	0.096287	0.044432	0.067010	0.660767	0.642787	0.104233	0.172390	0.300509	0.136009	0.068645	0.062050	0.602617	0.563248	0.236889	0.310230	0.274670	0.288376	0.105160	0.313197	0.421791	0.266154	0.021104	0.046781	0.230897	0.107185	0.056169	0.058732	0.416664	0.329226	0.042305	0.103922	0.290985	0.061467	0.148396	0.381377	0.506368	0.400468	0.046266	0.127306	0.350112	0.212518	0.050967	0.049868	0.482495	0.524737	0.072296	0.138502	0.172945	0.378675
82	0.049957	0.040050	0.577205	0.324052	0.099830	0.137375	0.098828	0.174995	0.072426	0.064284	0.541678	0.591616	0.094902	0.236407	0.195072	0.105761	0.043112	0.067084	0.699491	0.635239	0.104100	0.175840	0.301945	0.143713	0.071262	0.061769	0.615894	0.540137	0.221702	0.313994	0.248307	0.278268	0.100646	0.280251	0.406509	0.272496	0.023848	0.046078	0.224002	0.108513	0.060505	0.058278	0.443841	0.320137	0.044647	0.114974	0.284550	0.052385	0.148858	0.394129	0.504365	0.404151	0.045987	0.106196	0.368634	0.223061	0.049213	0.042793	0.590221	0.519727	0.076576	0.138788	0.183555	0.384117
83	0.051211	0.038581	0.576914	0.339843	0.098456	0.136825	0.089985	0.151225	0.074377	0.065316	0.487660	0.555878	0.133276	0.199583	0.128829	0.099521	0.044121	0.072179	0.611354	0.542847	0.105656	0.179045	0.327141	0.143249	0.073696	0.061975	0.614830	0.542473	0.235638	0.387590	0.194506	0.256505	0.093845	0.258681	0.416939	0.304000	0.024250	0.042805	0.244450	0.117416	0.053716	0.050699	0.458170	0.302646	0.077870	0.142546	0.287176	0.057649	0.110347	0.320701	0.408737	0.344331	0.044251	0.087726	0.390097	0.221017	0.048420	0.040776	0.655344	0.561117	0.081744	0.142929	0.198867	0.390625
84	0.049001	0.038216	0.567674	0.409326	0.096214	0.140411	0.124884	0.142518	0.075932	0.069548	0.506985	0.637661	0.162546	0.214266	0.110280	0.121914	0.046342	0.085731	0.546120	0.416894	0.106706	0.181756	0.353842	0.153189	0.071853	0.058742	0.587119	0.547472	0.221497	0.470996	0.164090	0.244761	0.063929	0.172955	0.406264	0.306893	0.037071	0.034609	0.242398	0.125305	0.042077	0.044875	0.467142	0.270849	0.085616	0.158689	0.232683	0.067568	0.104667	0.301451	0.399749	0.375954	0.038203	0.064220	0.400415	0.198177	0.045849	0.039982	0.659986	0.641126	0.083618	0.137375	0.205790	0.403780
85	0.047729	0.038345	0.540710	0.417670	0.080336	0.135353	0.131149	0.139116	0.081907	0.078309	0.640344	0.666352	0.166587	0.211923	0.179671	0.137240	0.047296	0.088111	0.508102	0.357507	0.108202	0.186790	0.370969	0.169003	0.071428	0.058215	0.535590	0.572978	0.227495	0.475089	0.197324	0.251828	0.060342	0.307387	0.407608	0.304582	0.036886	0.032700	0.263724	0.147265	0.039474	0.042370	0.468222	0.247299	0.090361	0.161363	0.209358	0.067701	0.091605	0.225409	0.414547	0.352425	0.031255	0.043558	0.374649	0.180626	0.037538	0.034244	0.661853	0.649289	0.083951	0.130976	0.227592	0.410942
86	0.049419	0.039880	0.535699	0.410729	0.083519	0.128087	0.162372	0.183197	0.083093	0.081750	0.664869	0.662209	0.167342	0.212786	0.388172	0.169465	0.047889	0.092725	0.477149	0.386344	0.108930	0.187921	0.376575	0.175557	0.074809	0.060542	0.496132	0.587687	0.240207	0.474845	0.322211	0.220771	0.081861	0.367321	0.418868	0.315679	0.036797	0.025058	0.309104	0.232797	0.039210	0.042302	0.572040	0.261208	0.094207	0.161995	0.223191	0.082324	0.082095	0.228218	0.403281	0.316885	0.031203	0.035681	0.378668	0.158604	0.038989	0.033823	0.620063	0.630255	0.081005	0.135843	0.239395	0.411256
87	0.052860	0.041804	0.510640	0.397486	0.084449	0.106037	0.194909	0.274388	0.083107	0.081773	0.654362	0.660473	0.168372	0.269916	0.391506	0.172999	0.047633	0.100637	0.494798	0.442369	0.110877	0.187875	0.373687	0.171452	0.078339	0.063632	0.465078	0.592205	0.238367	0.469023	0.325025	0.209034	0.091111	0.422385	0.334051	0.270288	0.037245	0.020957	0.314265	0.251279	0.039161	0.042080	0.617662	0.319981	0.094325	0.161965	0.187709	0.097585	0.065129	0.234482	0.389496	0.306590	0.031343	0.035910	0.390248	0.151665	0.044123	0.034590	0.561848	0.552068	0.071740	0.123368	0.242764	0.411471
88	0.048396	0.036618	0.411684	0.397072	0.074632	0.082578	0.195942	0.275634	0.081625	0.079215	0.642088	0.652028	0.166861	0.291058	0.422597	0.169822	0.045185	0.099872	0.518824	0.521624	0.112199	0.181932	0.356950	0.172483	0.070923	0.056603	0.456953	0.600784	0.236015	0.463424	0.323827	0.208104	0.093421	0.423141	0.298218	0.269634	0.037438	0.021505	0.319147	0.298729	0.035937	0.039053	0.670352	0.322486	0.093070	0.141524	0.157674	0.104786	0.067886	0.223273	0.386909	0.320769	0.028915	0.035439	0.392346	0.155385	0.044564	0.034121	0.557991	0.508658	0.067573	0.123280	0.260626	0.411104
89	0.040495	0.032304	0.396349	0.396898	0.080885	0.074353	0.225735	0.283620	0.077004	0.076577	0.642494	0.681501	0.199195	0.462826	0.457928	0.167852	0.036613	0.088508	0.620020	0.558112	0.106848	0.176446	0.337872	0.178408	0.060456	0.048365	0.465085	0.606725	0.234090	0.451410	0.325607	0.211870	0.093467	0.424398	0.308010	0.383415	0.037218	0.030659	0.311060	0.330169	0.025850	0.035162	0.687834	0.365719	0.092021	0.135054	0.137237	0.104048	0.065225	0.213242	0.386180	0.351900	0.026794	0.035154	0.356717	0.160337	0.045730	0.036161	0.565355	0.491399	0.065263	0.124002	0.280079	0.265304
90	0.041831	0.034124	0.328252	0.397225	0.073804	0.077639	0.252885	0.287139	0.071803	0.075406	0.639352	0.667210	0.193079	0.463393	0.478009	0.177581	0.036110	0.095438	0.608218	0.675393	0.089776	0.158090	0.296926	0.168220	0.059951	0.047992	0.454841	0.594689	0.234953	0.446331	0.327031	0.219415	0.093563	0.424584	0.348166	0.388106	0.038397	0.035167	0.329794	0.338619	0.037357	0.047606	0.820892	0.526069	0.082122	0.118085	0.138818	0.274437	0.056039	0.154333	0.377399	0.334841	0.026123	0.033676	0.266434	0.169007	0.043040	0.035355	0.569312	0.489316	0.063353	0.120516	0.254332	0.198256
91	0.041651	0.032576	0.311681	0.392695	0.072919	0.075447	0.280689	0.300432	0.063631	0.071223	0.637673	0.677939	0.165600	0.467775	0.505823	0.184008	0.035695	0.096380	0.585428	0.786452	0.068897	0.098883	0.277314	0.154310	0.057146	0.044985	0.322854	0.394469	0.232072	0.434269	0.328033	0.219811	0.094002	0.424520	0.358873	0.389584	0.052570	0.037648	0.322869	0.339963	0.038091	0.044791	0.820480	0.532119	0.050404	0.085924	0.135143	0.316850	0.065026	0.122668	0.381964	0.318909	0.024854	0.029419	0.255834	0.165344	0.035707	0.029154	0.521985	0.497370	0.059282	0.117774	0.236036	0.167979
92	0.040261	0.031861	0.305980	0.350578	0.077306	0.077211	0.289107	0.309256	0.063335	0.071294	0.633653	0.648614	0.153437	0.482698	0.511283	0.193533	0.037927	0.093392	0.599112	0.800037	0.066271	0.076798	0.275907	0.143919	0.052455	0.041844	0.183775	0.363481	0.227570	0.423083	0.342672	0.215352	0.092317	0.423653	0.385671	0.367161	0.064678	0.040593	0.313351	0.332768	0.042793	0.043984	0.797004	0.538674	0.048624	0.103221	0.170155	0.369562	0.070878	0.125234	0.417385	0.324714	0.030404	0.032272	0.219463	0.145302	0.034512	0.028926	0.380462	0.521687	0.050682	0.111704	0.224811	0.160745
93	0.043309	0.033568	0.347525	0.336565	0.080368	0.078523	0.273722	0.314108	0.065141	0.071449	0.548861	0.563338	0.153296	0.482408	0.392516	0.163541	0.035237	0.081236	0.637148	0.811407	0.068855	0.068467	0.251410	0.169102	0.046316	0.037115	0.158158	0.374957	0.206104	0.209968	0.387210	0.218412	0.081189	0.357819	0.439970	0.365783	0.065123	0.040790	0.305862	0.335675	0.051688	0.050856	0.746187	0.542533	0.039500	0.127388	0.230236	0.385798	0.072342	0.122993	0.428827	0.274693	0.035767	0.035409	0.205976	0.133255	0.037336	0.033951	0.270538	0.459100	0.043490	0.105861	0.220849	0.123249
94	0.042723	0.033532	0.404806	0.232851	0.080213	0.099955	0.274208	0.312209	0.064642	0.071197	0.418824	0.549785	0.152958	0.478441	0.356186	0.157953	0.038902	0.079618	0.658232	0.817229	0.065978	0.062837	0.211754	0.174478	0.046712	0.036172	0.156036	0.362950	0.169577	0.174498	0.421080	0.215966	0.076536	0.292494	0.448255	0.353367	0.066453	0.041027	0.261735	0.275769	0.058475	0.057957	0.812881	0.570856	0.052325	0.161144	0.222725	0.385676	0.075339	0.114547	0.331688	0.270375	0.035201	0.032583	0.206189	0.139349	0.042141	0.040596	0.344164	0.319880	0.044461	0.105390	0.200930	0.095968
95	0.041932	0.032845	0.405314	0.225123	0.078747	0.105965	0.267930	0.263903	0.066587	0.076031	0.438043	0.610383	0.151852	0.430431	0.335020	0.159930	0.039809	0.074689	0.669511	0.812745	0.063071	0.066972	0.172984	0.167133	0.051397	0.038441	0.208973	0.354575	0.102316	0.118724	0.363752	0.189027	0.037034	0.098090	0.425667	0.430414	0.070849	0.050364	0.245564	0.276215	0.077476	0.074645	0.847451	0.626564	0.054226	0.181220	0.276253	0.405519	0.075050	0.106320	0.298688	0.266735	0.036106	0.032877	0.191713	0.159257	0.047712	0.046850	0.401017	0.347728	0.042606	0.098790	0.179400	0.115750
96	0.039319	0.029990	0.380008	0.238944	0.079530	0.129262	0.267817	0.200104	0.066260	0.078013	0.462827	0.703682	0.103728	0.329784	0.283964	0.160409	0.042920	0.064401	0.677650	0.831110	0.061337	0.066629	0.150813	0.164665	0.051316	0.037825	0.258826	0.323960	0.069167	0.094982	0.344879	0.175266	0.035379	0.057137	0.484159	0.499360	0.087001	0.055727	0.253599	0.236819	0.078990	0.075530	0.863520	0.651333	0.054768	0.190180	0.330373	0.407302	0.073315	0.093033	0.335763	0.284676	0.034851	0.030872	0.165636	0.162187	0.049393	0.050443	0.439583	0.466162	0.031114	0.073273	0.183707	0.223043
97	0.037557	0.031746	0.374777	0.259931	0.077756	0.138402	0.271438	0.207567	0.067753	0.081255	0.485501	0.780252	0.063661	0.222836	0.225624	0.155833	0.054668	0.074310	0.627352	0.797780	0.084772	0.096944	0.158558	0.170066	0.046539	0.036104	0.262097	0.296584	0.054162	0.061185	0.347923	0.170284	0.032389	0.049121	0.561017	0.442375	0.090113	0.054808	0.235190	0.173252	0.074247	0.070190	0.732781	0.540828	0.056301	0.194010	0.341941	0.405527	0.072828	0.091600	0.339840	0.390026	0.034407	0.032846	0.160020	0.174329	0.048939	0.051274	0.487416	0.481161	0.024747	0.061875	0.176862	0.306100
98	0.052895	0.050129	0.372948	0.365316	0.063279	0.141394	0.257362	0.194550	0.065090	0.077410	0.442204	0.714687	0.043509	0.205874	0.205387	0.121265	0.060457	0.073751	0.524340	0.738644	0.096635	0.103494	0.172004	0.168458	0.042637	0.036136	0.288142	0.288313	0.049944	0.046513	0.369306	0.177701	0.040477	0.043086	0.552609	0.445451	0.089937	0.059967	0.210647	0.133655	0.072504	0.068961	0.699515	0.531640	0.066745	0.208419	0.338674	0.333473	0.076211	0.086989	0.417927	0.431279	0.034472	0.073651	0.161449	0.178387	0.050304	0.051580	0.510513	0.502567	0.024201	0.037558	0.138103	0.331266
99	0.057485	0.056990	0.388798	0.554597	0.055965	0.141825	0.244441	0.163879	0.057425	0.070886	0.410943	0.740992	0.033106	0.101311	0.152755	0.102629	0.059377	0.064019	0.511794	0.697958	0.094824	0.108947	0.259276	0.173005	0.042705	0.036601	0.306817	0.289450	0.044971	0.037626	0.481291	0.375070	0.043346	0.043630	0.548304	0.462477	0.085875	0.062023	0.190849	0.116204	0.071997	0.068506	0.749580	0.619286	0.087331	0.199239	0.337913	0.249955	0.068220	0.070040	0.478780	0.430916	0.034268	0.091338	0.161953	0.176200	0.051477	0.050425	0.501536	0.512333	0.024083	0.037487	0.147068	0.371232
100	0.056026	0.056820	0.419991	0.580759	0.061708	0.141659	0.214567	0.129222	0.057281	0.071743	0.448680	0.735160	0.030963	0.085918	0.146476	0.091906	0.058904	0.062363	0.444435	0.650874	0.099669	0.114219	0.261280	0.170868	0.042169	0.036428	0.312443	0.314380	0.039735	0.028831	0.518042	0.476228	0.042265	0.043302	0.533295	0.519736	0.071093	0.059486	0.207388	0.115962	0.067203	0.065928	0.838100	0.718868	0.155651	0.278682	0.294727	0.207729	0.056003	0.053460	0.473570	0.430127	0.033806	0.119356	0.178536	0.179784	0.052569	0.050100	0.493809	0.529524	0.023375	0.033522	0.149617	0.386124
101	0.058975	0.056610	0.424726	0.677929	0.065879	0.140290	0.215471	0.105312	0.059523	0.076263	0.465427	0.764588	0.027542	0.076266	0.122104	0.095285	0.059649	0.065492	0.427130	0.665641	0.105107	0.113900	0.270734	0.177663	0.045795	0.036155	0.316523	0.318940	0.029897	0.027830	0.510770	0.492517	0.043370	0.044857	0.566646	0.540927	0.064466	0.058457	0.232916	0.114931	0.074920	0.073310	1.086934	0.794648	0.160884	0.280208	0.275634	0.198272	0.049999	0.048675	0.508389	0.415322	0.031974	0.131952	0.176677	0.175319	0.066773	0.060458	0.500700	0.593821	0.019818	0.030679	0.185131	0.392428
