	313_At_T1_sh_R_ND_01.c3d	313_At_T1_sh_R_ND_01.c3d	313_At_T1_sh_R_ND_01.c3d	313_At_T1_sh_R_ND_01.c3d	313_At_T1_sh_R_ND_01.c3d	313_At_T1_sh_R_ND_01.c3d	313_At_T1_sh_R_ND_01.c3d	313_At_T1_sh_R_ND_01.c3d	313_At_T1_sh_R_ND_03.c3d	313_At_T1_sh_R_ND_03.c3d	313_At_T1_sh_R_ND_03.c3d	313_At_T1_sh_R_ND_03.c3d	313_At_T1_sh_R_ND_03.c3d	313_At_T1_sh_R_ND_03.c3d	313_At_T1_sh_R_ND_03.c3d	313_At_T1_sh_R_ND_03.c3d	313_At_T1_sh_R_ND_04.c3d	313_At_T1_sh_R_ND_04.c3d	313_At_T1_sh_R_ND_04.c3d	313_At_T1_sh_R_ND_04.c3d	313_At_T1_sh_R_ND_04.c3d	313_At_T1_sh_R_ND_04.c3d	313_At_T1_sh_R_ND_04.c3d	313_At_T1_sh_R_ND_04.c3d	313_At_T1_sh_R_ND_05.c3d	313_At_T1_sh_R_ND_05.c3d	313_At_T1_sh_R_ND_05.c3d	313_At_T1_sh_R_ND_05.c3d	313_At_T1_sh_R_ND_05.c3d	313_At_T1_sh_R_ND_05.c3d	313_At_T1_sh_R_ND_05.c3d	313_At_T1_sh_R_ND_05.c3d	313_At_T1_sh_R_ND_06.c3d	313_At_T1_sh_R_ND_06.c3d	313_At_T1_sh_R_ND_06.c3d	313_At_T1_sh_R_ND_06.c3d	313_At_T1_sh_R_ND_06.c3d	313_At_T1_sh_R_ND_06.c3d	313_At_T1_sh_R_ND_06.c3d	313_At_T1_sh_R_ND_06.c3d	313_At_T1_sh_R_ND_07.c3d	313_At_T1_sh_R_ND_07.c3d	313_At_T1_sh_R_ND_07.c3d	313_At_T1_sh_R_ND_07.c3d	313_At_T1_sh_R_ND_07.c3d	313_At_T1_sh_R_ND_07.c3d	313_At_T1_sh_R_ND_07.c3d	313_At_T1_sh_R_ND_07.c3d	313_At_T1_sh_R_ND_08.c3d	313_At_T1_sh_R_ND_08.c3d	313_At_T1_sh_R_ND_08.c3d	313_At_T1_sh_R_ND_08.c3d	313_At_T1_sh_R_ND_08.c3d	313_At_T1_sh_R_ND_08.c3d	313_At_T1_sh_R_ND_08.c3d	313_At_T1_sh_R_ND_08.c3d	313_At_T1_sh_R_ND_09.c3d	313_At_T1_sh_R_ND_09.c3d	313_At_T1_sh_R_ND_09.c3d	313_At_T1_sh_R_ND_09.c3d	313_At_T1_sh_R_ND_09.c3d	313_At_T1_sh_R_ND_09.c3d	313_At_T1_sh_R_ND_09.c3d	313_At_T1_sh_R_ND_09.c3d	313_At_T1_sh_R_ND_10.c3d	313_At_T1_sh_R_ND_10.c3d	313_At_T1_sh_R_ND_10.c3d	313_At_T1_sh_R_ND_10.c3d	313_At_T1_sh_R_ND_10.c3d	313_At_T1_sh_R_ND_10.c3d	313_At_T1_sh_R_ND_10.c3d	313_At_T1_sh_R_ND_10.c3d
	Biceps femoris_lat	Semitendinosus_lat	Vastus lateralis_lat	Vastus medialis_lat	Biceps femoris_med	Semitendinosus_med	Vastus lateralis_med	Vastus medialis_med	Biceps femoris_lat	Semitendinosus_lat	Vastus lateralis_lat	Vastus medialis_lat	Biceps femoris_med	Semitendinosus_med	Vastus lateralis_med	Vastus medialis_med	Biceps femoris_lat	Semitendinosus_lat	Vastus lateralis_lat	Vastus medialis_lat	Biceps femoris_med	Semitendinosus_med	Vastus lateralis_med	Vastus medialis_med	Biceps femoris_lat	Semitendinosus_lat	Vastus lateralis_lat	Vastus medialis_lat	Biceps femoris_med	Semitendinosus_med	Vastus lateralis_med	Vastus medialis_med	Biceps femoris_lat	Semitendinosus_lat	Vastus lateralis_lat	Vastus medialis_lat	Biceps femoris_med	Semitendinosus_med	Vastus lateralis_med	Vastus medialis_med	Biceps femoris_lat	Semitendinosus_lat	Vastus lateralis_lat	Vastus medialis_lat	Biceps femoris_med	Semitendinosus_med	Vastus lateralis_med	Vastus medialis_med	Biceps femoris_lat	Semitendinosus_lat	Vastus lateralis_lat	Vastus medialis_lat	Biceps femoris_med	Semitendinosus_med	Vastus lateralis_med	Vastus medialis_med	Biceps femoris_lat	Semitendinosus_lat	Vastus lateralis_lat	Vastus medialis_lat	Biceps femoris_med	Semitendinosus_med	Vastus lateralis_med	Vastus medialis_med	Biceps femoris_lat	Semitendinosus_lat	Vastus lateralis_lat	Vastus medialis_lat	Biceps femoris_med	Semitendinosus_med	Vastus lateralis_med	Vastus medialis_med
	P2D	P2D	P2D	P2D	P2D	P2D	P2D	P2D	P2D	P2D	P2D	P2D	P2D	P2D	P2D	P2D	P2D	P2D	P2D	P2D	P2D	P2D	P2D	P2D	P2D	P2D	P2D	P2D	P2D	P2D	P2D	P2D	P2D	P2D	P2D	P2D	P2D	P2D	P2D	P2D	P2D	P2D	P2D	P2D	P2D	P2D	P2D	P2D	P2D	P2D	P2D	P2D	P2D	P2D	P2D	P2D	P2D	P2D	P2D	P2D	P2D	P2D	P2D	P2D	P2D	P2D	P2D	P2D	P2D	P2D	P2D	P2D
	EMG_lat	EMG_lat	EMG_lat	EMG_lat	EMG_med	EMG_med	EMG_med	EMG_med	EMG_lat	EMG_lat	EMG_lat	EMG_lat	EMG_med	EMG_med	EMG_med	EMG_med	EMG_lat	EMG_lat	EMG_lat	EMG_lat	EMG_med	EMG_med	EMG_med	EMG_med	EMG_lat	EMG_lat	EMG_lat	EMG_lat	EMG_med	EMG_med	EMG_med	EMG_med	EMG_lat	EMG_lat	EMG_lat	EMG_lat	EMG_med	EMG_med	EMG_med	EMG_med	EMG_lat	EMG_lat	EMG_lat	EMG_lat	EMG_med	EMG_med	EMG_med	EMG_med	EMG_lat	EMG_lat	EMG_lat	EMG_lat	EMG_med	EMG_med	EMG_med	EMG_med	EMG_lat	EMG_lat	EMG_lat	EMG_lat	EMG_med	EMG_med	EMG_med	EMG_med	EMG_lat	EMG_lat	EMG_lat	EMG_lat	EMG_med	EMG_med	EMG_med	EMG_med
ITEM	Y	Y	Y	Y	Y	Y	Y	Y	Y	Y	Y	Y	Y	Y	Y	Y	Y	Y	Y	Y	Y	Y	Y	Y	Y	Y	Y	Y	Y	Y	Y	Y	Y	Y	Y	Y	Y	Y	Y	Y	Y	Y	Y	Y	Y	Y	Y	Y	Y	Y	Y	Y	Y	Y	Y	Y	Y	Y	Y	Y	Y	Y	Y	Y	Y	Y	Y	Y	Y	Y	Y	Y
1	0.027401	0.329546	0.086358	0.352138	0.042361	0.142450	0.137683	0.182220	0.033143	0.112517	0.045329	0.070773	0.074949	0.196543	0.199424	0.256239	0.031539	0.175249	0.103103	0.240513	0.051640	0.188382	0.140472	0.323105	0.034333	0.241563	0.051501	0.219268	0.038613	0.201276	0.101063	0.400304	0.026581	0.113683	0.058951	0.188619	0.016472	0.036065	0.052934	0.254817	0.037119	0.128059	0.066998	0.294088	0.042215	0.214760	0.089813	0.152255	0.017061	0.041362	0.038565	0.102528	0.041462	0.124253	0.196765	0.292357	0.071334	0.193471	0.027666	0.323834	0.030206	0.091082	0.140392	0.188169	0.020634	0.117688	0.034849	0.247828	0.016916	0.130873	0.088232	0.305002
2	0.019585	0.247324	0.085500	0.268428	0.039005	0.129413	0.151667	0.182565	0.030942	0.117072	0.047020	0.059982	0.075526	0.203111	0.199422	0.299384	0.030775	0.159721	0.101526	0.245221	0.056248	0.180954	0.115880	0.316637	0.035984	0.212243	0.066825	0.280992	0.039629	0.199656	0.119841	0.402377	0.019640	0.093762	0.054268	0.191283	0.015788	0.028775	0.057780	0.276387	0.026689	0.096363	0.077727	0.291663	0.045172	0.213272	0.098761	0.154995	0.019746	0.122673	0.041294	0.128802	0.046724	0.136782	0.214852	0.292420	0.060336	0.193800	0.026872	0.314362	0.029982	0.090655	0.141968	0.196191	0.021386	0.112326	0.033948	0.246846	0.017240	0.129282	0.094644	0.312854
3	0.017095	0.212569	0.106654	0.280148	0.031696	0.130923	0.157061	0.173589	0.031363	0.117348	0.066264	0.161480	0.075393	0.209048	0.188299	0.312817	0.030015	0.133975	0.099782	0.247781	0.062785	0.186571	0.109187	0.314305	0.036944	0.191663	0.073003	0.290320	0.039018	0.197125	0.176519	0.404310	0.016258	0.089821	0.065055	0.221009	0.015992	0.027462	0.060977	0.267463	0.033170	0.132634	0.078574	0.411418	0.052199	0.217750	0.100811	0.164992	0.022910	0.227888	0.052918	0.203213	0.047935	0.139173	0.221657	0.291333	0.045144	0.194546	0.025453	0.310964	0.030096	0.125231	0.142638	0.208611	0.021459	0.102879	0.037725	0.244118	0.017537	0.128934	0.185019	0.324444
4	0.015640	0.208941	0.105484	0.244182	0.031258	0.133015	0.153199	0.198530	0.029748	0.113273	0.067185	0.167951	0.074850	0.207685	0.151905	0.302170	0.027803	0.127708	0.099607	0.179755	0.065158	0.182403	0.107453	0.314694	0.034069	0.189293	0.073048	0.306594	0.038945	0.197153	0.214196	0.405435	0.016232	0.091610	0.058405	0.187652	0.015564	0.030444	0.061081	0.259848	0.033561	0.137023	0.077093	0.420936	0.052473	0.225759	0.278740	0.269141	0.021949	0.251224	0.062990	0.231940	0.047873	0.139628	0.216530	0.281993	0.039232	0.182349	0.041246	0.309451	0.030225	0.172474	0.171050	0.212067	0.021607	0.096505	0.044702	0.243948	0.020090	0.141371	0.358476	0.323862
5	0.018249	0.212824	0.141662	0.257419	0.034549	0.132728	0.145727	0.213502	0.026581	0.130708	0.073638	0.172213	0.072976	0.203425	0.145515	0.299035	0.021836	0.116258	0.097605	0.165092	0.065486	0.176751	0.106002	0.315155	0.030028	0.185893	0.071220	0.325574	0.043345	0.217283	0.219016	0.296306	0.015092	0.086445	0.046294	0.177211	0.014063	0.036328	0.060148	0.220024	0.031420	0.236557	0.095774	0.410218	0.052206	0.222356	0.329258	0.308750	0.027451	0.272986	0.142124	0.270211	0.047955	0.143058	0.198758	0.279442	0.039615	0.157023	0.047274	0.305906	0.030749	0.175912	0.307799	0.427393	0.022698	0.077826	0.076449	0.221987	0.019792	0.141266	0.494063	0.349997
6	0.020997	0.206646	0.286499	0.278451	0.039080	0.175063	0.138767	0.207826	0.019708	0.146093	0.088084	0.185768	0.063253	0.165109	0.140943	0.297847	0.016389	0.104005	0.152085	0.181668	0.065465	0.160578	0.101093	0.305799	0.029169	0.185549	0.069997	0.327771	0.039195	0.229451	0.236287	0.304978	0.014990	0.063948	0.046652	0.178891	0.013969	0.036587	0.084550	0.205254	0.032474	0.252827	0.112997	0.421448	0.052182	0.433758	0.360639	0.320239	0.033531	0.307539	0.238071	0.267423	0.047455	0.143917	0.231477	0.275646	0.035942	0.130317	0.058083	0.313373	0.036352	0.207661	0.452493	0.544520	0.022453	0.073800	0.103500	0.182018	0.017170	0.134678	0.512676	0.402694
7	0.023754	0.215655	0.396983	0.285187	0.046848	0.177154	0.131153	0.178788	0.010703	0.162969	0.155433	0.229638	0.063863	0.175622	0.168094	0.358485	0.015100	0.118631	0.238571	0.184322	0.062715	0.146581	0.084088	0.236254	0.028631	0.185079	0.074254	0.336902	0.032884	0.163545	0.355987	0.270094	0.013697	0.050885	0.072601	0.180247	0.014929	0.044011	0.153489	0.224685	0.035512	0.269468	0.131285	0.407537	0.052116	0.585136	0.393097	0.368517	0.033471	0.332981	0.245996	0.268464	0.043906	0.141032	0.313981	0.268551	0.025339	0.119685	0.134370	0.319162	0.048756	0.270292	0.565718	0.574270	0.022946	0.066651	0.104538	0.139779	0.017087	0.125939	0.519804	0.418719
8	0.025618	0.198586	0.415737	0.282934	0.048598	0.227455	0.132430	0.171043	0.009768	0.172831	0.156571	0.242225	0.054807	0.162530	0.306931	0.414110	0.019668	0.328268	0.238535	0.180327	0.052331	0.123961	0.109012	0.245247	0.026894	0.170103	0.083047	0.345652	0.032425	0.162410	0.368651	0.246768	0.010085	0.045524	0.073502	0.165571	0.021043	0.063040	0.243932	0.242754	0.038757	0.286113	0.168726	0.402312	0.048311	0.606737	0.401689	0.380705	0.033789	0.348378	0.262454	0.270766	0.039895	0.146697	0.356239	0.233482	0.025380	0.114779	0.161806	0.240477	0.053884	0.299230	0.585831	0.572925	0.023730	0.066222	0.116921	0.235849	0.025357	0.096792	0.565975	0.408631
9	0.032177	0.167837	0.492073	0.287962	0.050926	0.265629	0.158950	0.163331	0.007367	0.172724	0.163269	0.198365	0.036038	0.170373	0.377852	0.378570	0.020158	0.362234	0.237895	0.213862	0.051335	0.125824	0.153360	0.185431	0.025099	0.092356	0.088355	0.324366	0.032653	0.156099	0.437483	0.260675	0.008923	0.039609	0.074065	0.190613	0.027239	0.096645	0.351221	0.271164	0.031006	0.275860	0.167255	0.358673	0.046241	0.613148	0.400654	0.384828	0.033904	0.350308	0.294514	0.290345	0.035411	0.124398	0.358508	0.248455	0.027136	0.119663	0.163361	0.201137	0.052626	0.307775	0.600970	0.585105	0.022305	0.070027	0.132547	0.326645	0.028084	0.101610	0.644790	0.467869
10	0.032374	0.166260	0.535632	0.308196	0.052170	0.287396	0.193381	0.221239	0.009906	0.173573	0.174322	0.249113	0.033249	0.167768	0.393973	0.388357	0.025424	0.406082	0.248161	0.206496	0.059346	0.145925	0.164009	0.157008	0.022221	0.078772	0.119819	0.333185	0.036842	0.154961	0.518294	0.286840	0.008569	0.037366	0.076274	0.212155	0.029839	0.110857	0.369131	0.303585	0.026223	0.266602	0.257145	0.261699	0.040878	0.632583	0.392489	0.404376	0.033732	0.350591	0.341922	0.330010	0.041476	0.129540	0.374405	0.255236	0.027477	0.122185	0.174098	0.220603	0.050502	0.310080	0.660347	0.616211	0.018204	0.079678	0.138633	0.324024	0.034578	0.110655	0.701324	0.508844
11	0.031796	0.177506	0.553919	0.334673	0.057613	0.317910	0.184898	0.256267	0.014187	0.183814	0.179174	0.261971	0.033122	0.162561	0.412067	0.393369	0.031853	0.465331	0.264018	0.208673	0.076316	0.190076	0.167336	0.182166	0.019876	0.066746	0.136545	0.316418	0.039522	0.161396	0.544590	0.290859	0.008679	0.037469	0.199621	0.286670	0.030388	0.112553	0.398393	0.288119	0.026905	0.229558	0.281874	0.242480	0.040704	0.646301	0.264611	0.343237	0.033209	0.335946	0.369573	0.361678	0.048490	0.148705	0.389539	0.254103	0.029148	0.122058	0.190518	0.226409	0.049875	0.310191	0.730213	0.654374	0.013882	0.124784	0.141584	0.351919	0.046508	0.138582	0.729801	0.516364
12	0.031385	0.171418	0.542167	0.306672	0.059111	0.336569	0.204008	0.371494	0.016372	0.313741	0.197425	0.257134	0.033036	0.159978	0.434103	0.397736	0.036993	0.467581	0.276011	0.224649	0.074128	0.183431	0.166833	0.183810	0.017481	0.060730	0.133893	0.266940	0.044938	0.255458	0.542616	0.277001	0.010840	0.033193	0.263040	0.293828	0.033493	0.126288	0.458387	0.284618	0.026989	0.170324	0.316233	0.246502	0.041287	0.637982	0.237661	0.335448	0.031151	0.275801	0.372783	0.332672	0.045707	0.139287	0.400689	0.253763	0.031349	0.123415	0.208883	0.239973	0.051367	0.313338	0.790196	0.692346	0.018635	0.153751	0.143598	0.379875	0.049583	0.144526	0.737135	0.529727
13	0.028174	0.177752	0.472684	0.255049	0.059104	0.340626	0.266640	0.424509	0.017993	0.326708	0.156538	0.223507	0.033349	0.162013	0.460963	0.411293	0.038424	0.471781	0.276492	0.246156	0.072517	0.179944	0.180673	0.196502	0.017216	0.064369	0.154108	0.264949	0.039942	0.266751	0.541511	0.278239	0.011696	0.031582	0.283294	0.305562	0.035169	0.172115	0.504802	0.293609	0.029564	0.271252	0.356338	0.239646	0.035434	0.433144	0.174959	0.298745	0.031345	0.252211	0.372061	0.317443	0.048530	0.131733	0.403706	0.253864	0.030093	0.127286	0.219871	0.259234	0.063571	0.344755	0.830983	0.713993	0.019577	0.176280	0.142867	0.388478	0.050107	0.143615	0.727528	0.530005
14	0.026944	0.202396	0.405521	0.250058	0.058992	0.370456	0.280159	0.410856	0.020284	0.357673	0.182902	0.256421	0.033011	0.167734	0.494902	0.426829	0.038404	0.476201	0.275296	0.238752	0.077538	0.182255	0.222193	0.207053	0.014304	0.075539	0.181815	0.227537	0.040594	0.317528	0.529594	0.235655	0.011893	0.036732	0.353323	0.302100	0.038895	0.211030	0.532642	0.318873	0.025394	0.273305	0.348971	0.241526	0.035172	0.328355	0.098877	0.255479	0.026709	0.231966	0.356658	0.280401	0.051217	0.134444	0.404730	0.258318	0.027792	0.132794	0.221342	0.260553	0.073243	0.369984	0.851167	0.725218	0.019167	0.182982	0.138949	0.392339	0.049377	0.132114	0.676556	0.529327
15	0.025264	0.217819	0.419448	0.281420	0.059610	0.404559	0.392730	0.435946	0.022450	0.359964	0.184994	0.315893	0.030212	0.174187	0.506933	0.424943	0.037698	0.477067	0.237952	0.225388	0.083732	0.181234	0.258807	0.219990	0.011765	0.089594	0.203673	0.209505	0.041453	0.322062	0.471434	0.210386	0.015104	0.054019	0.394651	0.303920	0.039250	0.213450	0.545091	0.336249	0.031822	0.282789	0.379315	0.233205	0.036658	0.263074	0.080096	0.231464	0.018212	0.206471	0.302801	0.280573	0.051285	0.134831	0.405335	0.264285	0.028892	0.137377	0.220197	0.260118	0.076174	0.361517	0.855501	0.724061	0.018086	0.213637	0.128111	0.399119	0.049063	0.130232	0.572689	0.517480
16	0.037537	0.340545	0.353116	0.276582	0.053186	0.410635	0.482957	0.455221	0.023550	0.364869	0.175477	0.277124	0.019605	0.139542	0.450223	0.320007	0.037161	0.478183	0.189073	0.225847	0.085361	0.181581	0.273156	0.226980	0.011936	0.109529	0.208687	0.212875	0.043180	0.322955	0.465788	0.200498	0.016744	0.106542	0.409436	0.297689	0.039403	0.218237	0.535080	0.336202	0.035669	0.285835	0.394371	0.230199	0.033026	0.284068	0.193238	0.275377	0.022441	0.215528	0.296798	0.285164	0.051205	0.131300	0.402026	0.259170	0.034623	0.143849	0.217583	0.251877	0.076882	0.345810	0.847264	0.718520	0.018054	0.229032	0.114684	0.400722	0.048951	0.130260	0.552057	0.474042
17	0.039528	0.343664	0.287403	0.227038	0.053241	0.416169	0.514727	0.483456	0.022930	0.355903	0.189143	0.274781	0.014710	0.106538	0.388491	0.298208	0.036083	0.414220	0.201319	0.208597	0.085902	0.180837	0.267841	0.205668	0.015562	0.117590	0.205958	0.182240	0.046021	0.344851	0.390223	0.209302	0.017311	0.115322	0.412332	0.289522	0.038114	0.217095	0.513415	0.313511	0.035431	0.286312	0.335694	0.191452	0.032980	0.240819	0.268820	0.284494	0.022776	0.220746	0.285853	0.287321	0.051488	0.130167	0.377715	0.235948	0.034599	0.187403	0.181893	0.247803	0.076529	0.344856	0.797372	0.586392	0.018653	0.229205	0.110383	0.407184	0.049725	0.128959	0.572415	0.447750
18	0.046369	0.335693	0.259776	0.193383	0.052731	0.383803	0.519562	0.501185	0.027246	0.331180	0.169466	0.278381	0.015242	0.106663	0.352539	0.299399	0.038047	0.413385	0.195377	0.172749	0.085112	0.180880	0.245734	0.247295	0.019020	0.143750	0.208984	0.177941	0.042823	0.361360	0.286816	0.334991	0.020874	0.131557	0.418135	0.281351	0.033617	0.208340	0.461448	0.333977	0.037564	0.288861	0.323725	0.114689	0.038458	0.219688	0.282559	0.284245	0.027228	0.233187	0.266631	0.268632	0.051440	0.128299	0.310858	0.204673	0.033899	0.195988	0.156657	0.255403	0.071710	0.319801	0.723138	0.507310	0.017848	0.229815	0.094028	0.324649	0.057375	0.130019	0.553221	0.476661
19	0.046561	0.342339	0.260000	0.204407	0.050427	0.367998	0.506908	0.503017	0.032656	0.336117	0.163241	0.274873	0.027216	0.127147	0.362164	0.234069	0.053228	0.374709	0.178576	0.179003	0.081603	0.182183	0.236339	0.252509	0.020837	0.172597	0.237074	0.162897	0.041460	0.353374	0.223721	0.334967	0.025545	0.133648	0.406050	0.202834	0.030262	0.196780	0.430507	0.344756	0.035116	0.229068	0.279885	0.111243	0.037052	0.205905	0.328155	0.298502	0.038716	0.307688	0.206831	0.216171	0.050676	0.113382	0.263361	0.182939	0.034777	0.241310	0.164420	0.260022	0.063611	0.264529	0.650505	0.472932	0.021108	0.240951	0.082510	0.295279	0.071296	0.177328	0.476288	0.441753
20	0.047064	0.338554	0.262004	0.207049	0.048156	0.348856	0.502181	0.466898	0.037091	0.317054	0.167766	0.252924	0.035829	0.151338	0.346395	0.232510	0.057586	0.355717	0.174414	0.174332	0.062784	0.127561	0.246346	0.231067	0.020936	0.178685	0.239011	0.191801	0.035788	0.283698	0.259229	0.338254	0.027226	0.140227	0.345152	0.151363	0.029202	0.195389	0.436635	0.334089	0.038576	0.342991	0.258845	0.119162	0.032410	0.209335	0.352405	0.312477	0.040053	0.322216	0.146558	0.152617	0.050865	0.113610	0.260142	0.208148	0.037806	0.286388	0.185928	0.315597	0.063586	0.240412	0.653706	0.475521	0.023015	0.250401	0.085607	0.274899	0.076953	0.261278	0.403793	0.396352
21	0.050726	0.323819	0.255995	0.206580	0.038377	0.315403	0.505838	0.446081	0.046642	0.323519	0.157380	0.163555	0.038245	0.157630	0.316884	0.278463	0.056482	0.351266	0.249689	0.159415	0.054172	0.384060	0.263864	0.229513	0.022157	0.186077	0.235406	0.193939	0.035411	0.262296	0.265508	0.339585	0.026691	0.139998	0.334278	0.094262	0.028092	0.196667	0.388321	0.338430	0.031814	0.347958	0.247016	0.119695	0.029884	0.212249	0.356786	0.327550	0.040998	0.323007	0.135236	0.134473	0.045597	0.103756	0.233896	0.231219	0.038586	0.283133	0.237277	0.352276	0.070846	0.251286	0.642293	0.464513	0.021162	0.229536	0.088363	0.231539	0.075836	0.276501	0.347610	0.355699
22	0.049398	0.303876	0.146536	0.260693	0.036870	0.312597	0.487660	0.361587	0.046201	0.317232	0.175137	0.158503	0.040871	0.151587	0.261963	0.287953	0.057912	0.349026	0.290195	0.198528	0.062997	0.953547	0.263430	0.222441	0.025140	0.216570	0.229895	0.202613	0.029052	0.185442	0.318775	0.342076	0.027061	0.139669	0.279920	0.084988	0.035123	0.215984	0.318362	0.349663	0.028929	0.379737	0.151090	0.121411	0.029185	0.221021	0.352473	0.326689	0.040730	0.338113	0.136811	0.168872	0.036720	0.105060	0.194781	0.247550	0.039692	0.282130	0.340276	0.365718	0.073330	0.258601	0.579420	0.435089	0.018380	0.218192	0.090531	0.202535	0.084169	0.310921	0.326773	0.318057
23	0.038490	0.168025	0.105541	0.265059	0.036300	0.331560	0.472585	0.334173	0.045945	0.334113	0.181177	0.172123	0.042432	0.146547	0.216622	0.274869	0.058590	0.346317	0.291989	0.215776	0.058761	1.030000	0.245959	0.211000	0.026144	0.257467	0.215485	0.203633	0.030988	0.199784	0.355852	0.350125	0.027258	0.246755	0.203258	0.080270	0.040799	0.209582	0.255927	0.376817	0.029987	0.380803	0.151004	0.120154	0.032141	0.208862	0.284657	0.251626	0.041123	0.346316	0.129859	0.179312	0.035405	0.107654	0.145836	0.249382	0.040718	0.275561	0.396070	0.369541	0.073402	0.259244	0.489647	0.408117	0.017920	0.233928	0.089275	0.208485	0.086336	0.313990	0.343342	0.306452
24	0.036089	0.166217	0.101125	0.281448	0.033040	0.368556	0.441597	0.315998	0.047226	0.300272	0.189165	0.192361	0.043458	0.146130	0.225991	0.281367	0.059480	0.344547	0.298648	0.215064	0.054688	1.122210	0.254721	0.255771	0.028070	0.259058	0.196132	0.203527	0.028920	0.196149	0.355546	0.350751	0.028386	0.350185	0.136634	0.077014	0.042268	0.207832	0.216951	0.388252	0.033257	0.417190	0.149451	0.119561	0.031265	0.175018	0.259675	0.216964	0.043257	0.393239	0.139519	0.179025	0.024485	0.118413	0.108123	0.276308	0.040945	0.279818	0.406974	0.371774	0.071347	0.252093	0.396882	0.353825	0.019572	0.226180	0.086869	0.206801	0.086469	0.315573	0.364095	0.316886
25	0.029274	0.156720	0.127814	0.308702	0.028674	0.341878	0.326937	0.278557	0.044851	0.276887	0.192508	0.205676	0.043377	0.148659	0.246144	0.293795	0.059814	0.302851	0.322451	0.227725	0.053515	1.208690	0.245253	0.279954	0.031367	0.271889	0.184904	0.202825	0.023400	0.151620	0.351833	0.312455	0.031275	0.369393	0.133669	0.089435	0.043079	0.243282	0.207214	0.395033	0.065854	0.505785	0.126837	0.125746	0.025586	0.176267	0.251377	0.210184	0.043926	0.458580	0.153452	0.182776	0.018373	0.130234	0.095667	0.284144	0.039597	0.283168	0.459422	0.374571	0.059961	0.200565	0.317592	0.301244	0.023282	0.212768	0.120863	0.202094	0.086630	0.315933	0.373187	0.317966
26	0.032642	0.212711	0.183471	0.329358	0.031806	0.327820	0.230958	0.258794	0.045183	0.261225	0.316552	0.334833	0.043747	0.148018	0.252540	0.298018	0.060106	0.243130	0.326934	0.245045	0.052239	1.241340	0.249653	0.364665	0.033149	0.315737	0.188469	0.200150	0.021924	0.120903	0.337492	0.159803	0.042816	0.456486	0.148019	0.116744	0.045723	0.274721	0.207606	0.396869	0.070918	0.486529	0.133940	0.263917	0.025470	0.198642	0.203369	0.226596	0.043739	0.453921	0.160297	0.184793	0.019135	0.137155	0.108807	0.281184	0.037929	0.298366	0.511239	0.376466	0.050547	0.161011	0.275530	0.278658	0.023685	0.213453	0.163478	0.219085	0.086685	0.316418	0.364705	0.314818
27	0.037596	0.428210	0.194020	0.329542	0.034737	0.359487	0.187747	0.205658	0.040051	0.284525	0.569266	0.532229	0.046148	0.219718	0.243291	0.299229	0.056518	0.239299	0.327593	0.249378	0.054203	1.269702	0.279306	0.345803	0.031124	0.346096	0.188966	0.200858	0.019547	0.185549	0.319812	0.144890	0.043086	0.466499	0.140923	0.134867	0.045150	0.285360	0.199421	0.386150	0.075471	0.442950	0.150621	0.261051	0.031999	0.322639	0.169630	0.243417	0.041372	0.452301	0.145558	0.186842	0.027557	0.152421	0.107353	0.285896	0.040228	0.310267	0.547514	0.381874	0.047172	0.158456	0.290044	0.377043	0.026078	0.211793	0.179510	0.191396	0.086698	0.316514	0.331420	0.310027
28	0.034085	0.520907	0.300780	0.443826	0.035338	0.419102	0.198684	0.197382	0.039677	0.355489	0.640213	0.538724	0.038687	0.317359	0.221604	0.299184	0.035270	0.214002	0.327465	0.244339	0.057230	1.288518	0.314364	0.335877	0.032490	0.382024	0.172279	0.173758	0.020521	0.208650	0.284114	0.133032	0.041238	0.475916	0.148934	0.133603	0.044962	0.285212	0.173160	0.337917	0.076393	0.393902	0.228576	0.271558	0.035167	0.344848	0.194563	0.291350	0.034319	0.421783	0.207886	0.278130	0.032502	0.189950	0.099292	0.290950	0.040562	0.311156	0.563809	0.384566	0.046340	0.156196	0.308215	0.387855	0.026919	0.207721	0.180842	0.197003	0.082648	0.315598	0.300222	0.259918
29	0.037252	0.527095	0.464089	0.451492	0.035123	0.426848	0.228449	0.219651	0.039607	0.357516	0.741070	0.563904	0.040510	0.347045	0.294958	0.289785	0.031697	0.207714	0.307842	0.239593	0.056936	1.289342	0.327803	0.359486	0.044071	0.513487	0.117183	0.169293	0.027580	0.261373	0.279540	0.144673	0.041094	0.487864	0.154815	0.139164	0.047085	0.284196	0.127431	0.336322	0.076284	0.389727	0.231364	0.361544	0.042144	0.382627	0.196713	0.340578	0.033272	0.419097	0.257400	0.310281	0.034164	0.215294	0.104491	0.294582	0.039625	0.286733	0.565114	0.380634	0.046721	0.152999	0.307536	0.436316	0.024266	0.186486	0.180012	0.199597	0.069071	0.297596	0.284674	0.234027
30	0.041617	0.674935	0.533248	0.499808	0.035221	0.426474	0.223367	0.303226	0.035461	0.315948	0.813618	0.657929	0.041995	0.350967	0.399489	0.228860	0.026334	0.207409	0.237644	0.229220	0.055618	1.268763	0.315757	0.362763	0.044639	0.525928	0.138247	0.169004	0.029306	0.274612	0.195701	0.155756	0.040790	0.489984	0.186425	0.146111	0.048726	0.284796	0.085412	0.303090	0.075381	0.357368	0.246164	0.401201	0.044552	0.378204	0.226793	0.349716	0.031504	0.457872	0.261888	0.312144	0.040534	0.216583	0.113609	0.287173	0.036298	0.238168	0.558666	0.313333	0.047846	0.148045	0.310838	0.456057	0.023850	0.172390	0.193426	0.199589	0.057963	0.225231	0.239876	0.196451
31	0.043866	0.797612	0.536226	0.541340	0.034606	0.425628	0.243650	0.305713	0.032754	0.299463	0.844187	0.686186	0.042103	0.388014	0.402163	0.230709	0.025529	0.260330	0.206008	0.173291	0.044922	0.964406	0.308696	0.362074	0.043190	0.522650	0.172282	0.161932	0.027430	0.272003	0.151125	0.264054	0.041267	0.478007	0.214325	0.158521	0.045765	0.272848	0.079703	0.297607	0.064059	0.328846	0.295343	0.558425	0.044411	0.372598	0.257391	0.396950	0.035267	0.473912	0.282872	0.308819	0.043832	0.217978	0.118739	0.256713	0.034535	0.243520	0.562912	0.270053	0.046777	0.145841	0.324405	0.455833	0.024242	0.171579	0.211675	0.199549	0.053795	0.192365	0.212961	0.145177
32	0.043234	0.817900	0.573040	0.537098	0.035833	0.421398	0.280776	0.298264	0.026667	0.294910	0.801236	0.628943	0.041574	0.446127	0.438906	0.238805	0.026390	0.354676	0.199470	0.168241	0.042027	0.786532	0.306455	0.366726	0.041756	0.511135	0.175558	0.164908	0.030302	0.305291	0.219809	0.368033	0.040216	0.401495	0.214389	0.215540	0.036886	0.242413	0.082936	0.246896	0.041585	0.129605	0.327466	0.609573	0.043975	0.373242	0.300565	0.405103	0.041265	0.471574	0.301851	0.332209	0.043748	0.217581	0.122601	0.230041	0.031516	0.245729	0.518456	0.234830	0.040658	0.140191	0.331336	0.450392	0.024585	0.182626	0.225950	0.183206	0.030543	0.087857	0.210962	0.140820
33	0.039476	0.791277	0.613976	0.614579	0.039883	0.364785	0.320300	0.315224	0.018684	0.262400	0.656380	0.496560	0.048551	0.474661	0.451848	0.227302	0.024633	0.362477	0.165662	0.165919	0.037866	0.713145	0.270744	0.350395	0.042134	0.495840	0.199250	0.171286	0.031169	0.308045	0.322251	0.450163	0.043932	0.457659	0.287875	0.333549	0.031460	0.236622	0.082738	0.170344	0.029989	0.177218	0.328991	0.616419	0.043615	0.341526	0.311944	0.393690	0.041143	0.436947	0.314136	0.369461	0.044502	0.204441	0.122074	0.215427	0.028496	0.249702	0.469628	0.203928	0.025831	0.092280	0.333971	0.440923	0.028255	0.339994	0.238515	0.189200	0.014065	0.051136	0.181631	0.124996
34	0.037855	0.694726	0.651095	0.667280	0.044382	0.311915	0.341472	0.329882	0.018862	0.155715	0.576366	0.494574	0.050032	0.480167	0.449208	0.220111	0.024203	0.380594	0.111014	0.160326	0.029145	0.518283	0.252758	0.332081	0.039498	0.492973	0.219379	0.175066	0.031722	0.307947	0.333999	0.618364	0.036442	0.419870	0.369110	0.345334	0.032351	0.245578	0.170258	0.152153	0.026244	0.185591	0.285229	0.612492	0.038502	0.235861	0.307293	0.328426	0.038743	0.354408	0.320358	0.400722	0.045267	0.203235	0.120693	0.214083	0.027258	0.246310	0.463288	0.208929	0.021762	0.076661	0.338673	0.421590	0.026969	0.388225	0.241683	0.187384	0.011606	0.047955	0.130738	0.069236
35	0.035976	0.638640	0.597734	0.585030	0.044590	0.313540	0.338768	0.334092	0.018854	0.285148	0.468771	0.459895	0.047248	0.474112	0.444352	0.205678	0.023745	0.382814	0.101417	0.142465	0.029619	0.423352	0.248757	0.234959	0.038521	0.497585	0.228264	0.187745	0.031910	0.269511	0.387735	0.664613	0.036304	0.433147	0.365433	0.333613	0.029080	0.189100	0.228218	0.239076	0.029747	0.226515	0.304888	0.608524	0.035452	0.185791	0.296400	0.306676	0.038711	0.350294	0.320683	0.408597	0.044550	0.194042	0.120171	0.176179	0.027579	0.234226	0.417410	0.224372	0.021915	0.078546	0.336175	0.394325	0.030891	0.416312	0.212741	0.177263	0.009787	0.042175	0.093585	0.105803
36	0.033060	0.645543	0.486536	0.557327	0.039030	0.295659	0.338486	0.322424	0.018252	0.371569	0.338642	0.305481	0.043292	0.396165	0.454181	0.195128	0.028546	0.437046	0.131420	0.221724	0.036256	0.340362	0.223147	0.242778	0.038271	0.485503	0.235146	0.207798	0.030884	0.261303	0.456848	0.702694	0.036350	0.440294	0.368524	0.349391	0.028660	0.255412	0.252280	0.262601	0.029470	0.260099	0.369260	0.667990	0.023909	0.086084	0.299375	0.256131	0.042698	0.384332	0.327339	0.437587	0.044603	0.187763	0.113327	0.154270	0.025282	0.226405	0.357365	0.239086	0.020993	0.073749	0.327387	0.386845	0.035092	0.462606	0.191668	0.181350	0.014044	0.039766	0.165380	0.147955
37	0.026311	0.446063	0.434679	0.500310	0.034788	0.276664	0.345962	0.314475	0.017585	0.397206	0.261821	0.252544	0.046191	0.375076	0.454827	0.185760	0.028782	0.444377	0.282946	0.365976	0.041876	0.236628	0.168944	0.263762	0.040789	0.479270	0.236356	0.219637	0.025715	0.206585	0.475279	0.697445	0.036073	0.429003	0.364918	0.358462	0.029343	0.298079	0.272933	0.293270	0.030697	0.257348	0.609792	0.746780	0.027672	0.106983	0.280217	0.251936	0.049475	0.387395	0.477194	0.691253	0.044431	0.192007	0.099122	0.150606	0.020833	0.183300	0.302027	0.242545	0.018075	0.071846	0.323346	0.386241	0.033120	0.467135	0.202357	0.213857	0.020966	0.042553	0.235074	0.220654
38	0.022672	0.239712	0.437717	0.472295	0.037171	0.261708	0.347296	0.318209	0.065637	0.514800	0.262242	0.279728	0.042848	0.412386	0.349420	0.181963	0.028667	0.443601	0.362307	0.463597	0.041930	0.216427	0.131527	0.260290	0.037413	0.386653	0.236383	0.221284	0.025447	0.186294	0.480507	0.695551	0.037466	0.421868	0.357541	0.370968	0.033877	0.303509	0.300598	0.302886	0.027870	0.243854	0.606855	0.669677	0.028386	0.103745	0.371921	0.167051	0.048481	0.385155	0.593391	0.814550	0.039810	0.204852	0.159711	0.146392	0.020141	0.183254	0.269761	0.234234	0.016985	0.067858	0.317107	0.377897	0.035738	0.466997	0.368109	0.348026	0.025980	0.072958	0.263836	0.248450
39	0.022017	0.187900	0.410144	0.494103	0.052391	0.314656	0.376949	0.292537	0.074052	0.575136	0.283450	0.235439	0.040577	0.413867	0.363696	0.162005	0.029016	0.446166	0.367685	0.535123	0.046012	0.221023	0.152217	0.263091	0.027952	0.263709	0.302656	0.398080	0.024864	0.177965	0.467185	0.643540	0.037022	0.421361	0.339717	0.416788	0.037985	0.312778	0.386369	0.312497	0.027540	0.231334	0.655977	0.636440	0.029740	0.127906	0.341764	0.209961	0.048786	0.367526	0.594530	0.820686	0.035819	0.196987	0.226352	0.177657	0.020426	0.167398	0.263925	0.267842	0.017060	0.049888	0.292921	0.275546	0.037533	0.470294	0.423058	0.359357	0.026745	0.096966	0.267186	0.260054
40	0.020833	0.205155	0.326159	0.380297	0.056678	0.368491	0.398339	0.238021	0.084750	0.594649	0.289528	0.234479	0.039969	0.332984	0.358123	0.150703	0.026198	0.386145	0.388079	0.545090	0.048848	0.217742	0.183691	0.262712	0.027793	0.274772	0.387955	0.479478	0.020570	0.097609	0.452793	0.601982	0.037292	0.420232	0.345366	0.417503	0.038337	0.330241	0.431745	0.310836	0.028149	0.232818	0.695816	0.655106	0.029881	0.148273	0.348652	0.272924	0.048007	0.359279	0.586949	0.820429	0.035990	0.177133	0.239573	0.176041	0.020401	0.166112	0.354408	0.529540	0.016785	0.048647	0.278699	0.257778	0.039076	0.477551	0.414104	0.358116	0.027872	0.108314	0.289878	0.274611
41	0.013375	0.205265	0.249211	0.311183	0.059739	0.370552	0.381627	0.335882	0.086051	0.560113	0.236190	0.230931	0.034799	0.284532	0.313022	0.128399	0.025948	0.333662	0.416168	0.625445	0.050867	0.204772	0.259454	0.272384	0.029495	0.285346	0.392549	0.508379	0.019275	0.093249	0.397262	0.521569	0.034983	0.361730	0.333808	0.338887	0.042034	0.337511	0.438813	0.350599	0.028338	0.257586	0.715278	0.680393	0.030483	0.182727	0.351775	0.320959	0.045484	0.372081	0.577188	0.817949	0.029583	0.190073	0.240970	0.183484	0.020016	0.154957	0.419961	0.587234	0.013809	0.052468	0.277461	0.160217	0.039235	0.482762	0.410278	0.360036	0.030676	0.108358	0.321181	0.284365
42	0.014644	0.205670	0.231590	0.288050	0.060426	0.370652	0.386341	0.427651	0.090022	0.551668	0.261605	0.226161	0.028252	0.256747	0.319090	0.147800	0.026338	0.319405	0.430229	0.826517	0.050817	0.181612	0.286236	0.269353	0.034907	0.360877	0.423834	0.528373	0.018245	0.098302	0.391323	0.315980	0.034525	0.274664	0.192523	0.291949	0.041816	0.355770	0.443341	0.399122	0.028126	0.250191	0.704968	0.656338	0.038583	0.203387	0.358801	0.341714	0.043782	0.366242	0.588091	0.821596	0.024164	0.209690	0.240022	0.204159	0.022085	0.152739	0.415083	0.618685	0.010271	0.053789	0.264513	0.121431	0.040177	0.453164	0.405086	0.366278	0.031837	0.109207	0.352611	0.290676
43	0.017962	0.225302	0.231297	0.287404	0.058607	0.369644	0.362798	0.427154	0.095471	0.566237	0.427269	0.215184	0.028681	0.254066	0.361937	0.155526	0.026574	0.302394	0.462349	0.931851	0.050911	0.158936	0.292342	0.297533	0.034321	0.371120	0.440137	0.531514	0.019385	0.110306	0.331527	0.228284	0.032504	0.266455	0.155332	0.294281	0.040272	0.375308	0.455458	0.462402	0.038455	0.245648	0.539124	0.455236	0.040095	0.237716	0.360075	0.355541	0.042673	0.350168	0.634103	0.882372	0.024785	0.226418	0.254794	0.215030	0.022484	0.188082	0.418238	0.698163	0.010291	0.054128	0.255082	0.138944	0.040169	0.343260	0.414386	0.370703	0.033069	0.111805	0.361557	0.290647
44	0.025033	0.286028	0.238143	0.288685	0.057088	0.366876	0.425789	0.444220	0.074606	0.473509	0.441721	0.219987	0.029015	0.254034	0.363711	0.164280	0.023510	0.288278	0.483022	0.946001	0.050818	0.123315	0.336805	0.323930	0.035190	0.366249	0.434495	0.535141	0.024310	0.129543	0.256244	0.141706	0.030932	0.198198	0.190798	0.288189	0.039598	0.381104	0.473113	0.535930	0.037879	0.245472	0.447553	0.306776	0.055513	0.337595	0.329784	0.356735	0.042428	0.336187	0.654505	0.889203	0.023411	0.225990	0.275336	0.211508	0.023122	0.211513	0.428747	0.702342	0.013785	0.069652	0.278887	0.199629	0.040409	0.324434	0.456401	0.393452	0.034117	0.116014	0.363602	0.289883
45	0.044522	0.378914	0.221781	0.263738	0.056984	0.365025	0.475154	0.499740	0.063625	0.384933	0.496114	0.246306	0.025654	0.241629	0.343614	0.156049	0.021646	0.167591	0.482299	0.935422	0.049079	0.135494	0.370571	0.311840	0.035738	0.339274	0.453634	0.626086	0.023307	0.135011	0.242069	0.185030	0.032524	0.197617	0.206651	0.276725	0.039543	0.363643	0.462806	0.537676	0.047525	0.360540	0.378451	0.301353	0.056127	0.455314	0.195465	0.326717	0.040027	0.298503	0.658868	0.877891	0.022744	0.225427	0.293629	0.224949	0.029494	0.222915	0.440081	0.748372	0.018819	0.090151	0.344969	0.202351	0.033077	0.230239	0.489033	0.447776	0.034440	0.117836	0.363581	0.293446
46	0.051656	0.444916	0.171297	0.177694	0.057072	0.354813	0.504071	0.509893	0.048094	0.356313	0.539333	0.285522	0.017551	0.141428	0.339374	0.183070	0.021562	0.114684	0.403455	0.874211	0.037965	0.115003	0.383180	0.291913	0.034471	0.305361	0.478655	0.704712	0.024399	0.146818	0.233761	0.286758	0.038358	0.223891	0.206715	0.312954	0.038586	0.294119	0.472411	0.543104	0.053922	0.361351	0.284915	0.261622	0.054973	0.458960	0.177112	0.275598	0.031242	0.270925	0.556730	0.689614	0.022681	0.224776	0.298995	0.253397	0.029208	0.209802	0.444969	0.835030	0.020868	0.100186	0.383839	0.255369	0.031441	0.186328	0.493500	0.463829	0.033721	0.118665	0.349512	0.296153
47	0.058933	0.435306	0.300262	0.145156	0.056817	0.293574	0.517335	0.511854	0.046898	0.316122	0.548168	0.302224	0.014062	0.123606	0.304456	0.191109	0.021530	0.098682	0.356659	0.849670	0.036507	0.113899	0.383530	0.282596	0.031143	0.299858	0.489394	0.719720	0.024331	0.147382	0.230750	0.289838	0.039533	0.247704	0.205825	0.301060	0.036617	0.285706	0.497605	0.589711	0.059323	0.348962	0.185354	0.176510	0.054817	0.445487	0.193799	0.213611	0.030980	0.256411	0.381149	0.476662	0.020893	0.221256	0.299217	0.259685	0.029080	0.198518	0.445385	0.864293	0.020884	0.114664	0.390161	0.259999	0.030484	0.182160	0.459929	0.443625	0.029997	0.116183	0.311944	0.308195
48	0.060646	0.436902	0.309252	0.164891	0.053285	0.275653	0.503551	0.536701	0.040362	0.217721	0.525100	0.295588	0.014291	0.102318	0.269391	0.216127	0.022726	0.110214	0.354647	0.812340	0.033654	0.104563	0.377607	0.258209	0.029580	0.295028	0.509798	0.754577	0.024983	0.152793	0.178547	0.296402	0.039263	0.250752	0.181422	0.272965	0.028147	0.272800	0.469692	0.621242	0.060170	0.372882	0.123376	0.082296	0.054627	0.441102	0.204317	0.191137	0.030975	0.221176	0.373981	0.464752	0.021252	0.212104	0.298971	0.261728	0.028502	0.186008	0.450057	0.917421	0.021051	0.117937	0.393680	0.258837	0.026510	0.183189	0.331943	0.369638	0.025141	0.111616	0.283306	0.314848
49	0.072687	0.483149	0.311333	0.168655	0.039168	0.137077	0.471732	0.541178	0.026214	0.118818	0.491326	0.292727	0.014128	0.108826	0.276219	0.222897	0.023253	0.188052	0.349287	0.852322	0.028808	0.127740	0.367600	0.256006	0.030030	0.277696	0.459144	0.661904	0.025822	0.159497	0.183614	0.303831	0.038057	0.251403	0.169742	0.288617	0.026240	0.266589	0.424499	0.642859	0.057262	0.360220	0.224317	0.113651	0.047880	0.456084	0.181116	0.153767	0.029306	0.210404	0.369489	0.458540	0.021884	0.187403	0.268277	0.252791	0.027094	0.186543	0.456687	0.939543	0.021305	0.118021	0.425086	0.261392	0.023067	0.163617	0.309298	0.379626	0.023022	0.113007	0.284987	0.317467
50	0.072999	0.449870	0.362467	0.178338	0.037565	0.106602	0.460692	0.536066	0.028935	0.189178	0.555475	0.286113	0.013753	0.115578	0.283298	0.218666	0.027270	0.206659	0.363329	0.871364	0.030439	0.154025	0.346559	0.250045	0.029874	0.269624	0.424158	0.650365	0.026155	0.157515	0.248079	0.355261	0.036602	0.279137	0.228689	0.325275	0.021202	0.237355	0.410792	0.645147	0.053604	0.360252	0.272971	0.164870	0.051493	0.492836	0.172267	0.126269	0.042662	0.742338	0.374157	0.456565	0.022074	0.158553	0.217262	0.239662	0.028487	0.189166	0.393981	0.820070	0.021249	0.119911	0.462572	0.268053	0.022402	0.155738	0.307622	0.429108	0.023770	0.097483	0.273528	0.317888
51	0.071704	0.415566	0.378088	0.169511	0.034684	0.106543	0.441959	0.455125	0.036455	0.182388	0.497414	0.263882	0.012869	0.125983	0.246646	0.235000	0.035057	0.220261	0.426762	0.739386	0.036836	0.153525	0.377112	0.255347	0.025646	0.206110	0.417135	0.620788	0.024622	0.138346	0.281714	0.411940	0.031677	0.351273	0.249277	0.340976	0.016714	0.224349	0.400602	0.611269	0.049213	0.280325	0.276655	0.214276	0.053346	0.552164	0.167887	0.135945	0.047387	0.933779	0.363156	0.463193	0.019289	0.151981	0.199406	0.236352	0.029018	0.194312	0.269222	0.773743	0.021435	0.128747	0.470244	0.287856	0.020494	0.115802	0.304112	0.435082	0.021240	0.101995	0.261128	0.424724
52	0.066895	0.287474	0.382626	0.162760	0.047949	0.160320	0.421604	0.400214	0.037691	0.180980	0.443095	0.225509	0.013711	0.125979	0.253121	0.224573	0.036491	0.259533	0.472428	0.707120	0.040388	0.161091	0.390404	0.336635	0.020232	0.122814	0.361613	0.612691	0.025824	0.122907	0.258689	0.404628	0.042744	0.349252	0.288379	0.361085	0.016570	0.156265	0.397393	0.611615	0.044642	0.245549	0.291320	0.255027	0.073171	0.506825	0.187342	0.165445	0.077320	1.050115	0.291248	0.289601	0.017187	0.132214	0.201749	0.239743	0.027161	0.200614	0.240565	0.756261	0.021530	0.144322	0.471782	0.290290	0.017024	0.082999	0.323370	0.423250	0.019242	0.112713	0.270255	0.454383
53	0.095308	0.355223	0.373412	0.164753	0.056941	0.197233	0.408835	0.412461	0.037653	0.183263	0.447666	0.209678	0.013346	0.126646	0.261039	0.247429	0.040105	0.261023	0.470189	0.701957	0.044155	0.172678	0.365078	0.319247	0.020501	0.114618	0.350665	0.609419	0.025213	0.095389	0.279067	0.371196	0.047898	0.374001	0.271316	0.370169	0.016444	0.081963	0.331944	0.517503	0.024730	0.238996	0.345400	0.256725	0.077550	0.502306	0.324232	0.238809	0.086953	1.149322	0.241430	0.257177	0.016469	0.094454	0.246661	0.230218	0.027127	0.175773	0.235241	0.736152	0.021355	0.148188	0.472653	0.294839	0.014599	0.079674	0.292426	0.425072	0.020972	0.136754	0.276588	0.456498
54	0.149445	0.430674	0.326243	0.209085	0.056657	0.210773	0.341330	0.362426	0.039778	0.181606	0.463489	0.230940	0.013246	0.122923	0.291403	0.255448	0.040187	0.259355	0.498702	0.705952	0.053285	0.177251	0.331674	0.340981	0.018261	0.126109	0.336676	0.588460	0.025704	0.075514	0.328657	0.324648	0.045858	0.428976	0.312691	0.385416	0.015325	0.074365	0.326559	0.460290	0.022301	0.151126	0.346208	0.262981	0.077976	0.502135	0.326284	0.247188	0.090956	1.153154	0.220945	0.298686	0.014614	0.108929	0.244144	0.226358	0.026709	0.138118	0.270282	0.762186	0.021484	0.147716	0.471479	0.301882	0.015669	0.075630	0.213587	0.385219	0.020909	0.135541	0.273321	0.456503
55	0.153585	0.499555	0.538145	0.248886	0.056658	0.217573	0.335327	0.384175	0.038415	0.171982	0.367824	0.264848	0.013384	0.098259	0.288481	0.324452	0.041631	0.265697	0.575564	0.718111	0.062237	0.194156	0.332703	0.334864	0.018901	0.133125	0.312350	0.479814	0.026390	0.130696	0.353448	0.323998	0.044407	0.410543	0.329227	0.350340	0.014429	0.103612	0.310248	0.487090	0.015327	0.117253	0.342093	0.262772	0.078022	0.510356	0.344659	0.260437	0.089922	1.196583	0.226599	0.306388	0.014435	0.133987	0.222029	0.230130	0.023706	0.133455	0.300143	0.718658	0.021095	0.151829	0.454090	0.312776	0.019521	0.066895	0.171902	0.328277	0.027735	0.135459	0.271111	0.469812
56	0.155508	0.477183	0.638571	0.534319	0.056691	0.225093	0.319928	0.419776	0.037712	0.149625	0.214631	0.251478	0.013282	0.079392	0.287438	0.327089	0.047156	0.381407	0.627371	0.747755	0.063523	0.206100	0.349785	0.340607	0.018446	0.142860	0.338763	0.557087	0.026505	0.216916	0.357007	0.319510	0.047973	0.407471	0.330093	0.329743	0.015359	0.128323	0.260647	0.445822	0.014871	0.098092	0.269224	0.231926	0.078591	0.469929	0.368498	0.251139	0.089766	1.204027	0.238392	0.313177	0.013130	0.136450	0.215096	0.215260	0.026425	0.153652	0.346744	0.621802	0.018453	0.143705	0.407450	0.300515	0.022828	0.095731	0.176199	0.326934	0.033395	0.139868	0.264884	0.480775
57	0.170386	0.556150	0.614604	0.610784	0.059753	0.233564	0.297944	0.414070	0.034392	0.280648	0.212617	0.299036	0.013325	0.071559	0.282152	0.331410	0.050178	0.388291	0.648727	0.782935	0.063398	0.217433	0.353771	0.359264	0.017581	0.214673	0.342284	0.556533	0.030247	0.342679	0.349531	0.302218	0.050957	0.407549	0.330472	0.317414	0.018996	0.165787	0.215734	0.384650	0.013916	0.100773	0.253293	0.218726	0.073042	0.393032	0.378230	0.252488	0.089518	1.205664	0.241690	0.313961	0.014722	0.157465	0.214812	0.184028	0.026565	0.158556	0.344688	0.576920	0.013049	0.131580	0.335633	0.370120	0.023105	0.118031	0.175769	0.485743	0.034833	0.191787	0.264514	0.489421
58	0.180590	0.613670	0.657136	0.610278	0.058508	0.233952	0.308311	0.375862	0.047002	0.324926	0.203892	0.297912	0.013386	0.070151	0.259033	0.349435	0.068489	0.450174	0.641020	0.710202	0.062945	0.297894	0.353106	0.360445	0.017868	0.268881	0.303561	0.494381	0.045299	0.377787	0.294719	0.216890	0.052858	0.428797	0.310496	0.301931	0.019405	0.207565	0.220729	0.334182	0.018599	0.130434	0.248374	0.143947	0.061671	0.151181	0.373418	0.238173	0.089295	1.203835	0.312981	0.348513	0.016439	0.164477	0.213831	0.189031	0.026613	0.162082	0.346471	0.517597	0.010158	0.120427	0.297180	0.418142	0.027473	0.118174	0.174948	0.656401	0.035579	0.229694	0.293222	0.510659
59	0.178873	0.616351	0.724356	0.616012	0.058349	0.232203	0.331504	0.405314	0.051034	0.358825	0.155764	0.303957	0.009952	0.037135	0.261327	0.338626	0.068948	0.476600	0.614910	0.585424	0.063991	0.287880	0.344357	0.358943	0.017281	0.307482	0.273107	0.487564	0.061868	0.408385	0.272669	0.127062	0.059309	0.356890	0.289381	0.252907	0.019739	0.242469	0.248952	0.316077	0.019736	0.220589	0.172145	0.132653	0.033676	0.132719	0.339366	0.236714	0.083046	0.986053	0.348292	0.335002	0.015351	0.164596	0.214475	0.182605	0.026566	0.161135	0.352338	0.612342	0.010548	0.106186	0.312648	0.422458	0.029783	0.116605	0.177492	0.707865	0.036757	0.223372	0.322997	0.538370
60	0.155925	0.569848	0.758181	0.644257	0.077855	0.219308	0.339358	0.433294	0.050307	0.410709	0.097028	0.297365	0.008711	0.029937	0.215864	0.334068	0.066962	0.495721	0.553324	0.527287	0.066399	0.286827	0.277307	0.353630	0.020829	0.316589	0.262747	0.484922	0.061880	0.522475	0.283041	0.116959	0.057150	0.310866	0.253780	0.243267	0.020253	0.370982	0.250834	0.323622	0.022590	0.288811	0.125036	0.128686	0.030090	0.135448	0.242583	0.185119	0.079382	0.772841	0.344156	0.283905	0.014227	0.164495	0.261511	0.170080	0.031586	0.170676	0.378089	0.654763	0.010120	0.107422	0.324910	0.434449	0.029356	0.114171	0.179884	0.771758	0.037568	0.223965	0.322417	0.557092
61	0.112199	0.554010	0.733864	0.649289	0.119084	0.228468	0.343261	0.447925	0.056430	0.528530	0.101712	0.284902	0.007685	0.031524	0.198498	0.327648	0.066347	0.486772	0.540245	0.491984	0.069343	0.283875	0.242566	0.267178	0.023055	0.360216	0.263801	0.495630	0.066369	0.534142	0.261719	0.121415	0.047647	0.304076	0.259254	0.224626	0.020944	0.393328	0.254879	0.283562	0.030415	0.303306	0.142817	0.152371	0.029928	0.142074	0.219556	0.191857	0.053768	0.636439	0.318681	0.296791	0.015743	0.165040	0.307425	0.152235	0.034138	0.176981	0.403036	0.675367	0.010540	0.113357	0.305761	0.461420	0.031444	0.128134	0.167603	0.785281	0.037166	0.225606	0.313053	0.539926
62	0.108537	0.522382	0.581550	0.627740	0.149056	0.206821	0.338572	0.438157	0.055740	0.579816	0.153832	0.285209	0.007449	0.029007	0.156713	0.311188	0.063778	0.491710	0.580011	0.500200	0.073627	0.274300	0.229516	0.217588	0.023527	0.482407	0.272145	0.501925	0.068464	0.662890	0.199512	0.106515	0.048599	0.180603	0.248079	0.197828	0.022444	0.393600	0.259467	0.288238	0.037759	0.390536	0.207926	0.210834	0.029684	0.097410	0.204432	0.180642	0.032419	0.390047	0.359798	0.385227	0.018264	0.179200	0.310207	0.151525	0.033944	0.185916	0.493832	0.692519	0.014952	0.120361	0.270577	0.481570	0.031322	0.135085	0.154467	0.787524	0.037371	0.225323	0.284422	0.524681
63	0.101673	0.575082	0.505377	0.377633	0.167930	0.217283	0.325662	0.444056	0.054069	0.538898	0.175491	0.230112	0.008225	0.027607	0.127853	0.251659	0.062901	0.551354	0.538215	0.491183	0.071534	0.274099	0.225770	0.175862	0.032518	0.487529	0.294933	0.505426	0.068320	0.654065	0.157474	0.120421	0.053644	0.160331	0.232580	0.290272	0.022789	0.393211	0.272312	0.292353	0.041928	0.428116	0.219852	0.241993	0.024960	0.100486	0.162472	0.186829	0.015471	0.384360	0.383655	0.431686	0.020897	0.182810	0.333102	0.137006	0.033526	0.175480	0.565430	0.654660	0.021784	0.136893	0.270660	0.484281	0.029757	0.138264	0.170607	0.791416	0.035698	0.216445	0.264610	0.544290
64	0.071745	0.489658	0.525583	0.322751	0.178909	0.222820	0.301607	0.586323	0.046580	0.553733	0.192951	0.212661	0.008287	0.027320	0.134002	0.187643	0.061779	0.563918	0.454481	0.475534	0.066000	0.253726	0.199173	0.165316	0.033728	0.505883	0.310839	0.497299	0.068633	0.638582	0.151721	0.121411	0.054319	0.158102	0.241920	0.307261	0.024737	0.389322	0.290423	0.261405	0.040907	0.435995	0.244139	0.348018	0.031999	0.115129	0.152268	0.183856	0.014510	0.221786	0.376493	0.434879	0.023023	0.200157	0.342927	0.122116	0.033684	0.174415	0.594847	0.642974	0.023322	0.170568	0.267874	0.486747	0.028854	0.137891	0.171323	0.797011	0.036288	0.223498	0.274175	0.557048
65	0.051287	0.462291	0.489501	0.327024	0.182622	0.272411	0.289009	0.587567	0.041628	0.624604	0.192813	0.227564	0.008642	0.028349	0.143476	0.178304	0.059501	0.505149	0.391273	0.416292	0.064635	0.244941	0.152664	0.234368	0.033661	0.518579	0.284376	0.420815	0.066857	0.569536	0.153802	0.120431	0.053544	0.160101	0.242060	0.318543	0.026793	0.382344	0.298584	0.187205	0.042835	0.433999	0.250855	0.398170	0.031923	0.211737	0.170263	0.183640	0.014008	0.177242	0.374935	0.440952	0.023549	0.218969	0.348124	0.129172	0.031344	0.171621	0.603375	0.673812	0.023960	0.191408	0.268785	0.483585	0.026815	0.133630	0.157330	0.797054	0.031964	0.222540	0.278994	0.553156
66	0.051036	0.486970	0.436205	0.324564	0.210830	0.286384	0.284132	0.581959	0.052436	0.623594	0.193279	0.223044	0.007562	0.029425	0.138790	0.180998	0.052744	0.490872	0.375564	0.378227	0.076595	0.245466	0.114092	0.339341	0.036519	0.529463	0.220537	0.240917	0.054138	0.555269	0.161971	0.134000	0.051806	0.108826	0.247177	0.318942	0.025528	0.375402	0.297520	0.202484	0.071320	0.399862	0.252257	0.396831	0.048782	0.246310	0.261700	0.184132	0.015292	0.164456	0.373505	0.513485	0.024972	0.214279	0.346807	0.145874	0.029381	0.171603	0.587388	0.674980	0.027302	0.197496	0.303018	0.521104	0.025539	0.105146	0.163342	0.769513	0.026531	0.225582	0.307013	0.525863
67	0.054564	0.462770	0.383774	0.273668	0.281576	0.301170	0.280578	0.586197	0.045281	0.543834	0.177245	0.195696	0.007570	0.029546	0.135650	0.197897	0.029128	0.404077	0.374207	0.379010	0.102313	0.139773	0.119061	0.351094	0.044499	0.590371	0.211371	0.232163	0.037325	0.528368	0.172670	0.143895	0.048320	0.076922	0.259895	0.340613	0.021806	0.343697	0.285437	0.194580	0.081729	0.415409	0.259779	0.451801	0.048638	0.297225	0.383267	0.345894	0.017380	0.145395	0.324004	0.497305	0.026531	0.213210	0.338228	0.146474	0.036454	0.169248	0.590318	0.678262	0.039018	0.235865	0.414453	0.524451	0.025180	0.094460	0.266212	0.620501	0.023053	0.195088	0.306386	0.526082
68	0.054222	0.433729	0.404220	0.227684	0.300877	0.301979	0.263510	0.575307	0.045177	0.467528	0.140987	0.182356	0.009164	0.033930	0.112942	0.197894	0.022561	0.359528	0.379111	0.379652	0.110703	0.124576	0.119993	0.372430	0.047535	0.585593	0.272240	0.233473	0.034707	0.445556	0.148784	0.140659	0.043865	0.118097	0.260316	0.377799	0.020164	0.338372	0.235163	0.195678	0.084964	0.384950	0.221867	0.446539	0.048424	0.296917	0.397283	0.404917	0.018626	0.139512	0.290588	0.508413	0.026024	0.198852	0.343846	0.143903	0.037181	0.177401	0.587016	0.656341	0.044714	0.241535	0.528698	0.525873	0.018584	0.091819	0.383925	0.578967	0.021859	0.150677	0.277875	0.525591
69	0.053091	0.380193	0.450512	0.225107	0.301353	0.304400	0.253464	0.569835	0.043395	0.456925	0.115985	0.198437	0.012242	0.075368	0.099602	0.194992	0.020226	0.345305	0.361620	0.344936	0.110552	0.149433	0.104518	0.372963	0.047246	0.577520	0.340536	0.236169	0.029928	0.433830	0.127902	0.150799	0.045066	0.191398	0.254311	0.378662	0.022479	0.233287	0.224069	0.186145	0.083026	0.337096	0.200366	0.454932	0.048591	0.297902	0.458406	0.426728	0.018316	0.140060	0.286518	0.506588	0.036310	0.236916	0.351129	0.137422	0.039200	0.178941	0.603669	0.514876	0.046073	0.277982	0.590495	0.462479	0.019407	0.094109	0.465492	0.552084	0.020264	0.129128	0.232670	0.470362
70	0.043110	0.328578	0.456441	0.206939	0.292608	0.302669	0.273835	0.568467	0.042537	0.419804	0.102869	0.226302	0.012372	0.083114	0.093704	0.194161	0.023699	0.332908	0.269344	0.333230	0.106805	0.149824	0.103649	0.372985	0.048136	0.576265	0.346372	0.222569	0.024728	0.226126	0.160013	0.178269	0.044194	0.206507	0.255225	0.382565	0.026901	0.103632	0.231423	0.200506	0.082912	0.313825	0.198343	0.435352	0.048837	0.292429	0.493942	0.430529	0.017717	0.139286	0.295279	0.498251	0.044790	0.243905	0.351709	0.137932	0.034969	0.169014	0.643253	0.454596	0.047116	0.298900	0.588885	0.406063	0.018980	0.090511	0.471100	0.496158	0.016765	0.157198	0.217171	0.459373
71	0.042134	0.363995	0.413302	0.190452	0.275660	0.290981	0.287196	0.575729	0.092361	0.274722	0.123176	0.192982	0.018094	0.142129	0.112445	0.195507	0.028622	0.303951	0.187804	0.312798	0.103390	0.148933	0.103898	0.371329	0.051635	0.492808	0.355874	0.224765	0.025177	0.225417	0.161459	0.171894	0.039059	0.225339	0.250962	0.472165	0.026058	0.100837	0.227639	0.219250	0.083399	0.297026	0.195401	0.332376	0.042334	0.281898	0.500837	0.430270	0.018468	0.135599	0.241413	0.429686	0.048172	0.246535	0.322947	0.154571	0.031608	0.161361	0.686812	0.478996	0.051925	0.299122	0.590213	0.406154	0.016774	0.068465	0.507493	0.496839	0.015666	0.184669	0.220796	0.400491
72	0.041796	0.326159	0.348956	0.182137	0.260176	0.266961	0.286173	0.578733	0.129829	0.391208	0.126957	0.188904	0.019006	0.147941	0.114204	0.195367	0.029564	0.191536	0.212241	0.283858	0.100286	0.150352	0.103150	0.380406	0.053938	0.439963	0.347087	0.255571	0.034353	0.237477	0.162078	0.247003	0.035523	0.258561	0.258268	0.456115	0.025322	0.124466	0.255016	0.267928	0.071751	0.263377	0.206536	0.346294	0.036439	0.202301	0.489663	0.430194	0.018523	0.120674	0.199878	0.386200	0.047623	0.246776	0.287457	0.161785	0.031668	0.147551	0.646267	0.488176	0.052460	0.307282	0.586381	0.396183	0.018915	0.059207	0.548743	0.524461	0.015248	0.190259	0.222321	0.354629
73	0.051593	0.294994	0.295608	0.156088	0.248867	0.256407	0.285264	0.530608	0.134619	0.639963	0.130012	0.170859	0.020303	0.151276	0.107290	0.193298	0.029401	0.121251	0.364889	0.348428	0.097966	0.155869	0.106539	0.394518	0.050875	0.433904	0.338372	0.382415	0.039921	0.241562	0.163097	0.267895	0.046709	0.288027	0.341513	0.456222	0.026307	0.124446	0.338228	0.311605	0.053736	0.253400	0.217511	0.299311	0.016230	0.163541	0.412224	0.404262	0.018346	0.145814	0.265205	0.470930	0.046794	0.236670	0.286606	0.164689	0.031505	0.148662	0.589583	0.469035	0.053464	0.337892	0.573655	0.366958	0.019066	0.076010	0.568096	0.546831	0.016146	0.198623	0.202369	0.312806
74	0.048887	0.352462	0.295859	0.146578	0.245207	0.209827	0.261300	0.336896	0.159195	0.730706	0.154939	0.159175	0.020165	0.150937	0.105394	0.171543	0.032337	0.145984	0.393480	0.353007	0.096628	0.154652	0.104770	0.386566	0.051623	0.418952	0.335316	0.383788	0.042609	0.254342	0.161606	0.265515	0.047829	0.289639	0.375965	0.458728	0.031197	0.141744	0.335035	0.323918	0.021337	0.151320	0.224195	0.261713	0.016007	0.073708	0.352866	0.293740	0.018611	0.144627	0.325819	0.482568	0.045593	0.233631	0.253045	0.164659	0.031874	0.152244	0.534904	0.435681	0.052282	0.340846	0.567480	0.342486	0.019887	0.086145	0.566760	0.548009	0.013799	0.183844	0.182958	0.281956
75	0.073120	0.526940	0.239143	0.146897	0.236941	0.161752	0.220201	0.345428	0.170727	0.872490	0.187394	0.162050	0.020137	0.151252	0.106755	0.094128	0.033046	0.154631	0.457774	0.374748	0.098023	0.178285	0.106008	0.252439	0.055109	0.416050	0.331451	0.387296	0.043507	0.262181	0.154037	0.258710	0.046414	0.288774	0.376089	0.462831	0.032869	0.147466	0.371943	0.342388	0.021113	0.155814	0.218649	0.166626	0.015188	0.058734	0.328156	0.146483	0.024638	0.187860	0.372712	0.429104	0.044534	0.216811	0.192687	0.163964	0.031379	0.141929	0.502373	0.377696	0.050004	0.327366	0.565425	0.330168	0.018775	0.091575	0.569564	0.558375	0.013285	0.189625	0.189162	0.280600
76	0.085475	0.557102	0.162022	0.144371	0.191525	0.124624	0.223638	0.363747	0.172970	0.876054	0.197690	0.169317	0.019806	0.151025	0.113147	0.089057	0.033141	0.155006	0.535278	0.385125	0.084899	0.282757	0.116100	0.228621	0.051332	0.341591	0.357197	0.377877	0.043183	0.227234	0.151145	0.257515	0.047137	0.282189	0.451893	0.433032	0.033042	0.150111	0.420450	0.343548	0.021579	0.128856	0.215560	0.176971	0.015398	0.104763	0.228516	0.195359	0.024001	0.190792	0.380250	0.540517	0.044354	0.169964	0.166330	0.146285	0.029167	0.111891	0.483178	0.360672	0.051424	0.311655	0.571952	0.327829	0.018136	0.092347	0.575626	0.577389	0.013664	0.197549	0.145250	0.271137
77	0.100542	0.606002	0.156069	0.149194	0.075279	0.100169	0.253473	0.358997	0.154939	0.882478	0.218765	0.188800	0.018075	0.142717	0.112178	0.090804	0.034234	0.153714	0.577792	0.391322	0.069261	0.364750	0.137729	0.182809	0.046271	0.213605	0.428154	0.401156	0.042424	0.225160	0.132145	0.242840	0.051049	0.249574	0.470886	0.455467	0.033993	0.150275	0.423402	0.365780	0.027026	0.156349	0.229886	0.173968	0.012802	0.111045	0.175013	0.217725	0.023821	0.190355	0.376314	0.546621	0.043821	0.157828	0.176657	0.125485	0.019454	0.112012	0.483646	0.352842	0.053205	0.309950	0.583731	0.319321	0.018109	0.095061	0.529857	0.567463	0.018987	0.194104	0.125643	0.253562
78	0.101780	0.631071	0.152734	0.172983	0.040371	0.105053	0.263734	0.340681	0.118516	0.823586	0.238098	0.219686	0.017611	0.131168	0.114433	0.110185	0.035358	0.147695	0.592969	0.389452	0.060326	0.372815	0.154611	0.184865	0.044673	0.202578	0.413610	0.401209	0.041545	0.225167	0.090506	0.224245	0.052185	0.223439	0.458426	0.489110	0.040230	0.149154	0.423010	0.425227	0.025366	0.158992	0.227583	0.170429	0.014856	0.116866	0.177457	0.268520	0.024022	0.190187	0.370065	0.632519	0.042981	0.164553	0.190493	0.128800	0.019937	0.101110	0.483035	0.351321	0.050923	0.305052	0.568840	0.230945	0.018172	0.096136	0.446253	0.498822	0.021764	0.211524	0.125435	0.134606
79	0.102655	0.644848	0.164818	0.180840	0.040232	0.095940	0.247058	0.306324	0.114306	0.632356	0.246975	0.246679	0.014867	0.098653	0.105639	0.170729	0.034195	0.148822	0.594817	0.394370	0.059795	0.379901	0.155807	0.185059	0.043678	0.187363	0.382265	0.398844	0.041320	0.221406	0.094660	0.214739	0.054131	0.231616	0.450943	0.438331	0.041489	0.150498	0.422955	0.428331	0.026502	0.158297	0.208800	0.148293	0.017237	0.170283	0.220649	0.268571	0.027584	0.188566	0.366131	0.726670	0.043041	0.167393	0.180994	0.142786	0.019111	0.107416	0.467138	0.404870	0.042254	0.275264	0.483189	0.194114	0.017107	0.090486	0.411519	0.416139	0.021721	0.221786	0.124060	0.080563
80	0.117520	0.659935	0.164642	0.171473	0.043824	0.084390	0.233955	0.265487	0.079447	0.547597	0.231434	0.299125	0.012938	0.171014	0.103658	0.189371	0.034770	0.156002	0.646440	0.465450	0.064458	0.443972	0.167508	0.187385	0.040912	0.190733	0.395686	0.393029	0.030062	0.191482	0.094359	0.109185	0.054311	0.227738	0.432982	0.362889	0.041270	0.151886	0.416710	0.474493	0.026951	0.155031	0.178991	0.147587	0.025512	0.211815	0.244293	0.272885	0.030937	0.185025	0.416340	0.731858	0.036116	0.096010	0.168440	0.140832	0.017870	0.105708	0.410684	0.486548	0.037656	0.272836	0.366073	0.171312	0.017017	0.089739	0.416905	0.412479	0.021836	0.213741	0.123685	0.064184
81	0.181099	0.801179	0.162691	0.146141	0.047334	0.078040	0.234469	0.247696	0.046164	0.244126	0.215009	0.311542	0.012667	0.247161	0.175480	0.214306	0.035315	0.152575	0.661516	0.485762	0.067344	0.516603	0.186163	0.185436	0.034424	0.192800	0.455992	0.384402	0.025864	0.187341	0.087058	0.078148	0.041750	0.158049	0.402493	0.351762	0.041255	0.132139	0.408861	0.507138	0.027643	0.151974	0.163926	0.171645	0.029545	0.235239	0.258410	0.273126	0.030837	0.183839	0.438088	0.714129	0.028283	0.097413	0.165654	0.163723	0.018761	0.095503	0.307491	0.449419	0.036475	0.222442	0.283599	0.165898	0.015533	0.090448	0.376429	0.384528	0.021839	0.186392	0.119894	0.058740
82	0.200879	0.815178	0.166727	0.155537	0.048069	0.085738	0.242024	0.243134	0.034016	0.218864	0.195408	0.291709	0.020866	0.249998	0.190843	0.214359	0.033770	0.120201	0.594419	0.462689	0.068128	0.534536	0.228421	0.140828	0.029273	0.190637	0.520564	0.303373	0.020321	0.161807	0.075564	0.052265	0.037468	0.158855	0.336686	0.353651	0.041148	0.126034	0.333337	0.471268	0.026596	0.137689	0.159829	0.165802	0.033009	0.235645	0.242983	0.282499	0.031610	0.158095	0.420533	0.657391	0.022436	0.096796	0.151826	0.169516	0.018925	0.085430	0.263984	0.457526	0.033703	0.210484	0.277841	0.169250	0.019556	0.093133	0.314216	0.327953	0.021532	0.177266	0.087944	0.097282
83	0.218291	0.829095	0.186802	0.178376	0.046124	0.103402	0.246043	0.243946	0.032382	0.184149	0.201128	0.294852	0.021739	0.293480	0.229001	0.219890	0.028843	0.079329	0.581886	0.473743	0.067877	0.538671	0.265760	0.139194	0.028691	0.158201	0.548281	0.394315	0.019215	0.146537	0.152060	0.065124	0.036950	0.158400	0.340251	0.393589	0.038851	0.119710	0.277589	0.463398	0.021056	0.099860	0.118759	0.184415	0.033559	0.215497	0.241494	0.234867	0.031606	0.146788	0.392348	0.648777	0.023395	0.099472	0.139383	0.161629	0.019729	0.080131	0.259214	0.460458	0.027140	0.215523	0.240402	0.159015	0.017671	0.071514	0.311747	0.283707	0.020946	0.165704	0.075461	0.108999
84	0.239486	0.769374	0.180659	0.184250	0.043401	0.104893	0.236340	0.238580	0.035300	0.178420	0.274567	0.336839	0.022133	0.348037	0.261339	0.221376	0.028921	0.073014	0.504760	0.424187	0.064863	0.537492	0.268736	0.112493	0.023252	0.140745	0.566143	0.446378	0.023173	0.137563	0.195495	0.106933	0.036567	0.156761	0.273362	0.428545	0.033824	0.088634	0.258404	0.440102	0.020218	0.094255	0.121950	0.282937	0.034485	0.239020	0.237477	0.223376	0.026928	0.079701	0.368418	0.646246	0.023254	0.100315	0.132875	0.162803	0.020506	0.074961	0.257830	0.452797	0.027324	0.228991	0.227313	0.137307	0.019277	0.067833	0.330140	0.280815	0.020182	0.216590	0.080529	0.108038
85	0.273483	0.826177	0.187412	0.162764	0.043304	0.145106	0.234922	0.154561	0.032370	0.171631	0.295138	0.338006	0.024570	0.350945	0.278705	0.218191	0.028867	0.077751	0.432417	0.420239	0.043787	0.498283	0.287507	0.115517	0.017048	0.120911	0.568527	0.446641	0.020832	0.113924	0.217626	0.156730	0.030772	0.156211	0.162765	0.512005	0.033469	0.083844	0.151003	0.437236	0.023190	0.110414	0.123338	0.307189	0.039104	0.274396	0.221560	0.177946	0.025751	0.068254	0.364173	0.545174	0.023558	0.101464	0.127331	0.162854	0.020113	0.074064	0.249595	0.474724	0.025508	0.206779	0.225977	0.119534	0.022056	0.078181	0.383266	0.263459	0.020307	0.271285	0.161528	0.109616
86	0.281059	0.926050	0.174581	0.245499	0.041494	0.162696	0.263803	0.188199	0.027308	0.132989	0.301241	0.319075	0.024978	0.352015	0.283887	0.216798	0.029727	0.087458	0.397221	0.447714	0.038628	0.439572	0.296204	0.123192	0.014800	0.103362	0.537204	0.447486	0.020633	0.097113	0.246345	0.214314	0.025729	0.152826	0.152695	0.511256	0.033331	0.081767	0.093291	0.433908	0.024635	0.141536	0.126184	0.308236	0.053031	0.313811	0.184803	0.194021	0.025994	0.071883	0.374573	0.590856	0.023741	0.104786	0.128925	0.162487	0.021036	0.075189	0.280543	0.475754	0.025943	0.203001	0.228061	0.107346	0.023728	0.083747	0.364642	0.219269	0.024623	0.270124	0.211065	0.110840
87	0.270204	0.901242	0.162864	0.280957	0.041065	0.160917	0.318841	0.252679	0.029452	0.159403	0.297917	0.328527	0.024928	0.352392	0.283831	0.167673	0.029112	0.090676	0.406282	0.460885	0.045949	0.441728	0.292476	0.122002	0.016042	0.102683	0.483554	0.428485	0.022638	0.104648	0.252399	0.222537	0.023020	0.139780	0.184541	0.475086	0.029219	0.072948	0.115335	0.391051	0.023905	0.143847	0.143315	0.323790	0.054494	0.357247	0.179979	0.189245	0.026711	0.073044	0.460911	0.598157	0.023739	0.105518	0.135023	0.163300	0.021544	0.074336	0.333600	0.503793	0.025882	0.221220	0.229731	0.107328	0.023704	0.080145	0.393051	0.183736	0.028835	0.273951	0.216968	0.114209
88	0.229627	0.712777	0.161706	0.310627	0.040391	0.163927	0.340051	0.278895	0.034299	0.216813	0.299888	0.419206	0.024420	0.334848	0.316106	0.161856	0.026317	0.091216	0.417483	0.481520	0.047747	0.532966	0.293873	0.132122	0.019195	0.099559	0.472058	0.468171	0.023875	0.118537	0.264458	0.234057	0.018536	0.102615	0.231568	0.469064	0.018579	0.044929	0.139206	0.365638	0.022421	0.141337	0.231975	0.516359	0.056068	0.351564	0.147136	0.204097	0.024721	0.073800	0.476759	0.483207	0.023131	0.105596	0.125546	0.166481	0.021811	0.070656	0.342249	0.525454	0.020953	0.209970	0.211975	0.118211	0.025309	0.084775	0.443478	0.145257	0.026612	0.273072	0.240671	0.114366
89	0.216062	0.624955	0.176701	0.306712	0.039877	0.165178	0.337080	0.375736	0.041543	0.289622	0.288764	0.480829	0.024151	0.272644	0.326310	0.158872	0.024197	0.084199	0.325247	0.481052	0.050159	0.520024	0.290449	0.132193	0.020294	0.098076	0.579717	0.483462	0.023630	0.121432	0.277560	0.233479	0.017766	0.097685	0.239974	0.473918	0.015070	0.030657	0.144341	0.321246	0.024238	0.137225	0.257502	0.595115	0.056200	0.351774	0.154497	0.188265	0.019391	0.073707	0.436007	0.485213	0.023210	0.092335	0.094776	0.163436	0.020437	0.058319	0.361005	0.523257	0.016725	0.199064	0.177411	0.160630	0.027045	0.098656	0.467877	0.154008	0.028303	0.265078	0.252621	0.117616
90	0.188629	0.597115	0.130969	0.297634	0.035591	0.177121	0.338544	0.392912	0.040614	0.291066	0.277162	0.573453	0.018906	0.250544	0.299554	0.158204	0.024183	0.087861	0.394664	0.498074	0.048277	0.435744	0.278583	0.123453	0.020445	0.087399	0.646798	0.649016	0.023583	0.118456	0.289093	0.261747	0.014714	0.064874	0.234243	0.490256	0.014572	0.037883	0.146147	0.209677	0.024212	0.123304	0.261955	0.631591	0.055356	0.349464	0.166059	0.170880	0.018192	0.072979	0.416004	0.547350	0.022529	0.089384	0.078454	0.150984	0.021063	0.058072	0.345234	0.450964	0.020217	0.216234	0.155868	0.240763	0.035112	0.175439	0.467358	0.169709	0.029269	0.271747	0.254562	0.127931
91	0.153236	0.585759	0.131517	0.312907	0.032380	0.264723	0.346886	0.399864	0.039963	0.291168	0.251834	0.573368	0.016957	0.235327	0.295675	0.156589	0.030861	0.093996	0.556032	0.469338	0.049476	0.408243	0.271415	0.174745	0.020690	0.071024	0.634591	0.740926	0.022987	0.117345	0.320682	0.381057	0.014277	0.060541	0.224699	0.462041	0.014409	0.049338	0.131678	0.153974	0.020241	0.110065	0.287879	0.621576	0.055368	0.308183	0.163939	0.178873	0.017616	0.057040	0.430184	0.554414	0.019236	0.108015	0.077581	0.144842	0.021834	0.067737	0.340729	0.466250	0.020539	0.283040	0.152153	0.254907	0.041714	0.335340	0.462402	0.180256	0.030498	0.277875	0.259733	0.124435
92	0.076667	0.408731	0.131485	0.307944	0.031223	0.268059	0.359854	0.414518	0.039972	0.291993	0.246242	0.580018	0.021960	0.110106	0.268616	0.146975	0.032510	0.094231	0.580464	0.455279	0.052598	0.456409	0.263908	0.195413	0.021424	0.068199	0.628888	0.728268	0.017765	0.121174	0.307459	0.411274	0.014886	0.063418	0.226276	0.449385	0.012565	0.078023	0.129054	0.148574	0.015906	0.068718	0.294826	0.618170	0.048605	0.299374	0.155340	0.181886	0.017382	0.052765	0.442072	0.607645	0.019072	0.096582	0.079980	0.115088	0.024227	0.085590	0.347120	0.446665	0.025270	0.307615	0.160031	0.252110	0.040643	0.390622	0.455775	0.200385	0.031581	0.279236	0.274519	0.117153
93	0.059489	0.202222	0.138103	0.300199	0.031472	0.276041	0.366735	0.417101	0.038343	0.271112	0.291688	0.591848	0.022636	0.065537	0.245108	0.152588	0.032511	0.097224	0.581138	0.465277	0.053664	0.471677	0.285543	0.207894	0.024040	0.068681	0.603022	0.770057	0.016319	0.096407	0.288152	0.492842	0.015151	0.065500	0.292449	0.365951	0.018920	0.085547	0.133723	0.142445	0.019424	0.050885	0.332604	0.616477	0.032437	0.125636	0.146898	0.170719	0.018588	0.057529	0.425654	0.638448	0.020588	0.091843	0.082151	0.082400	0.027613	0.095898	0.444455	0.573208	0.031032	0.307781	0.163564	0.246258	0.050242	0.475618	0.475198	0.209820	0.031605	0.278382	0.289120	0.108020
94	0.058459	0.207410	0.218908	0.271230	0.028938	0.280132	0.368565	0.421634	0.034988	0.226546	0.315762	0.538851	0.025144	0.060265	0.235309	0.152618	0.037122	0.094542	0.592444	0.460068	0.052267	0.471199	0.263367	0.212172	0.025533	0.067540	0.591740	0.789529	0.016492	0.090618	0.279306	0.486430	0.014769	0.061596	0.408564	0.279456	0.026268	0.115624	0.154549	0.137887	0.020234	0.046580	0.318037	0.546172	0.022569	0.068506	0.193185	0.212004	0.020085	0.056766	0.447234	0.636964	0.021333	0.099272	0.082702	0.080612	0.029150	0.099465	0.530466	0.679220	0.031663	0.308457	0.164484	0.243543	0.052013	0.506047	0.641383	0.268710	0.031719	0.250216	0.289954	0.165929
95	0.052657	0.210110	0.241007	0.260035	0.022293	0.260795	0.360967	0.418854	0.020253	0.085332	0.306103	0.485128	0.033099	0.058505	0.241961	0.191456	0.046004	0.099388	0.658401	0.449129	0.051896	0.478058	0.234387	0.206129	0.029545	0.069444	0.589589	0.832110	0.021508	0.114078	0.280583	0.481939	0.011299	0.046785	0.411595	0.326038	0.028982	0.135532	0.171561	0.103524	0.019377	0.051350	0.278326	0.367551	0.015907	0.062433	0.202918	0.218620	0.018965	0.051779	0.441360	0.597235	0.039256	0.172017	0.109492	0.070053	0.030867	0.102063	0.542093	0.689366	0.031270	0.302499	0.162915	0.243841	0.051648	0.515246	0.812377	0.284819	0.032813	0.179886	0.277838	0.188213
96	0.044033	0.184984	0.332788	0.253132	0.021827	0.258105	0.315484	0.402676	0.018315	0.092603	0.229084	0.294989	0.035511	0.064308	0.226110	0.201661	0.046387	0.097738	0.672051	0.481575	0.047132	0.461109	0.226543	0.207320	0.029819	0.068445	0.589176	0.895086	0.024405	0.110902	0.269890	0.495245	0.015660	0.045345	0.422888	0.361286	0.034699	0.135655	0.197546	0.085787	0.020599	0.055984	0.251205	0.449951	0.012030	0.060014	0.197469	0.281426	0.017873	0.048983	0.367272	0.508896	0.050129	0.216127	0.158153	0.072635	0.032704	0.100567	0.540933	0.723896	0.030530	0.276621	0.162099	0.245266	0.052273	0.522586	0.841116	0.292556	0.031440	0.160699	0.221162	0.188384
97	0.031711	0.148847	0.397384	0.247140	0.021580	0.280635	0.231770	0.354874	0.017430	0.104889	0.258576	0.286330	0.035271	0.063947	0.158184	0.256971	0.047243	0.099294	0.658446	0.417681	0.043263	0.364678	0.246220	0.209964	0.027781	0.067939	0.619010	0.908478	0.035798	0.196229	0.256093	0.512137	0.019311	0.051443	0.418933	0.469378	0.035546	0.135885	0.185057	0.191722	0.020425	0.054270	0.232274	0.471749	0.010866	0.060702	0.194245	0.284610	0.016151	0.048475	0.337914	0.530754	0.050983	0.225930	0.187582	0.220901	0.033124	0.099887	0.513889	0.710048	0.029667	0.262163	0.169214	0.253704	0.052413	0.528639	0.844950	0.308814	0.022837	0.147608	0.221119	0.187568
98	0.033160	0.149602	0.412898	0.243172	0.026381	0.296707	0.222779	0.308799	0.017903	0.104615	0.293709	0.246699	0.035234	0.064318	0.138905	0.299067	0.050774	0.105661	0.671232	0.341673	0.036692	0.298271	0.265146	0.210575	0.025358	0.064098	0.684637	0.917962	0.036248	0.209929	0.225092	0.483263	0.020269	0.056098	0.433326	0.460505	0.035257	0.139348	0.170820	0.233643	0.020393	0.050673	0.203278	0.499172	0.010409	0.092504	0.205474	0.285135	0.015990	0.048904	0.335603	0.524523	0.051120	0.259484	0.193755	0.231742	0.032191	0.099334	0.520254	0.718980	0.029201	0.259696	0.185465	0.265428	0.051347	0.529047	0.891930	0.320589	0.020645	0.130159	0.230128	0.204089
99	0.047301	0.092714	0.412023	0.249587	0.035962	0.319556	0.214013	0.204037	0.017960	0.106828	0.265716	0.196197	0.035044	0.062935	0.131169	0.301959	0.052623	0.099780	0.572300	0.323904	0.032624	0.302708	0.270745	0.216572	0.025032	0.060055	0.694705	0.977145	0.039112	0.214675	0.122978	0.411862	0.019882	0.056212	0.452258	0.448830	0.035551	0.148379	0.169835	0.239827	0.019189	0.049296	0.173739	0.528334	0.016356	0.093103	0.210442	0.279648	0.019271	0.049513	0.345136	0.465627	0.051475	0.275675	0.190329	0.343129	0.037538	0.108491	0.518653	0.748549	0.029061	0.245225	0.197869	0.272740	0.050250	0.525295	0.932013	0.345080	0.019252	0.121379	0.235862	0.221237
100	0.058890	0.183276	0.436663	0.180425	0.040764	0.368880	0.191622	0.204222	0.016668	0.114042	0.242012	0.258151	0.032279	0.057011	0.093395	0.363747	0.051800	0.113300	0.456755	0.331294	0.024814	0.309004	0.264582	0.189955	0.025827	0.061181	0.708098	0.911618	0.039359	0.222653	0.126365	0.360567	0.021305	0.061168	0.514564	0.449450	0.036224	0.165505	0.178773	0.243745	0.015334	0.053342	0.103256	0.564481	0.022764	0.097270	0.201028	0.299066	0.020913	0.045923	0.309389	0.454917	0.054455	0.314080	0.195281	0.443025	0.039993	0.112111	0.535018	0.762447	0.028676	0.245841	0.201884	0.274378	0.045486	0.482169	0.941094	0.444442	0.016961	0.103389	0.236453	0.217385
101	0.056286	0.182546	0.475361	0.268007	0.042241	0.331397	0.157884	0.178857	0.027494	0.124861	0.266910	0.276169	0.030026	0.046736	0.089214	0.367274	0.056059	0.130695	0.452007	0.320909	0.022077	0.241348	0.221758	0.151455	0.031908	0.073638	0.672600	0.867990	0.039370	0.258040	0.125187	0.236448	0.026077	0.076544	0.516258	0.454019	0.036263	0.159787	0.209351	0.243733	0.014026	0.050686	0.196546	0.605083	0.027030	0.116280	0.136209	0.293616	0.020777	0.044210	0.295405	0.384161	0.058262	0.342534	0.196380	0.458658	0.039430	0.107461	0.545859	0.754263	0.028161	0.245414	0.199445	0.237221	0.044674	0.391124	0.946499	0.440416	0.015060	0.065892	0.237026	0.226815
