	314_At_T1_sh_L_ND_01.c3d	314_At_T1_sh_L_ND_01.c3d	314_At_T1_sh_L_ND_01.c3d	314_At_T1_sh_L_ND_01.c3d	314_At_T1_sh_L_ND_01.c3d	314_At_T1_sh_L_ND_01.c3d	314_At_T1_sh_L_ND_01.c3d	314_At_T1_sh_L_ND_01.c3d	314_At_T1_sh_L_ND_02.c3d	314_At_T1_sh_L_ND_02.c3d	314_At_T1_sh_L_ND_02.c3d	314_At_T1_sh_L_ND_02.c3d	314_At_T1_sh_L_ND_02.c3d	314_At_T1_sh_L_ND_02.c3d	314_At_T1_sh_L_ND_02.c3d	314_At_T1_sh_L_ND_02.c3d	314_At_T1_sh_L_ND_03.c3d	314_At_T1_sh_L_ND_03.c3d	314_At_T1_sh_L_ND_03.c3d	314_At_T1_sh_L_ND_03.c3d	314_At_T1_sh_L_ND_03.c3d	314_At_T1_sh_L_ND_03.c3d	314_At_T1_sh_L_ND_03.c3d	314_At_T1_sh_L_ND_03.c3d	314_At_T1_sh_L_ND_04.c3d	314_At_T1_sh_L_ND_04.c3d	314_At_T1_sh_L_ND_04.c3d	314_At_T1_sh_L_ND_04.c3d	314_At_T1_sh_L_ND_04.c3d	314_At_T1_sh_L_ND_04.c3d	314_At_T1_sh_L_ND_04.c3d	314_At_T1_sh_L_ND_04.c3d	314_At_T1_sh_L_ND_05.c3d	314_At_T1_sh_L_ND_05.c3d	314_At_T1_sh_L_ND_05.c3d	314_At_T1_sh_L_ND_05.c3d	314_At_T1_sh_L_ND_05.c3d	314_At_T1_sh_L_ND_05.c3d	314_At_T1_sh_L_ND_05.c3d	314_At_T1_sh_L_ND_05.c3d	314_At_T1_sh_L_ND_06.c3d	314_At_T1_sh_L_ND_06.c3d	314_At_T1_sh_L_ND_06.c3d	314_At_T1_sh_L_ND_06.c3d	314_At_T1_sh_L_ND_06.c3d	314_At_T1_sh_L_ND_06.c3d	314_At_T1_sh_L_ND_06.c3d	314_At_T1_sh_L_ND_06.c3d	314_At_T1_sh_L_ND_07.c3d	314_At_T1_sh_L_ND_07.c3d	314_At_T1_sh_L_ND_07.c3d	314_At_T1_sh_L_ND_07.c3d	314_At_T1_sh_L_ND_07.c3d	314_At_T1_sh_L_ND_07.c3d	314_At_T1_sh_L_ND_07.c3d	314_At_T1_sh_L_ND_07.c3d	314_At_T1_sh_L_ND_08.c3d	314_At_T1_sh_L_ND_08.c3d	314_At_T1_sh_L_ND_08.c3d	314_At_T1_sh_L_ND_08.c3d	314_At_T1_sh_L_ND_08.c3d	314_At_T1_sh_L_ND_08.c3d	314_At_T1_sh_L_ND_08.c3d	314_At_T1_sh_L_ND_08.c3d	314_At_T1_sh_L_ND_09.c3d	314_At_T1_sh_L_ND_09.c3d	314_At_T1_sh_L_ND_09.c3d	314_At_T1_sh_L_ND_09.c3d	314_At_T1_sh_L_ND_09.c3d	314_At_T1_sh_L_ND_09.c3d	314_At_T1_sh_L_ND_09.c3d	314_At_T1_sh_L_ND_09.c3d	314_At_T1_sh_L_ND_10.c3d	314_At_T1_sh_L_ND_10.c3d	314_At_T1_sh_L_ND_10.c3d	314_At_T1_sh_L_ND_10.c3d	314_At_T1_sh_L_ND_10.c3d	314_At_T1_sh_L_ND_10.c3d	314_At_T1_sh_L_ND_10.c3d	314_At_T1_sh_L_ND_10.c3d
	Biceps femoris_lat	Semitendinosus_lat	Vastus lateralis_lat	Vastus medialis_lat	Biceps femoris_med	Semitendinosus_med	Vastus lateralis_med	Vastus medialis_med	Biceps femoris_lat	Semitendinosus_lat	Vastus lateralis_lat	Vastus medialis_lat	Biceps femoris_med	Semitendinosus_med	Vastus lateralis_med	Vastus medialis_med	Biceps femoris_lat	Semitendinosus_lat	Vastus lateralis_lat	Vastus medialis_lat	Biceps femoris_med	Semitendinosus_med	Vastus lateralis_med	Vastus medialis_med	Biceps femoris_lat	Semitendinosus_lat	Vastus lateralis_lat	Vastus medialis_lat	Biceps femoris_med	Semitendinosus_med	Vastus lateralis_med	Vastus medialis_med	Biceps femoris_lat	Semitendinosus_lat	Vastus lateralis_lat	Vastus medialis_lat	Biceps femoris_med	Semitendinosus_med	Vastus lateralis_med	Vastus medialis_med	Biceps femoris_lat	Semitendinosus_lat	Vastus lateralis_lat	Vastus medialis_lat	Biceps femoris_med	Semitendinosus_med	Vastus lateralis_med	Vastus medialis_med	Biceps femoris_lat	Semitendinosus_lat	Vastus lateralis_lat	Vastus medialis_lat	Biceps femoris_med	Semitendinosus_med	Vastus lateralis_med	Vastus medialis_med	Biceps femoris_lat	Semitendinosus_lat	Vastus lateralis_lat	Vastus medialis_lat	Biceps femoris_med	Semitendinosus_med	Vastus lateralis_med	Vastus medialis_med	Biceps femoris_lat	Semitendinosus_lat	Vastus lateralis_lat	Vastus medialis_lat	Biceps femoris_med	Semitendinosus_med	Vastus lateralis_med	Vastus medialis_med	Biceps femoris_lat	Semitendinosus_lat	Vastus lateralis_lat	Vastus medialis_lat	Biceps femoris_med	Semitendinosus_med	Vastus lateralis_med	Vastus medialis_med
	P2D	P2D	P2D	P2D	P2D	P2D	P2D	P2D	P2D	P2D	P2D	P2D	P2D	P2D	P2D	P2D	P2D	P2D	P2D	P2D	P2D	P2D	P2D	P2D	P2D	P2D	P2D	P2D	P2D	P2D	P2D	P2D	P2D	P2D	P2D	P2D	P2D	P2D	P2D	P2D	P2D	P2D	P2D	P2D	P2D	P2D	P2D	P2D	P2D	P2D	P2D	P2D	P2D	P2D	P2D	P2D	P2D	P2D	P2D	P2D	P2D	P2D	P2D	P2D	P2D	P2D	P2D	P2D	P2D	P2D	P2D	P2D	P2D	P2D	P2D	P2D	P2D	P2D	P2D	P2D
	EMG_lat	EMG_lat	EMG_lat	EMG_lat	EMG_med	EMG_med	EMG_med	EMG_med	EMG_lat	EMG_lat	EMG_lat	EMG_lat	EMG_med	EMG_med	EMG_med	EMG_med	EMG_lat	EMG_lat	EMG_lat	EMG_lat	EMG_med	EMG_med	EMG_med	EMG_med	EMG_lat	EMG_lat	EMG_lat	EMG_lat	EMG_med	EMG_med	EMG_med	EMG_med	EMG_lat	EMG_lat	EMG_lat	EMG_lat	EMG_med	EMG_med	EMG_med	EMG_med	EMG_lat	EMG_lat	EMG_lat	EMG_lat	EMG_med	EMG_med	EMG_med	EMG_med	EMG_lat	EMG_lat	EMG_lat	EMG_lat	EMG_med	EMG_med	EMG_med	EMG_med	EMG_lat	EMG_lat	EMG_lat	EMG_lat	EMG_med	EMG_med	EMG_med	EMG_med	EMG_lat	EMG_lat	EMG_lat	EMG_lat	EMG_med	EMG_med	EMG_med	EMG_med	EMG_lat	EMG_lat	EMG_lat	EMG_lat	EMG_med	EMG_med	EMG_med	EMG_med
ITEM	Y	Y	Y	Y	Y	Y	Y	Y	Y	Y	Y	Y	Y	Y	Y	Y	Y	Y	Y	Y	Y	Y	Y	Y	Y	Y	Y	Y	Y	Y	Y	Y	Y	Y	Y	Y	Y	Y	Y	Y	Y	Y	Y	Y	Y	Y	Y	Y	Y	Y	Y	Y	Y	Y	Y	Y	Y	Y	Y	Y	Y	Y	Y	Y	Y	Y	Y	Y	Y	Y	Y	Y	Y	Y	Y	Y	Y	Y	Y	Y
1	0.069803	0.099505	0.130772	0.104221	0.854642	0.590660	0.111067	0.056890	0.026940	0.069148	0.024278	0.048443	0.029009	0.141905	0.115122	0.154362	0.351928	0.133436	0.038557	0.021733	0.114818	0.220869	0.077349	0.115155	0.052107	0.126474	0.065251	0.043858	0.035221	0.079847	0.055957	0.069831	0.136046	0.120193	0.044847	0.078618	0.063957	0.088218	0.117583	0.034713	0.220417	0.124756	0.080119	0.189502	0.033262	0.067684	0.066418	0.120138	0.103961	0.219301	0.022095	0.055868	0.124926	0.137363	0.073082	0.072593	0.107663	0.171104	0.017787	0.065656	0.053420	0.075845	0.061348	0.103195	0.059486	0.123399	0.149875	0.148922	0.093594	0.255161	0.083046	0.119542	0.282673	0.322112	0.020634	0.117619	0.093953	0.091290	0.071859	0.052754
2	0.072727	0.121163	0.155874	0.108485	0.708791	0.552489	0.121736	0.055327	0.031995	0.071292	0.066399	0.128132	0.066846	0.166774	0.119045	0.156364	0.399924	0.150786	0.042289	0.027857	0.059265	0.164782	0.079505	0.119781	0.048439	0.128019	0.061816	0.040628	0.034327	0.104582	0.062559	0.069147	0.159818	0.138360	0.045690	0.092962	0.090524	0.097876	0.115149	0.040239	0.273570	0.122047	0.075601	0.111760	0.033855	0.068476	0.066396	0.120472	0.105183	0.233168	0.018750	0.061245	0.126533	0.135893	0.081328	0.067824	0.087715	0.172026	0.031811	0.066042	0.065217	0.066813	0.061674	0.113147	0.059858	0.117357	0.149109	0.159348	0.096249	0.248325	0.084850	0.119454	0.372446	0.323507	0.020747	0.117851	0.089339	0.114925	0.073265	0.055064
3	0.103730	0.122258	0.157594	0.113888	0.683412	0.448486	0.110940	0.063723	0.060124	0.079637	0.111550	0.184914	0.078651	0.185624	0.118797	0.161393	0.389912	0.144485	0.044606	0.036107	0.055878	0.128267	0.073868	0.138326	0.043366	0.125644	0.045378	0.032191	0.028053	0.133155	0.064332	0.061024	0.171577	0.139789	0.046429	0.131262	0.106252	0.119904	0.113866	0.046966	0.275500	0.096438	0.041719	0.037674	0.035333	0.067079	0.065402	0.119898	0.107810	0.237562	0.018949	0.060641	0.118475	0.140599	0.089253	0.052382	0.085776	0.163893	0.037551	0.070425	0.075914	0.059131	0.064027	0.119920	0.064519	0.113309	0.118555	0.159828	0.080750	0.221208	0.080465	0.122576	0.368204	0.322335	0.025032	0.117811	0.087634	0.152129	0.071922	0.056281
4	0.142218	0.121112	0.158423	0.108505	0.334052	0.178804	0.106567	0.071367	0.079502	0.096357	0.123866	0.229673	0.079615	0.214086	0.119371	0.158427	0.297045	0.135285	0.046971	0.059898	0.052009	0.131062	0.074023	0.142882	0.052979	0.178001	0.032846	0.031587	0.027427	0.144641	0.064196	0.046146	0.171721	0.188379	0.052643	0.133452	0.133459	0.110322	0.100891	0.048086	0.268893	0.095486	0.041217	0.036546	0.035323	0.068694	0.062136	0.090622	0.114089	0.242109	0.018521	0.058907	0.090389	0.160106	0.089025	0.045010	0.093397	0.180939	0.038634	0.074439	0.076029	0.059343	0.064923	0.118950	0.056917	0.075171	0.086080	0.156319	0.068166	0.197245	0.077598	0.128563	0.385819	0.323571	0.031558	0.156043	0.089056	0.174564	0.068808	0.057066
5	0.286997	0.130190	0.158883	0.109229	0.132291	0.152876	0.095595	0.089787	0.084310	0.103598	0.162373	0.259238	0.087521	0.240073	0.166653	0.159858	0.248197	0.122486	0.061430	0.077855	0.083810	0.174426	0.074611	0.144131	0.054734	0.178170	0.072416	0.033492	0.025506	0.147663	0.062776	0.052005	0.167649	0.186545	0.056648	0.133645	0.168696	0.111742	0.099024	0.052311	0.290593	0.094585	0.042393	0.043754	0.030892	0.073717	0.062739	0.092460	0.114377	0.241601	0.018480	0.058986	0.066713	0.183070	0.092005	0.050427	0.103050	0.199363	0.039546	0.105162	0.077827	0.060932	0.066092	0.111409	0.054177	0.050355	0.085026	0.102797	0.066521	0.172958	0.079941	0.122484	0.387801	0.351622	0.046216	0.164739	0.083116	0.177538	0.068853	0.070163
6	0.374483	0.173099	0.146496	0.109723	0.121995	0.164950	0.098216	0.098233	0.087130	0.109715	0.166462	0.260378	0.090720	0.247412	0.198000	0.148225	0.199943	0.079525	0.091976	0.084060	0.093622	0.193528	0.065380	0.159522	0.059861	0.198886	0.078847	0.035066	0.022861	0.143420	0.078581	0.058753	0.168719	0.190130	0.056327	0.131755	0.185099	0.118847	0.100331	0.060511	0.359607	0.108415	0.077559	0.076632	0.032855	0.091532	0.054360	0.121845	0.114750	0.236299	0.020217	0.047652	0.056678	0.185220	0.099184	0.057184	0.086286	0.199300	0.078028	0.110130	0.083424	0.065772	0.074635	0.113606	0.043647	0.045864	0.086915	0.154287	0.067860	0.125963	0.079193	0.118880	0.380686	0.328606	0.052342	0.178547	0.080233	0.179583	0.063221	0.083353
7	0.516776	0.259400	0.127283	0.109418	0.119834	0.246650	0.070976	0.107881	0.087838	0.113580	0.166240	0.260356	0.093107	0.262061	0.202722	0.149014	0.095802	0.066196	0.152056	0.139636	0.094286	0.181568	0.068776	0.163151	0.063157	0.209695	0.087748	0.036542	0.019842	0.137351	0.097185	0.053638	0.080757	0.189459	0.048766	0.105180	0.184425	0.118044	0.098547	0.061083	0.450061	0.129852	0.111196	0.088874	0.044901	0.119384	0.096080	0.132106	0.090382	0.152215	0.018014	0.052565	0.053687	0.196181	0.107907	0.057936	0.080093	0.172629	0.087533	0.100229	0.084665	0.075333	0.080119	0.111220	0.039906	0.041138	0.057920	0.162782	0.065590	0.090735	0.080237	0.127466	0.463059	0.344010	0.062696	0.193027	0.080076	0.194021	0.063894	0.084664
8	0.526940	0.257424	0.083714	0.115279	0.112384	0.233615	0.091994	0.136749	0.086873	0.109961	0.154133	0.281980	0.094062	0.269017	0.195855	0.142333	0.061540	0.073174	0.171274	0.169126	0.097277	0.185579	0.069357	0.170747	0.063840	0.208742	0.109265	0.056388	0.029345	0.139498	0.100290	0.053027	0.053366	0.173951	0.048539	0.082247	0.182361	0.117696	0.105611	0.063527	0.463381	0.134656	0.119841	0.129996	0.051878	0.138113	0.103213	0.132905	0.058143	0.124994	0.029688	0.108788	0.053942	0.205285	0.106379	0.060422	0.069667	0.155037	0.118195	0.099423	0.080642	0.078191	0.082874	0.106739	0.050770	0.051658	0.069340	0.182712	0.064474	0.088122	0.082996	0.119601	0.469971	0.274274	0.071660	0.256565	0.078579	0.217889	0.067931	0.091306
9	0.524988	0.251417	0.081236	0.121336	0.101909	0.243883	0.111850	0.139060	0.071373	0.098155	0.132612	0.265168	0.099585	0.247248	0.204907	0.156524	0.103046	0.070961	0.168493	0.232627	0.104376	0.196598	0.068651	0.162330	0.064832	0.204824	0.110620	0.099522	0.031976	0.141553	0.101122	0.052846	0.037377	0.180891	0.045984	0.039050	0.181766	0.123385	0.095007	0.083390	0.528726	0.213765	0.131428	0.165816	0.087922	0.145908	0.110448	0.151526	0.060981	0.096492	0.060723	0.125027	0.052316	0.206031	0.106483	0.065164	0.074917	0.124950	0.131316	0.097233	0.075093	0.077245	0.083370	0.113963	0.059373	0.049337	0.067438	0.200374	0.065263	0.090116	0.085288	0.117994	0.371021	0.263886	0.072364	0.289671	0.075089	0.238095	0.065530	0.102188
10	0.523025	0.254002	0.078406	0.176664	0.100456	0.239531	0.118534	0.181943	0.123148	0.138196	0.138267	0.245555	0.090743	0.238533	0.224991	0.169845	0.100898	0.062874	0.162890	0.241573	0.102095	0.202755	0.062757	0.154167	0.065921	0.210734	0.111246	0.100207	0.032955	0.141671	0.109431	0.052630	0.060796	0.149520	0.026288	0.081310	0.171950	0.142222	0.087321	0.086536	0.630349	0.283797	0.152001	0.405148	0.099408	0.150292	0.114978	0.188095	0.059859	0.094894	0.076536	0.143655	0.051836	0.208475	0.108436	0.062568	0.061604	0.103778	0.157250	0.085836	0.075287	0.077264	0.099116	0.115606	0.064097	0.049874	0.068071	0.200410	0.065395	0.083357	0.099995	0.118036	0.367745	0.264304	0.071836	0.295817	0.073462	0.245634	0.068437	0.101931
11	0.486217	0.250255	0.082902	0.171582	0.095807	0.236926	0.145501	0.190925	0.166159	0.140723	0.094269	0.234330	0.072126	0.223668	0.228234	0.166420	0.102305	0.069295	0.128317	0.238761	0.105228	0.212552	0.061312	0.179720	0.063130	0.198549	0.111933	0.127756	0.033571	0.136574	0.111920	0.052350	0.077216	0.167733	0.082201	0.095921	0.159475	0.150126	0.088841	0.086663	0.662416	0.310230	0.165780	0.426875	0.099468	0.150087	0.120018	0.202437	0.077631	0.107770	0.089308	0.147398	0.052044	0.211857	0.105186	0.060287	0.066153	0.096325	0.173782	0.052209	0.076138	0.071985	0.101987	0.129547	0.064359	0.050852	0.055279	0.190482	0.069017	0.062194	0.109806	0.108815	0.352445	0.264210	0.069641	0.283247	0.074321	0.267582	0.075544	0.100503
12	0.423649	0.246744	0.095118	0.170732	0.095034	0.241052	0.170217	0.229962	0.188302	0.143329	0.094367	0.233178	0.069970	0.191773	0.228285	0.164388	0.097676	0.073060	0.080311	0.215080	0.106515	0.213123	0.063562	0.184078	0.057913	0.159064	0.099403	0.143762	0.040542	0.115730	0.173555	0.066024	0.094663	0.168304	0.092177	0.120874	0.152479	0.140909	0.084304	0.082939	0.636044	0.316897	0.242521	0.500415	0.099051	0.162167	0.116219	0.192416	0.083049	0.105036	0.091123	0.151560	0.038932	0.211987	0.102656	0.060520	0.134243	0.147797	0.181298	0.056087	0.063973	0.068645	0.105174	0.143520	0.064949	0.053970	0.055492	0.156410	0.065396	0.055956	0.104345	0.107181	0.349140	0.230893	0.063197	0.263254	0.090364	0.289807	0.074478	0.113206
13	0.190247	0.143660	0.103299	0.226209	0.108223	0.273328	0.243655	0.250656	0.239613	0.183163	0.095019	0.232057	0.064670	0.164550	0.215888	0.164957	0.093040	0.067723	0.037805	0.179328	0.102009	0.201026	0.096124	0.179854	0.096278	0.140430	0.088365	0.209649	0.045994	0.087529	0.181331	0.084072	0.096789	0.178924	0.112942	0.162115	0.136570	0.138945	0.076979	0.090313	0.574876	0.367551	0.231254	0.545404	0.099568	0.234488	0.112254	0.171387	0.145415	0.110981	0.093965	0.153047	0.038351	0.221374	0.092885	0.058719	0.144620	0.173227	0.184345	0.059411	0.051874	0.068922	0.107894	0.144404	0.055786	0.046702	0.091357	0.213660	0.056663	0.056907	0.104027	0.108398	0.347115	0.203586	0.057352	0.250622	0.095955	0.288429	0.074150	0.120814
14	0.153404	0.122299	0.123755	0.234086	0.120899	0.303667	0.238937	0.245826	0.272224	0.245418	0.092628	0.164482	0.055711	0.120345	0.172398	0.153557	0.045482	0.130859	0.037997	0.099401	0.069855	0.148871	0.136698	0.181399	0.104798	0.121257	0.085830	0.227281	0.048360	0.092731	0.182099	0.088056	0.099539	0.174721	0.115546	0.167693	0.101590	0.128675	0.075469	0.117298	0.528680	0.378670	0.232148	0.545442	0.137760	0.353540	0.079032	0.168762	0.158242	0.113281	0.095860	0.156984	0.037325	0.212303	0.090891	0.064214	0.155410	0.174930	0.161819	0.062583	0.058348	0.066885	0.116875	0.147304	0.051582	0.092890	0.095348	0.190857	0.048435	0.061654	0.110724	0.109260	0.302708	0.181431	0.046427	0.246657	0.099212	0.271735	0.074937	0.126173
15	0.149938	0.123914	0.131856	0.319699	0.138390	0.351887	0.273037	0.268564	0.274537	0.326984	0.086283	0.159103	0.056154	0.100312	0.157734	0.144342	0.050840	0.171263	0.039939	0.083129	0.068703	0.137608	0.136579	0.173118	0.106027	0.124656	0.074078	0.232210	0.050019	0.121934	0.189990	0.094922	0.101752	0.140288	0.116667	0.160962	0.103837	0.128298	0.073555	0.124221	0.475112	0.371413	0.231330	0.541015	0.142488	0.463507	0.075350	0.168278	0.168139	0.118292	0.092159	0.121345	0.039031	0.185231	0.089419	0.061800	0.197189	0.173905	0.148807	0.059905	0.057523	0.067199	0.120985	0.159424	0.044369	0.137327	0.101238	0.231159	0.051828	0.067191	0.116524	0.109662	0.081457	0.084139	0.025954	0.186080	0.097430	0.262171	0.079889	0.155092
16	0.161453	0.130007	0.150524	0.351919	0.151017	0.382977	0.273504	0.250749	0.267999	0.318754	0.060896	0.129037	0.052281	0.052218	0.156579	0.146206	0.104479	0.210147	0.056495	0.077193	0.066075	0.139470	0.144247	0.167896	0.106237	0.125059	0.119648	0.223827	0.051020	0.142120	0.220015	0.112579	0.089183	0.113426	0.115133	0.156791	0.103942	0.130232	0.072660	0.144800	0.324011	0.335639	0.218190	0.401986	0.123187	0.480585	0.093614	0.142724	0.192666	0.122507	0.073159	0.109355	0.040252	0.172822	0.078714	0.056125	0.208739	0.187305	0.109968	0.058381	0.049884	0.064181	0.118117	0.159973	0.057009	0.149191	0.106942	0.260241	0.065010	0.081378	0.117482	0.116140	0.068633	0.218259	0.022242	0.113545	0.102830	0.270916	0.080249	0.188039
17	0.204586	0.183066	0.158129	0.346506	0.160965	0.400974	0.262383	0.240622	0.254633	0.334175	0.061345	0.107635	0.043232	0.052092	0.140958	0.121826	0.122550	0.260811	0.066946	0.079460	0.052884	0.122569	0.148206	0.160419	0.105935	0.122485	0.124297	0.223200	0.050427	0.143573	0.226717	0.131825	0.064265	0.112420	0.088795	0.174507	0.105713	0.137557	0.057875	0.144370	0.211170	0.308194	0.214764	0.381612	0.124225	0.482250	0.097481	0.095692	0.193313	0.110069	0.059834	0.086914	0.041042	0.169418	0.069262	0.052967	0.201430	0.183683	0.091420	0.056554	0.045893	0.053931	0.114294	0.162669	0.081519	0.158533	0.105348	0.264924	0.069470	0.081918	0.117498	0.118262	0.065727	0.221462	0.019571	0.079484	0.104569	0.278302	0.080549	0.206829
18	0.201234	0.206448	0.148070	0.349782	0.217350	0.380967	0.243819	0.220229	0.240626	0.344437	0.052812	0.111191	0.038526	0.101609	0.087845	0.098193	0.156657	0.398491	0.079439	0.074806	0.047893	0.110017	0.148358	0.158550	0.107378	0.102357	0.134992	0.220464	0.047092	0.141839	0.225625	0.132719	0.057335	0.100947	0.098975	0.145338	0.114687	0.163524	0.069694	0.153014	0.165683	0.311392	0.110839	0.286718	0.131754	0.493487	0.093931	0.077718	0.186677	0.084571	0.042696	0.085770	0.041681	0.197834	0.066449	0.066015	0.173001	0.111906	0.038515	0.039261	0.045466	0.041943	0.121688	0.172763	0.082004	0.202199	0.118272	0.302365	0.069482	0.084077	0.115740	0.117949	0.055646	0.243309	0.014697	0.078831	0.106197	0.275515	0.073276	0.209144
19	0.192844	0.204018	0.140328	0.331716	0.226962	0.363038	0.180668	0.187683	0.188481	0.347653	0.099372	0.148041	0.035026	0.141904	0.095490	0.092401	0.165653	0.388192	0.083854	0.060077	0.042262	0.096205	0.148051	0.136035	0.103921	0.107258	0.145552	0.214795	0.044726	0.142629	0.224684	0.134359	0.059032	0.080636	0.094581	0.135287	0.129465	0.176440	0.095285	0.169087	0.134386	0.327091	0.081356	0.167690	0.132778	0.509961	0.094164	0.084443	0.185424	0.083577	0.040349	0.078434	0.041819	0.259293	0.067510	0.063235	0.165486	0.093737	0.024909	0.028845	0.047785	0.056721	0.120512	0.164208	0.083861	0.250301	0.084792	0.359297	0.067949	0.087788	0.119696	0.117270	0.041848	0.259350	0.021320	0.073783	0.106254	0.262224	0.077602	0.201853
20	0.176090	0.197370	0.123734	0.308322	0.330976	0.393363	0.172527	0.180237	0.143894	0.311023	0.119483	0.196518	0.035661	0.190627	0.139595	0.173168	0.162940	0.403999	0.142605	0.074307	0.035402	0.104748	0.145707	0.087014	0.078076	0.127354	0.145529	0.164857	0.043955	0.145648	0.221388	0.134365	0.061835	0.100834	0.097480	0.158025	0.135830	0.231269	0.099159	0.171824	0.113019	0.328973	0.063814	0.125442	0.133584	0.478839	0.102144	0.079200	0.137820	0.072471	0.036496	0.074019	0.062118	0.280168	0.063154	0.080929	0.134628	0.099906	0.087242	0.137885	0.050808	0.084933	0.100015	0.157887	0.095959	0.232070	0.095486	0.377127	0.068160	0.085332	0.119675	0.117072	0.036365	0.263715	0.055893	0.091892	0.105797	0.250391	0.079008	0.198146
21	0.155411	0.217614	0.111202	0.259250	0.380317	0.356628	0.090480	0.145615	0.148480	0.236005	0.149983	0.204309	0.040326	0.210339	0.152664	0.220646	0.141570	0.393122	0.141508	0.193387	0.053726	0.234454	0.142010	0.066054	0.065603	0.171823	0.144617	0.108603	0.043290	0.148551	0.217035	0.134554	0.057171	0.125361	0.099248	0.162280	0.136502	0.300043	0.099559	0.171220	0.082746	0.314776	0.048713	0.121846	0.088118	0.408236	0.103516	0.095714	0.132450	0.078390	0.032159	0.051632	0.091333	0.368937	0.061315	0.101189	0.092119	0.114160	0.087660	0.169361	0.048184	0.092145	0.096092	0.146541	0.120328	0.230660	0.101031	0.389077	0.065997	0.094510	0.102970	0.129675	0.037230	0.263028	0.057786	0.096092	0.103125	0.237882	0.069981	0.198430
22	0.151152	0.220712	0.074079	0.123008	0.378462	0.323553	0.085819	0.137605	0.131289	0.225065	0.179510	0.229629	0.040705	0.209490	0.160939	0.232900	0.126806	0.384028	0.135608	0.211773	0.066559	0.246615	0.099129	0.060569	0.063066	0.226474	0.141287	0.104043	0.036309	0.155288	0.165084	0.125430	0.055834	0.137834	0.102350	0.173059	0.125147	0.384729	0.097586	0.161800	0.065101	0.314082	0.036066	0.113856	0.085075	0.243379	0.100736	0.099129	0.113755	0.143758	0.032011	0.045729	0.094867	0.377032	0.068612	0.110090	0.082744	0.112836	0.123138	0.221230	0.054892	0.115354	0.091921	0.125116	0.175804	0.268804	0.114382	0.400416	0.068601	0.142826	0.092417	0.135994	0.037947	0.264402	0.076449	0.100977	0.090880	0.219011	0.067534	0.197837
23	0.100540	0.207330	0.055784	0.086233	0.386713	0.316705	0.087463	0.125375	0.139882	0.209845	0.177605	0.225353	0.048459	0.227144	0.169812	0.277637	0.121236	0.260440	0.132600	0.228180	0.105304	0.269947	0.074130	0.054016	0.072650	0.280173	0.108381	0.078448	0.031016	0.164699	0.160149	0.118744	0.064520	0.308766	0.124808	0.161139	0.112137	0.388762	0.097673	0.145282	0.061554	0.312124	0.024694	0.077298	0.106315	0.286195	0.101170	0.133328	0.088526	0.253302	0.101772	0.105658	0.140262	0.544574	0.072607	0.111481	0.103437	0.139668	0.130512	0.251608	0.062378	0.141688	0.086495	0.117413	0.222705	0.288161	0.111359	0.462787	0.069638	0.152810	0.094570	0.139139	0.039433	0.179012	0.095353	0.130042	0.071593	0.235191	0.066045	0.187600
24	0.038093	0.178184	0.068561	0.065993	0.380377	0.426192	0.065385	0.097854	0.137880	0.240212	0.176822	0.225148	0.046799	0.251434	0.172601	0.309155	0.121374	0.250047	0.162658	0.231894	0.115035	0.268649	0.071241	0.070071	0.080159	0.293356	0.085223	0.075199	0.041220	0.165622	0.160000	0.124952	0.115806	0.495410	0.106078	0.167889	0.106355	0.388493	0.098169	0.131545	0.061023	0.334376	0.022774	0.041640	0.127724	0.309044	0.100608	0.133456	0.117054	0.367500	0.166321	0.135480	0.175006	0.711604	0.079669	0.124441	0.109339	0.208479	0.134825	0.252322	0.065085	0.148635	0.073021	0.114751	0.235809	0.284443	0.159873	0.374780	0.070124	0.167511	0.104329	0.141226	0.051601	0.165661	0.095755	0.146314	0.066030	0.259112	0.066172	0.185433
25	0.039959	0.174029	0.083484	0.071107	0.367626	0.381485	0.073709	0.204010	0.152159	0.264248	0.162651	0.209266	0.049297	0.254879	0.172338	0.315268	0.120940	0.214427	0.133603	0.250367	0.114841	0.274496	0.049845	0.072183	0.078608	0.329374	0.086619	0.059940	0.047583	0.146990	0.160639	0.124448	0.152169	0.598364	0.141490	0.157345	0.109745	0.388146	0.097562	0.115940	0.063146	0.314757	0.029282	0.035882	0.140121	0.316136	0.111543	0.133183	0.114953	0.368197	0.170161	0.141312	0.183580	0.719145	0.090761	0.164707	0.110985	0.234917	0.169700	0.267302	0.084985	0.165339	0.065182	0.096249	0.264884	0.273931	0.180966	0.364552	0.066919	0.171038	0.094295	0.159554	0.057561	0.152882	0.096451	0.150570	0.065365	0.261278	0.063795	0.178311
26	0.040903	0.175578	0.087704	0.083680	0.266317	0.335498	0.083456	0.255115	0.158716	0.287012	0.162779	0.270208	0.052919	0.248960	0.172522	0.314914	0.110764	0.201889	0.133177	0.245279	0.115359	0.274895	0.043860	0.084194	0.080504	0.364369	0.082435	0.050472	0.047346	0.131463	0.124911	0.111215	0.174181	0.662370	0.151219	0.211135	0.107455	0.383556	0.094702	0.113251	0.075453	0.326271	0.049949	0.058804	0.139584	0.281291	0.151461	0.130124	0.114723	0.368743	0.234076	0.162646	0.187028	0.733309	0.094318	0.186885	0.113872	0.250375	0.154673	0.228106	0.094655	0.177599	0.065411	0.091477	0.261977	0.275848	0.226697	0.363236	0.053457	0.166021	0.106912	0.162531	0.058145	0.176977	0.096771	0.153557	0.063049	0.283255	0.058303	0.145895
27	0.084504	0.375208	0.089211	0.091620	0.186178	0.310328	0.086921	0.257120	0.149482	0.277496	0.138618	0.266016	0.054721	0.234015	0.171178	0.312978	0.110023	0.156490	0.138390	0.233183	0.115531	0.275144	0.045434	0.106263	0.079511	0.359069	0.099907	0.060300	0.045608	0.130905	0.111654	0.098307	0.174897	0.707098	0.167558	0.209526	0.099571	0.378903	0.098165	0.122769	0.068156	0.313829	0.056253	0.165576	0.145902	0.290502	0.164476	0.116319	0.114682	0.372067	0.275942	0.184443	0.187689	0.753226	0.106468	0.191087	0.104017	0.241476	0.153306	0.215016	0.123811	0.183417	0.071166	0.096680	0.227189	0.267269	0.239414	0.395162	0.041330	0.185036	0.110960	0.152360	0.061930	0.250604	0.083890	0.143967	0.051030	0.306405	0.054869	0.089409
28	0.150251	0.627595	0.174192	0.252765	0.190829	0.306244	0.081520	0.304894	0.140322	0.276917	0.102044	0.289416	0.054769	0.232126	0.176269	0.325870	0.064983	0.174819	0.131485	0.227933	0.115299	0.273949	0.051335	0.119717	0.080922	0.361663	0.103830	0.064566	0.049249	0.133183	0.111143	0.100239	0.188081	0.707976	0.224802	0.232051	0.081561	0.350125	0.105122	0.128338	0.064233	0.322376	0.074740	0.179142	0.148301	0.291474	0.201643	0.103404	0.114956	0.386736	0.281089	0.191239	0.193057	0.777241	0.119387	0.188867	0.098306	0.245490	0.131258	0.158329	0.134751	0.194466	0.069915	0.099612	0.202264	0.293034	0.232394	0.330110	0.055539	0.219847	0.111542	0.151789	0.089510	0.320518	0.099473	0.131375	0.048514	0.311131	0.050821	0.045846
29	0.166834	0.730200	0.286311	0.564335	0.155122	0.300106	0.145206	0.309446	0.111360	0.266188	0.104245	0.316069	0.049228	0.183213	0.184581	0.310944	0.046556	0.158828	0.083803	0.230732	0.110799	0.241306	0.058294	0.127254	0.066658	0.320902	0.104982	0.061990	0.068854	0.141628	0.121455	0.109476	0.193737	0.618098	0.231022	0.249180	0.084110	0.334253	0.117423	0.130083	0.066745	0.333320	0.088380	0.185739	0.141216	0.289341	0.217959	0.092558	0.115659	0.395616	0.281419	0.191584	0.202085	0.769294	0.119315	0.191791	0.076883	0.245545	0.131129	0.175974	0.135852	0.204929	0.065713	0.089472	0.159549	0.242901	0.216192	0.298948	0.056209	0.236313	0.125004	0.150475	0.091205	0.340040	0.131530	0.209025	0.048499	0.304058	0.058859	0.044688
30	0.170504	0.733128	0.311160	0.590577	0.094522	0.080332	0.151648	0.308717	0.122623	0.219928	0.140460	0.363608	0.055379	0.187665	0.182825	0.307994	0.047147	0.142183	0.059485	0.195008	0.106550	0.190296	0.060480	0.128451	0.061931	0.320778	0.105509	0.062649	0.079179	0.142714	0.132152	0.120810	0.138753	0.432620	0.271914	0.347178	0.089590	0.258325	0.129515	0.143551	0.081419	0.316886	0.105077	0.196751	0.123750	0.232026	0.212442	0.040634	0.100458	0.475383	0.254357	0.158299	0.212294	0.768082	0.121972	0.194388	0.080323	0.210449	0.086821	0.185663	0.165767	0.198351	0.068432	0.093334	0.103967	0.252453	0.197031	0.295435	0.055381	0.274457	0.130491	0.164522	0.091419	0.341291	0.120014	0.269943	0.068053	0.298520	0.049691	0.051467
31	0.188400	0.732938	0.362219	0.653573	0.099536	0.070007	0.146541	0.263124	0.098314	0.151303	0.139796	0.453175	0.080836	0.188256	0.200477	0.297959	0.035773	0.139492	0.055598	0.118105	0.089855	0.156162	0.079137	0.139977	0.044916	0.298534	0.144215	0.064196	0.081649	0.139210	0.133141	0.129531	0.127747	0.393902	0.265217	0.373305	0.084903	0.184620	0.153683	0.162152	0.082488	0.232616	0.108479	0.199402	0.088610	0.175000	0.224981	0.013728	0.100142	0.560910	0.245732	0.151110	0.213120	0.753284	0.138673	0.184185	0.074003	0.159534	0.061605	0.145744	0.213223	0.209391	0.079758	0.104370	0.090521	0.240193	0.165900	0.281750	0.084019	0.333028	0.131303	0.173201	0.111909	0.363989	0.127923	0.263123	0.118576	0.293692	0.051860	0.049645
32	0.195556	0.735067	0.375067	0.680021	0.110335	0.064657	0.139333	0.228810	0.087030	0.098413	0.130892	0.422923	0.080536	0.232816	0.207796	0.275052	0.034942	0.232892	0.046452	0.148945	0.059596	0.126157	0.104630	0.154060	0.048487	0.289435	0.189530	0.079645	0.081962	0.133359	0.132821	0.132467	0.107247	0.288615	0.255403	0.354751	0.085268	0.179056	0.172229	0.172758	0.071351	0.205607	0.109961	0.211344	0.075681	0.132965	0.213546	0.008043	0.164373	0.755610	0.408012	0.377903	0.219273	0.742059	0.136891	0.176690	0.083647	0.180070	0.059369	0.145727	0.218015	0.203991	0.081864	0.121260	0.099558	0.241573	0.101307	0.169272	0.114105	0.371017	0.146604	0.165914	0.110858	0.360354	0.135975	0.260355	0.176493	0.296206	0.058815	0.048851
33	0.194417	0.682258	0.383143	0.703444	0.097709	0.070506	0.136544	0.215208	0.085076	0.103736	0.144672	0.477566	0.079496	0.260135	0.219916	0.268383	0.096317	0.339279	0.053113	0.151449	0.077168	0.124544	0.116923	0.150774	0.054378	0.226802	0.187729	0.096425	0.081313	0.116559	0.132673	0.130807	0.106243	0.173345	0.241358	0.351101	0.080044	0.179043	0.181937	0.174000	0.086133	0.202174	0.111827	0.183068	0.071199	0.117435	0.186431	0.007686	0.164081	0.807112	0.489549	0.449361	0.213523	0.704581	0.134538	0.180187	0.085482	0.190761	0.039685	0.144170	0.215294	0.185741	0.081997	0.129243	0.099070	0.263353	0.100571	0.103035	0.116014	0.361483	0.156307	0.186447	0.109946	0.351112	0.150465	0.260953	0.194597	0.287237	0.060935	0.053924
34	0.181081	0.595663	0.370900	0.717084	0.071381	0.090925	0.136580	0.141364	0.078540	0.288678	0.161734	0.463663	0.085820	0.326992	0.278712	0.318374	0.116700	0.442103	0.064624	0.175973	0.098711	0.134404	0.118801	0.150242	0.065713	0.230742	0.219506	0.110895	0.074117	0.092941	0.134981	0.119997	0.089617	0.185399	0.177415	0.324407	0.077045	0.183861	0.186078	0.174673	0.130637	0.163888	0.116471	0.204297	0.044347	0.093483	0.176960	0.007165	0.186231	0.841031	0.522776	0.476508	0.184094	0.507406	0.135922	0.186975	0.079154	0.184836	0.024128	0.114699	0.212902	0.181590	0.083356	0.129179	0.095179	0.341455	0.098273	0.098871	0.119400	0.367156	0.150476	0.207521	0.109269	0.288789	0.162692	0.269276	0.349100	0.284326	0.060426	0.064327
35	0.154544	0.270942	0.303479	0.532299	0.070424	0.149252	0.060789	0.140888	0.091575	0.411379	0.179171	0.456531	0.084090	0.325182	0.386090	0.346348	0.138464	0.450765	0.062483	0.166135	0.107269	0.136655	0.126403	0.139654	0.069342	0.242038	0.223830	0.131336	0.070310	0.086165	0.113321	0.113525	0.109383	0.212902	0.161187	0.300507	0.076210	0.184006	0.186426	0.181304	0.139315	0.121940	0.109541	0.203258	0.041778	0.082954	0.106595	0.006454	0.202308	0.853526	0.613247	0.490373	0.170022	0.444866	0.137986	0.168909	0.082373	0.211769	0.023549	0.069987	0.205688	0.169050	0.107636	0.139449	0.101569	0.366716	0.094258	0.085155	0.132842	0.381492	0.150670	0.196196	0.088283	0.258521	0.181323	0.302381	0.384957	0.273234	0.062370	0.072726
36	0.150092	0.297800	0.273844	0.443378	0.070616	0.327570	0.148951	0.156438	0.079582	0.441225	0.152255	0.416581	0.085767	0.316631	0.391206	0.358997	0.141127	0.446591	0.061700	0.162319	0.107314	0.141323	0.164799	0.137841	0.069386	0.229622	0.239808	0.148779	0.070382	0.089003	0.095645	0.104581	0.111074	0.288105	0.053068	0.154765	0.070100	0.181916	0.174218	0.159954	0.133994	0.118736	0.123074	0.192691	0.042406	0.085428	0.096852	0.005695	0.243724	0.845007	0.625788	0.493810	0.165353	0.448666	0.135200	0.133031	0.076797	0.247975	0.056325	0.119064	0.201065	0.155851	0.132279	0.158120	0.125169	0.460377	0.089148	0.084694	0.137852	0.387391	0.161768	0.181726	0.082704	0.221398	0.187401	0.346034	0.385776	0.282985	0.063138	0.076644
37	0.132003	0.290413	0.198149	0.391136	0.048720	0.371044	0.163780	0.119221	0.086104	0.437681	0.153525	0.320032	0.095472	0.316439	0.376989	0.340058	0.137122	0.405778	0.084399	0.128870	0.106924	0.134406	0.193783	0.143010	0.070241	0.212963	0.259221	0.250930	0.070991	0.090634	0.097496	0.102221	0.108145	0.373879	0.037972	0.116997	0.071400	0.181645	0.186123	0.176572	0.135535	0.458741	0.130221	0.190964	0.045200	0.088660	0.098444	0.029108	0.247535	0.740396	0.629788	0.509250	0.163007	0.451118	0.138429	0.117810	0.068845	0.242529	0.088035	0.157611	0.185594	0.148769	0.151980	0.193036	0.130393	0.474858	0.070784	0.082083	0.137780	0.403252	0.168257	0.194127	0.112431	0.242973	0.193494	0.314330	0.386008	0.256712	0.063172	0.078204
38	0.126284	0.295668	0.133216	0.306233	0.084719	0.378487	0.187542	0.114536	0.093100	0.554729	0.155065	0.286412	0.106121	0.316037	0.384352	0.334728	0.101460	0.276219	0.143118	0.129691	0.109560	0.107145	0.194996	0.139259	0.068929	0.176689	0.273831	0.277861	0.067059	0.119759	0.108258	0.107996	0.106306	0.367218	0.049813	0.178659	0.073839	0.154150	0.176422	0.250624	0.192565	0.505880	0.123653	0.178297	0.047556	0.145563	0.084103	0.059664	0.229748	0.613195	0.614413	0.536991	0.160506	0.410614	0.138848	0.143964	0.057446	0.221988	0.097277	0.180892	0.181027	0.144787	0.145956	0.275107	0.133170	0.487288	0.130613	0.213462	0.134661	0.392523	0.204121	0.253008	0.126367	0.222331	0.190608	0.313825	0.385904	0.262538	0.063590	0.077769
39	0.118384	0.291746	0.110981	0.250926	0.156113	0.472716	0.209605	0.179884	0.100206	0.617681	0.136445	0.173602	0.091889	0.310618	0.411657	0.406956	0.095834	0.158981	0.144293	0.077792	0.107829	0.100375	0.194549	0.217677	0.071881	0.177592	0.244055	0.277208	0.049712	0.140797	0.095382	0.123267	0.101282	0.358779	0.050545	0.177737	0.068159	0.103986	0.173970	0.265821	0.217897	0.619881	0.119990	0.156007	0.091418	0.332588	0.094331	0.070210	0.197713	0.425764	0.507629	0.405632	0.150241	0.373028	0.133269	0.210712	0.059619	0.224869	0.103027	0.220505	0.181527	0.126882	0.146737	0.309404	0.123046	0.399614	0.152335	0.229806	0.137824	0.392993	0.218530	0.288188	0.122167	0.214743	0.182537	0.314270	0.386092	0.277521	0.069405	0.079871
40	0.110981	0.308861	0.096420	0.178287	0.264117	0.561365	0.230476	0.196904	0.111391	0.638345	0.108057	0.139427	0.086392	0.295508	0.454582	0.512179	0.073750	0.158408	0.149432	0.079320	0.102965	0.103531	0.183360	0.238804	0.068640	0.161154	0.304804	0.284721	0.033821	0.140095	0.083643	0.119202	0.069715	0.343820	0.057817	0.184623	0.069959	0.104697	0.158122	0.289894	0.197215	0.629305	0.107026	0.090276	0.150785	0.608502	0.095806	0.098245	0.200133	0.339148	0.422681	0.350176	0.136649	0.370544	0.146792	0.230936	0.055328	0.221912	0.106737	0.222870	0.155930	0.121693	0.146944	0.312127	0.116681	0.347737	0.173991	0.259575	0.153009	0.362278	0.207860	0.290172	0.122285	0.220306	0.171243	0.314400	0.385307	0.277668	0.095487	0.083831
41	0.085387	0.312421	0.084561	0.153106	0.273543	0.555991	0.330290	0.235992	0.098962	0.591240	0.084976	0.100005	0.098645	0.222938	0.495619	0.555425	0.078137	0.171569	0.237760	0.084535	0.115686	0.104208	0.187366	0.273653	0.071589	0.168567	0.318423	0.339670	0.038942	0.167303	0.089386	0.111869	0.053624	0.313724	0.088122	0.191805	0.070256	0.103212	0.142498	0.335387	0.189079	0.645016	0.107116	0.075787	0.176165	0.619743	0.108568	0.116904	0.172702	0.201441	0.330674	0.289089	0.119205	0.352144	0.153812	0.232289	0.051286	0.150225	0.120058	0.256002	0.077638	0.095757	0.163545	0.329606	0.110623	0.342036	0.185243	0.288846	0.154758	0.357135	0.207846	0.277010	0.123281	0.235552	0.164715	0.309901	0.380978	0.278311	0.117501	0.088293
42	0.077027	0.315319	0.060397	0.158627	0.278511	0.472324	0.332083	0.235755	0.092907	0.572605	0.087849	0.164725	0.125522	0.213400	0.491332	0.537920	0.089512	0.162962	0.232131	0.079515	0.108449	0.099020	0.191758	0.341176	0.062536	0.151340	0.301300	0.379549	0.042688	0.242572	0.095922	0.113438	0.044564	0.168147	0.099055	0.230203	0.081715	0.121928	0.132276	0.338206	0.190442	0.645424	0.088308	0.105488	0.196294	0.648442	0.113048	0.139116	0.143653	0.143523	0.154390	0.272576	0.097461	0.349980	0.150274	0.252648	0.050434	0.139608	0.092402	0.233935	0.055509	0.093589	0.199913	0.366917	0.109507	0.294893	0.210102	0.297199	0.151373	0.293299	0.229035	0.278858	0.146602	0.354198	0.146386	0.299552	0.363296	0.279884	0.143719	0.100052
43	0.076962	0.312656	0.055256	0.117281	0.281913	0.450115	0.326789	0.234002	0.094643	0.573750	0.090297	0.176720	0.136489	0.244926	0.425348	0.517119	0.098069	0.130811	0.207596	0.054914	0.110255	0.080085	0.192814	0.383534	0.075582	0.152040	0.300228	0.382364	0.044642	0.259938	0.097972	0.113862	0.078416	0.193761	0.109158	0.218465	0.086984	0.151244	0.137225	0.337032	0.188735	0.487569	0.065194	0.110478	0.196147	0.649731	0.107242	0.149566	0.061518	0.118223	0.113522	0.268043	0.077725	0.339566	0.150580	0.273784	0.050419	0.140365	0.143475	0.254338	0.089296	0.155591	0.218894	0.413523	0.105843	0.366746	0.203586	0.272377	0.149048	0.292857	0.257108	0.291552	0.150981	0.375098	0.097599	0.216508	0.350294	0.304505	0.155063	0.140091
44	0.086571	0.323073	0.054206	0.112781	0.270846	0.442403	0.323901	0.230872	0.094444	0.473118	0.096966	0.209537	0.136546	0.292256	0.380041	0.509558	0.081180	0.140287	0.234705	0.076105	0.130844	0.092991	0.182628	0.398491	0.084831	0.159533	0.280180	0.351360	0.048402	0.259916	0.099477	0.112769	0.084789	0.213436	0.116431	0.185328	0.088895	0.149279	0.137846	0.330814	0.137933	0.433187	0.065634	0.109837	0.194857	0.666580	0.101750	0.187887	0.058500	0.171682	0.093233	0.230639	0.091593	0.346799	0.160988	0.272090	0.080360	0.253512	0.159262	0.232506	0.105414	0.183390	0.220658	0.435247	0.108042	0.376544	0.194238	0.260349	0.149438	0.284274	0.262210	0.301831	0.137493	0.378363	0.057541	0.138735	0.351821	0.335166	0.160709	0.193944
45	0.122577	0.476410	0.052063	0.116359	0.242922	0.339449	0.316558	0.183520	0.085067	0.393561	0.097439	0.229912	0.135061	0.310169	0.395441	0.499901	0.096308	0.120387	0.228357	0.080822	0.167553	0.116350	0.129362	0.393573	0.088371	0.183241	0.265317	0.303804	0.048926	0.261384	0.097477	0.116126	0.085525	0.214033	0.119557	0.187574	0.090683	0.142093	0.130663	0.337604	0.072453	0.230985	0.064386	0.101860	0.198542	0.668138	0.082989	0.197147	0.061698	0.183367	0.091664	0.137322	0.093060	0.348392	0.176372	0.278352	0.082237	0.257761	0.161398	0.214948	0.115810	0.190976	0.209919	0.432667	0.101334	0.380009	0.197106	0.282759	0.145530	0.267403	0.266867	0.309113	0.108551	0.392822	0.055949	0.110019	0.267166	0.324724	0.184181	0.215869
46	0.125745	0.491250	0.056876	0.114059	0.133256	0.322905	0.303612	0.160729	0.063618	0.249986	0.098499	0.234202	0.121441	0.311205	0.399240	0.496612	0.099030	0.118179	0.154778	0.110044	0.194550	0.167491	0.109292	0.391723	0.091146	0.269762	0.257845	0.315084	0.052215	0.260858	0.111099	0.124341	0.095195	0.305644	0.123859	0.180718	0.098189	0.141584	0.121363	0.329964	0.077688	0.175699	0.065025	0.096744	0.175419	0.544066	0.086996	0.192730	0.057819	0.181005	0.086180	0.097785	0.097857	0.369757	0.177615	0.299717	0.082398	0.300281	0.160972	0.203776	0.121286	0.197381	0.193400	0.426085	0.099304	0.381445	0.191346	0.286815	0.143906	0.248895	0.262020	0.312781	0.100303	0.393328	0.054688	0.120208	0.290544	0.327921	0.193140	0.223036
47	0.169343	0.478605	0.058970	0.101959	0.108596	0.317381	0.179692	0.090651	0.063368	0.181862	0.092013	0.231575	0.120343	0.346595	0.383922	0.476221	0.101445	0.163913	0.160050	0.122437	0.198437	0.223387	0.108092	0.385163	0.089114	0.297412	0.197190	0.326599	0.054275	0.262006	0.112812	0.125917	0.099504	0.351910	0.169616	0.192316	0.097997	0.158658	0.133469	0.279042	0.075291	0.107651	0.068294	0.094192	0.157979	0.382168	0.143624	0.202947	0.048304	0.205213	0.061894	0.103945	0.098106	0.343239	0.176735	0.302844	0.097170	0.404624	0.154638	0.153107	0.122188	0.202680	0.175686	0.409666	0.096048	0.342040	0.222466	0.312334	0.150792	0.234791	0.252181	0.310919	0.102716	0.396670	0.053132	0.118120	0.304549	0.319173	0.203060	0.228010
48	0.183049	0.444121	0.045059	0.078623	0.101077	0.311470	0.127180	0.053500	0.071770	0.183625	0.088768	0.185286	0.117795	0.417503	0.327630	0.347679	0.097492	0.164077	0.166593	0.134050	0.229944	0.572566	0.106530	0.339421	0.082212	0.330005	0.100479	0.277288	0.050208	0.242307	0.100512	0.113253	0.094330	0.392575	0.175824	0.159588	0.117077	0.210768	0.126551	0.269581	0.071852	0.147405	0.054032	0.076919	0.118560	0.355150	0.162705	0.214460	0.050630	0.210589	0.034335	0.106628	0.101033	0.337865	0.170413	0.307736	0.102408	0.430723	0.144502	0.123557	0.120400	0.197122	0.174875	0.354884	0.058453	0.208929	0.223026	0.312320	0.152630	0.228243	0.236359	0.282075	0.103140	0.383156	0.046277	0.109909	0.317935	0.306142	0.215148	0.229516
49	0.186985	0.465647	0.048733	0.060203	0.089708	0.311275	0.135545	0.053864	0.071646	0.189967	0.064504	0.165330	0.129768	0.482728	0.245448	0.203767	0.095585	0.167963	0.162495	0.137663	0.250585	0.622594	0.092565	0.333384	0.098590	0.369925	0.074770	0.199412	0.049956	0.233864	0.102107	0.088499	0.072868	0.396862	0.200257	0.176613	0.140063	0.294846	0.120537	0.210107	0.074544	0.245065	0.057082	0.088636	0.101293	0.331872	0.190938	0.213598	0.052638	0.206417	0.028513	0.106764	0.105369	0.331297	0.181866	0.288471	0.093689	0.425574	0.067420	0.062006	0.117802	0.194732	0.174271	0.323069	0.047911	0.142176	0.207564	0.297870	0.151944	0.212789	0.203737	0.230364	0.080972	0.306044	0.038868	0.097473	0.422283	0.281447	0.220771	0.245394
50	0.207585	0.528373	0.073700	0.073293	0.079318	0.306464	0.121197	0.057666	0.091265	0.276030	0.036210	0.115224	0.113445	0.581276	0.193439	0.153332	0.077266	0.163289	0.161972	0.136573	0.238615	0.694577	0.053600	0.278917	0.102915	0.469381	0.071974	0.150463	0.059086	0.236804	0.106288	0.096816	0.091166	0.395452	0.217408	0.207462	0.158248	0.341628	0.118733	0.151619	0.124431	0.347870	0.068420	0.090757	0.101799	0.325873	0.226194	0.207963	0.051984	0.200777	0.029191	0.103620	0.106023	0.328635	0.197670	0.251776	0.081272	0.365788	0.057412	0.064173	0.116331	0.194491	0.172581	0.319702	0.038152	0.128629	0.188398	0.242383	0.141209	0.209183	0.203109	0.212153	0.063618	0.216943	0.033894	0.083911	0.490747	0.280911	0.218565	0.282155
51	0.187576	0.436472	0.081262	0.074211	0.080410	0.279840	0.098394	0.061734	0.093252	0.292401	0.036209	0.061016	0.087279	0.562333	0.183479	0.150200	0.075987	0.167336	0.204039	0.259601	0.241016	0.921523	0.032304	0.198586	0.089975	0.470807	0.061209	0.145666	0.056279	0.214580	0.100328	0.104728	0.092212	0.394198	0.261001	0.314871	0.153592	0.334433	0.117282	0.156188	0.123681	0.355633	0.077179	0.091474	0.111201	0.317444	0.226078	0.187875	0.039807	0.152560	0.035974	0.087311	0.110258	0.316451	0.186268	0.249813	0.084154	0.360852	0.035403	0.074091	0.116739	0.195685	0.152873	0.298721	0.045059	0.166269	0.178717	0.226208	0.131212	0.208572	0.203542	0.212899	0.066281	0.223145	0.042362	0.074769	0.505660	0.284194	0.204080	0.340121
52	0.182335	0.372174	0.156601	0.100894	0.054457	0.105840	0.102429	0.052255	0.103163	0.312078	0.097670	0.122377	0.084024	0.554973	0.179651	0.129296	0.069965	0.179987	0.252696	0.308506	0.238640	0.941292	0.022135	0.130906	0.085439	0.464476	0.050701	0.145926	0.053887	0.109970	0.095423	0.101547	0.078136	0.338312	0.251223	0.341785	0.153553	0.334474	0.115361	0.160702	0.117917	0.359773	0.083306	0.090460	0.121892	0.742182	0.225065	0.178896	0.045118	0.149951	0.038938	0.065890	0.120061	0.302036	0.176922	0.242301	0.079919	0.311349	0.025453	0.076071	0.117022	0.201309	0.099272	0.246248	0.053856	0.211841	0.143756	0.146283	0.111219	0.163544	0.189782	0.211857	0.088985	0.206134	0.045658	0.076072	0.506812	0.283579	0.200771	0.390586
53	0.150989	0.391521	0.407668	0.279211	0.053644	0.122345	0.094236	0.049535	0.127706	0.494398	0.148086	0.155076	0.085886	0.530056	0.150690	0.108533	0.083573	0.184695	0.378935	0.387124	0.233237	0.949486	0.021719	0.106435	0.080883	0.434804	0.044801	0.137614	0.052587	0.092006	0.093153	0.101992	0.079247	0.417198	0.297818	0.379787	0.157555	0.430682	0.114223	0.158329	0.121083	0.378552	0.093763	0.093432	0.156846	0.820211	0.228049	0.175113	0.071861	0.424567	0.040022	0.055773	0.125977	0.282311	0.176304	0.213436	0.048672	0.108296	0.028088	0.085771	0.094550	0.161120	0.043709	0.152313	0.067276	0.274460	0.079209	0.073740	0.095653	0.128603	0.132363	0.195404	0.123717	0.228057	0.045014	0.067484	0.506732	0.275325	0.178794	0.406825
54	0.145891	0.426556	0.553168	0.319866	0.073484	0.279103	0.096167	0.048831	0.129118	0.539115	0.184701	0.159258	0.084484	0.546687	0.123278	0.092185	0.150406	0.209119	0.387031	0.409252	0.214504	0.982426	0.020561	0.105400	0.079377	0.411608	0.047418	0.091599	0.049638	0.095716	0.082590	0.102314	0.084660	0.368436	0.294347	0.388799	0.165132	0.595904	0.102000	0.125606	0.127561	0.406908	0.154137	0.098243	0.175082	0.931007	0.199057	0.148341	0.170441	0.717037	0.043436	0.053122	0.115714	0.273787	0.174160	0.197109	0.046979	0.104355	0.058654	0.097378	0.075627	0.134762	0.030460	0.070797	0.073476	0.339297	0.091236	0.072488	0.092843	0.126227	0.089154	0.147095	0.130924	0.233216	0.043784	0.061664	0.498331	0.229515	0.173987	0.396183
55	0.195844	0.407985	0.593109	0.391033	0.088927	0.305400	0.077635	0.049090	0.125572	0.538876	0.207602	0.170325	0.084605	0.591865	0.101695	0.074619	0.160516	0.235000	0.421401	0.500272	0.211905	0.983492	0.017185	0.103504	0.079756	0.397131	0.038820	0.080039	0.053301	0.128227	0.078743	0.094941	0.074838	0.374928	0.280918	0.380171	0.242962	0.607279	0.078553	0.086147	0.127506	0.393605	0.159180	0.076568	0.185370	0.928748	0.186733	0.117953	0.219665	0.990363	0.048925	0.053963	0.114196	0.244161	0.154701	0.193522	0.045420	0.104191	0.069474	0.098519	0.057734	0.126786	0.031029	0.073838	0.086886	0.482456	0.089303	0.070124	0.082658	0.125681	0.070308	0.091557	0.166917	0.251821	0.042746	0.061522	0.474469	0.180035	0.160472	0.372310
56	0.199171	0.378452	0.661831	0.454376	0.089361	0.313446	0.057123	0.043096	0.105912	0.480957	0.298672	0.261121	0.095427	0.556197	0.082803	0.060915	0.156780	0.237948	0.399956	0.477091	0.217776	0.932306	0.009955	0.093628	0.078196	0.384972	0.033031	0.092985	0.054223	0.146547	0.052905	0.084875	0.079943	0.424358	0.318928	0.325715	0.322229	0.617085	0.060731	0.076278	0.082386	0.316205	0.157216	0.140651	0.190151	0.927295	0.131667	0.110073	0.290198	1.003387	0.051395	0.056241	0.115948	0.197303	0.139920	0.157230	0.039991	0.141835	0.105580	0.118141	0.044316	0.124589	0.032057	0.077263	0.098555	0.477506	0.087438	0.062922	0.077937	0.120917	0.052790	0.059111	0.187464	0.450523	0.042766	0.060866	0.443551	0.144456	0.136484	0.363713
57	0.194362	0.367159	0.711693	0.579134	0.092621	0.316107	0.055764	0.041607	0.107443	0.465545	0.336008	0.286380	0.091424	0.551797	0.077394	0.052047	0.202230	0.386609	0.378974	0.490895	0.179038	0.824623	0.009869	0.079160	0.056774	0.320978	0.034497	0.103846	0.052057	0.144025	0.047549	0.086948	0.120644	0.439146	0.375267	0.374373	0.335581	0.617449	0.075865	0.088373	0.096748	0.376880	0.156471	0.151383	0.195466	0.960326	0.102999	0.084236	0.293756	1.009857	0.129687	0.070923	0.113896	0.148906	0.136536	0.131914	0.046391	0.204851	0.158457	0.153192	0.039971	0.124217	0.030812	0.078702	0.094964	0.462576	0.109168	0.073739	0.052303	0.104672	0.077799	0.101529	0.200616	0.582320	0.043659	0.060910	0.419075	0.138660	0.128406	0.360010
58	0.215911	0.387106	0.755321	0.608727	0.091219	0.319209	0.115507	0.086294	0.125412	0.457354	0.351916	0.276308	0.071905	0.411322	0.084197	0.042652	0.231351	0.553330	0.253855	0.446060	0.170070	0.838467	0.014861	0.067172	0.076453	0.473631	0.037544	0.108187	0.052268	0.144253	0.046207	0.092281	0.125493	0.346289	0.348579	0.361162	0.323967	0.590928	0.134138	0.133382	0.097337	0.376326	0.209757	0.192311	0.198725	0.971737	0.107895	0.064751	0.293488	1.011199	0.165888	0.097743	0.115779	0.150281	0.136265	0.127162	0.064326	0.265182	0.160493	0.151885	0.025234	0.125262	0.030233	0.078268	0.091618	0.451680	0.143379	0.092724	0.044017	0.095385	0.094955	0.157588	0.204874	0.583840	0.102011	0.104216	0.411822	0.143205	0.108675	0.361025
59	0.259903	0.413342	0.700006	0.581263	0.091101	0.313112	0.132791	0.136426	0.112974	0.293853	0.382911	0.319176	0.074220	0.438807	0.085858	0.038384	0.215202	0.603167	0.253399	0.433729	0.180582	0.656459	0.030232	0.053295	0.134975	0.720884	0.039587	0.107287	0.050309	0.139444	0.037310	0.093208	0.120637	0.296727	0.321717	0.336717	0.319704	0.580737	0.145916	0.140407	0.106672	0.369904	0.245745	0.236645	0.188716	0.654273	0.106381	0.065170	0.296083	1.013066	0.169034	0.101498	0.123072	0.190125	0.123696	0.099149	0.067877	0.266458	0.199303	0.186399	0.025633	0.133665	0.028975	0.077421	0.083593	0.390004	0.144565	0.094116	0.044397	0.091622	0.094299	0.187184	0.198496	0.572494	0.162276	0.191082	0.380591	0.136755	0.088338	0.361315
60	0.277142	0.375138	0.551279	0.541279	0.076954	0.179312	0.144953	0.136522	0.165732	0.440727	0.371851	0.326853	0.071756	0.439216	0.099196	0.047969	0.213098	0.630930	0.168490	0.297424	0.190676	0.542718	0.049772	0.042818	0.142697	0.736016	0.085371	0.089809	0.037064	0.133281	0.090442	0.090781	0.121921	0.252086	0.405917	0.367263	0.320231	0.582962	0.144586	0.138650	0.105821	0.319111	0.285573	0.291191	0.122597	0.483706	0.076703	0.077608	0.305347	0.928233	0.189813	0.097772	0.121003	0.207218	0.082224	0.078420	0.067301	0.263662	0.236363	0.216118	0.027047	0.143442	0.028763	0.075747	0.066412	0.272445	0.172052	0.107537	0.051859	0.096228	0.094266	0.187927	0.178417	0.558654	0.179473	0.192870	0.248392	0.103700	0.073606	0.349279
61	0.251181	0.336558	0.530591	0.503751	0.054743	0.145665	0.208696	0.140873	0.194141	0.632448	0.372904	0.325009	0.072512	0.437308	0.108947	0.065935	0.218837	0.645897	0.140169	0.259665	0.177763	0.515551	0.084015	0.037067	0.161430	0.751725	0.246372	0.166963	0.044115	0.156182	0.191758	0.134785	0.111807	0.181916	0.425761	0.376624	0.323566	0.576536	0.165006	0.158015	0.104956	0.268059	0.369899	0.331910	0.110885	0.363655	0.104100	0.172475	0.249586	0.649607	0.198517	0.095292	0.119911	0.217309	0.075379	0.069810	0.068779	0.250103	0.380529	0.325836	0.025116	0.143341	0.027972	0.075443	0.068303	0.180725	0.177309	0.116192	0.058545	0.102032	0.091748	0.201506	0.171586	0.555299	0.233575	0.213287	0.124881	0.070010	0.070452	0.314434
62	0.220733	0.329833	0.428989	0.495032	0.049708	0.171713	0.208889	0.148969	0.219306	0.659407	0.322847	0.272568	0.073279	0.458113	0.102827	0.073056	0.149448	0.527851	0.096568	0.112794	0.166759	0.489937	0.091332	0.041616	0.165060	0.750447	0.283502	0.226951	0.048904	0.199522	0.210386	0.172926	0.098800	0.111155	0.342503	0.345669	0.345013	0.475379	0.205079	0.210244	0.107565	0.264328	0.392071	0.330841	0.089931	0.361621	0.108311	0.194037	0.218933	0.434730	0.249317	0.143892	0.110326	0.218464	0.109026	0.095761	0.062302	0.218237	0.457224	0.358690	0.022005	0.128215	0.030269	0.071173	0.064725	0.204280	0.177310	0.125297	0.057392	0.100738	0.091896	0.233653	0.145092	0.550764	0.285428	0.238461	0.082129	0.071752	0.063685	0.246150
63	0.218327	0.278319	0.369674	0.332128	0.041362	0.207361	0.208184	0.149538	0.217112	0.671747	0.297654	0.251857	0.074004	0.477783	0.209691	0.197964	0.105175	0.400961	0.084287	0.085220	0.159178	0.424599	0.108750	0.044002	0.161304	0.741900	0.296041	0.227223	0.080568	0.363377	0.221306	0.177135	0.040603	0.047536	0.309983	0.240049	0.348413	0.363589	0.226313	0.219902	0.124603	0.189523	0.465531	0.353979	0.083752	0.367462	0.132506	0.216819	0.158084	0.403195	0.343028	0.161210	0.098900	0.233095	0.115499	0.120009	0.062075	0.169001	0.459267	0.365657	0.020955	0.126402	0.038355	0.061641	0.065790	0.201854	0.172228	0.107963	0.063426	0.101878	0.092309	0.252060	0.147223	0.515944	0.288532	0.249625	0.079424	0.086610	0.041360	0.167293
64	0.212656	0.286542	0.227784	0.221598	0.065403	0.218815	0.175215	0.127025	0.207916	0.672569	0.318955	0.266843	0.071537	0.473961	0.415573	0.347673	0.066750	0.357359	0.031014	0.043056	0.138517	0.419321	0.130632	0.073103	0.166640	0.730677	0.338627	0.228028	0.083812	0.387671	0.258749	0.208629	0.044303	0.059328	0.313738	0.227387	0.283906	0.390796	0.296767	0.277803	0.132727	0.160490	0.459495	0.355240	0.051236	0.216817	0.245834	0.320042	0.167294	0.424700	0.332133	0.157543	0.100509	0.241686	0.118236	0.126600	0.058884	0.149960	0.478471	0.404405	0.019093	0.116161	0.079207	0.049213	0.067874	0.185034	0.170759	0.111868	0.077777	0.105246	0.093362	0.253190	0.118720	0.240694	0.288741	0.250566	0.077615	0.086519	0.040947	0.131435
65	0.192631	0.279120	0.175375	0.172921	0.074592	0.229049	0.168440	0.086471	0.204095	0.654209	0.287377	0.214325	0.071699	0.480617	0.539306	0.374514	0.061944	0.312069	0.037358	0.050073	0.127459	0.390059	0.155033	0.109436	0.162062	0.614046	0.363021	0.244316	0.081704	0.413166	0.302924	0.240028	0.035136	0.066363	0.275724	0.171714	0.218806	0.385393	0.422657	0.338667	0.131240	0.183742	0.434171	0.323953	0.037011	0.149084	0.274781	0.341110	0.184906	0.489726	0.438382	0.168505	0.100038	0.258846	0.120797	0.126441	0.068091	0.160911	0.452018	0.378857	0.020171	0.107821	0.096952	0.062998	0.071856	0.192647	0.171493	0.120038	0.086548	0.108530	0.118340	0.253527	0.114512	0.235905	0.278771	0.243972	0.073443	0.089941	0.039783	0.125505
66	0.156396	0.347036	0.173285	0.165815	0.077669	0.286331	0.159415	0.085576	0.172217	0.625737	0.289363	0.215781	0.109398	0.494113	0.561339	0.382949	0.094963	0.395344	0.061555	0.067423	0.160142	0.402076	0.160650	0.119545	0.124288	0.374756	0.378861	0.261211	0.082532	0.416237	0.323961	0.257535	0.034759	0.133424	0.137861	0.109495	0.220499	0.346407	0.452729	0.362950	0.128568	0.292759	0.406618	0.284573	0.047141	0.134618	0.414891	0.464207	0.229646	0.487864	0.622827	0.206645	0.084988	0.255036	0.127928	0.131780	0.089032	0.218037	0.429955	0.360341	0.022876	0.099163	0.099406	0.075489	0.063282	0.152251	0.189724	0.190173	0.092000	0.112303	0.164036	0.254655	0.109046	0.249602	0.249216	0.180802	0.134805	0.128473	0.040850	0.126032
67	0.158110	0.440393	0.156280	0.161926	0.088804	0.351082	0.075912	0.077083	0.167830	0.564830	0.285130	0.240335	0.142534	0.438753	0.713663	0.417680	0.133023	0.531255	0.137207	0.095726	0.239405	0.483571	0.160372	0.118993	0.113187	0.242416	0.385618	0.267632	0.095255	0.430892	0.328357	0.264243	0.080891	0.299826	0.099001	0.095733	0.221401	0.325666	0.440781	0.353937	0.139798	0.342793	0.316851	0.223668	0.064807	0.165289	0.456938	0.520637	0.247214	0.473920	0.660836	0.216655	0.098253	0.266902	0.130177	0.149946	0.097978	0.256162	0.247828	0.259787	0.022007	0.093631	0.122533	0.075019	0.079088	0.139076	0.231183	0.206565	0.092596	0.136997	0.169451	0.254120	0.109514	0.254361	0.228375	0.165957	0.187757	0.142471	0.039439	0.124325
68	0.181250	0.564073	0.128817	0.116631	0.104503	0.400261	0.075362	0.066197	0.138105	0.586949	0.263138	0.222809	0.152258	0.439950	0.796464	0.432911	0.156283	0.548420	0.160661	0.110464	0.277995	0.509513	0.158007	0.133470	0.093307	0.180192	0.341204	0.254462	0.102896	0.467150	0.328963	0.263519	0.114411	0.425457	0.098483	0.099788	0.220782	0.323144	0.440120	0.352049	0.137986	0.349619	0.306687	0.230712	0.083484	0.230971	0.454721	0.500199	0.272610	0.393262	0.657643	0.217526	0.101194	0.265675	0.132481	0.198420	0.100705	0.280997	0.202887	0.233923	0.025965	0.088846	0.148940	0.092019	0.086442	0.196006	0.228791	0.206359	0.093195	0.141574	0.156264	0.234427	0.111309	0.314709	0.198685	0.143404	0.195447	0.218019	0.032261	0.120304
69	0.183221	0.681957	0.122420	0.073500	0.102729	0.382184	0.073726	0.057251	0.142582	0.576120	0.251930	0.219703	0.174750	0.518209	0.799506	0.431046	0.157666	0.546003	0.447004	0.321635	0.305205	0.490180	0.149698	0.152734	0.096652	0.175572	0.269585	0.178972	0.107874	0.493035	0.331595	0.262291	0.142322	0.573823	0.089019	0.096924	0.223104	0.321868	0.442293	0.359818	0.107069	0.328834	0.184630	0.187705	0.083238	0.244888	0.456916	0.497980	0.284121	0.337352	0.639540	0.180328	0.089500	0.246583	0.152783	0.201300	0.105773	0.316544	0.154524	0.169677	0.029636	0.077032	0.156789	0.108592	0.083835	0.238823	0.226749	0.232842	0.092869	0.142903	0.160126	0.207090	0.108180	0.341631	0.085432	0.095241	0.195321	0.285176	0.035173	0.111059
70	0.191012	0.673060	0.110043	0.076148	0.088138	0.363885	0.075376	0.037215	0.148419	0.596110	0.166140	0.176403	0.220972	0.625863	0.799423	0.446531	0.165153	0.522289	0.510514	0.412143	0.403286	0.484521	0.141117	0.153111	0.097004	0.179589	0.263939	0.164980	0.109942	0.511307	0.324409	0.268292	0.161153	0.678086	0.073531	0.086442	0.217354	0.316554	0.437790	0.367446	0.098132	0.337201	0.137969	0.151287	0.082093	0.215730	0.446380	0.470710	0.293125	0.332359	0.607666	0.204488	0.092276	0.220136	0.165555	0.214975	0.107498	0.340277	0.126971	0.135452	0.036448	0.073731	0.157009	0.115560	0.087553	0.293756	0.274163	0.276953	0.088808	0.136625	0.171347	0.197383	0.098257	0.309778	0.057020	0.037170	0.196118	0.316854	0.052034	0.102240
71	0.175030	0.656294	0.108880	0.074654	0.081687	0.356410	0.073225	0.035055	0.149884	0.597158	0.121174	0.155656	0.236137	0.634902	0.797086	0.471205	0.147467	0.339821	0.590560	0.477445	0.438102	0.484101	0.141744	0.154366	0.110470	0.376422	0.218400	0.155537	0.106613	0.507878	0.296837	0.263490	0.181341	0.701654	0.089245	0.113672	0.185212	0.300883	0.423444	0.349614	0.086343	0.328684	0.138762	0.150360	0.091629	0.219973	0.398132	0.428752	0.305189	0.259250	0.612196	0.208604	0.100707	0.207962	0.173184	0.243101	0.106460	0.362171	0.082043	0.094175	0.037045	0.136684	0.157955	0.117042	0.109041	0.332374	0.261674	0.255889	0.089417	0.141449	0.195174	0.223408	0.077932	0.287109	0.173174	0.103406	0.195724	0.333406	0.064680	0.096542
72	0.142939	0.629333	0.108020	0.071685	0.080991	0.299036	0.040989	0.034678	0.136506	0.509633	0.099713	0.129674	0.236936	0.620946	0.740944	0.403702	0.206015	0.362256	0.625031	0.533651	0.438730	0.483918	0.125592	0.158411	0.113909	0.484680	0.156508	0.135184	0.104989	0.491152	0.349611	0.272666	0.181678	0.686821	0.137872	0.131865	0.179399	0.236135	0.417593	0.339341	0.070313	0.228860	0.132448	0.149329	0.096896	0.223707	0.389129	0.398472	0.308308	0.157102	0.512123	0.188055	0.101693	0.213384	0.161460	0.266643	0.104802	0.405153	0.073069	0.067765	0.040985	0.161009	0.160409	0.118390	0.113081	0.357801	0.230950	0.222404	0.090119	0.139353	0.244133	0.280377	0.071863	0.336781	0.326147	0.232750	0.201505	0.349461	0.073014	0.091041
73	0.141613	0.538469	0.122090	0.083946	0.067307	0.202447	0.034630	0.025292	0.103508	0.347867	0.046450	0.061340	0.242697	0.594059	0.634891	0.339947	0.211918	0.466469	0.629382	0.545377	0.440629	0.482478	0.108548	0.143990	0.127349	0.560691	0.124533	0.091547	0.096147	0.406677	0.375719	0.275043	0.159263	0.610371	0.155689	0.134144	0.177348	0.219095	0.333982	0.293823	0.045689	0.145771	0.131415	0.147424	0.087449	0.235542	0.230598	0.252201	0.288559	0.120910	0.282878	0.153405	0.101473	0.240782	0.160378	0.275814	0.103030	0.386645	0.063086	0.064300	0.061453	0.251356	0.163061	0.120517	0.090170	0.335153	0.217182	0.217174	0.086435	0.143288	0.273415	0.314902	0.071496	0.330485	0.380069	0.243955	0.205850	0.349413	0.073672	0.086523
74	0.101515	0.502291	0.159274	0.107430	0.048941	0.103250	0.111534	0.092377	0.107063	0.278708	0.034854	0.055904	0.236087	0.578580	0.607456	0.337800	0.213526	0.476674	0.467221	0.458658	0.449293	0.467303	0.079369	0.125646	0.200729	0.935283	0.176293	0.122980	0.118058	0.392998	0.350248	0.256991	0.142183	0.555194	0.226469	0.187065	0.156888	0.277994	0.181573	0.224313	0.049726	0.110050	0.121279	0.106844	0.071828	0.286925	0.204359	0.146222	0.282223	0.156808	0.306754	0.232858	0.101246	0.254551	0.174884	0.279864	0.090151	0.369671	0.049246	0.051027	0.074918	0.301452	0.210297	0.195268	0.090217	0.303606	0.212261	0.213669	0.090599	0.141756	0.291912	0.336777	0.080282	0.323787	0.392993	0.250594	0.207731	0.357541	0.084212	0.081539
75	0.096069	0.432509	0.154657	0.103364	0.077947	0.176237	0.223753	0.208915	0.104878	0.287485	0.024464	0.033588	0.219440	0.576550	0.505701	0.320368	0.215454	0.537320	0.476832	0.430323	0.423824	0.357132	0.076892	0.120749	0.200153	0.941009	0.235517	0.156872	0.119540	0.358360	0.322302	0.249756	0.126810	0.360201	0.258284	0.202850	0.133260	0.312526	0.126431	0.197810	0.078460	0.472791	0.094928	0.085333	0.089641	0.352723	0.207999	0.146761	0.299644	0.296824	0.527898	0.462247	0.093296	0.240625	0.175431	0.282291	0.084999	0.327315	0.035889	0.034895	0.079669	0.302704	0.243077	0.280225	0.087543	0.271244	0.149312	0.134014	0.099778	0.145559	0.298942	0.360896	0.085943	0.285198	0.408074	0.284250	0.208525	0.371561	0.098116	0.078467
76	0.100622	0.456605	0.142510	0.097570	0.122725	0.244131	0.243951	0.224274	0.095071	0.265746	0.024562	0.028128	0.202542	0.576359	0.254447	0.288595	0.204126	0.541625	0.374176	0.356266	0.385249	0.208899	0.075204	0.119001	0.202152	1.007397	0.245968	0.156451	0.119159	0.355246	0.343373	0.244968	0.109154	0.302856	0.260557	0.201969	0.132584	0.331383	0.132426	0.199763	0.175676	0.818404	0.090557	0.078833	0.096014	0.373120	0.197342	0.142540	0.289582	0.308935	0.551910	0.495986	0.096159	0.258175	0.178939	0.280999	0.082334	0.310651	0.027970	0.029403	0.083208	0.302553	0.246941	0.289059	0.073682	0.217112	0.096481	0.099213	0.097674	0.143820	0.283930	0.366194	0.093272	0.235488	0.409754	0.293784	0.206557	0.373971	0.110113	0.076384
77	0.093427	0.459079	0.137179	0.097422	0.144946	0.267367	0.349565	0.271196	0.086969	0.268165	0.021950	0.029488	0.199463	0.542134	0.182067	0.287120	0.129337	0.499433	0.331990	0.273080	0.353878	0.130039	0.074409	0.086590	0.203336	1.029438	0.319817	0.165019	0.111288	0.330440	0.369197	0.242790	0.104634	0.298861	0.279864	0.213843	0.132742	0.339684	0.132651	0.207261	0.187526	0.827270	0.101193	0.075919	0.096356	0.379812	0.186744	0.137965	0.281958	0.311727	0.636502	0.545660	0.087001	0.249339	0.212413	0.281822	0.050792	0.205963	0.029581	0.036975	0.099097	0.302127	0.252546	0.306608	0.037459	0.178176	0.072876	0.082634	0.096665	0.150674	0.311645	0.416257	0.101350	0.235211	0.457020	0.360354	0.128751	0.361439	0.111081	0.075097
78	0.087078	0.495687	0.144351	0.097165	0.174737	0.299848	0.379264	0.293314	0.102269	0.289712	0.030999	0.031436	0.198913	0.626854	0.183508	0.281189	0.126885	0.514085	0.311154	0.255420	0.324819	0.127724	0.157854	0.088084	0.220957	1.019863	0.334577	0.178704	0.107856	0.274940	0.378033	0.242558	0.105061	0.319844	0.281394	0.242081	0.130548	0.335810	0.116334	0.179272	0.189190	0.840745	0.172493	0.131884	0.084621	0.379365	0.171141	0.123305	0.268447	0.322655	0.727722	0.644547	0.073191	0.239971	0.229935	0.263901	0.034037	0.112630	0.035227	0.037022	0.116366	0.304936	0.289629	0.337954	0.039477	0.154682	0.128980	0.102509	0.096573	0.149881	0.406852	0.491563	0.105297	0.241668	0.518423	0.407309	0.099264	0.355456	0.117439	0.067670
79	0.118236	0.577148	0.159130	0.092959	0.188477	0.323012	0.381491	0.295638	0.102951	0.360221	0.054717	0.034030	0.157836	0.516208	0.174896	0.217622	0.170500	0.619241	0.258149	0.164576	0.172284	0.120852	0.224448	0.119014	0.211788	0.950059	0.359098	0.223718	0.105911	0.226896	0.380599	0.242828	0.107623	0.297164	0.269610	0.251137	0.137675	0.332963	0.088063	0.134308	0.192111	0.840982	0.188743	0.169067	0.089206	0.415819	0.136712	0.074736	0.267826	0.423762	0.770007	0.700108	0.072303	0.341022	0.228359	0.249274	0.022768	0.123794	0.036621	0.038004	0.143050	0.337348	0.321294	0.367005	0.045917	0.197323	0.159654	0.104664	0.102667	0.191767	0.465794	0.524940	0.143473	0.324563	0.465540	0.379923	0.099567	0.302370	0.119159	0.071455
80	0.157939	0.892909	0.130507	0.070306	0.189149	0.319962	0.368467	0.274228	0.096766	0.359956	0.082222	0.037405	0.156466	0.509881	0.151076	0.161413	0.223960	0.997970	0.173517	0.130695	0.145262	0.120714	0.227255	0.114646	0.218748	0.906672	0.439705	0.362392	0.104552	0.200173	0.372378	0.229095	0.099394	0.238316	0.220142	0.221642	0.142323	0.335417	0.090935	0.134232	0.193604	0.842005	0.179286	0.202774	0.090588	0.402849	0.134633	0.069475	0.251930	0.460496	0.774707	0.706654	0.074144	0.386586	0.217805	0.245042	0.046346	0.181387	0.102675	0.141359	0.210705	0.431152	0.321976	0.375947	0.051069	0.275329	0.219712	0.123283	0.123276	0.251828	0.478282	0.537079	0.163768	0.347582	0.404889	0.364522	0.099399	0.265393	0.116938	0.079374
81	0.188633	0.845878	0.107604	0.052764	0.177646	0.287494	0.317997	0.212757	0.094306	0.344117	0.085899	0.038419	0.148152	0.523519	0.143805	0.145400	0.226818	0.997327	0.148656	0.075934	0.148659	0.211903	0.256862	0.110254	0.161535	0.625420	0.469912	0.374126	0.103805	0.198343	0.355036	0.199277	0.096506	0.212872	0.196789	0.217759	0.130205	0.331010	0.102960	0.135346	0.199429	0.718164	0.212240	0.256752	0.083943	0.364793	0.107975	0.064953	0.230823	0.469137	0.725993	0.669395	0.082852	0.601441	0.229781	0.222368	0.054226	0.196298	0.167568	0.185792	0.280469	0.504728	0.324072	0.378894	0.051715	0.281782	0.242686	0.135846	0.145246	0.276650	0.474003	0.536389	0.175483	0.458135	0.400670	0.362824	0.096488	0.207371	0.147154	0.074762
82	0.208152	0.837802	0.104853	0.047425	0.145441	0.233723	0.298117	0.193416	0.084838	0.315833	0.107900	0.055252	0.141581	0.520053	0.136344	0.143293	0.225150	0.946325	0.084825	0.066109	0.118654	0.236006	0.309399	0.112161	0.153303	0.461929	0.455568	0.364424	0.102811	0.174842	0.293727	0.166006	0.066901	0.165780	0.198625	0.217999	0.134175	0.322295	0.104126	0.129458	0.119158	0.285652	0.270483	0.312306	0.057122	0.243721	0.096255	0.057259	0.193813	0.420231	0.610078	0.585056	0.084761	0.671159	0.226780	0.188952	0.059859	0.226549	0.228669	0.230455	0.356817	0.518417	0.330858	0.389415	0.055655	0.283414	0.251073	0.140555	0.147033	0.276678	0.474149	0.510343	0.171964	0.473411	0.385256	0.343386	0.095611	0.198405	0.219039	0.078117
83	0.205433	0.829160	0.106124	0.082409	0.130562	0.212186	0.165290	0.123045	0.088311	0.302633	0.211432	0.135500	0.147676	0.512734	0.137003	0.120160	0.226894	0.892087	0.070496	0.052300	0.108004	0.258949	0.318206	0.113758	0.149101	0.399037	0.529554	0.445403	0.084258	0.157243	0.264072	0.159022	0.070303	0.179154	0.132915	0.144755	0.157148	0.312605	0.107612	0.125423	0.101422	0.281143	0.300758	0.366956	0.046810	0.235820	0.100940	0.065574	0.188076	0.430966	0.596353	0.595055	0.099445	0.667849	0.221026	0.148642	0.072723	0.252386	0.309523	0.274920	0.371495	0.498158	0.344432	0.391872	0.066394	0.289140	0.239573	0.121065	0.167406	0.280620	0.479421	0.474454	0.173871	0.492201	0.389026	0.338009	0.079493	0.178954	0.248348	0.085715
84	0.206449	0.848426	0.106127	0.095155	0.086568	0.157337	0.127055	0.111326	0.068179	0.258292	0.418428	0.294118	0.151717	0.514077	0.164330	0.123072	0.175329	0.815141	0.044781	0.036349	0.114353	0.302087	0.322474	0.116262	0.139364	0.228326	0.561226	0.519074	0.053985	0.156590	0.267370	0.138555	0.081280	0.187921	0.111886	0.124509	0.156726	0.301069	0.119191	0.116129	0.101497	0.222070	0.350818	0.385289	0.048947	0.236719	0.102526	0.085130	0.172425	0.486572	0.480963	0.529099	0.104753	0.658449	0.211121	0.118148	0.115771	0.337529	0.313149	0.284855	0.417258	0.518223	0.313647	0.363018	0.068943	0.239613	0.206695	0.117660	0.166228	0.280472	0.480608	0.455058	0.163635	0.497297	0.359505	0.287609	0.071151	0.184243	0.251509	0.083858
85	0.202036	0.817436	0.092132	0.150633	0.081663	0.122315	0.119633	0.111936	0.067616	0.180297	0.464997	0.298833	0.153042	0.514055	0.165378	0.127804	0.126115	0.483451	0.033233	0.033122	0.103858	0.309696	0.323589	0.116220	0.116100	0.247586	0.558664	0.536888	0.052797	0.172083	0.252568	0.098515	0.092990	0.252621	0.099115	0.079823	0.156483	0.290657	0.118335	0.102946	0.098175	0.221324	0.407388	0.421630	0.050694	0.225652	0.100320	0.092250	0.179099	0.482694	0.377824	0.410122	0.103964	0.661366	0.202975	0.115092	0.126993	0.375261	0.336522	0.292331	0.418567	0.534049	0.285830	0.301281	0.057678	0.133917	0.238784	0.143734	0.158342	0.284088	0.473053	0.435785	0.157174	0.498214	0.236863	0.200675	0.073113	0.168927	0.276375	0.100122
86	0.221104	0.751094	0.075973	0.175801	0.168693	0.117976	0.119723	0.120834	0.155270	0.255649	0.561245	0.326471	0.126349	0.324167	0.208607	0.133092	0.240250	0.945445	0.038776	0.038429	0.093452	0.312244	0.322331	0.114462	0.115580	0.325972	0.560094	0.534438	0.042667	0.183681	0.193612	0.068477	0.116724	0.435871	0.098927	0.071474	0.156018	0.282433	0.133826	0.092631	0.115343	0.231523	0.517275	0.463350	0.036474	0.142109	0.081628	0.090763	0.156346	0.388342	0.317957	0.336251	0.101241	0.652058	0.203207	0.113788	0.118138	0.382910	0.313392	0.239434	0.428891	0.535881	0.287709	0.291094	0.055666	0.120156	0.207339	0.133884	0.153508	0.292333	0.482426	0.424772	0.158752	0.637380	0.147979	0.127251	0.077145	0.145291	0.315561	0.110656
87	0.220646	0.678191	0.121003	0.213142	0.258213	0.112343	0.120593	0.117619	0.166562	0.352199	0.644417	0.439448	0.122049	0.211498	0.252870	0.150749	0.258512	0.973992	0.049355	0.047714	0.085558	0.298454	0.264849	0.086418	0.104760	0.356389	0.518493	0.465663	0.040956	0.184138	0.141456	0.052126	0.177309	0.678668	0.127652	0.093991	0.153884	0.281234	0.154528	0.099729	0.140685	0.318388	0.514128	0.448999	0.032283	0.129116	0.089086	0.105199	0.151665	0.361271	0.351756	0.330882	0.098709	0.649131	0.180059	0.111079	0.122464	0.494245	0.318794	0.234827	0.438426	0.535490	0.277599	0.274776	0.058268	0.193995	0.195771	0.125239	0.152899	0.293207	0.482484	0.406065	0.136670	0.718868	0.144883	0.108273	0.079761	0.143604	0.324796	0.112072
88	0.189011	0.654760	0.184761	0.288990	0.415729	0.126698	0.126546	0.119578	0.175677	0.358077	0.677369	0.475008	0.122245	0.254362	0.257269	0.152291	0.263318	0.981074	0.056432	0.052688	0.079610	0.296941	0.259454	0.104293	0.092444	0.389192	0.447572	0.423503	0.056776	0.186082	0.121197	0.050605	0.186104	0.683429	0.131956	0.090805	0.130142	0.281151	0.157097	0.101234	0.145577	0.407488	0.511790	0.406099	0.031878	0.117884	0.116906	0.117760	0.145094	0.310022	0.382891	0.381859	0.098864	0.647060	0.139367	0.091701	0.145902	0.778445	0.234592	0.194969	0.436199	0.533882	0.224314	0.229574	0.062295	0.244391	0.233546	0.157402	0.152648	0.304407	0.426013	0.314587	0.127674	0.706208	0.134390	0.106979	0.086358	0.166859	0.333577	0.112693
89	0.185051	0.698432	0.238233	0.308641	0.455154	0.136123	0.147098	0.111900	0.198946	0.373811	0.650771	0.459208	0.123047	0.271233	0.271237	0.148357	0.263814	0.955592	0.131841	0.096759	0.077833	0.278398	0.292307	0.236009	0.094368	0.388278	0.443465	0.424647	0.090218	0.184630	0.101822	0.037834	0.184959	0.677548	0.138985	0.089221	0.109762	0.277596	0.146860	0.097281	0.149968	0.407802	0.526377	0.421806	0.053887	0.123151	0.116327	0.119314	0.125242	0.297857	0.374362	0.414786	0.104659	0.633208	0.122807	0.080341	0.141896	0.803211	0.265480	0.236730	0.429075	0.515175	0.166204	0.169664	0.052293	0.249779	0.282384	0.192219	0.149671	0.305568	0.338585	0.207247	0.130899	0.713610	0.113105	0.098007	0.082595	0.181868	0.344359	0.116180
90	0.195049	0.745202	0.307205	0.322729	0.471260	0.286706	0.133706	0.078219	0.206142	0.389562	0.540958	0.389991	0.123839	0.285707	0.275961	0.147855	0.236940	0.829778	0.137737	0.122683	0.065159	0.264357	0.259997	0.261113	0.095863	0.387227	0.380896	0.371760	0.132723	0.174689	0.099176	0.034586	0.184975	0.676554	0.142092	0.078665	0.108510	0.264304	0.157352	0.085969	0.158034	0.418814	0.484771	0.422320	0.077656	0.113979	0.163235	0.120204	0.120615	0.263599	0.374042	0.458366	0.121190	0.576690	0.119986	0.079838	0.113172	0.769715	0.274446	0.234479	0.399927	0.438350	0.165245	0.143239	0.055991	0.256295	0.266793	0.175869	0.142891	0.262458	0.289730	0.145824	0.142647	0.741759	0.090103	0.083956	0.081541	0.191470	0.348852	0.114484
91	0.199249	0.724353	0.324291	0.307241	0.476910	0.306339	0.135764	0.069784	0.202474	0.393245	0.503016	0.391213	0.124700	0.282444	0.295611	0.147868	0.142056	0.321728	0.187440	0.206074	0.072786	0.231649	0.222057	0.286033	0.095036	0.375500	0.265801	0.245967	0.173557	0.167755	0.095194	0.035512	0.181337	0.679892	0.133418	0.074514	0.079126	0.220222	0.171376	0.097461	0.158583	0.451102	0.470484	0.395059	0.086199	0.107090	0.183531	0.113648	0.110990	0.168673	0.353089	0.478484	0.130471	0.509587	0.089301	0.080712	0.125551	0.779280	0.269726	0.249931	0.355088	0.330460	0.160592	0.136841	0.072250	0.272427	0.223952	0.161218	0.113742	0.212229	0.283969	0.118143	0.144442	0.744609	0.069568	0.067583	0.081510	0.200717	0.347931	0.113320
92	0.179454	0.644935	0.388282	0.318520	0.472016	0.352069	0.120909	0.052495	0.147419	0.419735	0.386772	0.366058	0.114405	0.280101	0.282498	0.140329	0.104052	0.219530	0.309264	0.269929	0.060756	0.200357	0.284559	0.338564	0.092999	0.355497	0.209348	0.165959	0.179379	0.163434	0.085597	0.033991	0.165696	0.651499	0.125985	0.060529	0.050442	0.191143	0.168362	0.109334	0.162383	0.492068	0.407417	0.374193	0.106359	0.120491	0.192424	0.110294	0.099814	0.156917	0.314627	0.699290	0.124807	0.188894	0.053166	0.090786	0.132409	0.750459	0.281582	0.259235	0.277573	0.292494	0.143983	0.103664	0.069102	0.264494	0.290358	0.251459	0.118921	0.220975	0.271066	0.116754	0.143642	0.745603	0.054011	0.051218	0.079172	0.206408	0.324121	0.113102
93	0.118219	0.453215	0.434453	0.349908	0.433303	0.387157	0.115823	0.050640	0.163163	0.458293	0.247573	0.217945	0.114512	0.286877	0.302390	0.133945	0.098604	0.163755	0.342993	0.305806	0.069158	0.172356	0.319419	0.373966	0.091982	0.484075	0.179197	0.175062	0.274933	0.158336	0.065409	0.032849	0.129144	0.492971	0.120195	0.079496	0.049416	0.183179	0.160508	0.131848	0.125688	0.445785	0.411651	0.377465	0.107356	0.118042	0.194698	0.110873	0.094279	0.134786	0.319948	0.761433	0.130826	0.188781	0.051680	0.098359	0.111670	0.641944	0.282416	0.319884	0.254517	0.266845	0.102631	0.092991	0.069864	0.202004	0.336212	0.300974	0.135461	0.280000	0.226381	0.104683	0.122991	0.609114	0.044720	0.045015	0.078119	0.209492	0.283291	0.101923
94	0.114620	0.444083	0.424221	0.292297	0.281540	0.450076	0.106271	0.050296	0.157091	0.488376	0.144292	0.125217	0.102542	0.291380	0.300833	0.136558	0.126860	0.104936	0.367819	0.329298	0.102344	0.217157	0.322393	0.381652	0.122249	0.543354	0.187546	0.196642	0.292913	0.180934	0.048719	0.032920	0.119632	0.510972	0.167741	0.094481	0.046627	0.178365	0.166424	0.165760	0.101088	0.337688	0.519282	0.518116	0.107417	0.118289	0.186019	0.086025	0.157021	0.171412	0.299064	0.767122	0.147160	0.223964	0.052791	0.097818	0.115493	0.324751	0.341002	0.326221	0.163668	0.147472	0.096851	0.091373	0.087967	0.150266	0.291961	0.306787	0.192038	0.332561	0.172374	0.067399	0.108260	0.488910	0.052750	0.041579	0.077930	0.204176	0.270364	0.098726
95	0.114066	0.365067	0.513636	0.313601	0.215531	0.456110	0.053915	0.053423	0.135164	0.536674	0.143771	0.116172	0.095130	0.289083	0.271652	0.156041	0.122604	0.108822	0.385207	0.329246	0.132293	0.255965	0.320006	0.381977	0.194251	0.798546	0.189673	0.197812	0.299728	0.326417	0.046634	0.032161	0.149414	0.524155	0.181170	0.099803	0.030635	0.174509	0.147891	0.165939	0.094009	0.321290	0.533674	0.515815	0.105274	0.118076	0.215263	0.074662	0.184322	0.185481	0.255401	0.789894	0.148529	0.229903	0.047764	0.087211	0.116598	0.350443	0.319828	0.302666	0.172552	0.061255	0.086530	0.078758	0.095227	0.152527	0.276049	0.296637	0.231185	0.337684	0.157212	0.049120	0.098718	0.377520	0.060853	0.061265	0.077226	0.196745	0.267044	0.099937
96	0.112114	0.311793	0.520878	0.345214	0.187854	0.379066	0.067971	0.118079	0.151901	0.666654	0.145906	0.079073	0.087717	0.269386	0.307941	0.184329	0.123321	0.158268	0.369959	0.293655	0.134395	0.257360	0.321856	0.385585	0.194388	0.849249	0.231269	0.251595	0.300688	0.350242	0.047221	0.031878	0.179754	0.575595	0.222353	0.112975	0.042762	0.180765	0.133287	0.166857	0.083173	0.338594	0.578249	0.534469	0.092224	0.105536	0.228006	0.083332	0.186678	0.198350	0.257920	0.804850	0.151675	0.229642	0.054539	0.090946	0.120416	0.309260	0.292617	0.302277	0.154671	0.039116	0.062943	0.063515	0.109737	0.214459	0.296893	0.297442	0.235854	0.348619	0.143132	0.048762	0.091430	0.326345	0.086185	0.076502	0.067552	0.186361	0.225984	0.083729
97	0.118879	0.290164	0.578618	0.399372	0.146382	0.363728	0.085841	0.126992	0.152193	0.687838	0.150683	0.052091	0.096800	0.202969	0.314592	0.203067	0.106429	0.175860	0.265141	0.238757	0.141006	0.262184	0.296545	0.359422	0.193916	0.914124	0.247284	0.285743	0.301301	0.354520	0.058447	0.048398	0.189599	0.520699	0.226047	0.142483	0.082190	0.196429	0.176101	0.225365	0.082655	0.425351	0.584061	0.550428	0.080338	0.101499	0.206924	0.069483	0.217538	0.189229	0.411870	0.794276	0.157386	0.238531	0.067688	0.097994	0.123871	0.286121	0.286409	0.280474	0.113357	0.038248	0.049208	0.056025	0.114062	0.245240	0.291252	0.291015	0.306741	0.428571	0.088159	0.048822	0.044328	0.171443	0.113988	0.088416	0.063935	0.185078	0.173057	0.073969
98	0.155067	0.435754	0.670011	0.536476	0.093855	0.314665	0.122171	0.160495	0.161592	0.749103	0.143861	0.047775	0.108235	0.147682	0.312894	0.211191	0.097904	0.168637	0.250664	0.216496	0.152083	0.256705	0.272648	0.299906	0.197750	0.945150	0.337945	0.327479	0.297244	0.374428	0.075315	0.128469	0.198522	0.490245	0.233524	0.144897	0.088378	0.192807	0.240069	0.268703	0.058863	0.432270	0.551194	0.513168	0.056262	0.072095	0.210948	0.089008	0.240931	0.183978	0.431610	0.824301	0.163200	0.244494	0.070773	0.096625	0.140678	0.282260	0.278375	0.256899	0.106071	0.074632	0.047675	0.055391	0.127891	0.254488	0.192905	0.169270	0.347814	0.521227	0.073701	0.059372	0.045668	0.124052	0.153052	0.102567	0.052601	0.177067	0.157776	0.073528
99	0.161794	0.458205	0.668561	0.532390	0.084953	0.259165	0.139883	0.186374	0.156013	0.700789	0.095996	0.045283	0.110526	0.142445	0.338113	0.275816	0.069208	0.170520	0.233543	0.171956	0.163233	0.245514	0.263724	0.293967	0.206010	0.941661	0.427013	0.404401	0.287557	0.377572	0.091921	0.174551	0.201728	0.502326	0.218756	0.129339	0.112138	0.192400	0.235238	0.272798	0.072495	0.452609	0.614160	0.502164	0.035449	0.068479	0.205058	0.102504	0.246091	0.241717	0.543591	0.634723	0.162155	0.246455	0.078982	0.093815	0.212989	0.308511	0.229388	0.153935	0.199272	0.104921	0.046816	0.053469	0.120981	0.252586	0.172785	0.136626	0.387513	0.571343	0.091746	0.085494	0.052056	0.128220	0.161663	0.104571	0.029595	0.154276	0.132818	0.080416
100	0.160882	0.461235	0.831033	0.597137	0.078458	0.149217	0.142888	0.186384	0.191152	0.801130	0.074382	0.035873	0.107249	0.137632	0.381620	0.336097	0.071688	0.211452	0.358424	0.352348	0.163443	0.244276	0.239520	0.245745	0.204424	0.908528	0.429082	0.413486	0.268657	0.379528	0.110188	0.179957	0.200413	0.491507	0.243887	0.162701	0.119836	0.176240	0.257409	0.272040	0.081035	0.458361	0.626377	0.395549	0.036232	0.071863	0.204273	0.102712	0.249351	0.281524	0.590055	0.591608	0.154855	0.247084	0.098086	0.098908	0.278745	0.397141	0.118106	0.101632	0.241585	0.107712	0.045225	0.048544	0.118261	0.257144	0.182038	0.085781	0.390082	0.580411	0.098214	0.122405	0.052324	0.126923	0.255376	0.233416	0.022826	0.136888	0.100995	0.091410
101	0.164048	0.488244	0.908586	0.657557	0.069628	0.139741	0.150675	0.194585	0.195574	0.823974	0.076148	0.023299	0.108514	0.136825	0.368178	0.334083	0.072481	0.216684	0.396956	0.364290	0.163762	0.268593	0.141912	0.167493	0.208394	0.829337	0.449086	0.412389	0.248210	0.376302	0.112378	0.182388	0.152406	0.445456	0.216132	0.182772	0.120851	0.150790	0.286183	0.303943	0.110082	0.463780	0.589422	0.364274	0.035681	0.073379	0.233145	0.147346	0.215226	0.259692	0.581385	0.574696	0.137897	0.243185	0.119034	0.106582	0.375343	0.412451	0.110205	0.098534	0.247302	0.139689	0.048406	0.042058	0.119921	0.213703	0.195115	0.091409	0.389724	0.581269	0.103414	0.126425	0.068767	0.144737	0.337635	0.360957	0.028475	0.128443	0.099652	0.097168
