	320_At_T1_sh_ND_L_02.c3d	320_At_T1_sh_ND_L_02.c3d	320_At_T1_sh_ND_L_02.c3d	320_At_T1_sh_ND_L_02.c3d	320_At_T1_sh_ND_L_02.c3d	320_At_T1_sh_ND_L_02.c3d	320_At_T1_sh_ND_L_02.c3d	320_At_T1_sh_ND_L_02.c3d	320_At_T1_sh_ND_L_05.c3d	320_At_T1_sh_ND_L_05.c3d	320_At_T1_sh_ND_L_05.c3d	320_At_T1_sh_ND_L_05.c3d	320_At_T1_sh_ND_L_05.c3d	320_At_T1_sh_ND_L_05.c3d	320_At_T1_sh_ND_L_05.c3d	320_At_T1_sh_ND_L_05.c3d	320_At_T1_sh_ND_L_06.c3d	320_At_T1_sh_ND_L_06.c3d	320_At_T1_sh_ND_L_06.c3d	320_At_T1_sh_ND_L_06.c3d	320_At_T1_sh_ND_L_06.c3d	320_At_T1_sh_ND_L_06.c3d	320_At_T1_sh_ND_L_06.c3d	320_At_T1_sh_ND_L_06.c3d	320_At_T1_sh_ND_L_08.c3d	320_At_T1_sh_ND_L_08.c3d	320_At_T1_sh_ND_L_08.c3d	320_At_T1_sh_ND_L_08.c3d	320_At_T1_sh_ND_L_08.c3d	320_At_T1_sh_ND_L_08.c3d	320_At_T1_sh_ND_L_08.c3d	320_At_T1_sh_ND_L_08.c3d	320_At_T1_sh_ND_L_09.c3d	320_At_T1_sh_ND_L_09.c3d	320_At_T1_sh_ND_L_09.c3d	320_At_T1_sh_ND_L_09.c3d	320_At_T1_sh_ND_L_09.c3d	320_At_T1_sh_ND_L_09.c3d	320_At_T1_sh_ND_L_09.c3d	320_At_T1_sh_ND_L_09.c3d	320_At_T1_sh_ND_L_10.c3d	320_At_T1_sh_ND_L_10.c3d	320_At_T1_sh_ND_L_10.c3d	320_At_T1_sh_ND_L_10.c3d	320_At_T1_sh_ND_L_10.c3d	320_At_T1_sh_ND_L_10.c3d	320_At_T1_sh_ND_L_10.c3d	320_At_T1_sh_ND_L_10.c3d
	Biceps femoris_lat	Semitendinosus_lat	Vastus lateralis_lat	Vastus medialis_lat	Biceps femoris_med	Semitendinosus_med	Vastus lateralis_med	Vastus medialis_med	Biceps femoris_lat	Semitendinosus_lat	Vastus lateralis_lat	Vastus medialis_lat	Biceps femoris_med	Semitendinosus_med	Vastus lateralis_med	Vastus medialis_med	Biceps femoris_lat	Semitendinosus_lat	Vastus lateralis_lat	Vastus medialis_lat	Biceps femoris_med	Semitendinosus_med	Vastus lateralis_med	Vastus medialis_med	Biceps femoris_lat	Semitendinosus_lat	Vastus lateralis_lat	Vastus medialis_lat	Biceps femoris_med	Semitendinosus_med	Vastus lateralis_med	Vastus medialis_med	Biceps femoris_lat	Semitendinosus_lat	Vastus lateralis_lat	Vastus medialis_lat	Biceps femoris_med	Semitendinosus_med	Vastus lateralis_med	Vastus medialis_med	Biceps femoris_lat	Semitendinosus_lat	Vastus lateralis_lat	Vastus medialis_lat	Biceps femoris_med	Semitendinosus_med	Vastus lateralis_med	Vastus medialis_med
	P2D	P2D	P2D	P2D	P2D	P2D	P2D	P2D	P2D	P2D	P2D	P2D	P2D	P2D	P2D	P2D	P2D	P2D	P2D	P2D	P2D	P2D	P2D	P2D	P2D	P2D	P2D	P2D	P2D	P2D	P2D	P2D	P2D	P2D	P2D	P2D	P2D	P2D	P2D	P2D	P2D	P2D	P2D	P2D	P2D	P2D	P2D	P2D
	EMG_lat	EMG_lat	EMG_lat	EMG_lat	EMG_med	EMG_med	EMG_med	EMG_med	EMG_lat	EMG_lat	EMG_lat	EMG_lat	EMG_med	EMG_med	EMG_med	EMG_med	EMG_lat	EMG_lat	EMG_lat	EMG_lat	EMG_med	EMG_med	EMG_med	EMG_med	EMG_lat	EMG_lat	EMG_lat	EMG_lat	EMG_med	EMG_med	EMG_med	EMG_med	EMG_lat	EMG_lat	EMG_lat	EMG_lat	EMG_med	EMG_med	EMG_med	EMG_med	EMG_lat	EMG_lat	EMG_lat	EMG_lat	EMG_med	EMG_med	EMG_med	EMG_med
ITEM	Y	Y	Y	Y	Y	Y	Y	Y	Y	Y	Y	Y	Y	Y	Y	Y	Y	Y	Y	Y	Y	Y	Y	Y	Y	Y	Y	Y	Y	Y	Y	Y	Y	Y	Y	Y	Y	Y	Y	Y	Y	Y	Y	Y	Y	Y	Y	Y
1	0.192622	0.153624	0.350235	0.187286	0.322059	0.321333	0.295751	0.339342	0.439559	0.320837	0.404981	0.421476	0.319518	0.217568	0.270422	0.304913	0.329532	0.283800	0.617981	0.233855	0.148165	0.238767	0.144414	0.324042	0.567618	0.441923	0.140205	0.263290	0.440518	0.356514	0.298982	0.252975	0.221392	0.202767	0.310017	0.103044	0.390174	0.216098	0.416447	0.256521	0.202643	0.429446	0.202157	0.188379	0.184013	0.242776	0.290707	0.303722
2	0.188836	0.157638	0.277978	0.195424	0.350215	0.318612	0.279127	0.339303	0.446679	0.323726	0.421672	0.429288	0.321567	0.194634	0.281047	0.303087	0.332427	0.285747	0.626039	0.240783	0.123534	0.168667	0.162710	0.301584	0.567380	0.442533	0.149115	0.254602	0.473931	0.373366	0.278354	0.266014	0.219545	0.194940	0.317820	0.104550	0.379864	0.192531	0.398249	0.280451	0.185223	0.386507	0.203397	0.182288	0.181373	0.241930	0.304537	0.303579
3	0.184499	0.160235	0.263037	0.193078	0.352416	0.318783	0.268640	0.355977	0.463239	0.324404	0.423003	0.447509	0.323799	0.185456	0.296610	0.285862	0.336525	0.281163	0.625858	0.247706	0.115143	0.137664	0.202576	0.326379	0.587166	0.468903	0.162672	0.250708	0.493266	0.379821	0.280524	0.262364	0.226877	0.195306	0.311111	0.110299	0.305613	0.169566	0.314028	0.339478	0.177994	0.374476	0.201750	0.191503	0.168488	0.240366	0.334059	0.303143
4	0.183879	0.163911	0.212922	0.188002	0.352365	0.319244	0.270622	0.375897	0.465652	0.309175	0.419354	0.456229	0.313252	0.180949	0.313931	0.265663	0.348736	0.291042	0.587720	0.254619	0.127586	0.140194	0.206838	0.326596	0.626143	0.508799	0.164644	0.250098	0.542043	0.401442	0.281582	0.287020	0.237020	0.204298	0.311461	0.138668	0.238267	0.159658	0.229789	0.385241	0.175498	0.374976	0.203295	0.204691	0.160413	0.245707	0.338520	0.300494
5	0.190024	0.189373	0.223517	0.214337	0.342292	0.317531	0.273197	0.380251	0.455654	0.290579	0.416885	0.456686	0.270409	0.172174	0.310298	0.276955	0.348754	0.299418	0.518955	0.254703	0.118958	0.119509	0.220884	0.331140	0.643165	0.520973	0.165793	0.251844	0.616533	0.405933	0.279622	0.295633	0.239738	0.210975	0.315955	0.169609	0.245904	0.161591	0.211049	0.403978	0.172086	0.359744	0.194767	0.205195	0.160750	0.257336	0.339440	0.277093
6	0.182071	0.221055	0.228134	0.215698	0.336471	0.311785	0.264287	0.382419	0.438657	0.269957	0.424790	0.456632	0.268935	0.164640	0.307660	0.285296	0.365769	0.317650	0.455299	0.255672	0.102700	0.116697	0.223529	0.330532	0.640755	0.517626	0.185184	0.251002	0.636186	0.394668	0.270091	0.298149	0.287262	0.229921	0.324591	0.212798	0.271993	0.162364	0.216184	0.405509	0.135941	0.275007	0.157118	0.201579	0.159318	0.262314	0.342802	0.264167
7	0.409280	0.332577	0.232414	0.242485	0.313630	0.278453	0.276664	0.375317	0.410781	0.255052	0.430579	0.456715	0.244189	0.111864	0.316144	0.294676	0.406467	0.326421	0.414492	0.256378	0.103041	0.118475	0.218916	0.311143	0.626611	0.503676	0.202520	0.247825	0.644301	0.405073	0.251810	0.299795	0.308573	0.237458	0.327968	0.246031	0.309745	0.160498	0.218057	0.416398	0.100810	0.139050	0.124789	0.197170	0.157512	0.258474	0.327828	0.263671
8	0.419421	0.339638	0.229825	0.246217	0.301161	0.244337	0.372085	0.354320	0.378643	0.252326	0.432548	0.456436	0.245081	0.094825	0.343166	0.306439	0.405967	0.325314	0.445853	0.256041	0.109651	0.114655	0.285856	0.308260	0.597288	0.492049	0.220548	0.247638	0.635441	0.416013	0.263277	0.302180	0.327021	0.240643	0.328295	0.249735	0.316768	0.163236	0.218185	0.420622	0.094276	0.091319	0.122751	0.208814	0.158692	0.253188	0.297764	0.256490
9	0.446764	0.346255	0.232045	0.270389	0.302023	0.227095	0.466883	0.337138	0.342376	0.255236	0.437509	0.456912	0.234198	0.095958	0.342822	0.310558	0.408921	0.320504	0.514581	0.234713	0.101170	0.094319	0.307454	0.290380	0.571134	0.496280	0.301931	0.257340	0.631794	0.394611	0.292688	0.339744	0.322769	0.235866	0.333787	0.305610	0.321981	0.178603	0.216232	0.426410	0.086441	0.093781	0.123242	0.242891	0.160960	0.249520	0.296767	0.224775
10	0.651582	0.471121	0.265028	0.271951	0.303740	0.205857	0.484052	0.333096	0.327492	0.283461	0.445223	0.458832	0.221496	0.093921	0.343369	0.322894	0.417692	0.316952	0.592269	0.194793	0.102599	0.094850	0.318031	0.314310	0.594516	0.495639	0.338098	0.264437	0.630514	0.394419	0.283347	0.426751	0.315604	0.235686	0.327935	0.375190	0.424203	0.258646	0.226888	0.442565	0.081475	0.097551	0.149176	0.255651	0.163102	0.247604	0.302224	0.237098
11	0.707133	0.505851	0.306922	0.264952	0.295201	0.201042	0.485457	0.332389	0.328990	0.323638	0.452655	0.458014	0.216559	0.094066	0.375339	0.327229	0.406000	0.328773	0.644666	0.166030	0.102430	0.113961	0.334164	0.322977	0.599796	0.492556	0.338404	0.260540	0.627248	0.390867	0.260603	0.526010	0.311597	0.234831	0.320605	0.398261	0.515811	0.296055	0.265944	0.448723	0.083876	0.092280	0.157193	0.255830	0.151853	0.226443	0.315472	0.289897
12	0.719878	0.511735	0.320713	0.274069	0.311194	0.253807	0.485952	0.338841	0.308686	0.346094	0.449626	0.454116	0.229209	0.126902	0.432401	0.311442	0.391552	0.339561	0.648054	0.161086	0.112433	0.119504	0.397698	0.317092	0.597141	0.475055	0.337854	0.247565	0.613474	0.373943	0.264005	0.566672	0.312016	0.230073	0.314196	0.403123	0.531917	0.295052	0.288493	0.444293	0.104154	0.092194	0.159354	0.253787	0.146887	0.192673	0.332943	0.332319
13	0.728415	0.512326	0.363748	0.352299	0.358065	0.322460	0.486681	0.343302	0.284793	0.352529	0.452686	0.436226	0.249993	0.191969	0.473314	0.337578	0.381917	0.333438	0.635247	0.161783	0.121321	0.121353	0.393805	0.302489	0.595874	0.478004	0.340675	0.229348	0.589532	0.360084	0.268346	0.573250	0.308337	0.215100	0.303744	0.402577	0.529478	0.302939	0.298954	0.440959	0.110973	0.095443	0.195994	0.251748	0.147046	0.186851	0.378874	0.349569
14	0.730854	0.505046	0.377765	0.384357	0.459283	0.395485	0.519514	0.325892	0.262059	0.347211	0.452257	0.385244	0.273201	0.258051	0.469180	0.361219	0.373214	0.318184	0.634874	0.155678	0.163093	0.117014	0.387027	0.292389	0.527808	0.430812	0.346193	0.210030	0.570665	0.364080	0.269490	0.573975	0.299177	0.188505	0.302750	0.404621	0.526872	0.307519	0.308653	0.472977	0.109028	0.092776	0.209127	0.238453	0.145162	0.172907	0.398475	0.349467
15	0.726603	0.490701	0.389697	0.390299	0.474162	0.401003	0.563096	0.310588	0.288549	0.352121	0.440970	0.325981	0.278122	0.276494	0.467087	0.355927	0.369356	0.313905	0.649807	0.144574	0.169165	0.106994	0.378253	0.282921	0.454356	0.365463	0.352389	0.203538	0.545121	0.373082	0.319950	0.573575	0.291752	0.173094	0.293052	0.405376	0.522080	0.303506	0.289145	0.540535	0.108342	0.091282	0.203709	0.233689	0.131716	0.154632	0.402434	0.346288
16	0.676507	0.439353	0.386336	0.382670	0.462647	0.390967	0.563822	0.332822	0.304282	0.406471	0.418707	0.304542	0.278013	0.276683	0.485486	0.350204	0.367609	0.313300	0.682085	0.131758	0.173512	0.127977	0.376268	0.281436	0.437731	0.364342	0.357941	0.203768	0.531048	0.367459	0.335189	0.563278	0.291497	0.173347	0.262265	0.406091	0.515731	0.295033	0.284219	0.586318	0.103708	0.091269	0.201058	0.234695	0.106177	0.132003	0.405168	0.331623
17	0.615694	0.404072	0.386072	0.366957	0.444426	0.395547	0.554778	0.365524	0.346371	0.466787	0.390738	0.305008	0.275127	0.275511	0.504196	0.350159	0.360523	0.312611	0.701526	0.126296	0.174559	0.158934	0.371112	0.277563	0.435322	0.365096	0.363455	0.210620	0.506123	0.360162	0.335506	0.544205	0.293870	0.184341	0.238566	0.406965	0.495936	0.288206	0.304186	0.600422	0.103578	0.090452	0.198764	0.228618	0.108564	0.126993	0.390367	0.317888
18	0.592933	0.393797	0.367091	0.346791	0.441206	0.406233	0.548266	0.359790	0.346798	0.479630	0.351966	0.293380	0.272489	0.272326	0.500034	0.356087	0.343471	0.306290	0.700778	0.117110	0.169790	0.167454	0.343518	0.277992	0.433968	0.363883	0.361055	0.230286	0.474909	0.340206	0.336394	0.523606	0.293373	0.207620	0.242453	0.404939	0.488558	0.290668	0.314177	0.597393	0.106194	0.091905	0.194738	0.213153	0.109881	0.126518	0.344601	0.317872
19	0.509111	0.308913	0.345603	0.337601	0.443209	0.413307	0.544662	0.338054	0.344042	0.474393	0.321672	0.262281	0.270812	0.271804	0.490292	0.356915	0.334859	0.293342	0.698818	0.123105	0.169319	0.166204	0.300665	0.271531	0.388054	0.310461	0.357209	0.267600	0.361967	0.311034	0.329979	0.520805	0.274033	0.215075	0.245180	0.400121	0.488752	0.292495	0.315690	0.569773	0.112750	0.090999	0.193366	0.207672	0.116900	0.124272	0.318293	0.317053
20	0.234815	0.147152	0.304160	0.337327	0.449929	0.417702	0.541892	0.329576	0.323829	0.458395	0.308324	0.231467	0.270980	0.274155	0.502915	0.345357	0.329095	0.278606	0.698794	0.120264	0.172474	0.194691	0.315245	0.228012	0.334630	0.253770	0.357135	0.275182	0.305783	0.309014	0.325849	0.532231	0.279142	0.224955	0.239041	0.390889	0.489472	0.301060	0.316457	0.537148	0.126231	0.082944	0.191942	0.202125	0.134387	0.107113	0.322826	0.317468
21	0.182187	0.062586	0.263078	0.342138	0.452620	0.422409	0.540094	0.323986	0.294156	0.447819	0.307927	0.226008	0.270054	0.274533	0.561776	0.337077	0.255873	0.259593	0.697352	0.121367	0.220933	0.260413	0.329805	0.181295	0.300432	0.235092	0.355680	0.273268	0.278592	0.294645	0.328786	0.558340	0.233094	0.212314	0.228937	0.372295	0.484765	0.303147	0.327752	0.514502	0.136756	0.090166	0.191267	0.199289	0.167805	0.075529	0.328863	0.319338
22	0.127725	0.054376	0.226734	0.311336	0.460881	0.426101	0.533401	0.322481	0.287920	0.446632	0.312265	0.230521	0.271254	0.282651	0.642409	0.331297	0.250433	0.265511	0.673214	0.120554	0.292226	0.294474	0.344665	0.218455	0.303234	0.233691	0.343680	0.268562	0.289227	0.266368	0.320001	0.573587	0.210272	0.211088	0.223058	0.349049	0.477307	0.303201	0.361198	0.500789	0.142437	0.102296	0.191545	0.193511	0.199806	0.067867	0.325997	0.319867
23	0.088092	0.052509	0.173765	0.226528	0.479226	0.425837	0.485139	0.322814	0.287441	0.445980	0.319259	0.233661	0.288743	0.309711	0.635218	0.317773	0.247058	0.271616	0.628395	0.126773	0.312831	0.295324	0.295831	0.282967	0.315578	0.231409	0.332632	0.256470	0.280436	0.235502	0.277049	0.561629	0.229457	0.245468	0.226486	0.346270	0.457976	0.306769	0.377287	0.485731	0.140563	0.120454	0.191490	0.155758	0.199034	0.088800	0.329080	0.324541
24	0.087407	0.057510	0.106424	0.190280	0.503267	0.424860	0.381641	0.317768	0.283980	0.440873	0.322823	0.233900	0.301605	0.373829	0.626202	0.313237	0.228250	0.271906	0.548159	0.120774	0.315120	0.296218	0.471493	0.286574	0.327012	0.205400	0.306777	0.237361	0.283762	0.228597	0.265205	0.515417	0.267414	0.252844	0.219531	0.313349	0.477490	0.317728	0.376042	0.478602	0.146031	0.152677	0.178956	0.128960	0.204306	0.123105	0.328338	0.335988
25	0.084866	0.060640	0.131943	0.189854	0.512970	0.425738	0.334175	0.313413	0.280245	0.434818	0.326930	0.233993	0.381986	0.460975	0.624650	0.282221	0.230303	0.257238	0.452185	0.114675	0.291065	0.296383	0.816431	0.296688	0.317679	0.193971	0.212936	0.222776	0.292603	0.234474	0.263154	0.423525	0.277952	0.252544	0.189227	0.219128	0.486000	0.333217	0.374533	0.480293	0.147822	0.162885	0.183157	0.135106	0.217796	0.169493	0.324608	0.348475
26	0.078426	0.062647	0.153547	0.188518	0.513647	0.428191	0.329859	0.318027	0.278405	0.427091	0.321373	0.233924	0.415975	0.519223	0.619054	0.277528	0.212750	0.205663	0.408864	0.118259	0.297415	0.295618	0.877557	0.345502	0.264222	0.193765	0.191971	0.238128	0.310665	0.264195	0.258950	0.358770	0.277463	0.254470	0.190046	0.152377	0.434635	0.297399	0.374816	0.472014	0.137409	0.160446	0.196029	0.135850	0.218125	0.177904	0.319309	0.345303
27	0.088576	0.069367	0.164469	0.184348	0.498988	0.407411	0.329971	0.318073	0.278155	0.415395	0.303022	0.232127	0.415288	0.534283	0.610162	0.310171	0.167831	0.168743	0.410060	0.160900	0.307651	0.283579	0.892436	0.385568	0.260955	0.193842	0.192571	0.264543	0.314080	0.278327	0.252140	0.344525	0.273355	0.271171	0.217796	0.128000	0.309448	0.251073	0.361960	0.465012	0.127924	0.178436	0.165595	0.147268	0.215743	0.183936	0.306254	0.305164
28	0.128243	0.082234	0.164764	0.183084	0.473209	0.362795	0.330231	0.313019	0.273660	0.389409	0.290968	0.237048	0.390339	0.526173	0.624356	0.322970	0.152496	0.176387	0.391197	0.186625	0.324049	0.291648	1.018793	0.396450	0.249841	0.180740	0.203412	0.271089	0.290261	0.250675	0.255801	0.349356	0.268825	0.280119	0.247499	0.128348	0.272780	0.270656	0.358506	0.463876	0.122920	0.194551	0.138830	0.159441	0.215457	0.201214	0.278336	0.266092
29	0.167658	0.093928	0.168239	0.173465	0.388178	0.284754	0.295389	0.315983	0.269931	0.362993	0.286936	0.240060	0.368759	0.524691	0.684324	0.359710	0.145047	0.185535	0.352765	0.198160	0.341596	0.290994	1.064686	0.400175	0.217506	0.143033	0.208650	0.270693	0.267345	0.230020	0.223262	0.348114	0.270758	0.283277	0.310669	0.123279	0.281805	0.275415	0.363963	0.459221	0.141824	0.195988	0.137335	0.166572	0.217750	0.220374	0.210875	0.258746
30	0.192881	0.105660	0.168651	0.158743	0.331057	0.248869	0.175391	0.300967	0.270572	0.351841	0.273408	0.231216	0.361742	0.527106	0.735312	0.406918	0.135401	0.206667	0.288698	0.200414	0.361319	0.288279	1.062502	0.399826	0.201524	0.117457	0.215196	0.278446	0.253091	0.213489	0.195761	0.356067	0.271167	0.285939	0.416372	0.147145	0.282407	0.287915	0.352985	0.432856	0.207232	0.204179	0.156732	0.164397	0.215662	0.227890	0.188009	0.262061
31	0.198138	0.112861	0.172040	0.104701	0.325339	0.250545	0.124183	0.247322	0.270407	0.349327	0.274350	0.235811	0.362022	0.547049	0.734383	0.407737	0.134647	0.224870	0.188136	0.207911	0.363192	0.246652	1.056075	0.398856	0.202479	0.098662	0.212360	0.292908	0.248012	0.209174	0.186889	0.412760	0.271295	0.285379	0.521492	0.221768	0.284853	0.384266	0.341126	0.362156	0.227656	0.204885	0.160952	0.163219	0.214552	0.231036	0.170142	0.263243
32	0.198360	0.114609	0.177788	0.085046	0.318450	0.250583	0.120454	0.225587	0.249089	0.347546	0.286948	0.255178	0.362336	0.564494	0.718342	0.409472	0.133657	0.238947	0.145410	0.230781	0.315045	0.173023	1.043298	0.392191	0.203561	0.098703	0.234575	0.292685	0.251126	0.216369	0.182994	0.463847	0.269945	0.280839	0.532323	0.236728	0.283344	0.419058	0.339161	0.343843	0.236590	0.204431	0.164166	0.169056	0.214144	0.232824	0.155579	0.284920
33	0.201358	0.111585	0.365899	0.112367	0.316780	0.313142	0.127122	0.290448	0.234000	0.321538	0.306700	0.253871	0.366772	0.590848	0.721382	0.421029	0.138179	0.246917	0.133911	0.259931	0.271521	0.145989	1.059959	0.332764	0.203526	0.106405	0.239512	0.288661	0.254752	0.226314	0.187146	0.470419	0.265015	0.263761	0.531392	0.243841	0.283839	0.426387	0.325873	0.354348	0.234752	0.204559	0.174263	0.173732	0.213341	0.238406	0.154909	0.322369
34	0.209962	0.110422	0.495075	0.156318	0.313845	0.368616	0.125588	0.319064	0.157255	0.200038	0.323995	0.266644	0.374429	0.605108	0.729005	0.443710	0.159565	0.247171	0.229889	0.286363	0.259939	0.142754	1.065711	0.334089	0.204982	0.107654	0.239786	0.282491	0.254308	0.231455	0.208438	0.461071	0.264775	0.247572	0.529463	0.282489	0.283681	0.429786	0.317569	0.348484	0.229986	0.203728	0.175708	0.178926	0.217037	0.244583	0.156031	0.336795
35	0.217989	0.105949	0.520803	0.190228	0.307954	0.379847	0.128344	0.328348	0.123542	0.120594	0.338004	0.290401	0.377345	0.613437	0.724016	0.453825	0.185949	0.248146	0.307627	0.299541	0.258844	0.141500	0.864229	0.377187	0.210538	0.103590	0.273731	0.273699	0.242806	0.231042	0.235535	0.433594	0.252147	0.234973	0.533494	0.319610	0.282542	0.433810	0.321496	0.349370	0.223232	0.202291	0.199384	0.178918	0.226641	0.248650	0.154713	0.337177
36	0.227200	0.120437	0.656966	0.271469	0.306438	0.382647	0.128579	0.329515	0.121132	0.085897	0.364803	0.306947	0.376233	0.615639	0.692830	0.453468	0.204865	0.247206	0.318621	0.302737	0.250587	0.143912	0.701505	0.460418	0.209599	0.100696	0.298374	0.306117	0.198654	0.230352	0.236764	0.405699	0.243764	0.227864	0.542101	0.329784	0.281081	0.438893	0.321442	0.348071	0.220231	0.202524	0.227131	0.184425	0.232717	0.251526	0.168666	0.335366
37	0.219280	0.187125	0.697938	0.276497	0.302414	0.381622	0.129324	0.330486	0.095701	0.084273	0.382095	0.305223	0.369328	0.613445	0.604870	0.452857	0.225885	0.249164	0.324917	0.300094	0.275607	0.170618	0.685812	0.503033	0.200937	0.101291	0.305204	0.324861	0.183538	0.230833	0.236832	0.398783	0.243359	0.227231	0.588886	0.330247	0.285616	0.438285	0.313554	0.350458	0.222632	0.194407	0.269259	0.187094	0.227630	0.252482	0.211466	0.335963
38	0.230821	0.230075	0.699228	0.276055	0.276454	0.379790	0.136044	0.334108	0.093035	0.092152	0.383960	0.284646	0.352694	0.602420	0.595501	0.452805	0.226085	0.251149	0.376784	0.301777	0.334029	0.161570	0.609209	0.507478	0.196788	0.103261	0.307431	0.327786	0.185381	0.230946	0.236006	0.396899	0.209778	0.187006	0.679703	0.329515	0.290487	0.438023	0.278302	0.359074	0.228417	0.174910	0.356414	0.229533	0.232562	0.248626	0.218129	0.335011
39	0.236215	0.299073	0.708498	0.278135	0.226651	0.378414	0.137239	0.343341	0.113829	0.105316	0.382726	0.266647	0.347863	0.573165	0.604091	0.452908	0.218711	0.258499	0.422786	0.305192	0.341736	0.149149	0.468723	0.502184	0.184054	0.103514	0.325047	0.328458	0.184730	0.230052	0.236180	0.392499	0.148718	0.167645	0.744250	0.332633	0.286122	0.436349	0.243603	0.369895	0.239652	0.160464	0.373617	0.243735	0.243965	0.241443	0.214825	0.329972
40	0.232080	0.305774	0.728449	0.288990	0.167328	0.376026	0.131494	0.353954	0.146050	0.118316	0.375521	0.260087	0.269191	0.513291	0.606182	0.453348	0.217785	0.269968	0.475692	0.305335	0.487737	0.151972	0.457840	0.519836	0.166016	0.101716	0.337429	0.336896	0.173577	0.202904	0.235400	0.385585	0.140606	0.175129	0.773176	0.339787	0.250040	0.428972	0.239237	0.374463	0.254938	0.161309	0.449890	0.250995	0.235882	0.219162	0.225870	0.327417
41	0.235885	0.305129	0.731508	0.306300	0.150953	0.374112	0.123372	0.370564	0.165201	0.124118	0.361461	0.258881	0.188652	0.458760	0.592781	0.449822	0.216804	0.274057	0.532906	0.292426	0.519055	0.150473	0.530036	0.564525	0.157683	0.100407	0.340361	0.357445	0.180042	0.158107	0.238154	0.379851	0.152847	0.178447	0.786592	0.346299	0.207208	0.415029	0.240073	0.370802	0.266039	0.146534	0.510103	0.306484	0.225039	0.196375	0.241171	0.330074
42	0.306285	0.310152	0.725106	0.316765	0.150322	0.371847	0.119542	0.388685	0.165789	0.124288	0.405492	0.259036	0.153831	0.432956	0.561499	0.431538	0.217664	0.269905	0.547757	0.272492	0.521249	0.147835	0.589162	0.613340	0.159312	0.098906	0.350435	0.349747	0.194944	0.149523	0.250589	0.379028	0.152704	0.156283	0.784206	0.349578	0.204806	0.405547	0.236225	0.363258	0.274782	0.123445	0.578523	0.368487	0.223394	0.201678	0.280033	0.347561
43	0.478721	0.375772	0.567420	0.320812	0.146871	0.371887	0.117920	0.409468	0.179342	0.127112	0.654245	0.258775	0.146702	0.427847	0.510712	0.394431	0.225522	0.254836	0.549002	0.263120	0.528050	0.147208	0.592904	0.664346	0.159360	0.099516	0.350634	0.335194	0.199579	0.125340	0.229021	0.380559	0.152257	0.131205	0.782660	0.353429	0.190929	0.401455	0.220188	0.358468	0.287517	0.122135	0.617027	0.460125	0.223202	0.200089	0.365143	0.376379
44	0.475881	0.398528	0.557669	0.308090	0.136687	0.374256	0.117815	0.433246	0.180356	0.128471	0.775631	0.257712	0.147347	0.392346	0.414980	0.329035	0.234436	0.223046	0.554416	0.276623	0.527617	0.160284	0.560139	0.694889	0.151487	0.100567	0.342269	0.343675	0.199132	0.122793	0.221840	0.378763	0.144057	0.126462	0.771828	0.355318	0.155534	0.388874	0.196603	0.358300	0.267435	0.111774	0.673366	0.483130	0.221954	0.184259	0.409231	0.399988
45	0.474345	0.398974	0.433974	0.242116	0.126706	0.375794	0.114108	0.441913	0.184365	0.125287	0.827767	0.257825	0.150685	0.369116	0.304730	0.263655	0.245309	0.199274	0.561774	0.296061	0.530059	0.198201	0.563211	0.695110	0.147941	0.101388	0.339699	0.363746	0.198469	0.125484	0.268239	0.327595	0.148129	0.125268	0.738920	0.356508	0.132832	0.373697	0.206292	0.365419	0.264847	0.118107	0.694324	0.488055	0.224150	0.169277	0.410532	0.406192
46	0.474397	0.394190	0.285284	0.223733	0.124287	0.378796	0.126586	0.442345	0.195776	0.122538	0.831490	0.281142	0.149862	0.336892	0.282996	0.289418	0.254162	0.184542	0.563182	0.280418	0.555248	0.213426	0.561089	0.656924	0.152744	0.101556	0.360900	0.378888	0.191650	0.115037	0.292158	0.225624	0.189978	0.133761	0.668166	0.370002	0.136249	0.368259	0.261726	0.374716	0.288608	0.150299	0.694686	0.503713	0.232144	0.162061	0.410409	0.405190
47	0.504790	0.452288	0.267978	0.265402	0.124089	0.378842	0.155659	0.429593	0.204719	0.125193	0.832594	0.306878	0.153253	0.310481	0.283426	0.288137	0.267596	0.181723	0.584002	0.255400	0.583609	0.211385	0.557908	0.574270	0.154139	0.107934	0.367138	0.392757	0.186972	0.093348	0.303736	0.180819	0.197700	0.143272	0.657567	0.446067	0.137436	0.284256	0.281865	0.373513	0.310410	0.170571	0.696877	0.583796	0.244686	0.159709	0.423330	0.403394
48	0.508447	0.472654	0.271657	0.288611	0.127440	0.328822	0.157007	0.380482	0.212018	0.126626	0.850040	0.307308	0.148350	0.258629	0.264098	0.270132	0.279853	0.188221	0.604591	0.272329	0.562081	0.276796	0.548932	0.532999	0.164911	0.097939	0.349731	0.395785	0.188219	0.071987	0.303735	0.180350	0.228598	0.176759	0.729288	0.515649	0.147721	0.200637	0.283766	0.334990	0.311938	0.170592	0.711812	0.673461	0.255573	0.156198	0.452138	0.388765
49	0.533035	0.512972	0.207321	0.285845	0.140691	0.239124	0.156365	0.380734	0.249161	0.133872	0.861429	0.293101	0.134044	0.219568	0.242200	0.226918	0.333639	0.196696	0.610968	0.312997	0.530102	0.307864	0.497175	0.535338	0.198994	0.095369	0.360061	0.402399	0.193399	0.071925	0.282544	0.176380	0.257451	0.198130	0.857569	0.511154	0.156827	0.182885	0.282023	0.272004	0.325335	0.169804	0.728959	0.748645	0.261879	0.152044	0.475290	0.377913
50	0.559746	0.548146	0.293018	0.269400	0.147887	0.201788	0.159473	0.418664	0.284962	0.139577	0.857924	0.286740	0.121257	0.189512	0.226803	0.204973	0.420609	0.245979	0.673800	0.338609	0.472215	0.314150	0.472587	0.539571	0.241630	0.112324	0.350344	0.395841	0.194557	0.090079	0.322885	0.209542	0.299861	0.212701	0.975623	0.513763	0.159659	0.173985	0.272131	0.264456	0.395539	0.180076	0.733243	0.800479	0.263083	0.147398	0.491661	0.375322
51	0.545753	0.550433	0.333819	0.264115	0.141234	0.183421	0.156832	0.430267	0.295098	0.139890	0.878480	0.305483	0.119753	0.179753	0.257305	0.204051	0.413202	0.259615	0.712864	0.341606	0.315183	0.327711	0.424197	0.517549	0.281396	0.112993	0.336313	0.383005	0.198162	0.099261	0.367376	0.217376	0.339534	0.217295	1.046648	0.608814	0.164037	0.157461	0.260830	0.261019	0.494436	0.217400	0.740907	0.828597	0.259468	0.143391	0.504548	0.377022
52	0.433289	0.534708	0.342608	0.241408	0.137572	0.173668	0.162918	0.430418	0.304361	0.139699	0.876958	0.464197	0.120750	0.179138	0.319766	0.218702	0.425208	0.264795	0.711864	0.350589	0.336369	0.342839	0.328462	0.480732	0.350483	0.112075	0.330657	0.376713	0.199961	0.106706	0.387883	0.221957	0.359400	0.213837	1.073205	0.708088	0.167439	0.121577	0.263836	0.278735	0.554592	0.246585	0.704934	0.827844	0.254894	0.144427	0.497733	0.376056
53	0.405256	0.507944	0.422480	0.279826	0.132599	0.182176	0.217724	0.429409	0.313671	0.137575	0.866875	0.648379	0.144162	0.189758	0.325914	0.249503	0.481902	0.259397	0.685458	0.397004	0.338883	0.351582	0.284306	0.483939	0.446926	0.152254	0.333109	0.408513	0.197209	0.109679	0.390525	0.221459	0.359671	0.223304	1.031318	0.774933	0.162426	0.101989	0.292340	0.282262	0.583807	0.261444	0.696482	0.819815	0.239843	0.147568	0.479713	0.372042
54	0.409577	0.506147	0.471274	0.401648	0.129711	0.219844	0.314762	0.422696	0.332557	0.141750	0.863426	0.789710	0.163798	0.203384	0.308319	0.256759	0.563942	0.252421	0.684340	0.467451	0.334330	0.471072	0.319418	0.436834	0.453844	0.200094	0.359961	0.427125	0.194752	0.108817	0.390917	0.213418	0.360754	0.240825	0.988791	0.805803	0.149827	0.101506	0.338906	0.274750	0.604545	0.281156	0.649996	0.819016	0.219497	0.147925	0.478618	0.371996
55	0.403966	0.505474	0.463818	0.421553	0.144121	0.220333	0.357200	0.415330	0.357635	0.151926	0.902295	0.868127	0.173251	0.213980	0.304149	0.256021	0.638711	0.269955	0.681334	0.518773	0.331089	0.569686	0.348585	0.415668	0.462162	0.206865	0.412950	0.432300	0.189436	0.109390	0.397216	0.277794	0.354116	0.237747	0.991307	0.808317	0.144384	0.102420	0.393855	0.259986	0.621452	0.294552	0.608707	0.803171	0.211864	0.149470	0.476041	0.368333
56	0.375862	0.465794	0.492833	0.426229	0.161751	0.224889	0.357526	0.399639	0.394372	0.156721	0.990614	0.900079	0.175668	0.206558	0.304137	0.258709	0.699829	0.309449	0.691072	0.550723	0.349709	0.573026	0.360592	0.429766	0.501681	0.213590	0.435902	0.426419	0.202156	0.113334	0.410369	0.303159	0.346567	0.237833	1.002642	0.809155	0.163546	0.103104	0.439770	0.251065	0.622179	0.297457	0.546695	0.779027	0.236327	0.145852	0.470659	0.350493
57	0.333982	0.375320	0.522094	0.462699	0.171942	0.225892	0.357526	0.378026	0.458347	0.176827	1.098897	0.904710	0.169806	0.194115	0.302107	0.263586	0.725897	0.337289	0.707490	0.565394	0.470892	0.570804	0.364475	0.430501	0.531907	0.213167	0.430861	0.414280	0.237540	0.119584	0.420706	0.298406	0.347610	0.242794	1.003814	0.814447	0.193159	0.112027	0.464141	0.255698	0.630602	0.296248	0.504253	0.728154	0.268003	0.135807	0.460561	0.315050
58	0.288507	0.302226	0.522819	0.498689	0.188746	0.240063	0.363894	0.356039	0.472732	0.193023	1.209572	0.905827	0.168016	0.194921	0.301184	0.275711	0.724238	0.343805	0.717764	0.566899	0.481194	0.566957	0.378519	0.430076	0.563850	0.220364	0.441717	0.422810	0.376734	0.121285	0.438701	0.296615	0.348443	0.244346	1.008878	0.813059	0.219031	0.125000	0.467209	0.267503	0.641108	0.296918	0.426248	0.708641	0.268535	0.127399	0.427323	0.272495
59	0.222353	0.258982	0.494635	0.515789	0.208701	0.291738	0.371245	0.322948	0.477606	0.197419	1.248875	0.923866	0.169105	0.195720	0.304162	0.284738	0.726305	0.344175	0.720352	0.559091	0.513015	0.546718	0.391104	0.426818	0.599198	0.245341	0.454303	0.426697	0.408144	0.120325	0.462432	0.295527	0.352949	0.250933	1.014802	0.811618	0.244883	0.142446	0.470729	0.271051	0.634798	0.298482	0.378413	0.706425	0.268044	0.118770	0.352446	0.228719
60	0.211395	0.277471	0.453225	0.513480	0.226885	0.337329	0.371537	0.305341	0.514636	0.197104	1.181062	0.976809	0.185609	0.195907	0.301112	0.279270	0.736494	0.343377	0.725954	0.556414	0.545908	0.538235	0.387888	0.430680	0.630054	0.293119	0.464202	0.416444	0.443452	0.128074	0.449977	0.295645	0.362484	0.292123	1.011737	0.809977	0.261997	0.153482	0.477136	0.270083	0.623887	0.292943	0.412927	0.708354	0.268837	0.114510	0.322382	0.184557
61	0.185507	0.299879	0.440645	0.515562	0.229865	0.340937	0.366933	0.313610	0.591491	0.201373	1.072041	1.042293	0.238454	0.200398	0.285525	0.248254	0.748678	0.339266	0.719902	0.555897	0.594338	0.533083	0.392467	0.522918	0.674742	0.360848	0.477840	0.394661	0.507408	0.136938	0.463841	0.296286	0.354190	0.290992	1.012128	0.793544	0.273935	0.161428	0.473875	0.262629	0.617666	0.302545	0.469171	0.696644	0.266665	0.111789	0.324048	0.176150
62	0.139263	0.301231	0.402230	0.513682	0.376477	0.361060	0.356170	0.332324	0.774147	0.241301	1.014331	1.111919	0.306999	0.205419	0.282937	0.241673	0.752377	0.339258	0.691176	0.540353	0.615502	0.522191	0.391951	0.519415	0.717386	0.426227	0.484364	0.370504	0.553442	0.137456	0.465352	0.295190	0.367700	0.289013	1.022888	0.752370	0.273788	0.167627	0.443021	0.248744	0.626162	0.329370	0.533373	0.678333	0.258766	0.110078	0.326352	0.186140
63	0.108012	0.306542	0.311077	0.441609	0.519602	0.393391	0.371947	0.346460	0.979547	0.342061	0.995386	1.168108	0.523971	0.215008	0.284435	0.242918	0.737459	0.342799	0.665091	0.511917	0.613081	0.520279	0.379269	0.480210	0.728981	0.449554	0.493059	0.350466	0.585795	0.138780	0.473334	0.295010	0.380709	0.276637	0.990804	0.704859	0.271151	0.164267	0.425530	0.246964	0.636828	0.350389	0.524328	0.743047	0.253783	0.110097	0.309917	0.188754
64	0.103888	0.324894	0.286041	0.380482	0.521024	0.413641	0.411977	0.326989	1.065248	0.464403	0.994020	1.201144	0.571465	0.231150	0.282646	0.255858	0.679951	0.323801	0.621957	0.498473	0.614091	0.495634	0.340960	0.440252	0.742318	0.457476	0.500720	0.348386	0.608302	0.147614	0.454570	0.273150	0.387075	0.282008	0.891764	0.687290	0.277233	0.160155	0.423288	0.227171	0.644214	0.403679	0.506093	0.797312	0.254874	0.107696	0.276211	0.165134
65	0.104833	0.370372	0.270552	0.370323	0.522465	0.417568	0.441006	0.257872	1.111081	0.575308	1.001105	1.224899	0.574121	0.249570	0.281562	0.268637	0.680281	0.325399	0.592198	0.542619	0.615714	0.350347	0.270396	0.485496	0.748714	0.454296	0.515452	0.334564	0.623602	0.182938	0.421275	0.262356	0.425888	0.322572	0.751580	0.675995	0.320581	0.156476	0.423275	0.206338	0.598097	0.439602	0.512791	0.785389	0.250211	0.100630	0.244840	0.136064
66	0.114185	0.372393	0.168325	0.319899	0.523589	0.425723	0.457966	0.223007	1.126516	0.642721	1.000317	1.241697	0.577540	0.256903	0.262825	0.277182	0.680195	0.324060	0.569650	0.658399	0.609939	0.275442	0.237996	0.477073	0.786158	0.488604	0.543675	0.332480	0.637483	0.221001	0.397163	0.258223	0.489672	0.372819	0.635368	0.599591	0.449969	0.151236	0.424788	0.182281	0.541911	0.459053	0.572646	0.774070	0.242286	0.092536	0.219760	0.137952
67	0.116317	0.372502	0.129607	0.240378	0.528735	0.444561	0.460029	0.223853	1.117290	0.651080	1.014004	1.251553	0.578316	0.257902	0.177341	0.277662	0.653990	0.354529	0.564636	0.716154	0.554860	0.357139	0.256065	0.470134	0.823484	0.516034	0.598715	0.325851	0.643602	0.241293	0.394549	0.254552	0.502145	0.380177	0.538908	0.475665	0.497266	0.150321	0.427193	0.180941	0.500577	0.458055	0.658918	0.785071	0.236064	0.102698	0.190750	0.136561
68	0.109507	0.347746	0.118327	0.174280	0.536756	0.478888	0.441752	0.226229	1.116144	0.654176	1.009495	1.258706	0.575197	0.254623	0.127266	0.253655	0.591191	0.379192	0.542054	0.685869	0.440397	0.380739	0.251731	0.524562	0.790759	0.515933	0.674860	0.332950	0.648869	0.245476	0.399606	0.253035	0.503863	0.394228	0.510612	0.351942	0.496887	0.153369	0.428453	0.155747	0.472830	0.446556	0.770835	0.811808	0.232060	0.110843	0.188068	0.137055
69	0.094518	0.309269	0.133145	0.182504	0.536614	0.488565	0.384217	0.226173	1.123098	0.654397	1.004017	1.237014	0.571487	0.240630	0.125218	0.241613	0.509274	0.380554	0.497754	0.646545	0.430069	0.355947	0.355896	0.590081	0.750675	0.500749	0.709233	0.503706	0.673235	0.265058	0.405189	0.194378	0.599409	0.443926	0.499179	0.262084	0.496354	0.163424	0.420438	0.136469	0.483333	0.442955	0.813665	0.834689	0.226825	0.115162	0.191047	0.141188
70	0.093800	0.279420	0.126022	0.182635	0.541775	0.492275	0.332981	0.222199	1.129871	0.654416	1.022709	1.156365	0.572769	0.222702	0.121873	0.242709	0.418646	0.355521	0.517906	0.631184	0.398350	0.382715	0.442143	0.601616	0.754550	0.500014	0.704639	0.672579	0.728625	0.310611	0.393295	0.172976	0.636850	0.442001	0.443660	0.275977	0.497473	0.181012	0.394601	0.132824	0.515678	0.445036	0.813623	0.868532	0.233594	0.163966	0.187860	0.142766
71	0.099234	0.262151	0.125690	0.172549	0.561797	0.492639	0.333512	0.217151	1.128220	0.653482	1.043382	1.055410	0.571419	0.210982	0.175577	0.245064	0.345702	0.326492	0.553160	0.647251	0.370564	0.503447	0.471326	0.589028	0.765368	0.551386	0.674412	0.779583	0.730451	0.315173	0.374237	0.241439	0.654850	0.443516	0.374061	0.418221	0.500152	0.198091	0.346742	0.132797	0.513156	0.447267	0.812627	0.887276	0.250727	0.208686	0.187083	0.139860
72	0.135968	0.251780	0.131295	0.173985	0.584290	0.502445	0.335473	0.217807	1.125767	0.671111	1.044845	0.973246	0.570843	0.216560	0.258158	0.253492	0.337523	0.317377	0.544325	0.663467	0.296159	0.525620	0.473523	0.549412	0.814130	0.637924	0.667837	0.826412	0.697543	0.334885	0.360237	0.251123	0.665922	0.445603	0.342287	0.546910	0.499094	0.210754	0.284273	0.133651	0.504876	0.459052	0.811891	0.897489	0.256552	0.225459	0.186216	0.138777
73	0.134624	0.247795	0.133855	0.173600	0.594461	0.511546	0.331594	0.213489	1.131985	0.755201	1.011404	0.932391	0.572076	0.217185	0.297292	0.269546	0.339350	0.319257	0.546127	0.665424	0.258592	0.525401	0.553859	0.549459	0.855525	0.699798	0.701065	0.824558	0.672346	0.373700	0.298496	0.255401	0.668888	0.447538	0.325077	0.627087	0.489841	0.222485	0.231191	0.128074	0.502953	0.456636	0.809342	0.903611	0.296174	0.233047	0.188960	0.140369
74	0.137258	0.163181	0.135594	0.179763	0.593438	0.485590	0.340010	0.210489	1.135010	0.852707	0.925356	0.938327	0.573980	0.220602	0.319451	0.267417	0.323646	0.320046	0.602613	0.665731	0.242654	0.519127	0.586509	0.544633	0.852584	0.714093	0.806806	0.822277	0.664294	0.393060	0.283539	0.274829	0.667317	0.452872	0.340554	0.651676	0.479371	0.243903	0.215624	0.104590	0.503909	0.457831	0.792800	0.908561	0.300279	0.251960	0.195816	0.145004
75	0.133765	0.144034	0.153420	0.198771	0.587297	0.452680	0.358018	0.221740	1.133986	0.926326	0.782444	0.992713	0.569661	0.231395	0.334915	0.258250	0.287049	0.324202	0.635791	0.673515	0.239038	0.499695	0.601314	0.512821	0.829314	0.704300	0.945148	0.822485	0.618992	0.407451	0.272888	0.302492	0.683310	0.445808	0.378907	0.657077	0.465729	0.261194	0.212624	0.086363	0.502466	0.448631	0.770448	0.894016	0.302937	0.262161	0.202669	0.149400
76	0.131196	0.141973	0.172548	0.202513	0.586039	0.451011	0.365884	0.266207	1.146347	0.973269	0.650711	1.068509	0.554448	0.242257	0.336558	0.250310	0.252943	0.328802	0.633302	0.674759	0.234274	0.496599	0.614620	0.471029	0.804594	0.682583	1.027623	0.835549	0.577168	0.414902	0.254659	0.313329	0.720021	0.469564	0.385628	0.708752	0.455530	0.270251	0.198675	0.085882	0.497409	0.431961	0.716709	0.850118	0.302584	0.261862	0.209896	0.146962
77	0.146427	0.193601	0.176144	0.233656	0.537146	0.448279	0.364792	0.274335	1.167123	1.012370	0.639316	1.137910	0.525858	0.248240	0.369017	0.250114	0.238351	0.324303	0.624390	0.674062	0.227191	0.463208	0.626099	0.462032	0.761606	0.644604	1.060696	0.869123	0.538407	0.420736	0.236436	0.314114	0.724241	0.486794	0.353883	0.774818	0.448124	0.271325	0.181462	0.097969	0.494906	0.420220	0.708697	0.746376	0.312181	0.266052	0.207005	0.134414
78	0.157045	0.207271	0.179838	0.227144	0.380407	0.455920	0.349459	0.256310	1.164112	1.033801	0.649104	1.150371	0.357906	0.249662	0.454265	0.255677	0.237843	0.318515	0.603771	0.673948	0.218464	0.409008	0.615316	0.446463	0.732020	0.612682	1.060799	0.889914	0.509954	0.423039	0.233921	0.326122	0.709788	0.486343	0.340508	0.814777	0.444132	0.268141	0.171213	0.121664	0.458190	0.380244	0.714427	0.591754	0.322559	0.280136	0.198052	0.123471
79	0.188622	0.209101	0.212575	0.215677	0.400410	0.481873	0.320108	0.278078	1.108596	1.046055	0.663905	1.109385	0.171916	0.232552	0.509057	0.269331	0.215541	0.294992	0.570630	0.650332	0.217230	0.417965	0.589562	0.348806	0.724410	0.600344	1.057839	0.895328	0.490980	0.414653	0.230056	0.337676	0.701559	0.478550	0.342177	0.840195	0.444350	0.265850	0.178480	0.137227	0.422943	0.312594	0.703050	0.531364	0.322151	0.296730	0.180738	0.124678
80	0.213943	0.210580	0.243152	0.211285	0.412209	0.490678	0.351315	0.307688	0.935714	1.040018	0.720287	1.042184	0.171948	0.219159	0.514202	0.291957	0.186909	0.281861	0.563784	0.555019	0.199869	0.419419	0.506177	0.272976	0.704866	0.601144	1.050152	0.895367	0.471989	0.394888	0.226095	0.341030	0.680282	0.457080	0.339780	0.851318	0.441574	0.269685	0.181660	0.143048	0.404511	0.249241	0.655512	0.555286	0.319577	0.298509	0.198376	0.125853
81	0.203035	0.188199	0.248726	0.220518	0.414017	0.486295	0.434350	0.309429	0.778361	1.002259	0.811977	0.988177	0.170841	0.227361	0.531970	0.294661	0.193283	0.270639	0.563998	0.426035	0.142864	0.305989	0.457040	0.231062	0.703185	0.605349	1.037915	0.897130	0.464905	0.383976	0.242019	0.342916	0.625049	0.418706	0.346136	0.854904	0.421965	0.273720	0.181988	0.141256	0.408904	0.221416	0.596588	0.584104	0.319054	0.310707	0.239898	0.114035
82	0.199079	0.193440	0.250476	0.232875	0.410549	0.485218	0.448664	0.318590	0.698969	0.947731	0.860261	0.966302	0.218059	0.294875	0.552475	0.288000	0.234864	0.259959	0.567011	0.391774	0.075977	0.168688	0.449372	0.143892	0.637168	0.573722	1.019853	0.910626	0.449940	0.377833	0.269800	0.351439	0.599536	0.410297	0.347691	0.855842	0.308591	0.274788	0.182095	0.143424	0.422281	0.249476	0.477259	0.551605	0.318741	0.317744	0.275283	0.105944
83	0.200054	0.191276	0.248248	0.248859	0.401319	0.486719	0.448294	0.323714	0.639945	0.885656	0.850979	0.964909	0.280166	0.404930	0.553650	0.288110	0.277393	0.273042	0.566294	0.397285	0.076114	0.159327	0.397042	0.113487	0.598053	0.561689	0.977084	0.932407	0.431850	0.374385	0.275361	0.356797	0.600636	0.403643	0.347835	0.853722	0.184631	0.286165	0.183638	0.153836	0.409537	0.294310	0.401018	0.519871	0.310937	0.311435	0.277558	0.106309
84	0.197647	0.187129	0.243009	0.239420	0.402549	0.483350	0.448137	0.322805	0.637010	0.868346	0.828685	0.977502	0.316643	0.481069	0.555287	0.296119	0.305165	0.270760	0.519202	0.385776	0.074630	0.160555	0.303481	0.099594	0.597900	0.561256	0.930001	0.919621	0.312935	0.339933	0.264840	0.346868	0.522656	0.328234	0.352016	0.850651	0.183511	0.287208	0.203402	0.163775	0.382582	0.344412	0.409959	0.468692	0.308825	0.311268	0.275256	0.108043
85	0.205200	0.239896	0.226310	0.213557	0.397266	0.494291	0.446077	0.327411	0.637422	0.870510	0.818093	0.990633	0.329334	0.512232	0.561539	0.300126	0.304823	0.271314	0.440927	0.342869	0.072953	0.158517	0.263866	0.099569	0.595082	0.563522	0.910379	0.823021	0.244507	0.333069	0.270324	0.293702	0.456629	0.324339	0.355971	0.840813	0.194587	0.283102	0.224127	0.164409	0.487184	0.417328	0.417498	0.414697	0.308928	0.322065	0.279002	0.114166
86	0.206771	0.304447	0.221557	0.188626	0.366423	0.505443	0.443932	0.329887	0.639840	0.887562	0.808343	0.997286	0.324984	0.513222	0.559499	0.298740	0.318773	0.283419	0.416044	0.281125	0.087166	0.157790	0.221584	0.095746	0.590374	0.551840	0.901497	0.700024	0.229228	0.332599	0.275813	0.271404	0.438952	0.328180	0.357366	0.791502	0.196885	0.287047	0.235957	0.165139	0.552918	0.453699	0.416828	0.394606	0.298839	0.327802	0.285578	0.125325
87	0.194350	0.309259	0.220276	0.162143	0.321871	0.505028	0.442641	0.329476	0.634555	0.904694	0.790475	0.995473	0.325399	0.508358	0.531528	0.296047	0.330997	0.311626	0.422571	0.261159	0.182169	0.177125	0.161111	0.099205	0.540434	0.485733	0.908840	0.590815	0.167762	0.300707	0.274911	0.273803	0.430096	0.324831	0.356185	0.695726	0.207400	0.312731	0.230330	0.164620	0.556273	0.456623	0.418005	0.376645	0.280126	0.328493	0.287641	0.126888
88	0.188541	0.312021	0.178185	0.161435	0.290448	0.492724	0.442390	0.329236	0.628395	0.916338	0.761965	0.995024	0.322758	0.506626	0.508111	0.281885	0.363359	0.343185	0.373330	0.268183	0.269493	0.190630	0.138886	0.093720	0.413999	0.364037	0.930350	0.545432	0.149726	0.286623	0.268488	0.263811	0.424840	0.319815	0.349164	0.620636	0.216164	0.332686	0.235144	0.168353	0.568897	0.459187	0.421254	0.358568	0.229187	0.339047	0.288344	0.126818
89	0.132376	0.316466	0.128085	0.158531	0.276050	0.493420	0.432634	0.329697	0.625390	0.921732	0.735653	0.994163	0.322298	0.513419	0.493448	0.297567	0.434972	0.363353	0.297299	0.272688	0.267628	0.180710	0.138067	0.093400	0.294662	0.256467	0.905889	0.546441	0.153129	0.273132	0.251565	0.235315	0.428715	0.314960	0.305041	0.597343	0.220736	0.337042	0.235317	0.173778	0.568657	0.456835	0.433655	0.340276	0.178899	0.337513	0.286590	0.127056
90	0.104796	0.327731	0.087070	0.148203	0.271170	0.492538	0.417777	0.331362	0.607236	0.885222	0.704066	0.988807	0.322744	0.513122	0.478909	0.343910	0.435206	0.357175	0.296470	0.278865	0.275397	0.153710	0.131418	0.086835	0.268298	0.229348	0.781469	0.578873	0.160288	0.271836	0.250663	0.211704	0.406213	0.290908	0.226998	0.605633	0.226764	0.325293	0.235467	0.175346	0.576605	0.465497	0.453763	0.343058	0.182081	0.323773	0.282395	0.121096
91	0.106155	0.388819	0.060900	0.122652	0.269929	0.485327	0.427780	0.303631	0.576180	0.797861	0.665150	0.979497	0.322091	0.506940	0.476721	0.345853	0.442457	0.357607	0.299473	0.275402	0.303356	0.161117	0.116314	0.086317	0.279398	0.230656	0.615408	0.613372	0.167383	0.273923	0.257458	0.208379	0.333293	0.245330	0.180867	0.561812	0.230210	0.304951	0.235457	0.174824	0.593303	0.484532	0.484418	0.346771	0.180765	0.321451	0.277780	0.120526
92	0.107570	0.452512	0.053406	0.089031	0.269637	0.476795	0.435861	0.322199	0.557845	0.694396	0.652803	0.944630	0.320760	0.501208	0.459574	0.348201	0.470356	0.364734	0.298562	0.266497	0.314641	0.166255	0.097355	0.088412	0.281850	0.231529	0.471386	0.605031	0.176247	0.272882	0.255541	0.194655	0.304937	0.223389	0.173596	0.460365	0.234943	0.290296	0.232786	0.176391	0.596583	0.488928	0.489913	0.352682	0.175680	0.321793	0.278740	0.130192
93	0.108151	0.465857	0.053617	0.051024	0.260741	0.451049	0.440504	0.326347	0.556340	0.611674	0.652227	0.867784	0.319465	0.497802	0.385500	0.348376	0.488825	0.369595	0.303355	0.254297	0.320252	0.178255	0.079671	0.086233	0.291340	0.235634	0.397036	0.555099	0.176551	0.269000	0.253862	0.172706	0.321292	0.245057	0.156591	0.371136	0.238571	0.283210	0.230618	0.178706	0.594186	0.493255	0.494326	0.371522	0.173887	0.320170	0.283029	0.157162
94	0.101493	0.462744	0.055535	0.050028	0.192907	0.393674	0.441071	0.310609	0.512119	0.544742	0.652017	0.740357	0.319800	0.500892	0.287021	0.336459	0.499795	0.378401	0.310253	0.263681	0.320132	0.179381	0.064793	0.082831	0.313143	0.260011	0.381016	0.530644	0.170094	0.267167	0.257689	0.162146	0.319231	0.248379	0.156675	0.311074	0.242688	0.283670	0.233171	0.173232	0.592787	0.492120	0.493848	0.380603	0.183565	0.307584	0.284127	0.276798
95	0.088277	0.411474	0.060268	0.112866	0.147310	0.370642	0.401750	0.283769	0.470132	0.492970	0.640330	0.594076	0.321100	0.499531	0.270451	0.305338	0.523217	0.382510	0.352821	0.251330	0.323956	0.188386	0.054241	0.079297	0.434489	0.297285	0.378367	0.525598	0.160344	0.261804	0.250823	0.161809	0.352389	0.302526	0.159491	0.276820	0.246579	0.286737	0.228738	0.188169	0.599578	0.499035	0.483039	0.336325	0.201064	0.299773	0.284007	0.339887
96	0.105406	0.374309	0.059802	0.192538	0.117886	0.367712	0.276188	0.284088	0.482601	0.466176	0.631141	0.514489	0.326867	0.499683	0.245221	0.289647	0.506855	0.361460	0.382428	0.253756	0.323174	0.197089	0.055172	0.076643	0.510918	0.307987	0.379148	0.526544	0.157978	0.259807	0.214097	0.146259	0.421860	0.343034	0.152872	0.257746	0.249160	0.285808	0.221393	0.258872	0.602708	0.492633	0.469558	0.323882	0.219268	0.296957	0.251999	0.340533
97	0.113938	0.373308	0.061326	0.203692	0.127156	0.358166	0.216828	0.275391	0.506338	0.442974	0.594135	0.518621	0.312362	0.476569	0.187374	0.291406	0.487469	0.333596	0.378215	0.267950	0.308232	0.198741	0.063541	0.073794	0.505640	0.301109	0.386737	0.519852	0.151247	0.255679	0.182835	0.129731	0.414910	0.339229	0.149349	0.250840	0.244700	0.281172	0.221915	0.278707	0.593564	0.467665	0.441987	0.327948	0.233344	0.283739	0.203599	0.343421
98	0.119678	0.373063	0.122901	0.215105	0.123562	0.317176	0.245019	0.261912	0.523812	0.433705	0.472307	0.569011	0.263199	0.393987	0.179242	0.290541	0.460277	0.320259	0.398213	0.286197	0.221913	0.181809	0.061979	0.070430	0.515363	0.327551	0.385804	0.494067	0.151983	0.252521	0.175436	0.113510	0.442852	0.353986	0.173682	0.260347	0.240025	0.280820	0.221522	0.277784	0.577616	0.441032	0.436842	0.323829	0.245384	0.279612	0.155594	0.357054
99	0.137645	0.380958	0.155089	0.246005	0.118747	0.269532	0.288214	0.264318	0.531606	0.431872	0.292634	0.573852	0.218081	0.288323	0.175806	0.284061	0.460769	0.319249	0.466178	0.277482	0.195015	0.177417	0.061212	0.053734	0.558258	0.353067	0.386571	0.459946	0.151075	0.245029	0.163045	0.114439	0.501343	0.360495	0.180413	0.264435	0.221262	0.270917	0.218495	0.279578	0.505999	0.386393	0.423606	0.322604	0.252798	0.279611	0.153394	0.390282
100	0.179044	0.360621	0.156775	0.268026	0.115148	0.229991	0.331223	0.268236	0.532662	0.433622	0.197832	0.538129	0.191758	0.208036	0.158136	0.281093	0.462837	0.315580	0.587523	0.297784	0.192095	0.195900	0.060155	0.041046	0.568760	0.353911	0.380529	0.420620	0.147950	0.230935	0.147502	0.120076	0.511593	0.356902	0.170004	0.264275	0.206965	0.264824	0.199003	0.283306	0.406051	0.314439	0.428475	0.313255	0.255435	0.273103	0.152382	0.432138
101	0.220329	0.296442	0.158032	0.276997	0.138876	0.209288	0.352678	0.271048	0.534317	0.432848	0.194992	0.485885	0.204583	0.206142	0.119084	0.280934	0.464598	0.288146	0.648861	0.309034	0.158639	0.195393	0.059826	0.042905	0.568529	0.345893	0.378986	0.388707	0.144587	0.216002	0.146225	0.130522	0.509586	0.358986	0.166568	0.265086	0.204155	0.265103	0.166535	0.293935	0.388507	0.299089	0.436258	0.325306	0.256096	0.246201	0.152591	0.455582
