	320_At_T2_sh_ND_L_01.c3d	320_At_T2_sh_ND_L_01.c3d	320_At_T2_sh_ND_L_01.c3d	320_At_T2_sh_ND_L_01.c3d	320_At_T2_sh_ND_L_01.c3d	320_At_T2_sh_ND_L_01.c3d	320_At_T2_sh_ND_L_01.c3d	320_At_T2_sh_ND_L_01.c3d	320_At_T2_sh_ND_L_02.c3d	320_At_T2_sh_ND_L_02.c3d	320_At_T2_sh_ND_L_02.c3d	320_At_T2_sh_ND_L_02.c3d	320_At_T2_sh_ND_L_02.c3d	320_At_T2_sh_ND_L_02.c3d	320_At_T2_sh_ND_L_02.c3d	320_At_T2_sh_ND_L_02.c3d	320_At_T2_sh_ND_L_03.c3d	320_At_T2_sh_ND_L_03.c3d	320_At_T2_sh_ND_L_03.c3d	320_At_T2_sh_ND_L_03.c3d	320_At_T2_sh_ND_L_03.c3d	320_At_T2_sh_ND_L_03.c3d	320_At_T2_sh_ND_L_03.c3d	320_At_T2_sh_ND_L_03.c3d	320_At_T2_sh_ND_L_04.c3d	320_At_T2_sh_ND_L_04.c3d	320_At_T2_sh_ND_L_04.c3d	320_At_T2_sh_ND_L_04.c3d	320_At_T2_sh_ND_L_04.c3d	320_At_T2_sh_ND_L_04.c3d	320_At_T2_sh_ND_L_04.c3d	320_At_T2_sh_ND_L_04.c3d	320_At_T2_sh_ND_L_05.c3d	320_At_T2_sh_ND_L_05.c3d	320_At_T2_sh_ND_L_05.c3d	320_At_T2_sh_ND_L_05.c3d	320_At_T2_sh_ND_L_05.c3d	320_At_T2_sh_ND_L_05.c3d	320_At_T2_sh_ND_L_05.c3d	320_At_T2_sh_ND_L_05.c3d	320_At_T2_sh_ND_L_06.c3d	320_At_T2_sh_ND_L_06.c3d	320_At_T2_sh_ND_L_06.c3d	320_At_T2_sh_ND_L_06.c3d	320_At_T2_sh_ND_L_06.c3d	320_At_T2_sh_ND_L_06.c3d	320_At_T2_sh_ND_L_06.c3d	320_At_T2_sh_ND_L_06.c3d	320_At_T2_sh_ND_L_07.c3d	320_At_T2_sh_ND_L_07.c3d	320_At_T2_sh_ND_L_07.c3d	320_At_T2_sh_ND_L_07.c3d	320_At_T2_sh_ND_L_07.c3d	320_At_T2_sh_ND_L_07.c3d	320_At_T2_sh_ND_L_07.c3d	320_At_T2_sh_ND_L_07.c3d	320_At_T2_sh_ND_L_08.c3d	320_At_T2_sh_ND_L_08.c3d	320_At_T2_sh_ND_L_08.c3d	320_At_T2_sh_ND_L_08.c3d	320_At_T2_sh_ND_L_08.c3d	320_At_T2_sh_ND_L_08.c3d	320_At_T2_sh_ND_L_08.c3d	320_At_T2_sh_ND_L_08.c3d	320_At_T2_sh_ND_L_09.c3d	320_At_T2_sh_ND_L_09.c3d	320_At_T2_sh_ND_L_09.c3d	320_At_T2_sh_ND_L_09.c3d	320_At_T2_sh_ND_L_09.c3d	320_At_T2_sh_ND_L_09.c3d	320_At_T2_sh_ND_L_09.c3d	320_At_T2_sh_ND_L_09.c3d	320_At_T2_sh_ND_L_10.c3d	320_At_T2_sh_ND_L_10.c3d	320_At_T2_sh_ND_L_10.c3d	320_At_T2_sh_ND_L_10.c3d	320_At_T2_sh_ND_L_10.c3d	320_At_T2_sh_ND_L_10.c3d	320_At_T2_sh_ND_L_10.c3d	320_At_T2_sh_ND_L_10.c3d
	Biceps femoris_lat	Semitendinosus_lat	Vastus lateralis_lat	Vastus medialis_lat	Biceps femoris_med	Semitendinosus_med	Vastus lateralis_med	Vastus medialis_med	Biceps femoris_lat	Semitendinosus_lat	Vastus lateralis_lat	Vastus medialis_lat	Biceps femoris_med	Semitendinosus_med	Vastus lateralis_med	Vastus medialis_med	Biceps femoris_lat	Semitendinosus_lat	Vastus lateralis_lat	Vastus medialis_lat	Biceps femoris_med	Semitendinosus_med	Vastus lateralis_med	Vastus medialis_med	Biceps femoris_lat	Semitendinosus_lat	Vastus lateralis_lat	Vastus medialis_lat	Biceps femoris_med	Semitendinosus_med	Vastus lateralis_med	Vastus medialis_med	Biceps femoris_lat	Semitendinosus_lat	Vastus lateralis_lat	Vastus medialis_lat	Biceps femoris_med	Semitendinosus_med	Vastus lateralis_med	Vastus medialis_med	Biceps femoris_lat	Semitendinosus_lat	Vastus lateralis_lat	Vastus medialis_lat	Biceps femoris_med	Semitendinosus_med	Vastus lateralis_med	Vastus medialis_med	Biceps femoris_lat	Semitendinosus_lat	Vastus lateralis_lat	Vastus medialis_lat	Biceps femoris_med	Semitendinosus_med	Vastus lateralis_med	Vastus medialis_med	Biceps femoris_lat	Semitendinosus_lat	Vastus lateralis_lat	Vastus medialis_lat	Biceps femoris_med	Semitendinosus_med	Vastus lateralis_med	Vastus medialis_med	Biceps femoris_lat	Semitendinosus_lat	Vastus lateralis_lat	Vastus medialis_lat	Biceps femoris_med	Semitendinosus_med	Vastus lateralis_med	Vastus medialis_med	Biceps femoris_lat	Semitendinosus_lat	Vastus lateralis_lat	Vastus medialis_lat	Biceps femoris_med	Semitendinosus_med	Vastus lateralis_med	Vastus medialis_med
	P2D	P2D	P2D	P2D	P2D	P2D	P2D	P2D	P2D	P2D	P2D	P2D	P2D	P2D	P2D	P2D	P2D	P2D	P2D	P2D	P2D	P2D	P2D	P2D	P2D	P2D	P2D	P2D	P2D	P2D	P2D	P2D	P2D	P2D	P2D	P2D	P2D	P2D	P2D	P2D	P2D	P2D	P2D	P2D	P2D	P2D	P2D	P2D	P2D	P2D	P2D	P2D	P2D	P2D	P2D	P2D	P2D	P2D	P2D	P2D	P2D	P2D	P2D	P2D	P2D	P2D	P2D	P2D	P2D	P2D	P2D	P2D	P2D	P2D	P2D	P2D	P2D	P2D	P2D	P2D
	EMG_lat	EMG_lat	EMG_lat	EMG_lat	EMG_med	EMG_med	EMG_med	EMG_med	EMG_lat	EMG_lat	EMG_lat	EMG_lat	EMG_med	EMG_med	EMG_med	EMG_med	EMG_lat	EMG_lat	EMG_lat	EMG_lat	EMG_med	EMG_med	EMG_med	EMG_med	EMG_lat	EMG_lat	EMG_lat	EMG_lat	EMG_med	EMG_med	EMG_med	EMG_med	EMG_lat	EMG_lat	EMG_lat	EMG_lat	EMG_med	EMG_med	EMG_med	EMG_med	EMG_lat	EMG_lat	EMG_lat	EMG_lat	EMG_med	EMG_med	EMG_med	EMG_med	EMG_lat	EMG_lat	EMG_lat	EMG_lat	EMG_med	EMG_med	EMG_med	EMG_med	EMG_lat	EMG_lat	EMG_lat	EMG_lat	EMG_med	EMG_med	EMG_med	EMG_med	EMG_lat	EMG_lat	EMG_lat	EMG_lat	EMG_med	EMG_med	EMG_med	EMG_med	EMG_lat	EMG_lat	EMG_lat	EMG_lat	EMG_med	EMG_med	EMG_med	EMG_med
ITEM	Y	Y	Y	Y	Y	Y	Y	Y	Y	Y	Y	Y	Y	Y	Y	Y	Y	Y	Y	Y	Y	Y	Y	Y	Y	Y	Y	Y	Y	Y	Y	Y	Y	Y	Y	Y	Y	Y	Y	Y	Y	Y	Y	Y	Y	Y	Y	Y	Y	Y	Y	Y	Y	Y	Y	Y	Y	Y	Y	Y	Y	Y	Y	Y	Y	Y	Y	Y	Y	Y	Y	Y	Y	Y	Y	Y	Y	Y	Y	Y
1	0.154762	0.142520	0.220367	0.366321	0.211058	0.285325	0.467176	0.392364	0.416184	0.449863	0.277375	0.344458	0.490381	0.251400	0.422415	0.391538	0.150553	0.127062	0.294869	0.233134	0.350918	0.302511	0.336753	0.454648	0.131290	0.202093	0.468610	0.499978	0.265157	0.220479	0.421862	0.468740	0.257084	0.218781	0.360345	0.216102	0.486245	0.343473	0.376175	0.295154	0.078664	0.113090	0.276538	0.268847	0.337442	0.250249	0.313584	0.517306	0.075625	0.087731	0.364194	0.448930	0.174480	0.239983	0.445526	0.267343	0.153864	0.185101	0.312360	0.338617	0.377518	0.337998	0.342713	0.278035	0.108724	0.077688	0.224667	0.383618	0.270217	0.228492	0.516589	0.251382	0.411030	0.277595	0.277866	0.219258	0.547401	0.467302	0.552051	0.196458
2	0.192213	0.199567	0.206901	0.388759	0.207076	0.208252	0.489319	0.354334	0.414991	0.424001	0.272558	0.311095	0.510444	0.272799	0.412718	0.430591	0.122463	0.102606	0.255614	0.239061	0.353319	0.300750	0.412755	0.440214	0.103350	0.123179	0.434752	0.493737	0.264507	0.222073	0.445044	0.467225	0.261786	0.213848	0.346402	0.231097	0.515104	0.387637	0.390507	0.296582	0.082434	0.116668	0.286719	0.282173	0.328625	0.250130	0.303212	0.519696	0.078344	0.092750	0.375530	0.467948	0.201276	0.253591	0.453287	0.271441	0.183157	0.211847	0.312912	0.357502	0.302468	0.212703	0.343064	0.281964	0.094290	0.074978	0.217327	0.405456	0.279211	0.247437	0.531302	0.244651	0.410429	0.278253	0.275865	0.216780	0.544962	0.431944	0.546349	0.181433
3	0.370848	0.277065	0.176607	0.433816	0.204526	0.164837	0.497674	0.324853	0.388277	0.345404	0.241381	0.305349	0.520790	0.282477	0.377658	0.438020	0.109154	0.094524	0.244659	0.240363	0.338437	0.287239	0.466422	0.423317	0.102618	0.095956	0.428804	0.488263	0.258469	0.228052	0.452497	0.469164	0.273194	0.236456	0.329719	0.256338	0.524015	0.373644	0.393718	0.288857	0.094215	0.123218	0.279056	0.307900	0.319453	0.245986	0.302212	0.521977	0.089641	0.104065	0.386968	0.466348	0.211718	0.255069	0.451263	0.275214	0.211973	0.241991	0.321982	0.367625	0.225293	0.143451	0.342428	0.272787	0.113249	0.079815	0.281036	0.416445	0.299743	0.254981	0.524979	0.247573	0.413762	0.285395	0.276094	0.208330	0.454459	0.353383	0.537760	0.162946
4	0.575943	0.299316	0.177164	0.430596	0.223397	0.183589	0.480720	0.312644	0.342899	0.254526	0.245750	0.244840	0.499975	0.276770	0.340272	0.435595	0.108808	0.094719	0.247379	0.227398	0.299822	0.257084	0.469272	0.403609	0.103561	0.096004	0.424918	0.496914	0.228169	0.210999	0.436118	0.485355	0.360614	0.297448	0.290286	0.270557	0.407380	0.284512	0.396890	0.288799	0.109095	0.133487	0.264589	0.334299	0.311452	0.242307	0.302541	0.527471	0.090089	0.108681	0.378593	0.462513	0.211153	0.253489	0.443736	0.288543	0.226466	0.255314	0.346703	0.366995	0.206185	0.136546	0.395887	0.265535	0.125684	0.080238	0.421707	0.422730	0.323518	0.252433	0.522183	0.256616	0.417832	0.301591	0.254130	0.198262	0.283883	0.274246	0.529383	0.151319
5	0.648646	0.374532	0.187725	0.403433	0.220625	0.175944	0.428329	0.305184	0.293118	0.227487	0.268366	0.148616	0.470139	0.290939	0.329388	0.427936	0.103519	0.094620	0.242000	0.182249	0.286184	0.241225	0.453773	0.398669	0.101368	0.104679	0.426811	0.508041	0.209027	0.198852	0.428047	0.502715	0.401933	0.311837	0.264715	0.334530	0.337432	0.264259	0.393015	0.293139	0.151764	0.156799	0.251287	0.349826	0.311060	0.242750	0.313374	0.529053	0.092771	0.125225	0.339515	0.465587	0.210680	0.252095	0.471218	0.300358	0.232604	0.258067	0.350992	0.364204	0.209579	0.139956	0.500642	0.263038	0.125811	0.074616	0.480378	0.423672	0.333842	0.277761	0.523322	0.261657	0.425346	0.308996	0.192862	0.198241	0.242433	0.248312	0.551875	0.170358
6	0.669162	0.386152	0.195815	0.395821	0.222706	0.213711	0.370288	0.306390	0.243609	0.221241	0.256985	0.117679	0.461301	0.290675	0.329763	0.419684	0.111590	0.103819	0.230400	0.162640	0.286744	0.239417	0.450865	0.403358	0.092544	0.106932	0.413104	0.504905	0.206255	0.197427	0.428810	0.511441	0.409583	0.305147	0.259156	0.363658	0.337162	0.257955	0.380342	0.292663	0.194468	0.182380	0.232799	0.356913	0.307934	0.236926	0.346939	0.530886	0.111944	0.157711	0.345558	0.468076	0.208492	0.239672	0.527106	0.303546	0.232493	0.253363	0.350461	0.358675	0.210461	0.140081	0.590394	0.260295	0.135417	0.073176	0.485447	0.434151	0.343710	0.294343	0.547024	0.273818	0.410827	0.285843	0.182268	0.190205	0.233294	0.225579	0.607501	0.214450
7	0.700033	0.392556	0.334619	0.417102	0.339023	0.315202	0.333126	0.333432	0.235759	0.214902	0.235301	0.120717	0.440758	0.286276	0.331638	0.420930	0.120946	0.104982	0.229020	0.160377	0.286736	0.236121	0.450932	0.405847	0.092836	0.108029	0.406861	0.508416	0.201479	0.194344	0.433658	0.512360	0.406229	0.285023	0.256113	0.348006	0.337588	0.251475	0.368226	0.298760	0.238694	0.211426	0.215806	0.353865	0.265102	0.209374	0.380472	0.521112	0.134254	0.181023	0.348257	0.464336	0.204648	0.222622	0.567182	0.308600	0.234052	0.247972	0.331725	0.342641	0.208390	0.136625	0.661487	0.256627	0.161530	0.080422	0.485688	0.439139	0.335678	0.302762	0.608079	0.306515	0.402092	0.267412	0.195365	0.152658	0.175856	0.163596	0.650884	0.233159
8	0.700514	0.392322	0.395123	0.395092	0.396152	0.332706	0.335339	0.385856	0.237887	0.222181	0.276626	0.130584	0.430508	0.317326	0.318326	0.429666	0.120174	0.103415	0.212701	0.153271	0.286840	0.229154	0.453165	0.405978	0.093663	0.102207	0.395520	0.516377	0.193916	0.190500	0.435885	0.511736	0.368048	0.261377	0.310517	0.378923	0.344343	0.250182	0.365755	0.301319	0.278419	0.236276	0.223612	0.335286	0.199469	0.185049	0.384218	0.489816	0.169962	0.189846	0.344356	0.437549	0.195819	0.199344	0.587978	0.318255	0.230580	0.233783	0.346501	0.303219	0.180366	0.126853	0.689493	0.263112	0.187564	0.084575	0.487598	0.426056	0.345989	0.314571	0.653628	0.320250	0.360620	0.261332	0.190313	0.125236	0.116224	0.112651	0.681251	0.234773
9	0.701309	0.392346	0.399465	0.416923	0.402210	0.344078	0.334370	0.423319	0.220642	0.204461	0.320603	0.146508	0.443960	0.349487	0.267359	0.454739	0.115099	0.099439	0.213563	0.249739	0.288474	0.222922	0.454591	0.406838	0.085375	0.091194	0.387045	0.521821	0.188483	0.185285	0.416583	0.490139	0.362862	0.261257	0.425605	0.441387	0.341234	0.253514	0.361750	0.300037	0.292866	0.242404	0.230979	0.313639	0.183952	0.182063	0.400700	0.454205	0.182013	0.204473	0.345080	0.399433	0.190407	0.179683	0.570991	0.319938	0.219721	0.218472	0.376977	0.262078	0.132766	0.114609	0.696514	0.263933	0.206346	0.086179	0.495698	0.418303	0.353470	0.318163	0.671960	0.302984	0.333962	0.248628	0.235811	0.143122	0.103825	0.101591	0.704750	0.232561
10	0.701729	0.392582	0.393577	0.467823	0.425882	0.364063	0.346179	0.439729	0.204499	0.186966	0.344440	0.152210	0.459014	0.362361	0.259849	0.483161	0.110344	0.100651	0.257725	0.275083	0.285941	0.215958	0.450005	0.403647	0.084266	0.092177	0.344080	0.515497	0.188125	0.182678	0.402185	0.462860	0.369220	0.260663	0.430116	0.480482	0.343955	0.255545	0.336114	0.299523	0.295351	0.248304	0.229498	0.308265	0.184450	0.186548	0.428008	0.437392	0.280451	0.282970	0.343675	0.365284	0.192884	0.179330	0.527562	0.315972	0.213333	0.212837	0.377206	0.260205	0.126117	0.116112	0.688881	0.261585	0.212339	0.143913	0.560694	0.418128	0.414025	0.366144	0.674306	0.307634	0.254275	0.219925	0.301381	0.146603	0.109495	0.106849	0.727031	0.225905
11	0.701640	0.393648	0.464598	0.471819	0.436707	0.368448	0.370820	0.446445	0.242609	0.194338	0.346680	0.154982	0.458778	0.363400	0.324413	0.489822	0.116695	0.126476	0.302951	0.291213	0.244545	0.197271	0.442153	0.399000	0.083950	0.093357	0.333129	0.467178	0.188039	0.182461	0.452740	0.507725	0.374788	0.261800	0.417795	0.492444	0.340342	0.284404	0.329773	0.302168	0.350322	0.292931	0.228672	0.319681	0.196608	0.204229	0.479455	0.441021	0.368366	0.328221	0.327090	0.357946	0.216971	0.193738	0.484822	0.316182	0.208781	0.211806	0.357938	0.256373	0.131208	0.118781	0.683029	0.261578	0.278800	0.211856	0.646731	0.410920	0.485908	0.405117	0.675173	0.350522	0.243854	0.222251	0.352274	0.163665	0.112519	0.113802	0.745074	0.217834
12	0.705317	0.394149	0.608295	0.477179	0.439879	0.372421	0.387357	0.447546	0.263483	0.211346	0.346590	0.179108	0.457568	0.364100	0.441549	0.493481	0.128311	0.147963	0.347399	0.335284	0.213653	0.181064	0.423624	0.379782	0.083992	0.091774	0.307816	0.379853	0.188767	0.184172	0.558649	0.559111	0.374188	0.261930	0.405884	0.492483	0.330359	0.311043	0.346796	0.322121	0.419023	0.334033	0.227054	0.349685	0.213366	0.218570	0.518037	0.442168	0.377749	0.332512	0.324169	0.349473	0.244541	0.208119	0.452459	0.320804	0.209498	0.214376	0.300929	0.261737	0.132863	0.120225	0.665837	0.249682	0.292645	0.218456	0.669608	0.383991	0.492988	0.407449	0.682078	0.370139	0.246985	0.236897	0.372037	0.182430	0.115909	0.119064	0.742918	0.218720
13	0.693451	0.365110	0.664732	0.451944	0.442078	0.377384	0.404265	0.443837	0.267028	0.214551	0.346586	0.192229	0.447225	0.367065	0.554779	0.538233	0.138044	0.154071	0.362018	0.363018	0.210857	0.181347	0.397852	0.356148	0.084589	0.091013	0.274022	0.319542	0.184118	0.190128	0.617895	0.562708	0.375058	0.275497	0.413518	0.486493	0.331872	0.310913	0.346289	0.350038	0.449034	0.351929	0.220683	0.364155	0.220609	0.212294	0.542702	0.443096	0.377925	0.330426	0.333975	0.284459	0.246652	0.208808	0.446825	0.321050	0.190764	0.196198	0.291186	0.248992	0.138722	0.122135	0.645578	0.248994	0.297250	0.225096	0.662946	0.356904	0.473472	0.403745	0.680579	0.370760	0.254508	0.236934	0.376660	0.193106	0.117285	0.122595	0.721844	0.235900
14	0.601867	0.311093	0.667323	0.411056	0.441597	0.379393	0.413259	0.439983	0.305005	0.205717	0.346844	0.192483	0.446900	0.368985	0.599471	0.586498	0.145954	0.158419	0.376194	0.372771	0.207536	0.182412	0.405421	0.349409	0.081858	0.095814	0.253911	0.315436	0.177303	0.189465	0.647447	0.537024	0.391144	0.291290	0.416540	0.476855	0.333346	0.301200	0.341038	0.366138	0.460565	0.357869	0.201749	0.365291	0.217182	0.206973	0.545452	0.445383	0.376599	0.328253	0.336264	0.208316	0.247040	0.209986	0.447354	0.318575	0.153547	0.152522	0.285079	0.229038	0.141053	0.117008	0.659232	0.247531	0.303068	0.231638	0.671501	0.353366	0.465783	0.405632	0.658796	0.373331	0.251916	0.234601	0.378584	0.201030	0.106345	0.121361	0.702034	0.260503
15	0.423760	0.290894	0.676900	0.424777	0.438038	0.379380	0.404555	0.466849	0.318742	0.202610	0.348037	0.192879	0.448360	0.370436	0.608059	0.572554	0.141255	0.154672	0.373855	0.372584	0.201930	0.172616	0.430312	0.355792	0.072785	0.105488	0.190237	0.317427	0.172850	0.187184	0.671281	0.522747	0.391718	0.276135	0.412104	0.466782	0.331772	0.295071	0.341415	0.373422	0.459346	0.356105	0.198169	0.368314	0.209111	0.204026	0.545989	0.415145	0.374850	0.325272	0.334067	0.177838	0.248425	0.213150	0.445889	0.314224	0.119787	0.120984	0.242069	0.220188	0.142052	0.118818	0.679130	0.248752	0.302575	0.233054	0.681851	0.349098	0.469347	0.406817	0.620225	0.382698	0.248977	0.236506	0.407869	0.204222	0.102684	0.126406	0.677342	0.274383
16	0.302055	0.185749	0.688092	0.437799	0.440744	0.383035	0.416394	0.588471	0.322024	0.203761	0.342305	0.199404	0.445711	0.365415	0.605491	0.537504	0.143020	0.150657	0.373863	0.368000	0.147548	0.137745	0.451548	0.354576	0.071538	0.110143	0.167876	0.287198	0.153818	0.188014	0.678149	0.540927	0.342884	0.225434	0.403734	0.451411	0.331401	0.298969	0.351071	0.366143	0.457450	0.354055	0.202147	0.378416	0.178756	0.188393	0.552020	0.357894	0.373239	0.322155	0.325913	0.175842	0.248765	0.213894	0.443121	0.311225	0.106651	0.113581	0.267637	0.216709	0.143192	0.123000	0.694347	0.250210	0.302266	0.235114	0.685733	0.321075	0.475224	0.408490	0.582617	0.392534	0.249942	0.243831	0.461339	0.204620	0.078984	0.127283	0.659734	0.279670
17	0.238708	0.162671	0.689971	0.424479	0.445256	0.396808	0.438892	0.717818	0.323262	0.206936	0.370930	0.214832	0.447184	0.357703	0.605542	0.497516	0.138447	0.145167	0.371737	0.367187	0.131490	0.129194	0.414579	0.348474	0.070009	0.106742	0.140521	0.224862	0.124314	0.183980	0.660864	0.582153	0.322590	0.212538	0.403074	0.402258	0.298378	0.306926	0.330390	0.359379	0.458038	0.353179	0.204881	0.391378	0.168388	0.192065	0.552813	0.303274	0.373401	0.320303	0.318541	0.174558	0.238807	0.213767	0.440809	0.302329	0.133572	0.177074	0.545550	0.215056	0.139777	0.119585	0.700844	0.245046	0.295540	0.235317	0.686649	0.279836	0.471447	0.403034	0.545163	0.407268	0.252269	0.254653	0.486831	0.204591	0.083147	0.127311	0.670462	0.281228
18	0.137526	0.149173	0.640077	0.401619	0.446424	0.406224	0.459003	0.776854	0.323936	0.211615	0.448921	0.214780	0.466828	0.357182	0.601733	0.483641	0.138851	0.145182	0.365350	0.367214	0.122773	0.120628	0.335465	0.330171	0.065650	0.102679	0.109964	0.196376	0.109123	0.190397	0.624729	0.626976	0.309498	0.205685	0.404670	0.383568	0.268019	0.263421	0.304122	0.376728	0.458367	0.352671	0.204647	0.398864	0.185417	0.213804	0.547635	0.274528	0.371912	0.311649	0.315032	0.165626	0.223534	0.213090	0.434856	0.286344	0.177194	0.294963	0.566468	0.209509	0.119809	0.107021	0.705476	0.242227	0.293251	0.235370	0.686124	0.238862	0.464408	0.385616	0.534716	0.419845	0.241364	0.250294	0.505750	0.202715	0.090783	0.127097	0.719781	0.282247
19	0.139299	0.149990	0.617187	0.396978	0.445890	0.412399	0.475280	0.780533	0.324650	0.224794	0.469319	0.216500	0.490210	0.357198	0.594974	0.483580	0.162891	0.170216	0.365430	0.341056	0.115695	0.109188	0.283424	0.317931	0.054584	0.101580	0.114166	0.182642	0.106629	0.195689	0.624298	0.663002	0.308758	0.204237	0.407856	0.373078	0.208055	0.230468	0.304202	0.427644	0.459897	0.351599	0.192945	0.396236	0.192951	0.227015	0.550299	0.279426	0.365681	0.296037	0.295613	0.161339	0.221869	0.200955	0.447632	0.271688	0.219402	0.386107	0.551012	0.184017	0.112539	0.101616	0.706054	0.226923	0.289615	0.233659	0.674430	0.212912	0.455902	0.369474	0.552491	0.423279	0.220035	0.239067	0.526660	0.202202	0.091666	0.125270	0.806819	0.282448
20	0.138377	0.152510	0.622085	0.338076	0.445478	0.420333	0.475956	0.790368	0.324091	0.238426	0.450938	0.224352	0.496480	0.345491	0.625669	0.488428	0.182081	0.215069	0.352412	0.279525	0.113003	0.109109	0.305806	0.303772	0.056037	0.122473	0.299871	0.159269	0.107308	0.192793	0.639328	0.682292	0.313107	0.207458	0.369013	0.324556	0.214919	0.244044	0.317881	0.479550	0.458734	0.349010	0.187110	0.383809	0.196117	0.231558	0.550615	0.282673	0.360025	0.286357	0.293990	0.158588	0.189745	0.165621	0.518541	0.267791	0.294239	0.438921	0.526309	0.162637	0.107241	0.102141	0.659195	0.221376	0.282477	0.232577	0.602534	0.210303	0.432100	0.364551	0.589366	0.409942	0.205768	0.249236	0.532932	0.204523	0.092029	0.121650	0.871078	0.282554
21	0.139500	0.176786	0.622233	0.253951	0.445439	0.415908	0.506094	0.817703	0.321823	0.238924	0.443005	0.270613	0.434711	0.322581	0.660857	0.507108	0.191048	0.274438	0.318594	0.279508	0.109408	0.104772	0.309928	0.288834	0.065097	0.168331	0.452556	0.135089	0.112305	0.184745	0.662584	0.682287	0.349153	0.232368	0.455845	0.256669	0.208081	0.245418	0.309108	0.514590	0.462550	0.354049	0.187219	0.360337	0.195973	0.230916	0.550392	0.279636	0.343423	0.285703	0.293286	0.152973	0.166874	0.148067	0.581623	0.269373	0.352595	0.441817	0.524078	0.159669	0.098832	0.104189	0.585960	0.224644	0.283126	0.233504	0.538302	0.216931	0.426754	0.351901	0.679630	0.397928	0.213775	0.283074	0.532481	0.217931	0.093670	0.117865	0.884556	0.283130
22	0.140286	0.178440	0.574140	0.246323	0.437302	0.405916	0.530558	0.838698	0.304194	0.222955	0.436206	0.326122	0.422179	0.320213	0.675046	0.530525	0.179576	0.311104	0.264817	0.264738	0.108748	0.103928	0.310389	0.279487	0.107418	0.217941	0.455219	0.126872	0.116493	0.180013	0.682743	0.668098	0.344334	0.242851	0.511245	0.198290	0.208814	0.246379	0.308493	0.532968	0.473424	0.371076	0.186915	0.340984	0.195597	0.230293	0.542746	0.273311	0.334915	0.264454	0.298282	0.144903	0.166637	0.149678	0.584678	0.260468	0.370352	0.456184	0.526530	0.169618	0.098580	0.104555	0.491687	0.231375	0.281423	0.234532	0.526139	0.201672	0.410625	0.328116	0.690297	0.384652	0.213503	0.310251	0.542835	0.223700	0.094859	0.114796	0.883040	0.288439
23	0.115663	0.155385	0.424041	0.235125	0.437976	0.409938	0.550219	0.851808	0.262814	0.206219	0.442030	0.347853	0.423933	0.292742	0.679247	0.541532	0.222675	0.317656	0.235975	0.269447	0.109069	0.105971	0.313501	0.276818	0.119720	0.246580	0.461330	0.127848	0.115563	0.174959	0.696291	0.657152	0.340813	0.245900	0.513723	0.178144	0.209267	0.247945	0.347524	0.531825	0.477171	0.396800	0.187410	0.330314	0.195732	0.230540	0.522524	0.268875	0.224226	0.162423	0.302276	0.148150	0.166519	0.148574	0.569217	0.245655	0.371494	0.498991	0.532423	0.259242	0.105253	0.104968	0.408272	0.233329	0.270616	0.233335	0.525881	0.177617	0.405395	0.312032	0.631792	0.361981	0.218067	0.314177	0.572745	0.210012	0.096090	0.114232	0.877987	0.295401
24	0.109392	0.153640	0.328576	0.234164	0.440929	0.399639	0.649318	0.857947	0.225893	0.189554	0.457013	0.342649	0.405647	0.253233	0.686828	0.525999	0.226743	0.382194	0.191981	0.329307	0.106733	0.104323	0.311992	0.276921	0.133784	0.283380	0.464893	0.186664	0.109402	0.169277	0.708888	0.652629	0.339574	0.244982	0.539068	0.177786	0.200060	0.247996	0.376576	0.529483	0.484088	0.424352	0.183226	0.325547	0.195726	0.230698	0.512462	0.266069	0.103709	0.098464	0.290461	0.153131	0.167011	0.145524	0.531337	0.229495	0.377654	0.546744	0.554162	0.300913	0.119694	0.136799	0.376694	0.225323	0.252308	0.231075	0.524099	0.178917	0.400118	0.298093	0.572227	0.336918	0.214420	0.315570	0.589356	0.194806	0.095835	0.111498	0.855681	0.288370
25	0.112171	0.152791	0.335040	0.237009	0.371402	0.326841	0.717261	0.855963	0.208213	0.173383	0.463201	0.330186	0.382767	0.223190	0.687875	0.505167	0.267812	0.463400	0.190217	0.338005	0.088176	0.107490	0.326396	0.273251	0.149754	0.292284	0.465784	0.239321	0.100013	0.164765	0.722992	0.652986	0.325818	0.224761	0.579015	0.194646	0.195532	0.245276	0.389526	0.529451	0.513108	0.440232	0.168388	0.325305	0.195909	0.231382	0.518272	0.270024	0.094167	0.097331	0.260167	0.133808	0.173304	0.146112	0.496689	0.213215	0.390002	0.596309	0.587809	0.303845	0.148539	0.249558	0.377836	0.224194	0.234940	0.230658	0.519137	0.179853	0.387537	0.294704	0.557990	0.333440	0.167589	0.305359	0.602458	0.201230	0.094867	0.105479	0.817990	0.262213
26	0.126327	0.198382	0.402716	0.215955	0.289380	0.296397	0.732140	0.838460	0.169016	0.172094	0.468806	0.329097	0.381712	0.219663	0.656353	0.510995	0.275640	0.476068	0.204871	0.376314	0.074632	0.113516	0.341201	0.246648	0.188224	0.313370	0.468048	0.243632	0.098874	0.166213	0.783684	0.652855	0.298811	0.201110	0.595698	0.252741	0.187968	0.241677	0.390613	0.529533	0.510238	0.445883	0.158134	0.326545	0.196337	0.232047	0.509595	0.278576	0.092126	0.110371	0.268211	0.121290	0.180986	0.151347	0.470919	0.194203	0.391095	0.600705	0.590775	0.316836	0.168679	0.360709	0.382955	0.217734	0.231034	0.213615	0.469566	0.166839	0.346054	0.245630	0.570630	0.328823	0.164466	0.334882	0.590528	0.203231	0.092684	0.112430	0.786379	0.245900
27	0.142449	0.237914	0.469510	0.170730	0.283985	0.285780	0.735416	0.817525	0.123560	0.174060	0.489217	0.328785	0.381736	0.215045	0.589337	0.522087	0.273164	0.476234	0.214905	0.459198	0.075936	0.108458	0.348319	0.182508	0.243566	0.371796	0.489969	0.252446	0.097942	0.169086	0.860668	0.647171	0.278471	0.211894	0.603569	0.320254	0.182378	0.221629	0.380392	0.528018	0.511522	0.445921	0.159868	0.321329	0.191817	0.226568	0.477651	0.288579	0.095086	0.111116	0.323689	0.128680	0.190678	0.166041	0.462498	0.175030	0.393528	0.605502	0.590518	0.322482	0.168329	0.405954	0.373636	0.207588	0.166465	0.145419	0.335655	0.155950	0.213033	0.155914	0.582179	0.289187	0.162948	0.375167	0.586377	0.196970	0.095643	0.129355	0.760987	0.243345
28	0.161521	0.252735	0.485647	0.151859	0.252901	0.258159	0.731104	0.799800	0.116224	0.177638	0.497937	0.326849	0.381706	0.210574	0.481322	0.491255	0.276154	0.484672	0.266722	0.528952	0.088010	0.112468	0.353536	0.143757	0.264084	0.408270	0.556484	0.292928	0.098768	0.169267	0.859707	0.618959	0.256811	0.301169	0.616439	0.347034	0.182183	0.172262	0.352563	0.508467	0.502485	0.431611	0.191396	0.300107	0.178336	0.211006	0.419384	0.298936	0.094786	0.110563	0.339651	0.142621	0.196401	0.173137	0.463339	0.162914	0.404547	0.610313	0.379297	0.323077	0.213668	0.427728	0.371355	0.252580	0.107463	0.123404	0.261665	0.153735	0.133026	0.145150	0.593596	0.251005	0.195922	0.403677	0.583120	0.191530	0.094913	0.130042	0.737556	0.242567
29	0.162717	0.265895	0.499307	0.167398	0.231637	0.247374	0.720029	0.787920	0.128207	0.190284	0.484609	0.321234	0.372836	0.209249	0.407345	0.420940	0.286055	0.522764	0.305346	0.550016	0.122317	0.161377	0.354554	0.153041	0.278102	0.409592	0.612045	0.311355	0.108840	0.188317	0.808252	0.566796	0.291317	0.391707	0.617354	0.350412	0.178796	0.157090	0.332614	0.463980	0.446994	0.394693	0.252620	0.256138	0.161038	0.220046	0.368078	0.308187	0.093675	0.110685	0.348300	0.145413	0.178322	0.163254	0.463396	0.161369	0.412647	0.598178	0.347498	0.326377	0.263430	0.475828	0.355355	0.307550	0.099899	0.118214	0.293990	0.153254	0.138144	0.186951	0.604207	0.239813	0.203255	0.416238	0.586163	0.220761	0.086265	0.124106	0.708385	0.242459
30	0.167886	0.288643	0.509278	0.168625	0.220049	0.241264	0.709492	0.782175	0.130646	0.202318	0.429964	0.316978	0.373057	0.214794	0.386235	0.391474	0.279022	0.515093	0.311804	0.551163	0.172408	0.270651	0.338362	0.150184	0.283797	0.414604	0.627510	0.321933	0.142964	0.257306	0.751846	0.543371	0.301861	0.425282	0.619815	0.350922	0.168984	0.155759	0.322987	0.435454	0.417790	0.385165	0.281490	0.219007	0.166973	0.270409	0.345389	0.302967	0.093991	0.110317	0.348295	0.141572	0.135433	0.145749	0.465312	0.151629	0.403221	0.559762	0.357417	0.349310	0.287564	0.496904	0.317832	0.329136	0.077757	0.101833	0.290774	0.155866	0.133405	0.199683	0.607260	0.232825	0.203591	0.421310	0.573718	0.266396	0.083845	0.118631	0.681765	0.240688
31	0.165506	0.290024	0.577279	0.220877	0.214385	0.232017	0.699565	0.781553	0.136128	0.228217	0.385810	0.315658	0.377230	0.220076	0.385370	0.394357	0.288823	0.501845	0.320711	0.549887	0.191268	0.353870	0.298195	0.135268	0.289937	0.419808	0.627834	0.324433	0.167424	0.315420	0.723170	0.542153	0.295847	0.428403	0.663070	0.359651	0.165757	0.172397	0.321546	0.425801	0.424182	0.432185	0.283753	0.213475	0.183323	0.304481	0.352620	0.275934	0.093954	0.110066	0.345347	0.140851	0.126378	0.149844	0.464216	0.148970	0.336969	0.505087	0.475141	0.385472	0.309909	0.515413	0.293013	0.327361	0.076429	0.093799	0.261888	0.155469	0.121509	0.198043	0.606654	0.230786	0.206675	0.421874	0.646061	0.301971	0.078356	0.113269	0.670397	0.229034
32	0.164577	0.274574	0.610789	0.290873	0.213411	0.227431	0.693469	0.784284	0.133598	0.226005	0.383194	0.317677	0.364638	0.226325	0.382655	0.390065	0.303330	0.473371	0.352990	0.543386	0.203133	0.362625	0.262233	0.134458	0.303427	0.453829	0.578106	0.327348	0.167955	0.341910	0.707311	0.533469	0.284280	0.427079	0.633509	0.368888	0.171870	0.205615	0.313943	0.428936	0.438498	0.496060	0.281202	0.236217	0.191394	0.329479	0.356970	0.267045	0.087707	0.107693	0.342365	0.141687	0.132954	0.147470	0.464067	0.167605	0.307875	0.501939	0.533623	0.427370	0.310577	0.514773	0.276848	0.350336	0.078111	0.088104	0.251367	0.162554	0.093825	0.196051	0.605962	0.232487	0.211306	0.415647	0.739194	0.326403	0.075098	0.110291	0.671190	0.206500
33	0.193003	0.283084	0.606228	0.308857	0.215123	0.228401	0.693772	0.770135	0.130627	0.213797	0.367220	0.291630	0.316718	0.236591	0.383301	0.390788	0.309305	0.452633	0.356142	0.532848	0.249437	0.420052	0.257854	0.133822	0.301405	0.448681	0.452168	0.332562	0.167033	0.344078	0.705548	0.502272	0.278469	0.469704	0.522356	0.405638	0.162692	0.215030	0.301264	0.432142	0.452949	0.555126	0.301369	0.290625	0.203722	0.346695	0.334988	0.270685	0.078560	0.104828	0.337116	0.146011	0.150614	0.163394	0.463961	0.186224	0.299680	0.512999	0.532236	0.446543	0.312350	0.517342	0.276101	0.379814	0.086119	0.084145	0.261389	0.163795	0.090449	0.199895	0.604419	0.218726	0.217268	0.412213	0.788850	0.339556	0.075391	0.113213	0.668220	0.174019
34	0.220554	0.304582	0.604464	0.310866	0.212136	0.228084	0.681843	0.684915	0.165592	0.241171	0.341871	0.218987	0.262315	0.259584	0.387109	0.390464	0.283101	0.453360	0.348360	0.492194	0.279591	0.459591	0.259172	0.126552	0.296546	0.426414	0.460851	0.332660	0.173189	0.343095	0.720020	0.443869	0.347527	0.629329	0.485593	0.446926	0.152514	0.215263	0.300847	0.420124	0.468330	0.600240	0.322140	0.311542	0.225049	0.395722	0.311679	0.270754	0.097719	0.135853	0.336550	0.146316	0.174257	0.192096	0.465174	0.192957	0.339276	0.507090	0.526533	0.407401	0.312806	0.527058	0.277735	0.386527	0.089970	0.082976	0.278514	0.163341	0.095177	0.204316	0.602378	0.191704	0.217786	0.404637	0.797222	0.345240	0.077583	0.119013	0.657255	0.154157
35	0.230355	0.316345	0.616049	0.311004	0.201113	0.204304	0.662063	0.544826	0.198560	0.307526	0.331649	0.168135	0.224646	0.244593	0.344595	0.388450	0.286370	0.393884	0.340304	0.446416	0.284391	0.460137	0.243504	0.106340	0.292927	0.409467	0.458883	0.336517	0.175063	0.338570	0.726342	0.369386	0.357584	0.671395	0.485834	0.492553	0.153503	0.231784	0.306222	0.381331	0.476774	0.618439	0.349573	0.295351	0.212334	0.393376	0.312605	0.275847	0.129010	0.193156	0.338448	0.142210	0.181321	0.201754	0.465288	0.191766	0.363952	0.494264	0.521702	0.352997	0.315325	0.533673	0.275325	0.393072	0.087261	0.082261	0.300548	0.166982	0.099959	0.214364	0.647016	0.176272	0.214657	0.387866	0.796103	0.341724	0.079742	0.131459	0.640396	0.145290
36	0.230196	0.319219	0.628957	0.305706	0.189195	0.182612	0.643015	0.442809	0.200203	0.320377	0.319914	0.158568	0.197894	0.232126	0.265491	0.371446	0.249189	0.330994	0.326292	0.467560	0.286382	0.457456	0.213787	0.099627	0.287899	0.385956	0.477280	0.328733	0.173718	0.335911	0.718617	0.289560	0.354842	0.676584	0.463282	0.524722	0.153156	0.246110	0.324587	0.310857	0.480466	0.625092	0.383922	0.302496	0.206621	0.392829	0.326988	0.273703	0.154821	0.264335	0.339040	0.174717	0.181613	0.210694	0.464942	0.188874	0.363076	0.447845	0.502802	0.348995	0.316848	0.537384	0.279183	0.394102	0.087185	0.085893	0.319362	0.155248	0.113131	0.246216	0.675096	0.173800	0.210538	0.365455	0.794006	0.333979	0.072371	0.147264	0.613736	0.140905
37	0.219805	0.289584	0.581290	0.324681	0.178598	0.167673	0.633633	0.428750	0.198749	0.324029	0.302164	0.168838	0.176487	0.230876	0.210438	0.324259	0.255795	0.325841	0.331030	0.442762	0.286978	0.460794	0.213528	0.098248	0.283073	0.380984	0.485083	0.303924	0.175655	0.334020	0.694955	0.219270	0.354347	0.677751	0.434910	0.517813	0.159287	0.253551	0.334036	0.239376	0.481214	0.628106	0.409205	0.317256	0.204805	0.392884	0.339999	0.264604	0.161585	0.308900	0.330532	0.282468	0.185476	0.230171	0.460727	0.188811	0.412415	0.441231	0.516592	0.366594	0.317402	0.540210	0.338271	0.391359	0.090191	0.093217	0.325651	0.152685	0.117741	0.268878	0.607032	0.170381	0.215051	0.354204	0.778381	0.329120	0.070294	0.150517	0.542618	0.138464
38	0.210171	0.276555	0.512765	0.442507	0.170909	0.172464	0.623331	0.415510	0.197613	0.326389	0.303616	0.183175	0.193680	0.236276	0.198506	0.278563	0.300245	0.375447	0.392035	0.370677	0.286672	0.464123	0.215580	0.098272	0.261147	0.368214	0.502526	0.301965	0.176505	0.343146	0.669804	0.176057	0.354835	0.676147	0.418690	0.517304	0.164084	0.262602	0.340105	0.177976	0.482569	0.628964	0.417704	0.325184	0.204944	0.399110	0.345881	0.254516	0.165350	0.309761	0.311602	0.317551	0.186137	0.242440	0.383525	0.191077	0.420744	0.438456	0.518747	0.414626	0.316512	0.543315	0.409730	0.387544	0.087812	0.090898	0.335982	0.163194	0.119217	0.279262	0.569922	0.167698	0.214025	0.360294	0.753190	0.328020	0.077569	0.150683	0.393926	0.138197
39	0.202257	0.303704	0.511451	0.524898	0.186914	0.236144	0.594223	0.354621	0.201451	0.331586	0.280023	0.188000	0.197665	0.254896	0.185408	0.276107	0.316689	0.373225	0.450289	0.293973	0.286657	0.468221	0.218408	0.096633	0.214624	0.314646	0.528477	0.294662	0.177584	0.367828	0.647732	0.168367	0.354628	0.665056	0.427427	0.503075	0.163010	0.263990	0.338737	0.163254	0.470403	0.619539	0.419334	0.339800	0.205789	0.411114	0.345333	0.252711	0.173745	0.312485	0.273353	0.314013	0.185990	0.244655	0.264102	0.198356	0.416722	0.437671	0.525225	0.507172	0.313877	0.544109	0.417515	0.389051	0.084473	0.088666	0.378135	0.170440	0.119836	0.280931	0.573054	0.167542	0.224247	0.362521	0.715437	0.327995	0.075729	0.159884	0.250851	0.137834
40	0.216270	0.307862	0.617726	0.532008	0.188929	0.279248	0.562558	0.292088	0.219404	0.368290	0.256356	0.217163	0.197998	0.256100	0.145520	0.274765	0.317853	0.344637	0.529350	0.279150	0.287612	0.472055	0.241472	0.103704	0.184661	0.251670	0.485233	0.281179	0.186308	0.397903	0.632756	0.166886	0.326284	0.625159	0.437808	0.492921	0.162746	0.264318	0.336333	0.163156	0.452849	0.601092	0.422840	0.369510	0.205872	0.416856	0.338734	0.255002	0.188744	0.322499	0.304581	0.310845	0.185942	0.243743	0.253074	0.212473	0.386659	0.401614	0.512886	0.552805	0.306176	0.527723	0.416526	0.397098	0.083021	0.087476	0.417445	0.173540	0.119994	0.281159	0.564246	0.169377	0.207634	0.364506	0.680579	0.319638	0.074215	0.178450	0.233770	0.133624
41	0.313646	0.417699	0.763486	0.534315	0.191590	0.277583	0.554948	0.254857	0.223791	0.395643	0.285679	0.220394	0.200585	0.256547	0.150507	0.244256	0.305906	0.341550	0.537078	0.281213	0.288207	0.469917	0.251816	0.111017	0.171171	0.249569	0.412375	0.322203	0.194013	0.414681	0.618219	0.162841	0.291478	0.583608	0.462321	0.530120	0.160074	0.264239	0.347948	0.162835	0.441152	0.577838	0.428572	0.382968	0.206035	0.417489	0.324282	0.255172	0.216388	0.347880	0.504948	0.310033	0.185579	0.245405	0.249475	0.227232	0.377879	0.372743	0.512068	0.546288	0.292811	0.474101	0.421383	0.403277	0.083554	0.088932	0.443480	0.178818	0.117824	0.282134	0.540905	0.172103	0.207452	0.324966	0.670056	0.309699	0.074017	0.192728	0.233700	0.121598
42	0.325365	0.434128	0.747295	0.516891	0.231466	0.320994	0.466003	0.241173	0.222078	0.389702	0.359720	0.228517	0.213277	0.263388	0.193832	0.220766	0.290976	0.334596	0.523651	0.296540	0.288070	0.469893	0.254308	0.119522	0.177970	0.242449	0.386672	0.387068	0.196777	0.421433	0.595604	0.166850	0.285675	0.567234	0.490987	0.596274	0.160107	0.264761	0.367776	0.164559	0.394744	0.556992	0.435269	0.385899	0.205590	0.417148	0.314963	0.246048	0.233048	0.386906	0.601520	0.319521	0.184967	0.246562	0.224276	0.238870	0.380455	0.373645	0.433067	0.553113	0.284663	0.395206	0.441362	0.404102	0.083707	0.087622	0.454104	0.180128	0.113720	0.282298	0.515024	0.173248	0.198546	0.276946	0.666942	0.317318	0.093436	0.193095	0.221991	0.132444
43	0.323621	0.434927	0.723823	0.511001	0.263525	0.366508	0.352171	0.219273	0.252193	0.402516	0.445991	0.234501	0.214566	0.267600	0.227556	0.219805	0.278850	0.330322	0.526010	0.327554	0.287644	0.472561	0.254403	0.120742	0.181410	0.244565	0.411285	0.428553	0.199026	0.425441	0.552774	0.185276	0.304221	0.570212	0.437209	0.685452	0.159482	0.263555	0.394599	0.165841	0.352616	0.544171	0.449364	0.387820	0.205067	0.416868	0.307238	0.234353	0.271107	0.463186	0.642833	0.326962	0.179536	0.245720	0.199219	0.243078	0.379364	0.375522	0.335655	0.585807	0.282767	0.373447	0.446395	0.390830	0.082730	0.082561	0.457737	0.181477	0.113229	0.285649	0.501290	0.173412	0.170865	0.239675	0.669150	0.363241	0.142440	0.228278	0.205595	0.172819
44	0.306322	0.423477	0.726894	0.519476	0.271692	0.384883	0.297952	0.200764	0.272109	0.413454	0.491994	0.249806	0.204391	0.265372	0.242220	0.225477	0.271990	0.331232	0.534134	0.362827	0.282923	0.471994	0.250469	0.112186	0.158005	0.165646	0.513178	0.434073	0.199139	0.424261	0.403580	0.206827	0.314726	0.569866	0.447482	0.764646	0.159100	0.263167	0.402375	0.180053	0.359480	0.547379	0.466569	0.388247	0.205891	0.416806	0.311243	0.220939	0.278819	0.483033	0.679073	0.330391	0.172241	0.242397	0.180658	0.243697	0.365767	0.360896	0.388559	0.586740	0.236023	0.323479	0.447539	0.349551	0.082707	0.072155	0.452830	0.213506	0.108018	0.278097	0.484900	0.172836	0.190522	0.246202	0.678416	0.438499	0.205450	0.313047	0.201341	0.268375
45	0.290298	0.408093	0.720128	0.521466	0.270972	0.387290	0.286004	0.196800	0.287295	0.420113	0.496475	0.252314	0.194560	0.266142	0.243510	0.223129	0.262308	0.336230	0.538254	0.381454	0.271747	0.447286	0.248217	0.094599	0.162233	0.133545	0.599875	0.436441	0.199174	0.423854	0.327214	0.218571	0.282020	0.497731	0.449426	0.787927	0.159029	0.263851	0.400935	0.199821	0.363702	0.555042	0.486802	0.388005	0.209034	0.415369	0.331448	0.215364	0.279536	0.483003	0.682013	0.338013	0.162845	0.235941	0.174932	0.245068	0.330678	0.317907	0.485040	0.581273	0.188782	0.266867	0.453063	0.306631	0.085383	0.065321	0.449153	0.260567	0.096009	0.251148	0.471691	0.171700	0.274150	0.294805	0.670455	0.560160	0.228029	0.344094	0.200617	0.354132
46	0.283894	0.401762	0.709615	0.528602	0.264595	0.386733	0.286955	0.197062	0.291522	0.431543	0.504487	0.257653	0.212262	0.289756	0.248524	0.228189	0.253409	0.317921	0.540450	0.383676	0.261302	0.381256	0.298427	0.090928	0.192063	0.162823	0.621896	0.473827	0.197958	0.423791	0.328560	0.203373	0.205497	0.286806	0.452093	0.774288	0.158957	0.263870	0.402383	0.206127	0.364814	0.561338	0.497102	0.388766	0.207314	0.394794	0.369436	0.235723	0.281962	0.481481	0.693102	0.367607	0.156596	0.235566	0.177451	0.245258	0.297265	0.276831	0.520799	0.590498	0.138603	0.221922	0.455842	0.294293	0.084199	0.064138	0.456639	0.343138	0.096817	0.234659	0.467588	0.172652	0.393389	0.350717	0.593200	0.690998	0.231891	0.352939	0.202133	0.403963
47	0.288237	0.404248	0.698092	0.564318	0.262752	0.387061	0.287138	0.196677	0.260727	0.392830	0.543508	0.282480	0.236728	0.325589	0.252651	0.235102	0.259799	0.311572	0.544986	0.354155	0.274706	0.329973	0.478494	0.091977	0.236472	0.196608	0.640565	0.508209	0.190399	0.407233	0.334499	0.189167	0.200199	0.218429	0.445707	0.744781	0.157895	0.258254	0.412662	0.205323	0.361535	0.565566	0.480212	0.387390	0.186687	0.353311	0.397267	0.256225	0.281301	0.478036	0.713354	0.413039	0.151434	0.230596	0.179106	0.249406	0.273527	0.210999	0.520088	0.596094	0.110845	0.198862	0.445114	0.286943	0.081474	0.064235	0.463963	0.407391	0.098112	0.229238	0.465381	0.162851	0.420067	0.374162	0.615864	0.799457	0.234546	0.370413	0.226642	0.422434
48	0.294158	0.411906	0.700537	0.586758	0.262135	0.386895	0.289807	0.196746	0.265404	0.373116	0.555302	0.333726	0.271111	0.335220	0.251594	0.234403	0.242257	0.304355	0.530700	0.330601	0.258216	0.313808	0.586310	0.090252	0.245824	0.199117	0.693854	0.520247	0.168138	0.363745	0.348511	0.200983	0.207447	0.214778	0.425673	0.729475	0.151179	0.232981	0.430454	0.208296	0.342816	0.549254	0.471294	0.384917	0.169309	0.322796	0.431656	0.259394	0.286597	0.480571	0.717623	0.440245	0.150112	0.227322	0.178782	0.261959	0.212323	0.216220	0.508130	0.585202	0.124919	0.214861	0.434275	0.244518	0.097149	0.080522	0.488527	0.444549	0.096335	0.228269	0.465681	0.131475	0.422151	0.377343	0.675734	0.823960	0.234834	0.386122	0.252119	0.424534
49	0.303849	0.405405	0.709016	0.531669	0.260942	0.386935	0.302048	0.198651	0.286562	0.379091	0.578158	0.372943	0.300579	0.321940	0.243422	0.234633	0.184761	0.231435	0.473875	0.311041	0.215323	0.214514	0.619355	0.089756	0.247787	0.198466	0.726190	0.522882	0.159319	0.320789	0.340277	0.224394	0.217242	0.221207	0.405235	0.729154	0.146839	0.202862	0.449964	0.207321	0.317623	0.501264	0.469822	0.378703	0.161938	0.303333	0.458086	0.262243	0.285890	0.470175	0.726480	0.417949	0.149982	0.222988	0.195850	0.269331	0.191870	0.227981	0.589919	0.555020	0.143034	0.224602	0.423002	0.199943	0.116162	0.110439	0.506510	0.494769	0.096225	0.226621	0.467667	0.123444	0.429241	0.378028	0.711265	0.831213	0.235776	0.390281	0.269949	0.426450
50	0.303460	0.379631	0.709691	0.469155	0.259116	0.387023	0.303817	0.199103	0.293197	0.378787	0.604328	0.373287	0.343523	0.453645	0.241782	0.232612	0.149947	0.207515	0.394296	0.305298	0.185134	0.161554	0.624768	0.093754	0.251304	0.197569	0.721309	0.533870	0.163452	0.309559	0.317440	0.256390	0.220054	0.222490	0.397656	0.703900	0.147853	0.200674	0.461487	0.207145	0.307862	0.448482	0.462839	0.346793	0.132435	0.267068	0.457140	0.293544	0.286718	0.456532	0.737949	0.358687	0.145041	0.222336	0.227846	0.263422	0.208147	0.233511	0.713734	0.486450	0.149165	0.210060	0.417734	0.188336	0.121488	0.127591	0.538183	0.564551	0.115596	0.230765	0.465425	0.131351	0.433411	0.380336	0.735985	0.886497	0.236586	0.390796	0.300567	0.437975
51	0.289493	0.371891	0.608593	0.459460	0.257504	0.387415	0.301110	0.202953	0.297363	0.384311	0.605050	0.379623	0.486553	0.553794	0.247242	0.224526	0.139307	0.195200	0.316609	0.335086	0.182850	0.162086	0.624862	0.101672	0.257441	0.204769	0.691756	0.540861	0.166873	0.324131	0.285336	0.299880	0.222486	0.219028	0.368918	0.698401	0.137836	0.188393	0.459821	0.211692	0.284782	0.380385	0.461260	0.292383	0.077656	0.184035	0.451971	0.337237	0.281004	0.454254	0.755968	0.370232	0.126030	0.209895	0.246449	0.262575	0.210573	0.230511	0.766474	0.421518	0.144615	0.197586	0.417610	0.192468	0.140122	0.147216	0.584847	0.594387	0.161678	0.239000	0.399683	0.202881	0.431871	0.391850	0.738655	0.974693	0.236556	0.391103	0.370804	0.453671
52	0.171807	0.220984	0.394041	0.456492	0.254595	0.386469	0.298824	0.213963	0.287270	0.369355	0.605291	0.386972	0.513108	0.569287	0.248429	0.217516	0.139636	0.196014	0.345747	0.365139	0.182001	0.163068	0.624090	0.111967	0.256443	0.206068	0.688961	0.539618	0.159132	0.326205	0.276703	0.330846	0.223302	0.191138	0.338214	0.699555	0.112085	0.144123	0.437375	0.220109	0.266993	0.336279	0.475988	0.283065	0.077909	0.167556	0.441801	0.363352	0.281763	0.457150	0.767531	0.395550	0.088347	0.181752	0.244947	0.258283	0.213187	0.235917	0.773724	0.411103	0.141781	0.185390	0.409622	0.206380	0.153543	0.154105	0.597876	0.593853	0.177309	0.219123	0.308472	0.336579	0.431288	0.422588	0.750681	1.056184	0.239007	0.390536	0.452975	0.471164
53	0.156028	0.188291	0.328144	0.455611	0.251638	0.387148	0.306746	0.225506	0.269931	0.320137	0.598935	0.388909	0.504690	0.568814	0.262502	0.209012	0.134890	0.198069	0.424352	0.368335	0.183029	0.151059	0.625133	0.118761	0.252855	0.204125	0.696666	0.583961	0.156171	0.325751	0.302664	0.347297	0.220052	0.182944	0.339276	0.679984	0.092867	0.117509	0.439063	0.229174	0.255012	0.316973	0.454826	0.371694	0.078163	0.154053	0.448864	0.371683	0.264680	0.446366	0.707594	0.401041	0.086655	0.177084	0.248800	0.254564	0.223959	0.237843	0.775546	0.387893	0.142681	0.176860	0.357323	0.207855	0.152219	0.148040	0.597656	0.597658	0.177234	0.186685	0.355226	0.438320	0.472930	0.480080	0.798577	1.111178	0.254467	0.393414	0.499734	0.497935
54	0.158339	0.186422	0.345041	0.424633	0.251097	0.388767	0.343415	0.238405	0.270382	0.308335	0.561114	0.382425	0.504107	0.560933	0.285339	0.187742	0.179852	0.273850	0.453888	0.346471	0.193893	0.138948	0.629030	0.121199	0.240680	0.200662	0.731075	0.599875	0.156436	0.325600	0.330790	0.353305	0.218005	0.182471	0.336694	0.656840	0.084158	0.095251	0.461209	0.231028	0.270366	0.332794	0.475809	0.586923	0.076174	0.148760	0.455779	0.374875	0.246362	0.426198	0.566298	0.401719	0.128854	0.188210	0.278289	0.257194	0.234933	0.238098	0.797531	0.283069	0.147022	0.173448	0.329836	0.206637	0.155177	0.146885	0.596728	0.626963	0.198356	0.175973	0.399214	0.475330	0.519694	0.526229	0.847733	1.149352	0.270263	0.397971	0.507882	0.536662
55	0.158369	0.193747	0.376764	0.407087	0.256144	0.389962	0.373499	0.254859	0.251688	0.297529	0.496323	0.375040	0.504922	0.559614	0.290809	0.174915	0.210298	0.314988	0.457102	0.314395	0.198406	0.122844	0.626641	0.184223	0.234193	0.192217	0.724798	0.573781	0.164381	0.324859	0.341913	0.354709	0.189962	0.176974	0.363703	0.583059	0.094329	0.092329	0.444614	0.264972	0.345434	0.414620	0.529184	0.766695	0.075234	0.126593	0.456540	0.388316	0.241563	0.378501	0.488898	0.423256	0.138306	0.179391	0.341501	0.260552	0.227291	0.229203	0.794283	0.251062	0.152772	0.174424	0.361179	0.204687	0.158380	0.158549	0.592005	0.689838	0.228548	0.172679	0.408149	0.478346	0.533779	0.530367	0.861861	1.169685	0.278225	0.401331	0.507432	0.569915
56	0.159860	0.216654	0.446989	0.434770	0.255487	0.381918	0.391160	0.270773	0.235966	0.255464	0.426529	0.360481	0.505513	0.559261	0.312539	0.177091	0.215784	0.308415	0.514722	0.293015	0.203310	0.109620	0.613931	0.341497	0.246852	0.208179	0.722637	0.571429	0.176508	0.309406	0.339851	0.355308	0.186260	0.190749	0.353247	0.469819	0.105934	0.101607	0.434491	0.355787	0.401972	0.464873	0.572843	0.844169	0.073939	0.079765	0.456429	0.401110	0.208840	0.296118	0.437479	0.456583	0.138296	0.162420	0.437795	0.258410	0.221207	0.223596	0.748600	0.282205	0.156093	0.178795	0.392972	0.197122	0.190946	0.211692	0.584661	0.766765	0.233180	0.173184	0.426602	0.520269	0.559376	0.525868	0.866910	1.180761	0.281877	0.412189	0.507042	0.591262
57	0.171478	0.259505	0.553687	0.517641	0.240877	0.349812	0.401817	0.274749	0.237145	0.243339	0.410940	0.351807	0.504981	0.557391	0.372479	0.189504	0.211581	0.307020	0.682544	0.309246	0.211315	0.105099	0.602940	0.406607	0.260337	0.241350	0.812994	0.590582	0.188736	0.278771	0.336184	0.356662	0.201292	0.219280	0.333996	0.404547	0.106947	0.104697	0.446065	0.428015	0.426093	0.489048	0.623278	0.851062	0.075731	0.051549	0.456660	0.403876	0.215418	0.291002	0.479506	0.473819	0.169015	0.184940	0.543443	0.255896	0.218490	0.227231	0.710498	0.266418	0.162589	0.184345	0.392501	0.189952	0.232147	0.317522	0.565369	0.853711	0.247221	0.172827	0.468777	0.598906	0.580239	0.523454	0.869730	1.183069	0.287343	0.444044	0.507325	0.604076
58	0.188181	0.291872	0.583154	0.619224	0.241017	0.327329	0.402646	0.276691	0.235800	0.229933	0.430597	0.351361	0.505629	0.554700	0.398438	0.177987	0.202406	0.307562	0.786474	0.356778	0.215210	0.099484	0.601938	0.408350	0.237098	0.239524	0.867672	0.572576	0.188943	0.245032	0.338358	0.367706	0.214134	0.247343	0.370807	0.393168	0.106778	0.104919	0.481799	0.455492	0.436814	0.503224	0.687664	0.841858	0.082935	0.058003	0.461539	0.402628	0.242705	0.308960	0.582848	0.479629	0.201201	0.245972	0.627797	0.252638	0.218157	0.230819	0.693525	0.274016	0.165471	0.186277	0.379489	0.188626	0.275764	0.382492	0.563707	0.932589	0.247820	0.179696	0.487549	0.669032	0.604471	0.522794	0.876022	1.169629	0.292412	0.503426	0.503083	0.609941
59	0.205656	0.314216	0.591167	0.613734	0.236650	0.326815	0.402343	0.304252	0.241072	0.242292	0.400975	0.360159	0.507604	0.555302	0.405550	0.171291	0.198094	0.306691	0.799133	0.373659	0.220069	0.089769	0.608509	0.420738	0.192979	0.221502	0.856960	0.549227	0.186721	0.227766	0.343676	0.386892	0.222545	0.261383	0.426070	0.393386	0.115950	0.104364	0.540358	0.457291	0.444287	0.510080	0.840006	0.857947	0.089242	0.068969	0.480527	0.402541	0.238995	0.306591	0.615335	0.547699	0.214116	0.267914	0.661539	0.255306	0.210635	0.221797	0.696697	0.299388	0.164464	0.190602	0.377502	0.188466	0.330156	0.414106	0.594224	0.981345	0.249701	0.193986	0.487604	0.720685	0.614541	0.512496	0.864921	1.128359	0.293794	0.511186	0.496773	0.612696
60	0.196084	0.317658	0.663603	0.591677	0.189190	0.289974	0.410307	0.349687	0.239854	0.256422	0.381322	0.361712	0.507976	0.554126	0.408662	0.171332	0.202792	0.306807	0.800846	0.375319	0.226235	0.087524	0.657473	0.459588	0.190972	0.230414	0.803115	0.526351	0.186618	0.216114	0.343558	0.393572	0.227054	0.266288	0.430721	0.399531	0.144142	0.106437	0.605631	0.465547	0.443030	0.505230	0.949983	0.900752	0.089700	0.070879	0.520721	0.402007	0.235999	0.303551	0.598558	0.686468	0.214950	0.267120	0.667030	0.269862	0.204102	0.229083	0.768045	0.314640	0.180499	0.204797	0.381789	0.184500	0.407119	0.447955	0.627971	1.003125	0.262185	0.215397	0.496233	0.746664	0.568966	0.483128	0.852456	1.062568	0.293494	0.506724	0.500226	0.614327
61	0.197612	0.315884	0.800032	0.603811	0.135512	0.242540	0.485276	0.390429	0.224242	0.242035	0.363736	0.353730	0.500779	0.542070	0.413225	0.159643	0.212207	0.307937	0.794618	0.365780	0.215322	0.093480	0.748537	0.497112	0.198894	0.236004	0.790089	0.521767	0.193486	0.222215	0.341810	0.390241	0.224892	0.274312	0.432386	0.400318	0.158644	0.104510	0.632631	0.495429	0.455052	0.511478	0.959478	0.968188	0.101955	0.104263	0.534719	0.400093	0.237434	0.302740	0.625284	0.762988	0.216509	0.272293	0.666226	0.284750	0.178528	0.235616	0.829440	0.381734	0.187944	0.214638	0.380461	0.186371	0.496371	0.479864	0.643600	1.005921	0.272837	0.241316	0.502286	0.753022	0.510982	0.462530	0.808264	1.007641	0.286292	0.506484	0.509733	0.608000
62	0.210322	0.315230	0.929468	0.633700	0.125390	0.222991	0.588266	0.417438	0.235789	0.272616	0.313876	0.349924	0.491348	0.517206	0.411350	0.149138	0.215618	0.308344	0.783805	0.336171	0.200078	0.106886	0.765602	0.519260	0.206683	0.241060	0.842328	0.507448	0.208694	0.257422	0.342194	0.381787	0.221866	0.280314	0.455618	0.433885	0.169321	0.105836	0.634966	0.549968	0.467893	0.525880	0.948898	1.010631	0.119314	0.161621	0.514841	0.393466	0.245793	0.296662	0.700761	0.771887	0.218261	0.279589	0.672001	0.296832	0.176812	0.235987	0.793974	0.396549	0.210731	0.241352	0.380562	0.188096	0.621881	0.503828	0.639026	0.989301	0.275989	0.281508	0.510202	0.753061	0.544327	0.527865	0.687617	1.042519	0.261913	0.487701	0.515113	0.591959
63	0.230007	0.324025	0.938816	0.662247	0.123948	0.216836	0.656462	0.426828	0.255638	0.312607	0.297945	0.347751	0.481116	0.498593	0.431195	0.168868	0.217143	0.307880	0.768335	0.347097	0.178832	0.107898	0.685872	0.536670	0.198863	0.238565	0.906571	0.497050	0.215181	0.259551	0.341592	0.378354	0.219387	0.280005	0.470934	0.457204	0.170898	0.105095	0.655892	0.597714	0.471653	0.534751	0.942071	1.033590	0.117562	0.186462	0.479054	0.381725	0.271076	0.311278	0.888591	0.768872	0.217677	0.287376	0.685474	0.302174	0.182021	0.240131	0.779417	0.395244	0.234739	0.291953	0.400759	0.192480	0.671547	0.506327	0.648409	0.960885	0.275532	0.346851	0.524065	0.752728	0.589520	0.564902	0.578832	1.114300	0.217102	0.440399	0.514877	0.549559
64	0.227122	0.327640	0.934872	0.674730	0.126520	0.220181	0.698591	0.428124	0.257201	0.337540	0.301504	0.329720	0.469370	0.501040	0.453439	0.215519	0.208023	0.292484	0.718781	0.363508	0.177173	0.108879	0.654951	0.540015	0.197511	0.238130	0.925721	0.487668	0.215214	0.252789	0.339049	0.383268	0.222403	0.279529	0.477034	0.450614	0.171909	0.110803	0.678681	0.619125	0.470717	0.539147	0.959203	1.044676	0.115132	0.214871	0.447633	0.374005	0.272057	0.307984	0.965873	0.764025	0.215281	0.314939	0.690401	0.302225	0.188752	0.245075	0.784362	0.394669	0.237445	0.378599	0.410882	0.191407	0.671813	0.516159	0.654134	0.943810	0.275465	0.350985	0.535043	0.753583	0.620861	0.577336	0.535665	1.123987	0.198318	0.419426	0.518562	0.500873
65	0.238142	0.332778	0.930034	0.682217	0.129578	0.224399	0.711852	0.428218	0.265307	0.377692	0.299199	0.328339	0.473257	0.422809	0.475926	0.255576	0.151679	0.198632	0.702412	0.365543	0.178853	0.109839	0.656821	0.540373	0.214071	0.253536	0.916503	0.403688	0.212765	0.237208	0.322133	0.387024	0.224935	0.298497	0.453852	0.416861	0.173486	0.126395	0.679709	0.621237	0.465884	0.541362	1.003187	1.047012	0.115577	0.237306	0.407479	0.375629	0.272438	0.303756	0.965635	0.779149	0.214973	0.350653	0.693995	0.300451	0.164289	0.253119	0.783356	0.396111	0.234525	0.399912	0.419966	0.179749	0.749303	0.586770	0.650280	0.925544	0.275441	0.350870	0.542255	0.752098	0.642733	0.589488	0.512332	1.073554	0.193588	0.407442	0.522056	0.466909
66	0.252932	0.332284	0.960243	0.685517	0.130317	0.230543	0.713034	0.428792	0.268288	0.393628	0.299832	0.362219	0.360283	0.286551	0.507397	0.273019	0.113085	0.122101	0.690972	0.368505	0.182746	0.109530	0.654206	0.545826	0.236440	0.287691	0.890056	0.295091	0.218587	0.252231	0.301108	0.381029	0.258730	0.370790	0.419632	0.345807	0.184195	0.174471	0.675310	0.617075	0.460021	0.537295	1.047282	1.047521	0.117419	0.287474	0.382141	0.369218	0.272181	0.310290	1.000261	0.808638	0.215321	0.352332	0.697525	0.292674	0.311128	0.304865	0.786452	0.381993	0.238181	0.398677	0.439339	0.169208	0.893517	0.686942	0.639281	0.900452	0.270403	0.348510	0.547161	0.751235	0.653747	0.584234	0.508333	1.008337	0.190720	0.390551	0.516218	0.457224
67	0.250781	0.315664	0.962818	0.666155	0.132777	0.249647	0.708838	0.430627	0.267269	0.395435	0.291810	0.377329	0.409518	0.320992	0.556402	0.278913	0.116703	0.138194	0.641174	0.374038	0.180957	0.105567	0.669846	0.552196	0.234310	0.316698	0.892839	0.282620	0.217919	0.273120	0.299889	0.366261	0.288005	0.433016	0.477865	0.292626	0.203389	0.266520	0.673881	0.613984	0.454718	0.530052	1.084627	1.049241	0.117056	0.290840	0.386845	0.337174	0.271464	0.315442	1.039204	0.815552	0.215335	0.354053	0.697106	0.285840	0.353264	0.313735	0.971843	0.349725	0.277987	0.416100	0.459486	0.186072	0.921765	0.702913	0.610828	0.892147	0.246648	0.342716	0.551197	0.742116	0.654173	0.559019	0.485481	0.951033	0.190656	0.376428	0.510267	0.459867
68	0.241263	0.278169	0.921026	0.592703	0.133826	0.305551	0.707935	0.429282	0.259568	0.390190	0.323455	0.386630	0.477907	0.387241	0.592902	0.288251	0.130099	0.193633	0.472898	0.359224	0.177603	0.102515	0.700870	0.551959	0.252221	0.316624	0.879896	0.325888	0.213791	0.268887	0.297834	0.336761	0.418389	0.463351	0.512554	0.286540	0.211131	0.278404	0.673997	0.614049	0.450718	0.526531	1.102879	1.054686	0.116698	0.293089	0.390380	0.291110	0.258423	0.315985	1.075163	0.810662	0.215368	0.358298	0.690427	0.281562	0.354747	0.314768	1.095895	0.362155	0.324256	0.445585	0.465138	0.238814	0.927041	0.704009	0.600321	0.928801	0.223144	0.344321	0.548498	0.699917	0.612119	0.501755	0.391480	0.891534	0.188965	0.373100	0.506637	0.460603
69	0.219662	0.233783	0.912039	0.465115	0.137796	0.339161	0.707930	0.425559	0.238485	0.381472	0.333815	0.395300	0.506132	0.423069	0.593728	0.329976	0.130830	0.230479	0.355982	0.314869	0.175136	0.103234	0.713714	0.551374	0.395093	0.293314	0.763380	0.286483	0.214779	0.257072	0.291658	0.307576	0.429080	0.446818	0.511864	0.283577	0.210680	0.282253	0.667659	0.613132	0.451300	0.529581	1.094330	1.061474	0.115920	0.299228	0.388472	0.261541	0.251478	0.309104	1.081240	0.793627	0.215398	0.362973	0.685655	0.269053	0.355993	0.310422	1.158004	0.373765	0.328030	0.475557	0.447281	0.306854	0.933306	0.708707	0.596199	0.989168	0.222667	0.352849	0.501816	0.638222	0.580674	0.459180	0.296031	0.854928	0.188240	0.372506	0.489017	0.451099
70	0.195131	0.185268	0.907098	0.574054	0.143247	0.339103	0.708990	0.419442	0.224908	0.380699	0.335634	0.395554	0.531177	0.444227	0.591413	0.378615	0.134560	0.238160	0.340744	0.305458	0.164340	0.114128	0.714472	0.554502	0.467520	0.352762	0.650618	0.268336	0.222492	0.265621	0.263698	0.299540	0.434168	0.437802	0.475812	0.304631	0.242464	0.285425	0.648356	0.612790	0.473786	0.543700	1.095565	1.060637	0.117278	0.316036	0.362544	0.264121	0.238751	0.297036	1.038271	0.799756	0.215096	0.368464	0.688410	0.260771	0.365546	0.312843	1.167457	0.364812	0.348591	0.515088	0.427468	0.334948	0.946018	0.720447	0.598228	1.031638	0.211349	0.354318	0.449384	0.598649	0.572157	0.459821	0.271457	0.838757	0.188278	0.372329	0.434523	0.436240
71	0.187449	0.163083	0.855414	0.656280	0.147297	0.335716	0.706841	0.412554	0.224053	0.372216	0.444662	0.390081	0.544466	0.466918	0.583834	0.417832	0.133247	0.234238	0.384571	0.307469	0.165396	0.127282	0.716580	0.532141	0.672530	0.364609	0.649906	0.262415	0.234305	0.279107	0.221754	0.311694	0.450036	0.452643	0.452762	0.460005	0.374628	0.283833	0.645902	0.605735	0.492459	0.555224	1.086239	0.997256	0.118918	0.339797	0.345638	0.261444	0.219417	0.282919	0.993272	0.792808	0.210206	0.366979	0.688550	0.256932	0.372919	0.307342	1.167641	0.352681	0.409941	0.546332	0.406896	0.335577	0.952798	0.724736	0.597068	1.025202	0.173350	0.353586	0.431005	0.596566	0.541032	0.460716	0.310898	0.826443	0.184056	0.372021	0.350205	0.416690
72	0.192740	0.156323	0.765668	0.651765	0.148390	0.339776	0.692558	0.404680	0.224538	0.355942	0.587673	0.351030	0.682597	0.597845	0.541029	0.424582	0.156331	0.233605	0.484260	0.308245	0.158114	0.146846	0.715842	0.453037	0.703246	0.359370	0.671183	0.261630	0.242133	0.287496	0.219860	0.327178	0.476819	0.452735	0.454279	0.563688	0.392684	0.325630	0.639701	0.565354	0.527336	0.526678	1.055968	0.861283	0.119662	0.346554	0.340076	0.240305	0.227382	0.283737	0.981356	0.712106	0.187355	0.357290	0.681008	0.253435	0.389484	0.309582	1.135780	0.309382	0.433071	0.561815	0.392511	0.333184	0.949025	0.716592	0.571346	0.981889	0.166679	0.356588	0.419208	0.574221	0.520982	0.461973	0.383492	0.840796	0.159499	0.366122	0.288707	0.381176
73	0.196371	0.140703	0.724077	0.730401	0.144576	0.351075	0.674349	0.394832	0.226880	0.356135	0.662336	0.309576	0.843304	0.675437	0.511663	0.423353	0.208796	0.239458	0.499085	0.306270	0.160577	0.230089	0.713674	0.426227	0.721173	0.355707	0.653940	0.281426	0.240644	0.287918	0.250332	0.335574	0.482218	0.460440	0.455315	0.583112	0.417584	0.356476	0.621220	0.508160	0.555758	0.470026	1.029746	0.742822	0.126572	0.346827	0.339875	0.220099	0.225166	0.255585	0.993505	0.551031	0.175903	0.350145	0.653781	0.250953	0.416382	0.340217	1.157924	0.280241	0.432021	0.563941	0.396146	0.348655	0.943254	0.684304	0.569564	0.911896	0.142457	0.355569	0.378100	0.500466	0.488750	0.460685	0.408214	0.872247	0.132561	0.356289	0.276224	0.323850
74	0.184865	0.164304	0.804557	0.751651	0.137294	0.355392	0.656715	0.384261	0.235795	0.361728	0.670811	0.271842	0.915592	0.721305	0.506571	0.423105	0.279862	0.239672	0.497991	0.297521	0.173200	0.325182	0.708492	0.426201	0.730789	0.381187	0.587232	0.324983	0.246356	0.303075	0.263970	0.339248	0.553457	0.514371	0.431485	0.564209	0.419984	0.356845	0.597480	0.475173	0.530648	0.435892	1.002262	0.696858	0.135903	0.347799	0.339540	0.219940	0.210526	0.212027	0.972482	0.463614	0.185163	0.348244	0.598837	0.252362	0.423746	0.358801	1.225548	0.286115	0.432127	0.563647	0.395474	0.375375	0.938176	0.645481	0.586344	0.828364	0.139432	0.354142	0.341489	0.400646	0.477138	0.454533	0.407858	0.905803	0.116126	0.346197	0.275461	0.265055
75	0.219974	0.247035	0.809268	0.739833	0.137695	0.356051	0.642249	0.382000	0.213939	0.328583	0.668497	0.267531	0.923255	0.729870	0.507068	0.424384	0.409868	0.263747	0.513796	0.295903	0.206008	0.353523	0.697105	0.406488	0.775909	0.397936	0.508306	0.329936	0.255935	0.339769	0.267806	0.333772	0.585025	0.536431	0.426003	0.660070	0.433112	0.357420	0.543450	0.469076	0.528789	0.422053	0.968215	0.692900	0.132063	0.345376	0.328739	0.225409	0.285309	0.169404	0.887849	0.487923	0.185996	0.338456	0.505838	0.248595	0.420552	0.360170	1.252717	0.290880	0.430616	0.561024	0.395112	0.401494	0.925217	0.624741	0.578100	0.762086	0.135992	0.345402	0.339251	0.290249	0.483401	0.454915	0.435168	0.915439	0.101186	0.331297	0.275533	0.217914
76	0.231525	0.307323	0.820720	0.739313	0.128830	0.342754	0.639232	0.384020	0.225271	0.318561	0.697987	0.283224	0.924231	0.730114	0.501944	0.427765	0.452743	0.285748	0.564521	0.287870	0.251393	0.359148	0.628194	0.356616	0.781494	0.396874	0.461800	0.345808	0.261586	0.357731	0.264392	0.311944	0.585106	0.541015	0.419236	0.798453	0.464112	0.356903	0.457567	0.463162	0.528647	0.419077	0.882998	0.683299	0.129439	0.344120	0.290714	0.230441	0.348192	0.149532	0.687438	0.597667	0.155605	0.298294	0.382774	0.236050	0.417673	0.363205	1.257064	0.320331	0.429653	0.557048	0.389186	0.419045	0.899091	0.602988	0.553071	0.721692	0.114948	0.329823	0.324088	0.199967	0.489109	0.437422	0.537450	0.855264	0.088653	0.275824	0.274116	0.184126
77	0.281869	0.359786	0.787958	0.734924	0.124808	0.339452	0.640665	0.363821	0.229115	0.281611	0.735898	0.301739	0.922467	0.729534	0.502391	0.427880	0.455812	0.296554	0.620927	0.382849	0.255783	0.393175	0.523773	0.314646	0.779036	0.390117	0.475656	0.355792	0.259988	0.360703	0.267509	0.287620	0.583626	0.530415	0.447690	0.861995	0.492829	0.356518	0.402938	0.430097	0.526671	0.419507	0.719471	0.645931	0.129416	0.343765	0.209765	0.228473	0.398107	0.160181	0.604790	0.644755	0.142649	0.275709	0.306680	0.215176	0.360265	0.342034	1.244019	0.367702	0.430244	0.553764	0.389783	0.426733	0.855200	0.577110	0.545361	0.698803	0.080247	0.312268	0.302888	0.167287	0.425551	0.349546	0.595446	0.722937	0.108421	0.140007	0.270679	0.166746
78	0.334745	0.388023	0.764276	0.737261	0.125442	0.335452	0.630284	0.311875	0.215987	0.239194	0.780337	0.274302	0.922046	0.733884	0.489333	0.425096	0.499449	0.433832	0.594161	0.590873	0.274476	0.488271	0.459915	0.284273	0.771438	0.365556	0.523710	0.357042	0.258266	0.366398	0.272329	0.273684	0.581636	0.487357	0.471382	0.870676	0.494545	0.356965	0.397957	0.358951	0.519248	0.412708	0.650930	0.564081	0.118146	0.333075	0.175080	0.222800	0.400673	0.164617	0.596391	0.610841	0.147813	0.291000	0.289686	0.180888	0.308113	0.362042	1.135200	0.413311	0.420925	0.544194	0.379140	0.428998	0.782822	0.554040	0.576371	0.691098	0.060454	0.288899	0.280795	0.165294	0.368242	0.306680	0.608717	0.669588	0.111022	0.103033	0.269004	0.156548
79	0.471837	0.406068	0.749079	0.747452	0.122084	0.322069	0.581980	0.251260	0.222091	0.231633	0.806687	0.308424	0.924917	0.752928	0.468176	0.410520	0.529154	0.439618	0.595640	0.662168	0.341629	0.528221	0.417140	0.263558	0.771382	0.342924	0.527003	0.354046	0.246895	0.357672	0.274824	0.266150	0.565029	0.424139	0.382389	0.881820	0.496640	0.360272	0.362942	0.265974	0.501056	0.388415	0.663761	0.483475	0.104702	0.313983	0.181366	0.212920	0.414842	0.209777	0.578245	0.597398	0.145971	0.314486	0.296726	0.144483	0.309891	0.365985	0.997387	0.431245	0.410751	0.509983	0.364559	0.429136	0.730514	0.551675	0.643059	0.705106	0.058654	0.199427	0.252116	0.164096	0.305418	0.283145	0.626066	0.665323	0.113556	0.107222	0.258177	0.146922
80	0.694833	0.558305	0.731982	0.735679	0.109764	0.310881	0.480489	0.199085	0.231157	0.231161	0.800091	0.356595	0.928232	0.777093	0.444973	0.387020	0.529631	0.425959	0.617752	0.666493	0.403598	0.547088	0.352208	0.272881	0.765160	0.330226	0.510696	0.308212	0.237849	0.351049	0.283600	0.265120	0.479121	0.392605	0.368361	0.885546	0.497276	0.364507	0.294308	0.199230	0.486526	0.360764	0.675496	0.467300	0.110173	0.308389	0.197854	0.200048	0.434613	0.228327	0.573728	0.594846	0.143085	0.348776	0.300052	0.110714	0.311436	0.364808	0.977005	0.434449	0.405690	0.449785	0.361982	0.429349	0.741094	0.548717	0.660545	0.765467	0.067941	0.173232	0.231526	0.160131	0.271881	0.268808	0.680506	0.661640	0.117554	0.110513	0.238632	0.143107
81	0.752072	0.573132	0.737890	0.625105	0.107273	0.310421	0.383419	0.171500	0.251957	0.230517	0.819749	0.353024	0.921575	0.780469	0.409921	0.373048	0.526948	0.425077	0.626479	0.704322	0.408725	0.549785	0.327676	0.286455	0.692633	0.329902	0.520798	0.304924	0.234310	0.359512	0.299173	0.265022	0.468682	0.393977	0.391761	0.890106	0.499526	0.360477	0.251845	0.179198	0.488257	0.346302	0.652592	0.504790	0.114228	0.298041	0.224677	0.198024	0.449318	0.233407	0.517578	0.665565	0.142071	0.361406	0.274302	0.085318	0.339180	0.362483	1.110347	0.423436	0.400838	0.435440	0.361889	0.429676	0.714284	0.500543	0.646094	0.839366	0.074799	0.180832	0.208582	0.154415	0.257850	0.262462	0.732214	0.623047	0.117345	0.107797	0.223778	0.145380
82	0.753998	0.574201	0.783878	0.574906	0.104314	0.308426	0.302748	0.163878	0.254411	0.229292	0.870136	0.364672	0.884638	0.756943	0.344713	0.369232	0.526318	0.424023	0.566953	0.763066	0.407333	0.550063	0.323403	0.283818	0.664362	0.264672	0.563948	0.301216	0.231625	0.372195	0.310812	0.258062	0.465571	0.385145	0.379560	0.902572	0.501674	0.349851	0.232561	0.185523	0.500535	0.331870	0.594636	0.578080	0.113468	0.279370	0.252438	0.203391	0.457407	0.232690	0.502690	0.707649	0.152884	0.337970	0.259306	0.087150	0.361468	0.357511	1.186458	0.420784	0.398034	0.434046	0.355552	0.422947	0.503035	0.330629	0.636622	0.877802	0.122432	0.217574	0.190733	0.148608	0.253417	0.254190	0.765237	0.602476	0.138852	0.136168	0.209732	0.154514
83	0.754467	0.577324	0.754831	0.631740	0.099114	0.305388	0.264401	0.163176	0.246982	0.228654	0.849493	0.391368	0.840713	0.723394	0.260674	0.367023	0.511316	0.422691	0.514630	0.808940	0.407279	0.552024	0.271662	0.278227	0.447962	0.233702	0.566624	0.289139	0.238110	0.383501	0.319812	0.252887	0.470681	0.379386	0.380916	0.830841	0.535539	0.347502	0.227975	0.188773	0.525484	0.373510	0.514126	0.642815	0.116459	0.231735	0.266833	0.219481	0.459273	0.232709	0.526305	0.695772	0.171174	0.310284	0.249482	0.097468	0.358337	0.357176	1.147191	0.437440	0.351535	0.409171	0.345165	0.403922	0.412523	0.260992	0.642911	0.885330	0.132025	0.235852	0.179987	0.143739	0.252304	0.261672	0.771623	0.600597	0.149516	0.186501	0.197134	0.172673
84	0.750538	0.577131	0.636294	0.536438	0.101411	0.304259	0.256445	0.162311	0.241577	0.250389	0.752085	0.413506	0.834185	0.703496	0.215099	0.367995	0.492444	0.420944	0.513330	0.817522	0.415731	0.555318	0.182977	0.279143	0.390369	0.244781	0.545028	0.288047	0.253523	0.388788	0.320835	0.252405	0.445619	0.388927	0.425722	0.813714	0.611127	0.378044	0.227726	0.192062	0.634212	0.455791	0.441118	0.677369	0.126085	0.232427	0.259832	0.234385	0.455025	0.232831	0.534413	0.708693	0.194526	0.347948	0.238707	0.120158	0.376741	0.341814	1.073090	0.426762	0.333717	0.378540	0.339260	0.368896	0.398172	0.282818	0.686466	0.854887	0.137847	0.241549	0.193905	0.141697	0.251556	0.259484	0.774592	0.588430	0.149418	0.218925	0.187359	0.185337
85	0.752118	0.562626	0.531654	0.477358	0.104000	0.297876	0.255790	0.155117	0.242935	0.296057	0.690710	0.415224	0.842987	0.697474	0.204527	0.397168	0.461567	0.417781	0.514515	0.804802	0.422699	0.557285	0.135417	0.276736	0.347251	0.259007	0.533670	0.256471	0.258023	0.389148	0.322558	0.253104	0.461311	0.393389	0.475533	0.924621	0.621881	0.382822	0.226801	0.196819	0.670524	0.479733	0.417201	0.704861	0.138890	0.233459	0.259369	0.231710	0.470274	0.245863	0.523739	0.721062	0.210099	0.386504	0.231220	0.140837	0.389194	0.313975	1.009618	0.434786	0.331480	0.335879	0.336423	0.348663	0.398967	0.308024	0.749331	0.786041	0.136477	0.235101	0.265282	0.141441	0.255978	0.253391	0.787043	0.581253	0.149803	0.226794	0.192826	0.181116
86	0.754988	0.532342	0.580506	0.496946	0.114031	0.262841	0.253108	0.145884	0.243491	0.304946	0.698763	0.414632	0.833449	0.696949	0.213160	0.384181	0.306402	0.405179	0.495893	0.800864	0.421636	0.557074	0.132968	0.265441	0.324482	0.227996	0.526242	0.187226	0.258640	0.390572	0.338324	0.249748	0.476652	0.358642	0.477262	0.958157	0.621411	0.388195	0.242357	0.193856	0.694900	0.503881	0.471034	0.708805	0.157441	0.242911	0.281099	0.214791	0.519518	0.283727	0.502716	0.721364	0.216808	0.412736	0.224549	0.146151	0.385830	0.307690	1.011573	0.476139	0.283389	0.269936	0.329080	0.347288	0.371177	0.287571	0.786440	0.711024	0.141222	0.234955	0.311963	0.142153	0.259366	0.254123	0.787982	0.573904	0.151604	0.231329	0.207976	0.172708
87	0.753932	0.506310	0.621797	0.510499	0.122629	0.222646	0.254653	0.135678	0.250121	0.291688	0.736449	0.415778	0.757442	0.632826	0.240078	0.363095	0.292054	0.386897	0.422319	0.801457	0.420889	0.562205	0.169370	0.248094	0.184594	0.184339	0.500895	0.175849	0.263785	0.391765	0.370573	0.237231	0.464068	0.338953	0.539848	0.867700	0.564364	0.397194	0.313161	0.198997	0.708926	0.509657	0.530604	0.701392	0.187778	0.292397	0.330858	0.198021	0.560563	0.306405	0.619746	0.725090	0.221732	0.439817	0.221266	0.146501	0.391636	0.294105	1.037106	0.481506	0.192613	0.210559	0.314496	0.356968	0.348326	0.285572	0.786324	0.673448	0.139748	0.232957	0.342815	0.139484	0.260942	0.255222	0.776268	0.526957	0.189275	0.241952	0.243424	0.175028
88	0.733339	0.482147	0.617813	0.547755	0.122429	0.225467	0.251954	0.124979	0.233827	0.272460	0.731756	0.428950	0.578483	0.635477	0.227479	0.366783	0.286470	0.356753	0.371912	0.736903	0.418861	0.571453	0.216471	0.231914	0.154470	0.209995	0.491020	0.146262	0.268400	0.387594	0.419835	0.210544	0.522377	0.331522	0.681470	0.775963	0.534269	0.385197	0.345729	0.207542	0.701333	0.498473	0.541870	0.693554	0.216150	0.347392	0.380683	0.196212	0.496760	0.306703	0.663168	0.689715	0.224318	0.458851	0.224566	0.150246	0.391642	0.278068	1.060529	0.447236	0.153908	0.176266	0.294029	0.355386	0.355938	0.314607	0.785980	0.668533	0.144815	0.227751	0.355850	0.134500	0.257449	0.254191	0.775338	0.462757	0.210920	0.243838	0.270573	0.183555
89	0.715244	0.461143	0.605068	0.601166	0.119840	0.231300	0.249676	0.115704	0.219601	0.269090	0.703299	0.435806	0.417952	0.603914	0.220524	0.367074	0.108238	0.105229	0.363287	0.580088	0.418077	0.532820	0.248200	0.221430	0.191362	0.229524	0.491424	0.095058	0.258485	0.383060	0.452871	0.172353	0.533262	0.352803	0.696900	0.746349	0.518801	0.348501	0.341598	0.207328	0.681946	0.485872	0.541438	0.724842	0.223038	0.368333	0.408251	0.202692	0.547451	0.304851	0.669651	0.589426	0.224656	0.468086	0.247481	0.155504	0.372411	0.220871	1.068102	0.416494	0.158257	0.177577	0.293637	0.335981	0.355294	0.334607	0.802943	0.667425	0.151697	0.228617	0.355355	0.138681	0.249243	0.247314	0.776050	0.397142	0.212785	0.246116	0.287748	0.185819
90	0.643223	0.441382	0.605752	0.598160	0.119782	0.225905	0.246692	0.114251	0.223697	0.289926	0.668187	0.425382	0.390338	0.587493	0.259953	0.371350	0.065685	0.075806	0.300622	0.535289	0.412969	0.515233	0.253582	0.231490	0.240773	0.238650	0.439000	0.127644	0.250378	0.379572	0.453506	0.146735	0.579732	0.422777	0.678451	0.742302	0.516821	0.346105	0.323413	0.206838	0.596888	0.474089	0.543444	0.786648	0.223098	0.386370	0.415256	0.200888	0.531301	0.312924	0.661903	0.548576	0.224722	0.474030	0.256638	0.160530	0.366989	0.205144	1.065287	0.402144	0.169801	0.213390	0.292871	0.310954	0.340997	0.332369	0.816172	0.665375	0.153637	0.232004	0.354334	0.143499	0.226185	0.225454	0.738301	0.365353	0.211875	0.253070	0.291677	0.184604
91	0.381042	0.223770	0.631704	0.628551	0.126390	0.244849	0.239785	0.127138	0.233873	0.309510	0.631621	0.415406	0.392884	0.586279	0.290193	0.371598	0.062280	0.074134	0.268866	0.524047	0.395825	0.510085	0.252562	0.242496	0.255582	0.250974	0.424590	0.260561	0.238966	0.376084	0.449998	0.138778	0.675233	0.517020	0.686769	0.755019	0.508300	0.346705	0.325605	0.210023	0.581840	0.476195	0.557254	0.836708	0.219910	0.400505	0.414607	0.196089	0.531073	0.315624	0.660868	0.555442	0.223819	0.476968	0.252805	0.161708	0.366487	0.212236	1.028473	0.385491	0.164123	0.216647	0.292670	0.287991	0.330981	0.330326	0.817143	0.663956	0.156300	0.238991	0.353844	0.142511	0.215096	0.189529	0.671138	0.373482	0.211691	0.258078	0.294726	0.183792
92	0.272771	0.198810	0.651288	0.699021	0.127268	0.315373	0.243712	0.144453	0.231972	0.312788	0.613417	0.373558	0.398360	0.586231	0.303361	0.371660	0.080735	0.084983	0.258361	0.456122	0.372481	0.513289	0.257285	0.242155	0.288836	0.263420	0.395820	0.318310	0.224251	0.367938	0.443673	0.143903	0.686441	0.526787	0.682555	0.792772	0.483667	0.346371	0.354335	0.217450	0.600737	0.475901	0.581647	0.872392	0.227904	0.402808	0.415624	0.191396	0.514905	0.279559	0.593794	0.542825	0.216989	0.477795	0.245486	0.161220	0.347870	0.211616	0.888157	0.393700	0.151031	0.216166	0.285334	0.268931	0.330444	0.330077	0.823896	0.663756	0.161802	0.248965	0.358803	0.133352	0.241896	0.176564	0.629109	0.325441	0.214268	0.264461	0.308486	0.183174
93	0.279274	0.225426	0.597267	0.718000	0.165428	0.358256	0.250897	0.154985	0.227445	0.338019	0.595373	0.349246	0.396431	0.581514	0.323661	0.390611	0.076310	0.083215	0.269703	0.340578	0.375270	0.499436	0.280707	0.236952	0.480820	0.268490	0.323315	0.322279	0.210891	0.355372	0.437811	0.148708	0.685279	0.527863	0.688626	0.784710	0.438903	0.347441	0.400456	0.225461	0.597377	0.464142	0.608413	0.897546	0.236595	0.410622	0.418240	0.186464	0.505063	0.296581	0.553892	0.516340	0.196695	0.477963	0.242103	0.160125	0.308209	0.210035	0.714669	0.393710	0.137035	0.213949	0.278725	0.258720	0.330008	0.333777	0.819274	0.663802	0.166867	0.259140	0.381021	0.120626	0.263195	0.177192	0.632805	0.221210	0.217169	0.272457	0.317336	0.181922
94	0.283097	0.247161	0.568617	0.656621	0.182579	0.369764	0.260339	0.149856	0.217828	0.343271	0.522324	0.346552	0.390892	0.562195	0.333433	0.414812	0.084508	0.076357	0.247097	0.240312	0.354354	0.434024	0.315832	0.236900	0.577120	0.263918	0.249113	0.327588	0.210308	0.354121	0.433975	0.150021	0.684704	0.523066	0.694869	0.756007	0.438093	0.353208	0.442422	0.230880	0.596215	0.473201	0.615951	0.907361	0.242643	0.418168	0.418616	0.198701	0.500255	0.333687	0.564099	0.381014	0.190876	0.478075	0.242361	0.159669	0.298352	0.192474	0.615395	0.388275	0.130835	0.212186	0.275580	0.253013	0.329979	0.335948	0.793048	0.664767	0.169918	0.266797	0.395449	0.114907	0.267086	0.188471	0.674523	0.179939	0.219686	0.280034	0.319246	0.180408
95	0.283618	0.255870	0.590592	0.632356	0.183681	0.373074	0.262234	0.140855	0.348562	0.375475	0.490072	0.321521	0.378307	0.526944	0.334174	0.422981	0.116222	0.077809	0.257436	0.196927	0.271659	0.389826	0.345567	0.235591	0.580611	0.264676	0.257204	0.334462	0.208315	0.347677	0.430506	0.150212	0.674082	0.506711	0.692000	0.755426	0.445114	0.373362	0.451518	0.229416	0.596397	0.477487	0.615734	0.906626	0.245787	0.424109	0.418165	0.216430	0.531109	0.365237	0.585512	0.335413	0.192417	0.479572	0.242968	0.159784	0.249875	0.148255	0.603264	0.426747	0.129902	0.208035	0.265927	0.250399	0.309056	0.336132	0.741462	0.658507	0.170597	0.272141	0.397763	0.113768	0.272178	0.216689	0.682987	0.190232	0.216828	0.290205	0.319389	0.179192
96	0.284230	0.272811	0.636070	0.639282	0.184527	0.371572	0.250527	0.143113	0.469794	0.399224	0.490410	0.282990	0.366070	0.507274	0.340315	0.422601	0.140133	0.147926	0.298218	0.184426	0.203802	0.377519	0.354516	0.222784	0.584877	0.262093	0.252676	0.337254	0.208281	0.339217	0.428124	0.149786	0.684466	0.502947	0.660842	0.715711	0.456950	0.390862	0.452481	0.219855	0.596445	0.477167	0.603977	0.895292	0.244261	0.427424	0.416104	0.224038	0.549931	0.388345	0.587497	0.318934	0.195611	0.479319	0.242107	0.159832	0.172856	0.117039	0.597855	0.441330	0.127755	0.202835	0.253780	0.249209	0.285889	0.348756	0.730392	0.606779	0.166820	0.274983	0.395483	0.112808	0.364415	0.252227	0.635920	0.194802	0.204640	0.296980	0.319326	0.180820
97	0.260547	0.310897	0.616023	0.654883	0.189525	0.373683	0.223693	0.148236	0.496358	0.377335	0.460833	0.270145	0.363341	0.499839	0.357498	0.420121	0.287008	0.291465	0.306147	0.207173	0.197467	0.380393	0.354480	0.201599	0.626467	0.257426	0.253351	0.340487	0.209178	0.334765	0.424215	0.147572	0.665894	0.470569	0.637628	0.648660	0.463746	0.407126	0.468602	0.209971	0.594683	0.475725	0.583304	0.877870	0.241970	0.427821	0.406325	0.224693	0.553312	0.403345	0.610722	0.254584	0.234359	0.476987	0.233822	0.159772	0.171426	0.120649	0.532635	0.407273	0.127901	0.201183	0.232214	0.248227	0.295612	0.366000	0.757494	0.498962	0.163806	0.274948	0.391735	0.111395	0.367526	0.249629	0.604132	0.196367	0.204806	0.302661	0.319460	0.196481
98	0.240681	0.340629	0.564603	0.668304	0.203413	0.385158	0.208890	0.152564	0.557077	0.449470	0.421031	0.271101	0.360949	0.501038	0.376937	0.418665	0.396908	0.334459	0.294605	0.305734	0.197459	0.382657	0.355856	0.185606	0.633398	0.249464	0.296411	0.355603	0.210629	0.331404	0.413971	0.143476	0.601700	0.446495	0.627886	0.712972	0.460792	0.419646	0.478432	0.201036	0.592127	0.476760	0.571104	0.845285	0.240992	0.429073	0.385006	0.217602	0.526694	0.395806	0.622688	0.229392	0.283882	0.455657	0.215836	0.159798	0.177624	0.160363	0.451742	0.377717	0.128002	0.201638	0.198940	0.247971	0.289769	0.367688	0.757943	0.392581	0.142159	0.248054	0.391839	0.110200	0.387845	0.303940	0.632231	0.204599	0.204230	0.308021	0.319489	0.208502
99	0.265733	0.404869	0.541124	0.641889	0.206863	0.386938	0.199717	0.155430	0.635835	0.533623	0.353271	0.272288	0.339934	0.502044	0.383170	0.401435	0.479295	0.358925	0.294327	0.395822	0.194777	0.378865	0.361527	0.177017	0.632786	0.245414	0.305488	0.388207	0.211664	0.316669	0.399805	0.137031	0.597891	0.448203	0.576716	0.753424	0.444418	0.399331	0.479539	0.194743	0.588773	0.479572	0.583545	0.795335	0.241476	0.435065	0.361687	0.207565	0.465073	0.366815	0.595243	0.236713	0.287508	0.436585	0.203288	0.159852	0.202570	0.231590	0.386346	0.405637	0.126807	0.204388	0.191172	0.248726	0.288615	0.364705	0.743330	0.314353	0.123881	0.228436	0.391855	0.112535	0.460661	0.358336	0.684198	0.207493	0.203492	0.311734	0.319853	0.208153
100	0.273551	0.430918	0.561138	0.588803	0.220221	0.392618	0.183830	0.156293	0.675141	0.562683	0.308490	0.261004	0.276948	0.495139	0.381180	0.325680	0.591803	0.485316	0.296835	0.414735	0.173883	0.377580	0.371946	0.175645	0.640062	0.264618	0.295300	0.416317	0.210730	0.299296	0.396835	0.145518	0.543056	0.452557	0.425806	0.724341	0.302150	0.337456	0.479075	0.179232	0.577490	0.479172	0.638481	0.734875	0.238734	0.439018	0.348502	0.189085	0.434227	0.352402	0.469003	0.238038	0.307929	0.435177	0.197644	0.157770	0.328904	0.311460	0.356363	0.461091	0.121308	0.205614	0.192710	0.235278	0.284893	0.345402	0.689240	0.298723	0.116956	0.210040	0.384768	0.128466	0.483959	0.362330	0.708352	0.208190	0.203615	0.310929	0.319997	0.206403
101	0.340210	0.457493	0.637753	0.583110	0.221858	0.392983	0.176376	0.156293	0.688310	0.573337	0.307986	0.238435	0.273872	0.500965	0.376987	0.271495	0.611300	0.497174	0.299042	0.467722	0.177334	0.388718	0.376521	0.174841	0.636417	0.264257	0.274946	0.426716	0.186569	0.270038	0.400562	0.177262	0.527458	0.436008	0.387946	0.708388	0.258869	0.325655	0.478821	0.155065	0.485169	0.404411	0.679914	0.697967	0.234286	0.440960	0.350357	0.171684	0.390957	0.350216	0.432039	0.244303	0.314204	0.428077	0.195915	0.151199	0.402661	0.322978	0.352466	0.479214	0.115250	0.204549	0.192590	0.215909	0.298749	0.326881	0.611896	0.300519	0.115749	0.202221	0.340028	0.159206	0.510283	0.411124	0.708736	0.208424	0.187755	0.294537	0.319907	0.199517
