	324_At_T1_sh_L_ND_01.c3d	324_At_T1_sh_L_ND_01.c3d	324_At_T1_sh_L_ND_01.c3d	324_At_T1_sh_L_ND_01.c3d	324_At_T1_sh_L_ND_01.c3d	324_At_T1_sh_L_ND_01.c3d	324_At_T1_sh_L_ND_01.c3d	324_At_T1_sh_L_ND_01.c3d	324_At_T1_sh_L_ND_02.c3d	324_At_T1_sh_L_ND_02.c3d	324_At_T1_sh_L_ND_02.c3d	324_At_T1_sh_L_ND_02.c3d	324_At_T1_sh_L_ND_02.c3d	324_At_T1_sh_L_ND_02.c3d	324_At_T1_sh_L_ND_02.c3d	324_At_T1_sh_L_ND_02.c3d	324_At_T1_sh_L_ND_03.c3d	324_At_T1_sh_L_ND_03.c3d	324_At_T1_sh_L_ND_03.c3d	324_At_T1_sh_L_ND_03.c3d	324_At_T1_sh_L_ND_03.c3d	324_At_T1_sh_L_ND_03.c3d	324_At_T1_sh_L_ND_03.c3d	324_At_T1_sh_L_ND_03.c3d	324_At_T1_sh_L_ND_04.c3d	324_At_T1_sh_L_ND_04.c3d	324_At_T1_sh_L_ND_04.c3d	324_At_T1_sh_L_ND_04.c3d	324_At_T1_sh_L_ND_04.c3d	324_At_T1_sh_L_ND_04.c3d	324_At_T1_sh_L_ND_04.c3d	324_At_T1_sh_L_ND_04.c3d	324_At_T1_sh_L_ND_05.c3d	324_At_T1_sh_L_ND_05.c3d	324_At_T1_sh_L_ND_05.c3d	324_At_T1_sh_L_ND_05.c3d	324_At_T1_sh_L_ND_05.c3d	324_At_T1_sh_L_ND_05.c3d	324_At_T1_sh_L_ND_05.c3d	324_At_T1_sh_L_ND_05.c3d	324_At_T1_sh_L_ND_06.c3d	324_At_T1_sh_L_ND_06.c3d	324_At_T1_sh_L_ND_06.c3d	324_At_T1_sh_L_ND_06.c3d	324_At_T1_sh_L_ND_06.c3d	324_At_T1_sh_L_ND_06.c3d	324_At_T1_sh_L_ND_06.c3d	324_At_T1_sh_L_ND_06.c3d	324_At_T1_sh_L_ND_07.c3d	324_At_T1_sh_L_ND_07.c3d	324_At_T1_sh_L_ND_07.c3d	324_At_T1_sh_L_ND_07.c3d	324_At_T1_sh_L_ND_07.c3d	324_At_T1_sh_L_ND_07.c3d	324_At_T1_sh_L_ND_07.c3d	324_At_T1_sh_L_ND_07.c3d	324_At_T1_sh_L_ND_08.c3d	324_At_T1_sh_L_ND_08.c3d	324_At_T1_sh_L_ND_08.c3d	324_At_T1_sh_L_ND_08.c3d	324_At_T1_sh_L_ND_08.c3d	324_At_T1_sh_L_ND_08.c3d	324_At_T1_sh_L_ND_08.c3d	324_At_T1_sh_L_ND_08.c3d	324_At_T1_sh_L_ND_09.c3d	324_At_T1_sh_L_ND_09.c3d	324_At_T1_sh_L_ND_09.c3d	324_At_T1_sh_L_ND_09.c3d	324_At_T1_sh_L_ND_09.c3d	324_At_T1_sh_L_ND_09.c3d	324_At_T1_sh_L_ND_09.c3d	324_At_T1_sh_L_ND_09.c3d
	Biceps femoris_lat	Semitendinosus_lat	Vastus lateralis_lat	Vastus medialis_lat	Biceps femoris_med	Semitendinosus_med	Vastus lateralis_med	Vastus medialis_med	Biceps femoris_lat	Semitendinosus_lat	Vastus lateralis_lat	Vastus medialis_lat	Biceps femoris_med	Semitendinosus_med	Vastus lateralis_med	Vastus medialis_med	Biceps femoris_lat	Semitendinosus_lat	Vastus lateralis_lat	Vastus medialis_lat	Biceps femoris_med	Semitendinosus_med	Vastus lateralis_med	Vastus medialis_med	Biceps femoris_lat	Semitendinosus_lat	Vastus lateralis_lat	Vastus medialis_lat	Biceps femoris_med	Semitendinosus_med	Vastus lateralis_med	Vastus medialis_med	Biceps femoris_lat	Semitendinosus_lat	Vastus lateralis_lat	Vastus medialis_lat	Biceps femoris_med	Semitendinosus_med	Vastus lateralis_med	Vastus medialis_med	Biceps femoris_lat	Semitendinosus_lat	Vastus lateralis_lat	Vastus medialis_lat	Biceps femoris_med	Semitendinosus_med	Vastus lateralis_med	Vastus medialis_med	Biceps femoris_lat	Semitendinosus_lat	Vastus lateralis_lat	Vastus medialis_lat	Biceps femoris_med	Semitendinosus_med	Vastus lateralis_med	Vastus medialis_med	Biceps femoris_lat	Semitendinosus_lat	Vastus lateralis_lat	Vastus medialis_lat	Biceps femoris_med	Semitendinosus_med	Vastus lateralis_med	Vastus medialis_med	Biceps femoris_lat	Semitendinosus_lat	Vastus lateralis_lat	Vastus medialis_lat	Biceps femoris_med	Semitendinosus_med	Vastus lateralis_med	Vastus medialis_med
	P2D	P2D	P2D	P2D	P2D	P2D	P2D	P2D	P2D	P2D	P2D	P2D	P2D	P2D	P2D	P2D	P2D	P2D	P2D	P2D	P2D	P2D	P2D	P2D	P2D	P2D	P2D	P2D	P2D	P2D	P2D	P2D	P2D	P2D	P2D	P2D	P2D	P2D	P2D	P2D	P2D	P2D	P2D	P2D	P2D	P2D	P2D	P2D	P2D	P2D	P2D	P2D	P2D	P2D	P2D	P2D	P2D	P2D	P2D	P2D	P2D	P2D	P2D	P2D	P2D	P2D	P2D	P2D	P2D	P2D	P2D	P2D
	EMG_lat	EMG_lat	EMG_lat	EMG_lat	EMG_med	EMG_med	EMG_med	EMG_med	EMG_lat	EMG_lat	EMG_lat	EMG_lat	EMG_med	EMG_med	EMG_med	EMG_med	EMG_lat	EMG_lat	EMG_lat	EMG_lat	EMG_med	EMG_med	EMG_med	EMG_med	EMG_lat	EMG_lat	EMG_lat	EMG_lat	EMG_med	EMG_med	EMG_med	EMG_med	EMG_lat	EMG_lat	EMG_lat	EMG_lat	EMG_med	EMG_med	EMG_med	EMG_med	EMG_lat	EMG_lat	EMG_lat	EMG_lat	EMG_med	EMG_med	EMG_med	EMG_med	EMG_lat	EMG_lat	EMG_lat	EMG_lat	EMG_med	EMG_med	EMG_med	EMG_med	EMG_lat	EMG_lat	EMG_lat	EMG_lat	EMG_med	EMG_med	EMG_med	EMG_med	EMG_lat	EMG_lat	EMG_lat	EMG_lat	EMG_med	EMG_med	EMG_med	EMG_med
ITEM	Y	Y	Y	Y	Y	Y	Y	Y	Y	Y	Y	Y	Y	Y	Y	Y	Y	Y	Y	Y	Y	Y	Y	Y	Y	Y	Y	Y	Y	Y	Y	Y	Y	Y	Y	Y	Y	Y	Y	Y	Y	Y	Y	Y	Y	Y	Y	Y	Y	Y	Y	Y	Y	Y	Y	Y	Y	Y	Y	Y	Y	Y	Y	Y	Y	Y	Y	Y	Y	Y	Y	Y
1	0.629845	0.055362	0.211528	0.143977	0.430181	0.033029	0.693310	0.261403	0.709388	0.105595	0.214709	0.163139	0.160435	0.016812	0.504539	0.263838	0.459797	0.039214	0.584484	0.247591	0.223706	0.020791	0.993099	0.170605	0.424562	0.079038	0.162971	0.072831	0.160282	0.028521	0.469650	0.251473	0.355460	0.051976	0.222517	0.066045	0.126191	0.009505	0.558926	0.310555	0.657633	0.066704	0.428395	0.236051	0.199268	0.019185	0.276900	0.259398	0.597406	0.047205	0.273214	0.154334	0.101894	0.024956	0.492426	0.229425	0.555679	0.055254	0.191641	0.180984	0.069124	0.012942	0.315873	0.443270	0.404978	0.031942	0.161147	0.190872	0.316019	0.022936	0.617712	0.512458
2	0.635058	0.057060	0.239620	0.144097	0.431863	0.033029	0.741328	0.298148	0.680763	0.102362	0.215157	0.159578	0.156681	0.015786	0.494894	0.262390	0.453759	0.037315	0.589051	0.249370	0.222271	0.020784	1.017251	0.170797	0.377947	0.080345	0.168914	0.059600	0.105779	0.023756	0.500874	0.295385	0.348578	0.050943	0.205126	0.071998	0.123448	0.010205	0.557535	0.320260	0.647822	0.064573	0.429694	0.223295	0.186564	0.018601	0.294973	0.260267	0.618737	0.047995	0.272283	0.166581	0.101893	0.024965	0.495126	0.229228	0.555987	0.055142	0.221048	0.182418	0.090907	0.014822	0.435306	0.510510	0.439090	0.031889	0.166981	0.190034	0.312172	0.021822	0.639304	0.504716
3	0.660537	0.058673	0.244867	0.131271	0.434682	0.033122	0.752050	0.297476	0.627576	0.096327	0.248295	0.156401	0.149795	0.014259	0.505288	0.273289	0.438709	0.036652	0.585573	0.249370	0.221808	0.021174	1.031919	0.177759	0.379813	0.082932	0.182603	0.072006	0.071103	0.021401	0.549339	0.294594	0.303209	0.046462	0.206191	0.088795	0.086117	0.010072	0.570267	0.317228	0.533276	0.053564	0.427240	0.226060	0.172398	0.017373	0.314111	0.259262	0.627001	0.048223	0.269132	0.183298	0.099893	0.024260	0.496584	0.229091	0.540955	0.052170	0.228700	0.189016	0.102460	0.015154	0.546170	0.529087	0.403962	0.030802	0.175976	0.202054	0.298345	0.019234	0.650264	0.435657
4	0.692689	0.061438	0.247678	0.128062	0.439387	0.033299	0.753199	0.271085	0.587142	0.089239	0.249384	0.179143	0.143477	0.013883	0.531739	0.294479	0.426636	0.034272	0.561400	0.245303	0.210095	0.020282	1.041905	0.180000	0.380087	0.083157	0.199557	0.094490	0.075972	0.021689	0.616999	0.311417	0.248090	0.032852	0.214760	0.100519	0.077309	0.009709	0.601084	0.286979	0.415501	0.040425	0.400109	0.226121	0.158510	0.016526	0.319586	0.259713	0.628079	0.048203	0.271287	0.182323	0.097297	0.021991	0.497119	0.228431	0.521639	0.049182	0.227141	0.191126	0.103411	0.015017	0.577835	0.529658	0.426388	0.032682	0.188328	0.220045	0.267497	0.016361	0.640090	0.321513
5	0.694504	0.061005	0.258243	0.128123	0.441101	0.032385	0.753544	0.269859	0.553466	0.085206	0.242731	0.186172	0.140401	0.014459	0.566902	0.300648	0.421648	0.032419	0.524156	0.218089	0.196776	0.018371	1.042320	0.185200	0.372804	0.081582	0.203313	0.098607	0.077594	0.023229	0.659407	0.316830	0.248646	0.027429	0.205058	0.107391	0.077595	0.009103	0.617971	0.239857	0.379071	0.035540	0.368512	0.225497	0.159912	0.016781	0.319773	0.261629	0.624009	0.047547	0.276499	0.185352	0.096907	0.021128	0.496884	0.234772	0.504792	0.048580	0.228819	0.193481	0.103421	0.015238	0.581679	0.528097	0.439332	0.033101	0.183898	0.222581	0.226200	0.013486	0.547885	0.276095
6	0.658926	0.057520	0.243168	0.123942	0.440676	0.031695	0.766798	0.272347	0.534120	0.084815	0.231186	0.185462	0.142044	0.014698	0.618373	0.302312	0.419093	0.032532	0.495208	0.220134	0.184033	0.018333	1.042207	0.193310	0.337920	0.078572	0.219472	0.098476	0.130895	0.029031	0.663810	0.315454	0.251852	0.027376	0.195832	0.105303	0.077623	0.009302	0.573418	0.239078	0.379698	0.033416	0.347523	0.231812	0.172111	0.016934	0.324592	0.265512	0.607420	0.044853	0.286343	0.190874	0.090054	0.020563	0.486577	0.241566	0.498699	0.048276	0.236717	0.189608	0.103477	0.015410	0.582916	0.552526	0.439516	0.032860	0.175971	0.221910	0.201984	0.012970	0.420254	0.284881
7	0.639762	0.055517	0.212508	0.128708	0.441941	0.031693	0.810574	0.267641	0.528826	0.080668	0.230211	0.191847	0.144024	0.014752	0.664390	0.301686	0.407945	0.032222	0.486727	0.197709	0.158305	0.018357	1.039395	0.193676	0.300807	0.075464	0.230673	0.112749	0.232948	0.037921	0.674065	0.321449	0.264078	0.027360	0.192068	0.106617	0.080916	0.009271	0.543539	0.270441	0.371926	0.033943	0.333489	0.240031	0.173337	0.016593	0.334404	0.264217	0.593644	0.042429	0.283588	0.190071	0.067015	0.015880	0.457188	0.237461	0.484403	0.044681	0.264791	0.188724	0.104809	0.015554	0.613016	0.616280	0.435722	0.032816	0.177844	0.250426	0.198757	0.012763	0.375918	0.288557
8	0.625303	0.055246	0.229721	0.129492	0.444117	0.032148	0.891982	0.268390	0.481219	0.066866	0.232739	0.204066	0.137055	0.014458	0.689201	0.298110	0.405570	0.031975	0.477228	0.171818	0.155995	0.018083	1.025720	0.189252	0.290377	0.071613	0.224413	0.142843	0.306442	0.043540	0.693214	0.368446	0.267766	0.027415	0.195223	0.116922	0.090972	0.009949	0.542450	0.277010	0.387313	0.038753	0.331933	0.241048	0.162716	0.015608	0.335580	0.261653	0.566712	0.039087	0.264859	0.192646	0.047634	0.010193	0.433122	0.246458	0.471904	0.039836	0.313782	0.187675	0.110219	0.016031	0.676758	0.660965	0.432521	0.032826	0.198921	0.331848	0.198806	0.012745	0.371310	0.293127
9	0.606960	0.055998	0.234077	0.125520	0.439730	0.032965	0.970905	0.281847	0.424300	0.056555	0.227685	0.204534	0.117495	0.013116	0.694355	0.288267	0.403205	0.031667	0.482651	0.206507	0.153925	0.017834	0.986411	0.164283	0.285626	0.065019	0.205749	0.154943	0.355902	0.045630	0.696136	0.404034	0.290378	0.027509	0.197957	0.126767	0.090976	0.010728	0.540525	0.277423	0.420017	0.043350	0.331774	0.238989	0.171105	0.015502	0.346015	0.281137	0.521467	0.035553	0.231487	0.185428	0.047579	0.009797	0.417487	0.275560	0.469341	0.038772	0.357336	0.195586	0.119210	0.016845	0.736370	0.679688	0.434831	0.033442	0.223115	0.376568	0.189392	0.012101	0.370805	0.303717
10	0.606023	0.056117	0.234360	0.117795	0.426654	0.033533	0.994943	0.302367	0.441603	0.050523	0.217795	0.198657	0.093351	0.011897	0.683430	0.265146	0.379999	0.030024	0.537947	0.253119	0.147525	0.017816	0.919513	0.150713	0.287901	0.059101	0.190222	0.155692	0.369577	0.045792	0.688053	0.403545	0.296894	0.027199	0.198366	0.171364	0.090140	0.011707	0.530661	0.269543	0.451415	0.048189	0.321535	0.239134	0.177096	0.015982	0.370595	0.293606	0.488615	0.036169	0.212433	0.178206	0.051812	0.009918	0.420197	0.277641	0.457154	0.038756	0.379310	0.226559	0.129079	0.017919	0.764765	0.686287	0.443835	0.034643	0.228261	0.387516	0.139676	0.010220	0.376106	0.305573
11	0.603645	0.056108	0.239544	0.107796	0.397930	0.032881	0.980756	0.321919	0.519462	0.052789	0.213669	0.202151	0.086479	0.011717	0.678492	0.265246	0.354947	0.028699	0.574453	0.287667	0.141220	0.017909	0.841609	0.130584	0.279813	0.058857	0.185186	0.155979	0.401859	0.045535	0.660594	0.398860	0.386727	0.035904	0.213317	0.234910	0.092497	0.012392	0.507875	0.272617	0.444715	0.051420	0.281153	0.237939	0.174023	0.016142	0.382237	0.283663	0.499511	0.043394	0.217981	0.178159	0.055777	0.009625	0.421230	0.267850	0.444847	0.037388	0.398561	0.245733	0.133339	0.018725	0.765080	0.684587	0.459334	0.036108	0.222685	0.386974	0.118384	0.009931	0.388333	0.306150
12	0.514573	0.053198	0.241096	0.121972	0.354169	0.031739	0.942718	0.338641	0.566023	0.053838	0.222011	0.210056	0.087300	0.012197	0.692201	0.265046	0.352537	0.027951	0.590171	0.312953	0.137815	0.017909	0.782491	0.130291	0.298863	0.059284	0.185208	0.156139	0.524956	0.045934	0.637302	0.392758	0.467601	0.045758	0.254703	0.294786	0.092587	0.012557	0.491993	0.298816	0.452094	0.053624	0.246524	0.220640	0.173771	0.015930	0.375001	0.259925	0.450828	0.047307	0.218686	0.179970	0.057621	0.009046	0.437119	0.237922	0.286139	0.030269	0.427053	0.244811	0.133313	0.018785	0.750553	0.684776	0.470200	0.036980	0.223292	0.387172	0.114578	0.009974	0.390632	0.306181
13	0.419755	0.049759	0.243687	0.153438	0.342490	0.031622	0.921230	0.345676	0.584116	0.053268	0.233037	0.205583	0.087042	0.012325	0.712692	0.263550	0.327013	0.023534	0.614056	0.320529	0.136806	0.018176	0.752584	0.136196	0.329095	0.057961	0.185653	0.155263	0.566745	0.045398	0.605950	0.391207	0.481956	0.047237	0.303095	0.323311	0.096448	0.012910	0.490830	0.311951	0.460031	0.054138	0.263166	0.201737	0.179786	0.015364	0.359494	0.248349	0.519593	0.050263	0.219265	0.181094	0.060025	0.009351	0.459285	0.224895	0.137014	0.026247	0.434183	0.241118	0.134286	0.018687	0.751343	0.704479	0.477805	0.037238	0.214537	0.394314	0.111812	0.010008	0.392511	0.301457
14	0.390443	0.046849	0.242918	0.163558	0.317221	0.029128	0.926625	0.348075	0.577936	0.052859	0.234180	0.190785	0.088989	0.012302	0.731413	0.277913	0.282153	0.017964	0.614744	0.314503	0.120523	0.017345	0.747660	0.141411	0.377145	0.057341	0.194399	0.165101	0.568475	0.045436	0.590092	0.414086	0.470682	0.047464	0.327677	0.326428	0.095163	0.012734	0.484938	0.312942	0.458360	0.053264	0.282869	0.245759	0.182440	0.013591	0.348964	0.247282	0.591648	0.051656	0.237365	0.179799	0.062086	0.009600	0.417836	0.222350	0.127180	0.026181	0.439945	0.239924	0.136836	0.018531	0.786138	0.719437	0.472322	0.035120	0.208139	0.424120	0.106560	0.009961	0.392033	0.278682
15	0.366841	0.041868	0.234957	0.155618	0.276923	0.024357	0.935536	0.382491	0.586726	0.056553	0.232325	0.187871	0.089530	0.011842	0.743381	0.327173	0.228178	0.014029	0.604928	0.345554	0.068003	0.013188	0.739347	0.166986	0.419280	0.056931	0.239117	0.173488	0.569094	0.045647	0.597671	0.462650	0.466880	0.048161	0.334995	0.331161	0.091439	0.012476	0.468783	0.313519	0.458015	0.052783	0.283474	0.251157	0.182318	0.012173	0.352520	0.231720	0.623298	0.051783	0.278582	0.177345	0.063118	0.008786	0.328931	0.240830	0.138178	0.025144	0.454161	0.225637	0.137910	0.018098	0.818886	0.704699	0.450441	0.031467	0.232394	0.463998	0.099176	0.009743	0.379061	0.263559
16	0.368756	0.038916	0.222760	0.159787	0.251345	0.021262	0.938373	0.412258	0.708431	0.064140	0.231499	0.172855	0.089911	0.011397	0.733449	0.361655	0.199064	0.012831	0.602666	0.419927	0.061009	0.012346	0.666882	0.209961	0.428512	0.051512	0.290113	0.188398	0.569678	0.045597	0.566939	0.447898	0.484018	0.048801	0.335650	0.365589	0.088161	0.012564	0.456634	0.317306	0.458043	0.052574	0.287083	0.244153	0.182201	0.012148	0.366248	0.235603	0.629955	0.055282	0.298564	0.180478	0.063410	0.008966	0.299320	0.268406	0.152893	0.023217	0.464091	0.202654	0.134963	0.016716	0.825258	0.660470	0.418456	0.028280	0.291294	0.478389	0.092438	0.009341	0.360691	0.266832
17	0.361741	0.036721	0.250752	0.163269	0.217275	0.019632	0.922218	0.414770	0.830593	0.070115	0.237768	0.181665	0.089299	0.011308	0.699060	0.366845	0.167731	0.010715	0.657967	0.455740	0.053276	0.012241	0.525688	0.243920	0.430613	0.047680	0.311873	0.202986	0.570106	0.045480	0.527689	0.431484	0.519846	0.049286	0.412335	0.414874	0.085763	0.012148	0.447162	0.316065	0.455705	0.052094	0.281655	0.244304	0.184735	0.012786	0.374958	0.257643	0.694375	0.064604	0.298041	0.197609	0.069680	0.008989	0.297700	0.285009	0.163071	0.018706	0.486719	0.209869	0.123107	0.014586	0.809669	0.600110	0.375107	0.026088	0.320721	0.480122	0.085902	0.008701	0.345802	0.271921
18	0.292675	0.031462	0.262029	0.169229	0.193946	0.018604	0.880729	0.417177	0.864524	0.071450	0.235040	0.197985	0.089222	0.011373	0.664151	0.343477	0.109673	0.008617	0.714987	0.471601	0.053338	0.011570	0.455219	0.254055	0.432330	0.047455	0.316915	0.206308	0.569568	0.045295	0.463477	0.444765	0.518490	0.049120	0.534603	0.446359	0.082883	0.011039	0.446369	0.309250	0.455068	0.052158	0.271422	0.258000	0.185779	0.012965	0.357858	0.291829	0.720876	0.067390	0.312351	0.212025	0.079957	0.009960	0.309168	0.290718	0.163594	0.014902	0.542359	0.224592	0.106536	0.013029	0.735743	0.556255	0.324744	0.025276	0.326599	0.482235	0.077005	0.007404	0.335250	0.271766
19	0.289273	0.029557	0.259823	0.169560	0.180630	0.018017	0.818221	0.403679	0.872149	0.070900	0.208713	0.210319	0.090858	0.011263	0.657720	0.332585	0.110715	0.009221	0.742606	0.479162	0.075616	0.012073	0.438230	0.257054	0.434526	0.047778	0.317352	0.211364	0.568960	0.045078	0.367397	0.451073	0.510116	0.047963	0.570570	0.465859	0.081429	0.010782	0.436679	0.309271	0.477087	0.055221	0.258694	0.266449	0.179966	0.012973	0.344567	0.375674	0.707492	0.067085	0.354356	0.216131	0.087403	0.010602	0.370155	0.300179	0.170687	0.013690	0.595368	0.223799	0.099407	0.012884	0.673087	0.547427	0.312433	0.024935	0.323433	0.480149	0.069791	0.005815	0.306163	0.257189
20	0.289935	0.029373	0.246363	0.170916	0.175265	0.017921	0.765733	0.375232	0.875754	0.070435	0.213896	0.198126	0.092160	0.011273	0.666657	0.334394	0.111206	0.009156	0.770869	0.478752	0.114600	0.014388	0.427423	0.255950	0.442769	0.047524	0.305934	0.212578	0.569299	0.043831	0.313133	0.465461	0.504685	0.047375	0.582784	0.468698	0.080974	0.010699	0.397214	0.313502	0.512271	0.059401	0.273682	0.266711	0.172260	0.012268	0.334293	0.406666	0.714772	0.067283	0.419025	0.204215	0.095537	0.011155	0.409577	0.301106	0.174780	0.013185	0.615488	0.220705	0.098886	0.012869	0.660535	0.547511	0.271001	0.021337	0.312256	0.471771	0.071126	0.006162	0.276076	0.256108
21	0.289445	0.027083	0.244359	0.171474	0.167862	0.017796	0.742681	0.366724	0.877838	0.070085	0.219832	0.183677	0.092862	0.011403	0.679461	0.331694	0.107200	0.008611	0.776022	0.477636	0.123981	0.015371	0.434471	0.268957	0.435307	0.044940	0.297862	0.202219	0.553936	0.038972	0.320905	0.470520	0.534437	0.048788	0.586699	0.470548	0.083829	0.010788	0.349791	0.314740	0.539123	0.063620	0.274473	0.269697	0.159707	0.011278	0.331303	0.409164	0.731807	0.067715	0.440979	0.203766	0.100472	0.011409	0.415502	0.298194	0.175776	0.013142	0.620226	0.220146	0.100639	0.012642	0.659622	0.543076	0.229057	0.019809	0.307819	0.466471	0.065555	0.006319	0.276913	0.247132
22	0.289637	0.025073	0.225332	0.168456	0.155516	0.017273	0.740118	0.366666	0.877377	0.069625	0.219936	0.183327	0.093649	0.011300	0.675586	0.317022	0.100783	0.007700	0.775315	0.475797	0.124490	0.015237	0.435428	0.289535	0.421495	0.044431	0.297434	0.181809	0.515617	0.032125	0.277115	0.459596	0.567377	0.050119	0.587539	0.470719	0.088843	0.010935	0.362880	0.311046	0.589409	0.068278	0.263434	0.264321	0.142616	0.011057	0.326594	0.408212	0.737311	0.067865	0.439097	0.194242	0.101791	0.011470	0.421619	0.288437	0.178384	0.013447	0.619164	0.219272	0.102510	0.012545	0.654993	0.495302	0.227558	0.019824	0.307835	0.466478	0.058214	0.006070	0.296186	0.233842
23	0.289864	0.023867	0.221881	0.168237	0.148753	0.016827	0.740892	0.369711	0.877102	0.069161	0.212061	0.178516	0.092789	0.010581	0.649381	0.309427	0.088962	0.007637	0.774182	0.475841	0.127449	0.015074	0.454696	0.309359	0.429471	0.046004	0.297934	0.181945	0.477129	0.029846	0.228504	0.413742	0.580650	0.050717	0.586348	0.469229	0.091428	0.011362	0.398974	0.283399	0.650702	0.070168	0.262242	0.257733	0.136100	0.011078	0.329718	0.415169	0.739088	0.067949	0.434246	0.189718	0.101503	0.011497	0.426331	0.287991	0.180518	0.013594	0.611052	0.219416	0.100425	0.012307	0.611987	0.411287	0.234060	0.019911	0.307625	0.458973	0.055084	0.005979	0.299479	0.223824
24	0.291083	0.023861	0.232264	0.169445	0.149266	0.016832	0.732538	0.370615	0.876786	0.068394	0.198606	0.166711	0.086926	0.010214	0.599629	0.310143	0.110417	0.013608	0.772007	0.472233	0.132466	0.015101	0.543899	0.324056	0.480215	0.049066	0.307415	0.222959	0.446602	0.034132	0.226220	0.383493	0.587405	0.051577	0.585989	0.466014	0.081604	0.011135	0.410289	0.268702	0.653329	0.067817	0.273846	0.257183	0.132001	0.010838	0.338667	0.427952	0.740597	0.068000	0.435249	0.189650	0.101493	0.011453	0.429779	0.283180	0.180776	0.013500	0.588856	0.219524	0.093025	0.011548	0.532577	0.347844	0.258749	0.020623	0.299427	0.412160	0.054459	0.005975	0.288496	0.210418
25	0.294094	0.024313	0.236885	0.169745	0.145289	0.016371	0.689947	0.370677	0.875614	0.067146	0.212096	0.162929	0.076554	0.010029	0.543410	0.309897	0.156413	0.020662	0.754775	0.451937	0.136892	0.015278	0.583888	0.328706	0.496891	0.049915	0.328968	0.286800	0.441575	0.044211	0.225599	0.387098	0.587602	0.051050	0.584862	0.444745	0.081365	0.010442	0.403603	0.269064	0.626764	0.065637	0.288679	0.256947	0.093885	0.009219	0.324218	0.423001	0.743887	0.068073	0.432844	0.187647	0.100812	0.011212	0.432727	0.256683	0.180936	0.013561	0.560963	0.216421	0.081146	0.010325	0.447551	0.312823	0.280869	0.021011	0.278534	0.359532	0.054669	0.005754	0.270511	0.208942
26	0.285903	0.023298	0.238935	0.166410	0.126715	0.014520	0.588863	0.370947	0.874513	0.065961	0.231777	0.168292	0.071660	0.009879	0.506000	0.309133	0.215765	0.026559	0.709388	0.428130	0.138545	0.015445	0.594139	0.335109	0.490813	0.049623	0.361975	0.328604	0.380592	0.309827	0.221757	0.389136	0.520497	0.043718	0.573415	0.414081	0.081014	0.009422	0.377590	0.255191	0.603969	0.062512	0.296545	0.255877	0.080447	0.008382	0.297898	0.422560	0.745020	0.067911	0.430452	0.186753	0.099184	0.011043	0.429993	0.251761	0.181151	0.013800	0.537820	0.184544	0.069165	0.008505	0.403009	0.300039	0.293279	0.021974	0.275029	0.341973	0.054733	0.005429	0.261447	0.194033
27	0.278742	0.022721	0.238649	0.138307	0.099934	0.011448	0.440625	0.362070	0.867476	0.065360	0.246724	0.168812	0.073419	0.009120	0.488234	0.306465	0.291821	0.030137	0.651564	0.410895	0.140632	0.015766	0.602056	0.338613	0.463027	0.046990	0.393080	0.338519	0.178474	0.716962	0.221088	0.395514	0.462474	0.034123	0.545505	0.373455	0.075394	0.008132	0.360368	0.221817	0.648645	0.064245	0.294749	0.253924	0.086374	0.009392	0.271664	0.424083	0.743962	0.067201	0.427156	0.186473	0.096682	0.010921	0.425365	0.250009	0.192252	0.015128	0.520538	0.145330	0.065939	0.007140	0.392002	0.340189	0.340365	0.028056	0.293408	0.349838	0.053894	0.005416	0.259767	0.192794
28	0.277678	0.022814	0.243426	0.114527	0.082983	0.009065	0.365065	0.348991	0.877255	0.066819	0.251956	0.165875	0.074595	0.008438	0.486318	0.307043	0.301125	0.030643	0.593574	0.398477	0.145259	0.016515	0.597167	0.341054	0.419837	0.041073	0.405891	0.337031	0.088697	0.982836	0.222589	0.395381	0.450296	0.032352	0.515055	0.356360	0.074202	0.007959	0.350696	0.183094	0.725568	0.070028	0.279002	0.254578	0.091979	0.010467	0.257943	0.423225	0.731879	0.062403	0.423182	0.184731	0.092652	0.010731	0.408490	0.247363	0.214748	0.017388	0.496055	0.140245	0.068761	0.007123	0.394156	0.357580	0.364789	0.033904	0.318251	0.355004	0.051883	0.005423	0.244505	0.197644
29	0.272805	0.022560	0.244069	0.115407	0.072490	0.007558	0.357809	0.337059	0.885158	0.068941	0.250621	0.163932	0.072659	0.007185	0.479388	0.310263	0.303706	0.032858	0.560378	0.395669	0.154033	0.017706	0.591361	0.341201	0.383675	0.034997	0.377546	0.361605	0.082620	1.030874	0.201433	0.368426	0.450365	0.031602	0.498548	0.354866	0.068349	0.007234	0.346150	0.146384	0.754025	0.072309	0.241368	0.234277	0.079231	0.010774	0.255867	0.423112	0.697203	0.055985	0.426683	0.179845	0.088669	0.010504	0.370721	0.243026	0.227187	0.019544	0.484531	0.139830	0.065874	0.006929	0.372467	0.320447	0.353159	0.035026	0.341466	0.351781	0.049087	0.005504	0.242398	0.199654
30	0.259048	0.021609	0.256716	0.106839	0.069324	0.006911	0.360447	0.325055	0.889313	0.069693	0.248359	0.168105	0.068843	0.005856	0.457072	0.313361	0.303684	0.033253	0.542703	0.389416	0.166571	0.019086	0.589611	0.335949	0.369448	0.032334	0.345564	0.390182	0.078446	1.097280	0.192212	0.352934	0.452980	0.031075	0.494693	0.344787	0.068217	0.007130	0.344866	0.139366	0.768523	0.073229	0.230593	0.183055	0.083462	0.011161	0.252490	0.420375	0.638134	0.052366	0.431620	0.178992	0.085837	0.010107	0.350806	0.242640	0.230618	0.020275	0.480929	0.138704	0.059359	0.006181	0.271814	0.279918	0.351533	0.036371	0.355812	0.324735	0.046276	0.005586	0.257343	0.185952
31	0.247560	0.020924	0.240241	0.102847	0.069233	0.006771	0.350396	0.320058	0.896048	0.068671	0.248394	0.180103	0.063936	0.005281	0.423407	0.318974	0.305432	0.033311	0.536794	0.332784	0.178634	0.020361	0.584888	0.324460	0.363955	0.031841	0.357695	0.410868	0.075591	1.143797	0.213143	0.367451	0.440339	0.032378	0.490135	0.297017	0.066964	0.007083	0.337965	0.138221	0.773857	0.073538	0.228559	0.168534	0.090988	0.011421	0.236388	0.412418	0.590047	0.051408	0.427720	0.179671	0.084707	0.009906	0.351617	0.229429	0.226030	0.020231	0.465311	0.138656	0.055015	0.005542	0.186765	0.273579	0.360057	0.036499	0.352484	0.263174	0.047158	0.005607	0.267502	0.156116
32	0.235803	0.020902	0.230324	0.101181	0.068482	0.006739	0.323047	0.321159	0.878145	0.068414	0.248618	0.193306	0.058727	0.005046	0.381023	0.314244	0.313467	0.033331	0.515339	0.237480	0.188518	0.021136	0.566364	0.301440	0.364139	0.032460	0.381023	0.415235	0.071421	1.174516	0.236403	0.362929	0.454173	0.038050	0.391273	0.223324	0.063679	0.006837	0.313539	0.124302	0.774512	0.073542	0.224218	0.170149	0.097149	0.011679	0.214599	0.418847	0.570400	0.051667	0.407596	0.179502	0.084523	0.010219	0.350638	0.196465	0.221547	0.020033	0.457246	0.142022	0.053862	0.005406	0.167605	0.286752	0.374995	0.042864	0.308378	0.205080	0.058783	0.005592	0.269821	0.146835
33	0.210136	0.020949	0.233536	0.094909	0.064718	0.006348	0.300166	0.282442	0.797502	0.066808	0.246263	0.189725	0.055256	0.004945	0.339521	0.269004	0.339305	0.034796	0.416153	0.180671	0.192022	0.021216	0.549157	0.272804	0.363559	0.032210	0.395274	0.413171	0.070150	1.196945	0.251866	0.352338	0.518276	0.045092	0.227228	0.156538	0.061102	0.006802	0.296185	0.113002	0.775255	0.073399	0.227754	0.182666	0.095375	0.010553	0.216008	0.424379	0.574188	0.046766	0.404597	0.175137	0.080742	0.011138	0.351926	0.160694	0.213642	0.019434	0.440744	0.136626	0.053971	0.005648	0.160783	0.304135	0.445880	0.055076	0.286065	0.162198	0.061724	0.005536	0.272395	0.142768
34	0.215678	0.021270	0.235101	0.087873	0.057344	0.005300	0.266581	0.225791	0.762622	0.066016	0.241133	0.174756	0.056687	0.005517	0.306682	0.213703	0.406298	0.037490	0.327039	0.132460	0.215434	0.022093	0.538606	0.263688	0.346352	0.031344	0.398326	0.414585	0.068513	1.213253	0.260631	0.349457	0.581418	0.048565	0.145593	0.104930	0.060864	0.007306	0.295728	0.100777	0.771150	0.072177	0.235344	0.177610	0.101067	0.010294	0.214006	0.381989	0.487583	0.033047	0.412668	0.152226	0.070392	0.010519	0.344304	0.139531	0.204092	0.018703	0.377149	0.117131	0.053647	0.005720	0.161747	0.322083	0.465967	0.058522	0.296659	0.148001	0.061398	0.005733	0.273714	0.133985
35	0.237459	0.023127	0.235235	0.080870	0.053416	0.004581	0.239383	0.216743	0.755830	0.066200	0.231611	0.157063	0.063304	0.006019	0.293788	0.196429	0.410979	0.037881	0.254994	0.110534	0.223351	0.022037	0.530256	0.259341	0.333415	0.031049	0.402851	0.429861	0.070358	1.223687	0.239934	0.352659	0.595481	0.048724	0.097268	0.095285	0.061296	0.008408	0.306972	0.092143	0.752499	0.068513	0.238232	0.188429	0.114255	0.013049	0.221507	0.319396	0.447351	0.028405	0.401108	0.114908	0.060739	0.009582	0.287204	0.113291	0.195247	0.018162	0.289623	0.119325	0.053936	0.005676	0.210278	0.324095	0.469931	0.059060	0.312377	0.143705	0.059179	0.005662	0.265634	0.114642
36	0.306069	0.030293	0.233450	0.079161	0.053514	0.004625	0.222205	0.212292	0.754011	0.066544	0.218768	0.153668	0.063596	0.006022	0.291343	0.195578	0.439587	0.039363	0.177662	0.115289	0.210073	0.020256	0.517417	0.258532	0.331438	0.030771	0.423984	0.444053	0.068109	1.230304	0.241523	0.361465	0.552491	0.047700	0.082460	0.086718	0.063482	0.008819	0.324800	0.091177	0.718246	0.063356	0.224529	0.214889	0.173623	0.017612	0.268194	0.302735	0.448257	0.028481	0.354059	0.084890	0.050929	0.011699	0.208234	0.109633	0.190389	0.018021	0.257879	0.121005	0.055668	0.005641	0.287310	0.373032	0.471063	0.059351	0.319905	0.141882	0.058115	0.005565	0.256882	0.105912
37	0.314313	0.030458	0.230790	0.081590	0.054076	0.005006	0.199355	0.200717	0.753322	0.066780	0.217831	0.153596	0.060665	0.005698	0.272371	0.186288	0.460998	0.039538	0.168450	0.128661	0.202570	0.019085	0.505911	0.247805	0.298706	0.027390	0.446783	0.447233	0.066270	1.234202	0.261741	0.368234	0.523808	0.047220	0.099524	0.084154	0.062511	0.008610	0.334966	0.090408	0.672369	0.057613	0.216446	0.244845	0.193259	0.018962	0.319575	0.309821	0.428738	0.028416	0.274108	0.089556	0.049995	0.014454	0.203190	0.108827	0.187663	0.018019	0.259429	0.119629	0.061040	0.005808	0.333554	0.464019	0.471193	0.059407	0.322471	0.142512	0.062677	0.005617	0.251544	0.101645
38	0.310010	0.029821	0.232324	0.081226	0.055180	0.005521	0.185432	0.199432	0.753933	0.066947	0.220218	0.153353	0.057674	0.005292	0.249623	0.180374	0.467610	0.039834	0.175264	0.143403	0.203861	0.019114	0.504868	0.221279	0.208025	0.020448	0.467999	0.434779	0.064788	1.236198	0.271148	0.366957	0.535077	0.050062	0.105177	0.085057	0.054756	0.007809	0.309607	0.094138	0.610644	0.052297	0.232376	0.266883	0.197088	0.019109	0.329422	0.312644	0.403480	0.027478	0.249237	0.086866	0.057095	0.015447	0.215602	0.107398	0.189075	0.018317	0.261490	0.120803	0.069215	0.005985	0.347358	0.494591	0.472022	0.059472	0.323484	0.140203	0.076659	0.005047	0.240245	0.098947
39	0.299664	0.029579	0.242482	0.089841	0.053743	0.005656	0.184934	0.199101	0.754449	0.067069	0.219907	0.153789	0.055204	0.005022	0.204702	0.173304	0.466675	0.040339	0.201039	0.176322	0.202832	0.019194	0.496724	0.187601	0.158525	0.017345	0.475240	0.396501	0.063999	1.237132	0.272353	0.359518	0.530875	0.051223	0.106340	0.083630	0.048174	0.007065	0.246133	0.093940	0.553316	0.049292	0.268336	0.268764	0.199672	0.019109	0.319736	0.296269	0.396188	0.027331	0.247928	0.084670	0.067765	0.015939	0.227287	0.103121	0.194781	0.018994	0.262532	0.145815	0.084132	0.006558	0.348533	0.494749	0.475731	0.059738	0.323552	0.140967	0.081599	0.007505	0.215032	0.091315
40	0.295984	0.029837	0.285046	0.143992	0.050769	0.005573	0.185588	0.202689	0.754526	0.067073	0.217162	0.153519	0.052912	0.004846	0.154507	0.167495	0.500305	0.046884	0.246330	0.248406	0.198748	0.019059	0.416334	0.156084	0.132225	0.016622	0.454392	0.368550	0.063819	1.237830	0.272662	0.349989	0.527322	0.051378	0.109215	0.083483	0.045598	0.006591	0.215989	0.093066	0.546883	0.048937	0.276388	0.268126	0.201368	0.019111	0.305380	0.274259	0.395400	0.027113	0.248521	0.083705	0.074915	0.016297	0.250623	0.116869	0.202150	0.019878	0.280194	0.177035	0.091190	0.006782	0.350785	0.498816	0.473590	0.059745	0.323622	0.142141	0.101508	0.010561	0.195603	0.089237
41	0.296656	0.029876	0.333655	0.189494	0.043450	0.005219	0.185291	0.200261	0.751865	0.066519	0.206221	0.153325	0.052552	0.004626	0.151304	0.170681	0.581524	0.054548	0.304160	0.301707	0.194487	0.018870	0.323644	0.141353	0.127280	0.016602	0.480439	0.363348	0.062924	1.154760	0.271465	0.346193	0.526973	0.051673	0.120466	0.083353	0.047661	0.006573	0.213058	0.087654	0.545938	0.047904	0.259674	0.270006	0.201432	0.019258	0.298584	0.263313	0.396460	0.026935	0.249499	0.104641	0.075050	0.016342	0.272792	0.133638	0.208503	0.020846	0.293713	0.193553	0.091396	0.007515	0.360156	0.508601	0.462810	0.059344	0.325519	0.141467	0.108577	0.011381	0.194963	0.088968
42	0.297059	0.029941	0.355189	0.200680	0.039591	0.005061	0.183865	0.195551	0.732056	0.064041	0.186643	0.159161	0.053038	0.004546	0.176439	0.184394	0.573519	0.053627	0.339902	0.326974	0.192483	0.018751	0.310063	0.128110	0.126881	0.016617	0.541854	0.360146	0.062769	0.950972	0.268459	0.341568	0.528720	0.051941	0.136682	0.083929	0.055375	0.007291	0.220381	0.087124	0.536501	0.046905	0.252167	0.284193	0.205341	0.020188	0.333451	0.266390	0.390602	0.026737	0.250453	0.142994	0.075721	0.016359	0.279178	0.142229	0.211632	0.021740	0.304063	0.206651	0.102868	0.010635	0.364894	0.512770	0.450556	0.058831	0.327762	0.138564	0.110741	0.011477	0.195338	0.089044
43	0.296935	0.029909	0.360292	0.205847	0.038110	0.005184	0.192203	0.196049	0.688607	0.059854	0.171882	0.186435	0.052333	0.004566	0.207841	0.209335	0.547362	0.052587	0.349413	0.342287	0.191101	0.018498	0.292990	0.123579	0.118408	0.015688	0.557852	0.327807	0.062855	0.714659	0.267315	0.356501	0.535043	0.052231	0.137538	0.090685	0.068292	0.008533	0.232796	0.091159	0.422837	0.037455	0.252073	0.310084	0.208377	0.020827	0.390383	0.286733	0.396130	0.027060	0.256603	0.151947	0.077881	0.016461	0.279425	0.137326	0.208426	0.022209	0.319647	0.211541	0.117122	0.013164	0.386072	0.510568	0.413056	0.056307	0.318766	0.117616	0.111974	0.011507	0.195883	0.087927
44	0.296046	0.030252	0.352068	0.204658	0.040471	0.005584	0.200530	0.178850	0.625943	0.054920	0.180984	0.206522	0.050287	0.004578	0.228936	0.236622	0.545744	0.052034	0.349319	0.345951	0.188516	0.017886	0.280005	0.124507	0.106897	0.014241	0.550630	0.291968	0.063487	0.647249	0.259517	0.341403	0.537362	0.052286	0.135871	0.092783	0.072121	0.009081	0.244836	0.095070	0.262174	0.022952	0.267537	0.338436	0.210170	0.021239	0.444326	0.304682	0.402252	0.025060	0.256607	0.151293	0.078777	0.016549	0.287736	0.135542	0.186327	0.021592	0.323421	0.214033	0.125430	0.014735	0.410733	0.521884	0.355346	0.051853	0.293482	0.094574	0.111996	0.011537	0.196229	0.079380
45	0.285797	0.030400	0.335042	0.224308	0.051238	0.006119	0.203176	0.170790	0.543932	0.050181	0.184531	0.220751	0.047393	0.004632	0.252198	0.264056	0.544664	0.050843	0.350014	0.346629	0.182405	0.016628	0.272945	0.120549	0.089241	0.012647	0.529020	0.257416	0.063179	0.550117	0.244057	0.292128	0.533491	0.051636	0.134236	0.099137	0.071940	0.009344	0.251234	0.100147	0.188350	0.017488	0.325763	0.347240	0.209303	0.021211	0.475636	0.311305	0.373584	0.022082	0.254678	0.152891	0.079765	0.016730	0.303236	0.140805	0.168802	0.020976	0.322885	0.214850	0.129258	0.015490	0.420414	0.526850	0.352704	0.050380	0.263191	0.093808	0.111996	0.011615	0.195257	0.056955
46	0.278984	0.031880	0.359165	0.269731	0.063742	0.006658	0.211980	0.164181	0.491688	0.048239	0.213052	0.219734	0.045670	0.004954	0.284229	0.272702	0.544859	0.050963	0.351316	0.362018	0.172091	0.014832	0.265387	0.120963	0.073683	0.010891	0.514251	0.247229	0.061256	0.453527	0.225393	0.277069	0.511554	0.048446	0.141685	0.124820	0.071726	0.009586	0.254217	0.103083	0.136681	0.015150	0.354852	0.345662	0.206224	0.021036	0.493088	0.311761	0.347162	0.020104	0.248411	0.154693	0.081995	0.016983	0.332563	0.151504	0.154308	0.021034	0.324499	0.221862	0.130680	0.015787	0.424170	0.528001	0.350978	0.049543	0.239321	0.116179	0.111927	0.011677	0.185835	0.042338
47	0.275356	0.034564	0.449210	0.302082	0.067435	0.006761	0.253173	0.152741	0.482655	0.047723	0.252454	0.223035	0.048606	0.005494	0.308497	0.268037	0.546705	0.051643	0.376431	0.402237	0.159484	0.012685	0.261460	0.121734	0.060680	0.009681	0.508251	0.246993	0.058275	0.371791	0.207201	0.274152	0.468592	0.042403	0.161610	0.140525	0.071385	0.009788	0.256487	0.102287	0.122209	0.014299	0.359684	0.346458	0.203148	0.020883	0.492718	0.305699	0.325167	0.018604	0.233924	0.157323	0.083958	0.017225	0.358365	0.155851	0.148383	0.021502	0.325309	0.230921	0.131236	0.015852	0.425399	0.524069	0.341520	0.049186	0.230143	0.119122	0.111763	0.011687	0.165779	0.036537
48	0.268792	0.037042	0.495641	0.327999	0.067426	0.006816	0.300453	0.136686	0.401800	0.040388	0.283122	0.219738	0.048929	0.005551	0.319099	0.260040	0.547509	0.052462	0.418858	0.424368	0.145238	0.010848	0.259569	0.121882	0.048187	0.008928	0.515019	0.241708	0.058193	0.303548	0.196717	0.255761	0.381767	0.034935	0.174755	0.134832	0.072934	0.009806	0.257576	0.102011	0.119139	0.013807	0.359129	0.346768	0.201626	0.020886	0.486092	0.280678	0.302955	0.019542	0.217425	0.174916	0.085374	0.017243	0.373338	0.156284	0.141111	0.022169	0.322123	0.239721	0.131334	0.015812	0.423711	0.514152	0.345445	0.046365	0.234465	0.136955	0.112183	0.011784	0.143725	0.035105
49	0.261688	0.038878	0.514241	0.336544	0.067649	0.007062	0.318279	0.123033	0.282606	0.031962	0.305293	0.215242	0.051702	0.005783	0.320128	0.252217	0.516520	0.051189	0.431978	0.429067	0.142195	0.010656	0.244757	0.119128	0.040791	0.008848	0.519271	0.220667	0.053016	0.239951	0.198967	0.227748	0.281453	0.031328	0.178497	0.154002	0.075385	0.009743	0.255841	0.102138	0.110407	0.013159	0.357127	0.335720	0.202257	0.021299	0.496933	0.299980	0.281956	0.021586	0.207213	0.194195	0.085749	0.016814	0.380523	0.155636	0.135995	0.023108	0.317095	0.238593	0.131242	0.015738	0.423434	0.499587	0.267882	0.031598	0.258418	0.197649	0.108133	0.011864	0.128259	0.038745
50	0.172514	0.035402	0.520559	0.338321	0.068354	0.007477	0.321071	0.114581	0.219096	0.035161	0.306180	0.219257	0.054298	0.006052	0.333910	0.248521	0.482823	0.050429	0.432836	0.437915	0.110061	0.009434	0.223793	0.112527	0.041854	0.009378	0.501312	0.199485	0.034367	0.187663	0.198672	0.201297	0.266879	0.031130	0.178064	0.201263	0.074751	0.009386	0.250777	0.102389	0.112054	0.013149	0.355622	0.344471	0.202592	0.021433	0.533827	0.309020	0.251568	0.024252	0.201351	0.200313	0.086225	0.016807	0.386137	0.154106	0.135982	0.023839	0.307104	0.240436	0.131140	0.015771	0.420230	0.491917	0.204780	0.019688	0.313319	0.267476	0.104279	0.011989	0.114716	0.049075
51	0.114612	0.034941	0.524716	0.354640	0.068625	0.007971	0.318715	0.116100	0.271795	0.046113	0.315726	0.222260	0.054710	0.006117	0.352253	0.256443	0.481705	0.050859	0.434349	0.449674	0.070056	0.007251	0.188981	0.105156	0.042054	0.009737	0.480104	0.218238	0.031738	0.149694	0.176912	0.180077	0.265076	0.030038	0.180384	0.247239	0.072916	0.008426	0.236788	0.104074	0.115578	0.013150	0.366172	0.463729	0.188644	0.019517	0.569310	0.307315	0.248320	0.026139	0.185012	0.204627	0.086538	0.017017	0.387418	0.153495	0.139056	0.024444	0.282325	0.283261	0.130695	0.015823	0.388548	0.489670	0.196233	0.017295	0.361350	0.348685	0.104159	0.012160	0.105417	0.057181
52	0.107585	0.035999	0.558231	0.425154	0.068262	0.008613	0.315755	0.122977	0.366197	0.055991	0.329658	0.236798	0.056074	0.006493	0.372608	0.278648	0.456407	0.050713	0.442001	0.453863	0.051576	0.006933	0.157196	0.104919	0.042077	0.009308	0.451694	0.244951	0.033626	0.122816	0.148104	0.176035	0.258278	0.028470	0.189299	0.299942	0.071422	0.007705	0.211815	0.098781	0.119701	0.013324	0.388221	0.613268	0.140877	0.016129	0.574169	0.324147	0.244181	0.027480	0.176473	0.206636	0.085380	0.015895	0.385888	0.152272	0.141168	0.025224	0.254163	0.394635	0.129131	0.015904	0.338712	0.435384	0.202251	0.016426	0.430179	0.395437	0.105258	0.012121	0.103156	0.059096
53	0.107438	0.036502	0.593448	0.476576	0.067694	0.009233	0.315553	0.128315	0.449888	0.061411	0.336923	0.290699	0.058423	0.007723	0.424899	0.301142	0.441463	0.051098	0.453559	0.450353	0.042689	0.007084	0.143806	0.103719	0.039344	0.007926	0.429498	0.248168	0.039917	0.106606	0.172875	0.194369	0.175912	0.020940	0.266759	0.461690	0.070581	0.007695	0.183520	0.094443	0.120067	0.013521	0.411970	0.656825	0.126366	0.015407	0.610776	0.332660	0.229047	0.028402	0.176360	0.212395	0.079910	0.012786	0.379425	0.151053	0.143268	0.025926	0.232643	0.512826	0.126348	0.016086	0.335492	0.348548	0.208302	0.016171	0.512822	0.400650	0.104197	0.012079	0.099072	0.069101
54	0.107459	0.036791	0.598948	0.485871	0.068693	0.010203	0.328322	0.129227	0.483444	0.062053	0.338059	0.375592	0.061581	0.008976	0.506343	0.307251	0.436632	0.051097	0.452753	0.444054	0.034209	0.006951	0.146792	0.100052	0.045031	0.007774	0.428893	0.259029	0.050532	0.099992	0.221994	0.226214	0.155129	0.018437	0.364064	0.565082	0.070190	0.007727	0.160866	0.088875	0.117842	0.014735	0.414187	0.652309	0.122582	0.015397	0.650761	0.345501	0.221653	0.029583	0.167077	0.234134	0.071744	0.010851	0.363779	0.151268	0.142387	0.026224	0.231355	0.589328	0.120702	0.016187	0.360355	0.326994	0.208549	0.016689	0.568335	0.401507	0.102296	0.011845	0.090181	0.077744
55	0.103430	0.037113	0.573660	0.469742	0.069720	0.010864	0.358073	0.129409	0.488119	0.063114	0.353894	0.442235	0.065181	0.010169	0.553885	0.307639	0.440014	0.049730	0.443563	0.427433	0.025681	0.006555	0.147870	0.098531	0.046196	0.008055	0.372280	0.317811	0.064864	0.099782	0.264837	0.288841	0.138616	0.018076	0.417792	0.591833	0.070174	0.007885	0.161756	0.090163	0.118237	0.018034	0.407368	0.678504	0.118666	0.015326	0.664925	0.352558	0.216756	0.030807	0.141248	0.251333	0.061808	0.009997	0.345581	0.151080	0.137544	0.025948	0.321786	0.628149	0.111051	0.016004	0.380291	0.331531	0.198198	0.017905	0.603361	0.402149	0.093594	0.011737	0.091010	0.078242
56	0.102165	0.037151	0.554627	0.463817	0.070015	0.011112	0.374387	0.133312	0.532797	0.065673	0.387200	0.464801	0.065798	0.010601	0.566066	0.309037	0.348874	0.037791	0.434660	0.387468	0.023046	0.006418	0.145055	0.099775	0.050241	0.008012	0.307344	0.338068	0.080640	0.102656	0.304480	0.321212	0.124962	0.018049	0.441473	0.593497	0.070293	0.008143	0.205102	0.102552	0.151963	0.026916	0.402705	0.753437	0.116281	0.015265	0.665548	0.352320	0.215950	0.031717	0.136508	0.258503	0.050064	0.009268	0.325138	0.148012	0.134427	0.025428	0.440030	0.622796	0.111962	0.016229	0.384917	0.322892	0.182091	0.020491	0.613635	0.404086	0.093177	0.011341	0.098810	0.086196
57	0.096322	0.037122	0.548082	0.461051	0.072141	0.011532	0.384011	0.158416	0.567679	0.066553	0.394364	0.464906	0.065653	0.010720	0.566523	0.309496	0.221328	0.026477	0.424767	0.396271	0.023409	0.006558	0.149325	0.113949	0.052819	0.008090	0.303774	0.338407	0.087130	0.105731	0.330571	0.314109	0.105869	0.017938	0.462245	0.608869	0.069020	0.008295	0.253606	0.117178	0.249018	0.038881	0.429555	0.839378	0.116212	0.014626	0.667970	0.351892	0.213404	0.032965	0.154433	0.322425	0.049932	0.009187	0.310755	0.148635	0.130770	0.024688	0.529685	0.638440	0.113497	0.015771	0.376265	0.312964	0.172392	0.023029	0.635195	0.405764	0.075464	0.008449	0.116724	0.090778
58	0.096833	0.036970	0.547606	0.460803	0.076352	0.012040	0.400489	0.177545	0.578412	0.066510	0.411053	0.492420	0.065462	0.010753	0.561353	0.308960	0.199328	0.024770	0.448371	0.491684	0.024925	0.006707	0.197173	0.133940	0.053090	0.008256	0.304208	0.330997	0.087572	0.107408	0.339653	0.305787	0.069857	0.018674	0.476501	0.684602	0.065791	0.008123	0.280122	0.119219	0.342170	0.047430	0.509304	0.875024	0.113950	0.013064	0.650879	0.344578	0.208630	0.033958	0.156306	0.389593	0.053760	0.009515	0.331454	0.162146	0.127133	0.023991	0.577890	0.674445	0.099513	0.013605	0.379071	0.295602	0.174884	0.024244	0.679581	0.405738	0.056277	0.006248	0.136150	0.098551
59	0.094499	0.036282	0.547976	0.457618	0.081607	0.012719	0.417566	0.172212	0.583624	0.066461	0.450425	0.610645	0.064742	0.010774	0.554960	0.304381	0.193596	0.024545	0.512586	0.599848	0.027157	0.006742	0.263323	0.143735	0.053295	0.008236	0.296019	0.326302	0.091501	0.107726	0.348390	0.327683	0.084496	0.023059	0.504230	0.830439	0.054996	0.007058	0.299174	0.118406	0.371423	0.051095	0.557051	0.873845	0.119280	0.011872	0.630697	0.327686	0.208432	0.034263	0.153986	0.405078	0.060134	0.009979	0.365563	0.189671	0.121882	0.023657	0.596036	0.718173	0.080907	0.011212	0.377230	0.244373	0.179526	0.024718	0.688160	0.417562	0.047674	0.005736	0.144386	0.101979
60	0.078606	0.034570	0.552557	0.436141	0.085295	0.013135	0.434187	0.166570	0.590199	0.066458	0.456867	0.796202	0.064374	0.010778	0.546388	0.294165	0.193777	0.025203	0.536871	0.626903	0.029197	0.006723	0.315782	0.147123	0.053977	0.008204	0.284294	0.325458	0.100901	0.106363	0.369159	0.334306	0.141602	0.031296	0.683775	0.944813	0.047273	0.006307	0.299548	0.142740	0.376057	0.051257	0.556745	0.863637	0.119711	0.010991	0.607123	0.317762	0.188513	0.034138	0.151420	0.415278	0.069780	0.010727	0.383987	0.220208	0.123233	0.024067	0.594650	0.746063	0.068221	0.009314	0.371362	0.206469	0.198669	0.028018	0.687747	0.478994	0.049422	0.005646	0.144117	0.103957
61	0.056421	0.031885	0.499554	0.434865	0.085278	0.013142	0.439321	0.163081	0.598600	0.066443	0.448036	0.894575	0.064812	0.010835	0.534952	0.276765	0.193291	0.026416	0.536873	0.626410	0.032437	0.006732	0.354895	0.144827	0.058164	0.008100	0.274981	0.325728	0.104967	0.104072	0.375473	0.334545	0.212631	0.040545	0.826825	0.982305	0.046855	0.006046	0.293975	0.170378	0.382437	0.051341	0.530535	0.861002	0.119507	0.010888	0.586609	0.322368	0.148356	0.034012	0.197513	0.420640	0.078959	0.011398	0.387999	0.235876	0.139015	0.025099	0.623701	0.758914	0.066121	0.008612	0.369148	0.202858	0.245430	0.034604	0.691522	0.576993	0.055529	0.005649	0.143459	0.111111
62	0.049097	0.030416	0.438699	0.438210	0.082282	0.012938	0.436301	0.163113	0.606306	0.066394	0.445918	0.941595	0.065788	0.010967	0.525983	0.254170	0.187610	0.026599	0.535818	0.625051	0.032519	0.006636	0.373403	0.144878	0.061851	0.008079	0.260547	0.327105	0.104819	0.101169	0.374322	0.343042	0.294436	0.047709	0.879223	0.987419	0.046662	0.005814	0.291702	0.180653	0.423425	0.052687	0.521077	0.861511	0.120246	0.011300	0.578400	0.323260	0.140166	0.034005	0.282997	0.421158	0.083716	0.011788	0.384200	0.230430	0.153652	0.025678	0.662276	0.760892	0.072698	0.008975	0.373950	0.206605	0.384222	0.046996	0.718919	0.657043	0.056987	0.005622	0.143887	0.114329
63	0.046101	0.032873	0.459149	0.443804	0.076266	0.012689	0.430466	0.158891	0.613972	0.066316	0.443964	0.964209	0.066719	0.011105	0.516167	0.224298	0.178374	0.025787	0.512376	0.644219	0.037450	0.006676	0.375168	0.163479	0.063066	0.007890	0.245275	0.320259	0.104727	0.097239	0.369556	0.349488	0.362895	0.051712	0.897605	0.988517	0.048560	0.005495	0.290750	0.180637	0.453578	0.053851	0.523705	0.861233	0.119753	0.011482	0.578736	0.330021	0.109969	0.034150	0.321594	0.426726	0.082980	0.011534	0.362837	0.248243	0.157328	0.025149	0.688876	0.759743	0.078317	0.009406	0.378579	0.206557	0.589519	0.062307	0.833271	0.683457	0.057209	0.005460	0.146475	0.114867
64	0.051019	0.034621	0.533008	0.445497	0.066481	0.012402	0.420335	0.156731	0.619524	0.066168	0.430521	0.963092	0.067553	0.011163	0.504038	0.209321	0.168679	0.026683	0.484605	0.753472	0.042555	0.006804	0.399983	0.193778	0.061678	0.007198	0.260246	0.322433	0.106605	0.092688	0.365439	0.351599	0.388659	0.052430	0.909638	0.983462	0.048910	0.005360	0.325636	0.193463	0.472570	0.054422	0.534907	0.859971	0.117169	0.011060	0.583850	0.339918	0.088367	0.034199	0.325190	0.435166	0.093119	0.012069	0.357550	0.294665	0.156733	0.024476	0.696833	0.760874	0.081592	0.009490	0.378751	0.206323	0.748904	0.072314	0.963764	0.687178	0.057397	0.005862	0.147325	0.123037
65	0.071827	0.035805	0.560462	0.441142	0.062453	0.012315	0.394675	0.156875	0.622192	0.065383	0.437468	0.983334	0.066736	0.011201	0.506639	0.212545	0.179478	0.030545	0.568586	0.834292	0.046405	0.006707	0.454792	0.203321	0.063833	0.006747	0.293135	0.297007	0.114497	0.087797	0.364901	0.350652	0.390140	0.052544	0.916569	0.973983	0.043278	0.005410	0.350024	0.231356	0.481169	0.054589	0.540522	0.860386	0.115827	0.010216	0.579263	0.364454	0.097676	0.033417	0.345047	0.429171	0.105901	0.012914	0.405806	0.320861	0.155476	0.023526	0.702401	0.790498	0.082808	0.009461	0.380719	0.205152	0.801718	0.074711	1.012774	0.675041	0.057028	0.006864	0.169347	0.128263
66	0.088469	0.047434	0.550797	0.389758	0.062679	0.012322	0.356950	0.156017	0.617101	0.062131	0.452176	1.035834	0.069267	0.011559	0.521765	0.216593	0.191156	0.033589	0.722318	0.851224	0.046899	0.006561	0.493748	0.203507	0.064701	0.006740	0.301114	0.267697	0.117364	0.082308	0.364876	0.359520	0.413417	0.053898	0.918831	0.964219	0.041359	0.005735	0.350086	0.236563	0.483522	0.054634	0.536565	0.845397	0.116657	0.009523	0.584439	0.404982	0.105116	0.031089	0.352206	0.423614	0.115792	0.013384	0.437079	0.331184	0.153527	0.023974	0.726066	0.809935	0.083904	0.009476	0.378038	0.200933	0.816562	0.074744	1.013094	0.653685	0.058481	0.007179	0.198991	0.127797
67	0.093401	0.211427	0.519705	0.313234	0.062547	0.012232	0.347299	0.157236	0.590365	0.054872	0.451255	1.090693	0.072145	0.011987	0.540967	0.217467	0.189169	0.034155	0.784927	0.849487	0.046658	0.006205	0.497844	0.203387	0.065549	0.006557	0.299452	0.270546	0.122912	0.076153	0.371600	0.398560	0.436593	0.055412	0.913397	0.941452	0.042136	0.006688	0.353582	0.244145	0.484525	0.054645	0.523668	0.762059	0.117357	0.009173	0.595415	0.414872	0.108959	0.028593	0.346912	0.429527	0.120655	0.013312	0.450098	0.334796	0.148320	0.027420	0.758990	0.808809	0.083356	0.009915	0.371862	0.195705	0.822862	0.076971	0.995946	0.617414	0.059749	0.007463	0.211683	0.125140
68	0.093681	0.677051	0.488260	0.267694	0.061813	0.012094	0.369661	0.158749	0.537434	0.045133	0.458748	1.119912	0.075151	0.012405	0.547149	0.216891	0.192317	0.034788	0.798820	0.847882	0.047066	0.005730	0.498208	0.202956	0.061414	0.006262	0.324092	0.308684	0.129604	0.069691	0.400687	0.431598	0.447179	0.056906	0.888321	0.866966	0.045807	0.008203	0.364597	0.246460	0.484647	0.054658	0.501306	0.659121	0.116364	0.009063	0.580898	0.405747	0.111563	0.026531	0.348030	0.431287	0.121495	0.013073	0.454460	0.335464	0.146205	0.030069	0.774111	0.776278	0.082371	0.010465	0.358570	0.191771	0.919251	0.086230	0.971009	0.582556	0.059933	0.007351	0.215674	0.120479
69	0.093775	0.899470	0.481711	0.261637	0.061461	0.011845	0.396689	0.161004	0.476182	0.038298	0.470948	1.132613	0.077860	0.012821	0.540480	0.209052	0.201113	0.035271	0.798467	0.848527	0.046715	0.005246	0.499691	0.202769	0.061492	0.006993	0.435593	0.265918	0.131397	0.062965	0.425325	0.417847	0.458297	0.058223	0.853961	0.829092	0.046551	0.008779	0.387667	0.246137	0.484297	0.054576	0.483380	0.639960	0.114287	0.008787	0.523264	0.391289	0.115273	0.025644	0.360949	0.430729	0.121642	0.012995	0.458373	0.335538	0.144119	0.039270	0.772938	0.707852	0.082110	0.010930	0.324184	0.188735	1.022069	0.096057	0.929326	0.578437	0.058709	0.007302	0.216928	0.119616
70	0.095376	0.941957	0.484832	0.259913	0.061955	0.011472	0.418210	0.167987	0.436737	0.037905	0.559543	1.119000	0.079978	0.012910	0.530814	0.179563	0.201402	0.035255	0.800656	0.851382	0.046141	0.004805	0.498226	0.204043	0.064679	0.007579	0.568490	0.246251	0.129594	0.056112	0.415701	0.378180	0.467080	0.059331	0.836354	0.829413	0.066321	0.009105	0.439707	0.251704	0.484491	0.054222	0.471550	0.646842	0.113393	0.008696	0.478337	0.377309	0.118473	0.024507	0.391153	0.432263	0.121662	0.013063	0.461357	0.335646	0.143022	0.044682	0.772658	0.642141	0.082620	0.011137	0.291300	0.180435	1.068207	0.099133	0.892680	0.580727	0.058667	0.009405	0.217933	0.116095
71	0.099657	0.980326	0.494471	0.259680	0.063412	0.011051	0.436011	0.174540	0.439507	0.037875	0.664147	1.095902	0.073299	0.012094	0.496902	0.141501	0.190935	0.035353	0.797173	0.855622	0.046696	0.005361	0.497994	0.205829	0.078177	0.008464	0.650137	0.244883	0.122702	0.049179	0.393919	0.360694	0.471460	0.060449	0.827273	0.834276	0.087128	0.010474	0.526727	0.255608	0.483477	0.053155	0.459134	0.609675	0.113833	0.008690	0.467927	0.374236	0.121723	0.026381	0.477717	0.431106	0.121662	0.013132	0.462744	0.336588	0.140178	0.052880	0.753308	0.600611	0.082146	0.011050	0.273530	0.174157	1.083713	0.100498	0.868024	0.584638	0.060261	0.011032	0.219190	0.108810
72	0.107342	1.012188	0.521801	0.259481	0.064087	0.010405	0.440207	0.174077	0.397205	0.033630	0.668287	1.080631	0.074221	0.011195	0.417865	0.126913	0.188823	0.035328	0.785773	0.853454	0.047504	0.007346	0.500855	0.207280	0.094110	0.009745	0.676000	0.244277	0.120697	0.042920	0.377475	0.359554	0.474294	0.062001	0.818830	0.816656	0.094296	0.011449	0.570209	0.256700	0.466008	0.048415	0.458266	0.498997	0.114454	0.008725	0.465556	0.373302	0.123573	0.030522	0.586851	0.427387	0.121758	0.013373	0.462821	0.335916	0.132885	0.316803	0.690992	0.607998	0.073520	0.011223	0.279053	0.173400	1.094260	0.101697	0.857618	0.586631	0.059992	0.011352	0.219121	0.107187
73	0.118617	1.033698	0.543318	0.258522	0.063235	0.009683	0.422471	0.174104	0.334350	0.031043	0.662887	1.080269	0.075568	0.010110	0.343639	0.126758	0.184036	0.035633	0.767845	0.828725	0.050277	0.008729	0.502717	0.203277	0.096730	0.009961	0.678578	0.242657	0.119708	0.038023	0.372847	0.345361	0.476466	0.063982	0.820895	0.729243	0.095849	0.011814	0.561361	0.252263	0.413283	0.040484	0.413591	0.348849	0.112481	0.008761	0.456369	0.372829	0.122862	0.034764	0.638850	0.420067	0.121610	0.013532	0.458283	0.328755	0.124161	0.703614	0.613625	0.598937	0.068854	0.013806	0.275726	0.154883	1.100006	0.102129	0.853222	0.591102	0.053713	0.012149	0.217092	0.104942
74	0.131037	1.046987	0.555351	0.256642	0.061881	0.009108	0.406503	0.179325	0.308018	0.031578	0.655898	1.073751	0.075620	0.009581	0.317956	0.133488	0.182390	0.036770	0.730976	0.752759	0.050830	0.009013	0.489757	0.190148	0.105101	0.010755	0.699310	0.244470	0.115571	0.034202	0.357606	0.325273	0.471709	0.066359	0.788398	0.548345	0.095244	0.011667	0.547773	0.252567	0.347950	0.035412	0.318739	0.276272	0.101720	0.008037	0.447910	0.368576	0.119663	0.048255	0.650515	0.363846	0.120182	0.013634	0.439113	0.315686	0.118092	0.930366	0.556637	0.558583	0.071394	0.018191	0.248444	0.136220	1.103323	0.104530	0.821981	0.602001	0.055513	0.015197	0.212129	0.096687
75	0.137951	1.056285	0.565941	0.257560	0.060443	0.009217	0.399825	0.182054	0.296547	0.032324	0.628881	1.024732	0.075751	0.009567	0.311338	0.138143	0.208682	0.039628	0.682919	0.680207	0.050315	0.010985	0.455622	0.178011	0.125226	0.012697	0.803790	0.243143	0.107855	0.031151	0.340741	0.320408	0.455944	0.067229	0.643638	0.354771	0.093928	0.011747	0.532054	0.254738	0.330414	0.035279	0.275054	0.273660	0.086091	0.006867	0.428136	0.370543	0.118431	0.053587	0.651452	0.294270	0.116334	0.013679	0.409872	0.297987	0.117544	0.958204	0.531950	0.497622	0.072476	0.020225	0.200449	0.132456	1.105340	0.106100	0.827000	0.602986	0.057930	0.016142	0.200773	0.093949
76	0.145580	1.062740	0.570994	0.220145	0.056413	0.008774	0.397655	0.158313	0.284256	0.036744	0.614011	0.894510	0.076220	0.009751	0.308865	0.144543	0.225596	0.040267	0.675571	0.667067	0.049683	0.012569	0.417445	0.168472	0.142222	0.014014	0.895302	0.240388	0.105088	0.028357	0.334231	0.315238	0.424937	0.069283	0.563346	0.286730	0.093121	0.011727	0.523700	0.245077	0.325289	0.039686	0.259022	0.275480	0.082643	0.006714	0.424099	0.366454	0.119689	0.385599	0.653288	0.278027	0.109942	0.013428	0.385461	0.276342	0.115193	1.012497	0.535040	0.446680	0.072038	0.020362	0.180387	0.120082	1.104722	0.106669	0.878948	0.574603	0.058832	0.016314	0.190652	0.085173
77	0.149344	1.066557	0.551442	0.185861	0.051300	0.010219	0.383858	0.157373	0.267400	0.039291	0.613335	0.763732	0.076523	0.010136	0.308607	0.145944	0.241405	0.040208	0.678192	0.666661	0.047960	0.013081	0.382775	0.164481	0.151079	0.014485	0.944397	0.238648	0.105224	0.025385	0.336711	0.306166	0.369237	0.152377	0.549384	0.351887	0.093104	0.011706	0.522433	0.224504	0.304789	0.043053	0.247317	0.304034	0.082451	0.006358	0.427150	0.363864	0.120781	0.745070	0.655842	0.347449	0.102495	0.013180	0.369561	0.256226	0.100469	1.051140	0.515854	0.422227	0.068118	0.020257	0.174984	0.116625	1.097974	0.374218	0.952996	0.517463	0.064852	0.016886	0.188807	0.084602
78	0.152659	1.069034	0.472130	0.168199	0.048388	0.010764	0.360990	0.164683	0.250219	0.046476	0.612417	0.698269	0.076461	0.010592	0.311546	0.143913	0.283961	0.040078	0.676569	0.648922	0.049807	0.013719	0.358728	0.163973	0.154928	0.014527	0.963845	0.232010	0.106561	0.022352	0.339937	0.299854	0.309348	0.633479	0.542620	0.402824	0.093121	0.011675	0.522652	0.210874	0.251717	0.042879	0.241527	0.309905	0.081329	0.005572	0.429481	0.368273	0.116740	0.857759	0.651505	0.461504	0.095762	0.012545	0.350366	0.253474	0.073071	1.076549	0.461577	0.413779	0.062834	0.021396	0.169589	0.140391	1.069617	0.567424	1.014107	0.413007	0.079038	0.017549	0.189799	0.077023
79	0.154195	1.070392	0.444352	0.201147	0.046696	0.051484	0.347610	0.171438	0.231237	0.058794	0.597770	0.654198	0.076699	0.010602	0.321870	0.143234	0.317712	0.040929	0.676128	0.583613	0.051542	0.014539	0.356194	0.156091	0.155423	0.014447	0.964764	0.228165	0.106657	0.018445	0.348552	0.311411	0.296971	0.733677	0.526731	0.409292	0.092371	0.011678	0.523195	0.209164	0.246524	0.210629	0.227816	0.328236	0.081205	0.005221	0.430758	0.361545	0.119734	0.894563	0.633842	0.563604	0.094622	0.012354	0.339160	0.240619	0.066990	1.097044	0.413632	0.419362	0.062513	0.022750	0.173428	0.174204	0.984294	0.585069	1.003674	0.346672	0.101284	0.018031	0.190892	0.068599
80	0.159540	1.070799	0.458672	0.279738	0.045808	0.058816	0.345392	0.172662	0.219912	0.069151	0.595918	0.654305	0.080525	0.010879	0.355176	0.149619	0.325098	0.041876	0.672798	0.406646	0.050398	0.014802	0.340706	0.123650	0.155553	0.014759	0.964962	0.225127	0.104074	0.014054	0.366722	0.322882	0.326316	0.774045	0.515740	0.421718	0.091467	0.011783	0.509874	0.203705	0.352487	0.633438	0.199522	0.335271	0.078424	0.005342	0.424253	0.334164	0.157158	0.924986	0.636968	0.644723	0.086216	0.011700	0.333294	0.185021	0.075197	1.110409	0.405619	0.418938	0.065195	0.023385	0.186463	0.190292	0.859321	0.594019	0.899644	0.331134	0.122813	0.018620	0.191576	0.067543
81	0.172063	1.068977	0.480783	0.327234	0.045386	0.059675	0.344341	0.172447	0.225672	0.446244	0.604091	0.642509	0.089163	0.013494	0.385733	0.157744	0.328368	0.072126	0.574980	0.265856	0.046481	0.015109	0.274099	0.096428	0.154959	0.015199	0.964835	0.214169	0.107149	0.015352	0.398060	0.304430	0.329147	0.802514	0.511432	0.467793	0.091837	0.011880	0.487050	0.161808	0.422319	0.729745	0.187806	0.334571	0.069877	0.005407	0.399862	0.273571	0.180712	0.952458	0.649831	0.664216	0.069462	0.010425	0.268634	0.119629	0.085553	1.119848	0.441418	0.370910	0.065422	0.023493	0.191630	0.191913	0.784708	0.603824	0.823943	0.337052	0.132675	0.018862	0.191624	0.056805
82	0.180218	0.909312	0.530470	0.342765	0.046452	0.059975	0.351164	0.171940	0.248174	0.784541	0.630511	0.568158	0.103559	0.022668	0.399587	0.155580	0.328018	0.099314	0.475240	0.270372	0.047555	0.016393	0.173801	0.095133	0.155001	0.015184	0.951124	0.108063	0.100949	0.017426	0.415453	0.231394	0.311497	0.821799	0.543124	0.513401	0.092511	0.011944	0.486433	0.142630	0.426794	0.778180	0.229786	0.343829	0.053433	0.005327	0.321838	0.204297	0.195361	0.969806	0.669253	0.672617	0.049295	0.009558	0.190792	0.082625	0.096114	1.126585	0.484698	0.324737	0.065172	0.023449	0.206248	0.191557	0.763323	0.611866	0.798644	0.339561	0.132805	0.018461	0.184871	0.034390
83	0.182942	0.615214	0.554563	0.346087	0.046095	0.060535	0.369040	0.172120	0.289816	0.946337	0.665514	0.457978	0.119794	0.032799	0.388910	0.146489	0.345785	0.502823	0.480037	0.399817	0.051469	0.018214	0.143417	0.094714	0.153802	0.014645	0.890555	0.072161	0.098004	0.017178	0.377154	0.172190	0.297705	0.836103	0.598512	0.525614	0.092323	0.012208	0.485288	0.135301	0.426519	0.803946	0.366893	0.408298	0.043098	0.005472	0.242707	0.162025	0.208759	0.983746	0.703704	0.715871	0.029772	0.009690	0.166025	0.078070	0.105188	1.130851	0.507407	0.319542	0.065841	0.023264	0.232170	0.190169	0.762762	0.616913	0.815127	0.340335	0.132968	0.018313	0.142414	0.031472
84	0.182764	0.551128	0.555134	0.366237	0.045664	0.061006	0.384643	0.177014	0.344049	0.978270	0.679716	0.359760	0.125229	0.037265	0.360858	0.140203	0.413074	0.824678	0.518285	0.428564	0.055265	0.022893	0.143036	0.096455	0.150911	0.014048	0.800595	0.073881	0.093118	0.016340	0.350703	0.165677	0.286240	0.844991	0.635913	0.511187	0.090692	0.012153	0.480012	0.127235	0.467721	0.822953	0.481571	0.479896	0.042503	0.005617	0.198842	0.145631	0.222634	0.993804	0.769025	0.764404	0.024319	0.010176	0.182685	0.101973	0.106317	1.134116	0.532878	0.307602	0.064444	0.022996	0.254262	0.190842	0.682102	0.620414	0.848122	0.343860	0.152261	0.018518	0.125122	0.039322
85	0.180578	0.458363	0.549131	0.388568	0.047625	0.061545	0.391563	0.182842	0.344793	1.024538	0.686487	0.282137	0.122958	0.037420	0.329804	0.139063	0.451338	0.881072	0.551379	0.447856	0.058009	0.028381	0.138740	0.097313	0.143613	0.013245	0.774438	0.107257	0.087223	0.014610	0.340745	0.163626	0.283764	0.850332	0.650524	0.496886	0.090182	0.013005	0.466050	0.137886	0.563158	0.832943	0.514651	0.477759	0.041877	0.008553	0.183179	0.143429	0.228247	1.000570	0.833165	0.797385	0.028312	0.010549	0.198006	0.133077	0.145414	1.136347	0.572789	0.317769	0.061116	0.022651	0.254420	0.195876	0.494414	0.621941	0.883851	0.338030	0.209139	0.018519	0.153977	0.064173
86	0.178137	0.371919	0.528189	0.407245	0.051144	0.062473	0.375098	0.185546	0.325859	1.062811	0.651860	0.356303	0.123538	0.039270	0.305532	0.136610	0.469654	0.935422	0.562560	0.449071	0.058253	0.029119	0.133525	0.094548	0.138844	0.012405	0.815808	0.115673	0.091290	0.015083	0.342772	0.169960	0.278394	0.854263	0.646538	0.493727	0.082697	0.013675	0.431397	0.142273	0.596185	0.840239	0.528678	0.496884	0.041063	0.010198	0.181834	0.142671	0.229603	1.005849	0.848919	0.833007	0.034532	0.010748	0.215322	0.162894	0.226487	1.138031	0.584936	0.323612	0.059791	0.022518	0.258680	0.198132	0.348281	0.623423	0.909114	0.334402	0.220338	0.018748	0.183146	0.081047
87	0.174936	0.306096	0.508466	0.426956	0.054877	0.063131	0.348197	0.183719	0.328408	1.088678	0.558295	0.504834	0.129835	0.043745	0.294897	0.131334	0.471306	0.965498	0.562635	0.444225	0.059757	0.029606	0.133290	0.090258	0.150228	0.012868	0.855120	0.119206	0.109862	0.020478	0.371585	0.181662	0.274902	0.856588	0.645539	0.502834	0.064587	0.013064	0.334854	0.148722	0.601762	0.847296	0.543261	0.528466	0.039313	0.012787	0.183226	0.142610	0.228365	1.009127	0.832837	0.843580	0.040883	0.010767	0.233258	0.174086	0.315910	1.138443	0.586954	0.310566	0.059606	0.022490	0.261909	0.205828	0.283183	0.624680	0.919920	0.327023	0.221059	0.018525	0.192178	0.090014
88	0.172839	0.252480	0.519431	0.475149	0.056509	0.063665	0.326684	0.174210	0.331769	1.110178	0.528191	0.553553	0.130957	0.044684	0.289689	0.130548	0.469137	0.987501	0.571068	0.455271	0.067985	0.033575	0.125757	0.087610	0.160915	0.013041	0.854804	0.115822	0.118038	0.024115	0.409584	0.185690	0.274919	0.857691	0.659393	0.508499	0.056690	0.013022	0.214006	0.150178	0.602309	0.852451	0.568954	0.535756	0.035762	0.013244	0.182918	0.142305	0.229393	1.011604	0.783794	0.838096	0.044011	0.010726	0.243819	0.173491	0.384508	1.123533	0.629833	0.277706	0.061873	0.021892	0.265805	0.220060	0.233563	0.625273	0.920489	0.321355	0.221569	0.017375	0.191745	0.091612
89	0.170940	0.204287	0.557280	0.558331	0.055212	0.063889	0.302301	0.161898	0.332940	1.124408	0.528217	0.559971	0.130607	0.044761	0.287859	0.125201	0.477906	1.005783	0.604091	0.475588	0.072739	0.034963	0.113352	0.088936	0.162635	0.012526	0.763288	0.135031	0.119684	0.025750	0.438663	0.185738	0.277642	0.857989	0.670836	0.517975	0.058184	0.014587	0.183252	0.152231	0.603548	0.855962	0.574211	0.537901	0.032105	0.014470	0.181288	0.140115	0.238181	1.013129	0.740270	0.837407	0.044541	0.011366	0.244877	0.178856	0.391820	0.954300	0.691933	0.259889	0.066914	0.019711	0.282762	0.235703	0.193874	0.625583	0.917797	0.328329	0.222895	0.017344	0.190188	0.094856
90	0.165930	0.166154	0.581741	0.600560	0.052839	0.063924	0.282788	0.160684	0.340090	1.131503	0.529111	0.560011	0.128402	0.045020	0.285744	0.119966	0.504314	1.021169	0.627705	0.491472	0.071931	0.034943	0.103958	0.089740	0.154118	0.011545	0.664137	0.202794	0.119739	0.026234	0.448769	0.185821	0.279515	0.857729	0.633723	0.527078	0.058357	0.015494	0.212505	0.156303	0.607992	0.858321	0.580924	0.533846	0.027391	0.017202	0.178018	0.135974	0.248790	1.014049	0.765679	0.839867	0.044612	0.011704	0.250140	0.195115	0.437973	0.708075	0.732546	0.264800	0.070563	0.016348	0.296388	0.245881	0.164882	0.625389	0.914502	0.329454	0.223797	0.017401	0.193259	0.102428
91	0.160396	0.138094	0.629497	0.619873	0.051959	0.063939	0.273515	0.160530	0.405878	1.135811	0.533066	0.581888	0.126722	0.045873	0.286537	0.119968	0.584043	1.035677	0.654710	0.514742	0.072514	0.034698	0.094603	0.091384	0.147003	0.011704	0.599671	0.208739	0.119483	0.026211	0.451659	0.185157	0.279178	0.857324	0.565125	0.523947	0.058320	0.015786	0.239213	0.152474	0.608550	0.859740	0.608777	0.537917	0.023897	0.017525	0.168243	0.128812	0.261899	1.014085	0.833756	0.845755	0.049326	0.011301	0.254433	0.218585	0.470820	0.637942	0.734436	0.270364	0.073276	0.015309	0.303756	0.245596	0.144940	0.625312	0.904437	0.323004	0.223523	0.015827	0.197881	0.114623
92	0.158879	0.115277	0.672827	0.621645	0.051982	0.063969	0.272648	0.155907	0.531635	1.137457	0.539604	0.622739	0.127250	0.046752	0.289039	0.110094	0.677013	1.045711	0.691996	0.529148	0.072818	0.034241	0.099346	0.094287	0.149438	0.013412	0.561721	0.214380	0.118783	0.026166	0.449140	0.184628	0.278949	0.819613	0.524735	0.470317	0.058343	0.016538	0.246824	0.151536	0.608098	0.860587	0.648308	0.551341	0.032965	0.021254	0.156137	0.125213	0.270864	1.013193	0.891999	0.852606	0.057636	0.011067	0.261880	0.237376	0.475225	0.543403	0.728407	0.272746	0.075609	0.015817	0.307590	0.238033	0.131783	0.624953	0.864962	0.319792	0.222418	0.013740	0.204556	0.119836
93	0.151767	0.099958	0.678388	0.640015	0.050658	0.063903	0.271254	0.130676	0.573747	1.138738	0.549093	0.649899	0.127789	0.047060	0.292280	0.101910	0.721840	1.051306	0.715301	0.532674	0.073279	0.034037	0.100898	0.094912	0.156457	0.014900	0.547969	0.214295	0.117189	0.026298	0.445082	0.175670	0.278732	0.487158	0.522612	0.443437	0.058422	0.016653	0.247325	0.152032	0.609713	0.860871	0.705842	0.558635	0.047553	0.035381	0.142892	0.112466	0.272600	0.908148	0.916903	0.852346	0.061842	0.013332	0.281791	0.241388	0.476464	0.468703	0.727401	0.269621	0.074787	0.015642	0.303959	0.228639	0.143528	0.581902	0.787667	0.272212	0.222318	0.013893	0.209189	0.122693
94	0.140667	0.091745	0.655573	0.715032	0.049801	0.063861	0.252903	0.126243	0.577191	1.139661	0.562175	0.670145	0.127694	0.047030	0.295394	0.091807	0.718797	1.053602	0.722878	0.533476	0.071931	0.033828	0.103332	0.094746	0.166628	0.015657	0.550094	0.217191	0.113178	0.026437	0.436265	0.137206	0.267790	0.433972	0.543790	0.441445	0.058478	0.016962	0.246841	0.152154	0.609578	0.861113	0.796959	0.580908	0.055605	0.045842	0.129605	0.086974	0.272231	0.642994	0.922480	0.816751	0.069331	0.013634	0.306519	0.241665	0.478556	0.398467	0.727384	0.268235	0.070436	0.013024	0.296484	0.208355	0.218455	0.292876	0.689392	0.233097	0.221453	0.013381	0.211181	0.124293
95	0.125624	0.088009	0.647919	0.856794	0.049064	0.063560	0.243248	0.131632	0.577985	1.140129	0.576909	0.684203	0.127574	0.046955	0.297136	0.106764	0.885424	1.053520	0.723694	0.534297	0.069272	0.033590	0.108188	0.094121	0.171582	0.015898	0.561254	0.218244	0.107135	0.026178	0.417133	0.116877	0.217554	0.358298	0.555555	0.419640	0.058510	0.017567	0.245673	0.154378	0.584044	0.795197	0.874251	0.582169	0.057322	0.048035	0.115995	0.051564	0.272029	0.543180	0.918048	0.754879	0.075915	0.015607	0.317351	0.242183	0.483451	0.334342	0.727384	0.260411	0.063963	0.010753	0.287970	0.183272	0.348037	0.256945	0.596174	0.222359	0.217618	0.012986	0.210744	0.124337
96	0.109366	0.088393	0.651556	0.962516	0.046294	0.063504	0.243914	0.125852	0.577104	1.140113	0.589617	0.701067	0.128543	0.046849	0.298080	0.126859	0.954648	1.053294	0.718295	0.547237	0.067523	0.033393	0.107966	0.093902	0.173130	0.015951	0.585263	0.226517	0.103091	0.024471	0.383164	0.115689	0.162018	0.290580	0.552066	0.358996	0.058030	0.017638	0.247420	0.165199	0.507279	0.501332	0.940745	0.579794	0.062813	0.049726	0.102407	0.031827	0.267380	0.466542	0.906744	0.680800	0.077205	0.015872	0.319596	0.242144	0.489871	0.286324	0.724090	0.275674	0.059506	0.009751	0.279659	0.172283	0.432977	0.229023	0.541301	0.222255	0.208574	0.012237	0.210068	0.124271
97	0.103937	0.089907	0.706299	1.039925	0.046508	0.043503	0.243995	0.117316	0.570626	1.095900	0.591374	0.721864	0.130504	0.046837	0.295314	0.127939	0.957018	1.051510	0.693827	0.565741	0.068691	0.033350	0.106613	0.100091	0.174089	0.015958	0.601100	0.227639	0.098170	0.023506	0.350501	0.113760	0.158225	0.238186	0.504772	0.294170	0.057355	0.017821	0.254415	0.173532	0.468465	0.442238	0.972417	0.578309	0.087499	0.059919	0.088088	0.028704	0.247701	0.409341	0.898631	0.604831	0.077401	0.016532	0.321080	0.242043	0.496085	0.243019	0.704753	0.285915	0.058385	0.009584	0.272395	0.171932	0.470603	0.195297	0.528804	0.212857	0.197151	0.011834	0.208836	0.124113
98	0.103889	0.090858	0.793500	1.064368	0.047359	0.025441	0.243360	0.122500	0.562249	0.893528	0.559533	0.733634	0.129586	0.046784	0.264841	0.123480	0.959166	1.036249	0.643284	0.524997	0.068473	0.032819	0.106898	0.104438	0.175211	0.015993	0.623200	0.227250	0.089800	0.023482	0.331393	0.097972	0.156555	0.189344	0.443307	0.279592	0.059353	0.020665	0.256754	0.174568	0.464513	0.356160	0.959386	0.560603	0.100134	0.065808	0.075013	0.028421	0.232328	0.345938	0.892395	0.587176	0.083655	0.018121	0.321685	0.241397	0.497878	0.210237	0.663289	0.270089	0.058035	0.009594	0.258844	0.172316	0.475188	0.170520	0.523842	0.210608	0.186317	0.011745	0.207132	0.125545
99	0.105022	0.090710	0.831113	1.057849	0.047196	0.023824	0.247575	0.126611	0.546293	0.651400	0.517051	0.729531	0.125098	0.046247	0.218887	0.112295	0.944978	0.859679	0.610220	0.457442	0.066087	0.032035	0.108470	0.104263	0.174714	0.016008	0.598824	0.224741	0.086571	0.023298	0.314518	0.092316	0.137667	0.150357	0.393415	0.280054	0.062252	0.022358	0.255516	0.182954	0.462843	0.291497	0.907828	0.498654	0.103266	0.068093	0.062557	0.025660	0.220975	0.294610	0.881854	0.571876	0.088776	0.019938	0.310241	0.237122	0.495806	0.185239	0.603253	0.254676	0.058105	0.009529	0.231195	0.172439	0.530420	0.152168	0.486256	0.220388	0.184538	0.011905	0.208740	0.128622
100	0.104699	0.088699	0.841000	1.062530	0.046070	0.023424	0.245253	0.126632	0.512695	0.615833	0.483374	0.728917	0.114648	0.043095	0.183814	0.110983	0.916069	0.597493	0.594097	0.444848	0.062395	0.029740	0.109032	0.102362	0.170823	0.015940	0.517330	0.259600	0.086036	0.023139	0.312252	0.092214	0.126141	0.120349	0.404392	0.280472	0.062668	0.022004	0.254217	0.194822	0.388252	0.249087	0.865186	0.432128	0.103470	0.069271	0.052730	0.024502	0.205690	0.249829	0.864318	0.507327	0.088749	0.019813	0.291117	0.227726	0.495479	0.163246	0.550441	0.275145	0.058194	0.009321	0.213831	0.170121	0.648481	0.139603	0.425011	0.223285	0.184771	0.011925	0.211230	0.129626
101	0.102663	0.084892	0.839996	1.086416	0.045306	0.021790	0.221284	0.126760	0.494743	0.524394	0.452765	0.727927	0.095895	0.037041	0.163221	0.113019	0.901829	0.549222	0.603102	0.425826	0.058663	0.024119	0.108689	0.101191	0.164938	0.016072	0.451580	0.273957	0.074280	0.021252	0.296277	0.083646	0.126585	0.093583	0.430037	0.271455	0.061968	0.021348	0.252410	0.192152	0.253101	0.218163	0.869817	0.445886	0.103517	0.069589	0.047161	0.023884	0.190040	0.208138	0.827859	0.423849	0.088877	0.020351	0.273972	0.216603	0.490735	0.145926	0.501253	0.281698	0.058331	0.009286	0.213667	0.165902	0.676232	0.129173	0.339813	0.226407	0.182067	0.011975	0.208876	0.129673
