	326_At_T1_sh_L_ND_01.c3d	326_At_T1_sh_L_ND_01.c3d	326_At_T1_sh_L_ND_01.c3d	326_At_T1_sh_L_ND_01.c3d	326_At_T1_sh_L_ND_01.c3d	326_At_T1_sh_L_ND_01.c3d	326_At_T1_sh_L_ND_01.c3d	326_At_T1_sh_L_ND_01.c3d	326_At_T1_sh_L_ND_02.c3d	326_At_T1_sh_L_ND_02.c3d	326_At_T1_sh_L_ND_02.c3d	326_At_T1_sh_L_ND_02.c3d	326_At_T1_sh_L_ND_02.c3d	326_At_T1_sh_L_ND_02.c3d	326_At_T1_sh_L_ND_02.c3d	326_At_T1_sh_L_ND_02.c3d	326_At_T1_sh_L_ND_03.c3d	326_At_T1_sh_L_ND_03.c3d	326_At_T1_sh_L_ND_03.c3d	326_At_T1_sh_L_ND_03.c3d	326_At_T1_sh_L_ND_03.c3d	326_At_T1_sh_L_ND_03.c3d	326_At_T1_sh_L_ND_03.c3d	326_At_T1_sh_L_ND_03.c3d	326_At_T1_sh_L_ND_04.c3d	326_At_T1_sh_L_ND_04.c3d	326_At_T1_sh_L_ND_04.c3d	326_At_T1_sh_L_ND_04.c3d	326_At_T1_sh_L_ND_04.c3d	326_At_T1_sh_L_ND_04.c3d	326_At_T1_sh_L_ND_04.c3d	326_At_T1_sh_L_ND_04.c3d	326_At_T1_sh_L_ND_05.c3d	326_At_T1_sh_L_ND_05.c3d	326_At_T1_sh_L_ND_05.c3d	326_At_T1_sh_L_ND_05.c3d	326_At_T1_sh_L_ND_05.c3d	326_At_T1_sh_L_ND_05.c3d	326_At_T1_sh_L_ND_05.c3d	326_At_T1_sh_L_ND_05.c3d	326_At_T1_sh_L_ND_06.c3d	326_At_T1_sh_L_ND_06.c3d	326_At_T1_sh_L_ND_06.c3d	326_At_T1_sh_L_ND_06.c3d	326_At_T1_sh_L_ND_06.c3d	326_At_T1_sh_L_ND_06.c3d	326_At_T1_sh_L_ND_06.c3d	326_At_T1_sh_L_ND_06.c3d	326_At_T1_sh_L_ND_08.c3d	326_At_T1_sh_L_ND_08.c3d	326_At_T1_sh_L_ND_08.c3d	326_At_T1_sh_L_ND_08.c3d	326_At_T1_sh_L_ND_08.c3d	326_At_T1_sh_L_ND_08.c3d	326_At_T1_sh_L_ND_08.c3d	326_At_T1_sh_L_ND_08.c3d	326_At_T1_sh_L_ND_09.c3d	326_At_T1_sh_L_ND_09.c3d	326_At_T1_sh_L_ND_09.c3d	326_At_T1_sh_L_ND_09.c3d	326_At_T1_sh_L_ND_09.c3d	326_At_T1_sh_L_ND_09.c3d	326_At_T1_sh_L_ND_09.c3d	326_At_T1_sh_L_ND_09.c3d	326_At_T1_sh_L_ND_10.c3d	326_At_T1_sh_L_ND_10.c3d	326_At_T1_sh_L_ND_10.c3d	326_At_T1_sh_L_ND_10.c3d	326_At_T1_sh_L_ND_10.c3d	326_At_T1_sh_L_ND_10.c3d	326_At_T1_sh_L_ND_10.c3d	326_At_T1_sh_L_ND_10.c3d
	Biceps femoris_lat	Semitendinosus_lat	Vastus lateralis_lat	Vastus medialis_lat	Biceps femoris_med	Semitendinosus_med	Vastus lateralis_med	Vastus medialis_med	Biceps femoris_lat	Semitendinosus_lat	Vastus lateralis_lat	Vastus medialis_lat	Biceps femoris_med	Semitendinosus_med	Vastus lateralis_med	Vastus medialis_med	Biceps femoris_lat	Semitendinosus_lat	Vastus lateralis_lat	Vastus medialis_lat	Biceps femoris_med	Semitendinosus_med	Vastus lateralis_med	Vastus medialis_med	Biceps femoris_lat	Semitendinosus_lat	Vastus lateralis_lat	Vastus medialis_lat	Biceps femoris_med	Semitendinosus_med	Vastus lateralis_med	Vastus medialis_med	Biceps femoris_lat	Semitendinosus_lat	Vastus lateralis_lat	Vastus medialis_lat	Biceps femoris_med	Semitendinosus_med	Vastus lateralis_med	Vastus medialis_med	Biceps femoris_lat	Semitendinosus_lat	Vastus lateralis_lat	Vastus medialis_lat	Biceps femoris_med	Semitendinosus_med	Vastus lateralis_med	Vastus medialis_med	Biceps femoris_lat	Semitendinosus_lat	Vastus lateralis_lat	Vastus medialis_lat	Biceps femoris_med	Semitendinosus_med	Vastus lateralis_med	Vastus medialis_med	Biceps femoris_lat	Semitendinosus_lat	Vastus lateralis_lat	Vastus medialis_lat	Biceps femoris_med	Semitendinosus_med	Vastus lateralis_med	Vastus medialis_med	Biceps femoris_lat	Semitendinosus_lat	Vastus lateralis_lat	Vastus medialis_lat	Biceps femoris_med	Semitendinosus_med	Vastus lateralis_med	Vastus medialis_med
	P2D	P2D	P2D	P2D	P2D	P2D	P2D	P2D	P2D	P2D	P2D	P2D	P2D	P2D	P2D	P2D	P2D	P2D	P2D	P2D	P2D	P2D	P2D	P2D	P2D	P2D	P2D	P2D	P2D	P2D	P2D	P2D	P2D	P2D	P2D	P2D	P2D	P2D	P2D	P2D	P2D	P2D	P2D	P2D	P2D	P2D	P2D	P2D	P2D	P2D	P2D	P2D	P2D	P2D	P2D	P2D	P2D	P2D	P2D	P2D	P2D	P2D	P2D	P2D	P2D	P2D	P2D	P2D	P2D	P2D	P2D	P2D
	EMG_lat	EMG_lat	EMG_lat	EMG_lat	EMG_med	EMG_med	EMG_med	EMG_med	EMG_lat	EMG_lat	EMG_lat	EMG_lat	EMG_med	EMG_med	EMG_med	EMG_med	EMG_lat	EMG_lat	EMG_lat	EMG_lat	EMG_med	EMG_med	EMG_med	EMG_med	EMG_lat	EMG_lat	EMG_lat	EMG_lat	EMG_med	EMG_med	EMG_med	EMG_med	EMG_lat	EMG_lat	EMG_lat	EMG_lat	EMG_med	EMG_med	EMG_med	EMG_med	EMG_lat	EMG_lat	EMG_lat	EMG_lat	EMG_med	EMG_med	EMG_med	EMG_med	EMG_lat	EMG_lat	EMG_lat	EMG_lat	EMG_med	EMG_med	EMG_med	EMG_med	EMG_lat	EMG_lat	EMG_lat	EMG_lat	EMG_med	EMG_med	EMG_med	EMG_med	EMG_lat	EMG_lat	EMG_lat	EMG_lat	EMG_med	EMG_med	EMG_med	EMG_med
ITEM	Y	Y	Y	Y	Y	Y	Y	Y	Y	Y	Y	Y	Y	Y	Y	Y	Y	Y	Y	Y	Y	Y	Y	Y	Y	Y	Y	Y	Y	Y	Y	Y	Y	Y	Y	Y	Y	Y	Y	Y	Y	Y	Y	Y	Y	Y	Y	Y	Y	Y	Y	Y	Y	Y	Y	Y	Y	Y	Y	Y	Y	Y	Y	Y	Y	Y	Y	Y	Y	Y	Y	Y
1	0.231222	0.148118	0.165637	0.365382	0.210485	0.339088	0.178852	0.297263	0.294375	0.129886	0.355427	0.446359	0.263405	0.129998	0.094859	0.216983	0.445144	0.200729	0.191525	0.290667	0.240917	0.204158	0.260668	0.210630	0.147826	0.248031	0.266936	0.514557	0.168176	0.217676	0.453257	0.305133	0.120057	0.102483	0.160496	0.311674	0.328457	0.116996	0.159501	0.151044	0.140071	0.075978	0.135581	0.415491	0.081901	0.146920	0.257985	0.371306	0.205259	0.144371	0.227357	0.184790	0.271574	0.168250	0.448261	0.412066	0.393107	0.076306	0.176161	0.270419	0.061048	0.085892	0.147181	0.188792	0.361114	0.158843	0.118983	0.343318	0.069054	0.084424	0.208312	0.321228
2	0.225573	0.140636	0.169754	0.362907	0.212877	0.293791	0.247637	0.298062	0.299354	0.144787	0.363941	0.458355	0.273629	0.125634	0.109261	0.225146	0.426360	0.193866	0.169619	0.282783	0.272107	0.209864	0.228360	0.299931	0.106168	0.212946	0.269637	0.565038	0.187104	0.228965	0.498459	0.303170	0.124511	0.096137	0.136872	0.297114	0.375588	0.100868	0.180931	0.140776	0.142414	0.080065	0.133261	0.450045	0.091508	0.148526	0.226014	0.345274	0.205648	0.128890	0.169741	0.198530	0.276325	0.237326	0.442748	0.400716	0.382153	0.074710	0.176584	0.281661	0.060884	0.080926	0.151854	0.195513	0.410503	0.164521	0.109875	0.320093	0.066345	0.084838	0.208548	0.320377
3	0.210315	0.135301	0.164789	0.381134	0.195147	0.299404	0.271286	0.301449	0.281173	0.188649	0.378441	0.450216	0.261453	0.126467	0.110406	0.227910	0.388946	0.189398	0.199116	0.275192	0.294054	0.216257	0.232345	0.363488	0.104083	0.172305	0.271376	0.594310	0.186561	0.218762	0.495899	0.311855	0.128093	0.099975	0.138394	0.289479	0.473627	0.133034	0.198728	0.113931	0.135421	0.068361	0.161078	0.392860	0.086055	0.115597	0.187133	0.327200	0.187156	0.123385	0.117769	0.205059	0.315943	0.270668	0.420592	0.380310	0.396671	0.074775	0.171473	0.323280	0.062453	0.082416	0.166784	0.184408	0.420214	0.167771	0.109256	0.364350	0.066516	0.089783	0.212453	0.317165
4	0.204976	0.132861	0.176427	0.401440	0.183266	0.260123	0.275304	0.295225	0.276155	0.243323	0.398396	0.428289	0.262316	0.147051	0.091439	0.233377	0.322428	0.171474	0.202202	0.306492	0.291044	0.187470	0.196857	0.362454	0.101898	0.125127	0.279797	0.614983	0.185985	0.264914	0.493372	0.261359	0.134005	0.099652	0.139898	0.286529	0.489301	0.191874	0.198290	0.132230	0.174730	0.100633	0.159723	0.359359	0.081251	0.099178	0.170587	0.360231	0.165974	0.097393	0.101231	0.201091	0.298357	0.348298	0.409858	0.374264	0.350516	0.070541	0.144742	0.336421	0.062465	0.073515	0.173221	0.195507	0.414527	0.164198	0.162125	0.382665	0.070684	0.094363	0.245006	0.331638
5	0.191995	0.139574	0.185393	0.413439	0.162228	0.212481	0.259110	0.289421	0.275975	0.243641	0.400568	0.425474	0.254317	0.210838	0.107325	0.260322	0.101689	0.099821	0.194005	0.303146	0.291604	0.253187	0.230064	0.358394	0.090771	0.110569	0.263840	0.527172	0.178128	0.332735	0.501861	0.230781	0.119370	0.109046	0.103495	0.223645	0.575792	0.189585	0.205980	0.204965	0.189131	0.120660	0.155480	0.374422	0.083616	0.099994	0.197413	0.374444	0.155180	0.087964	0.109988	0.222656	0.276156	0.357211	0.430751	0.463174	0.301028	0.068635	0.135781	0.339007	0.066566	0.076151	0.166766	0.217951	0.387181	0.159556	0.192951	0.379868	0.074833	0.097700	0.275432	0.341336
6	0.154794	0.199090	0.183208	0.414436	0.161871	0.201095	0.253058	0.247827	0.260478	0.259277	0.402170	0.394227	0.241163	0.259867	0.163242	0.254361	0.095344	0.084794	0.205982	0.286802	0.300272	0.318355	0.230739	0.370956	0.081631	0.094944	0.274983	0.523759	0.154082	0.345280	0.461709	0.278580	0.134863	0.118935	0.117354	0.253010	0.572325	0.194143	0.208853	0.206391	0.192444	0.142194	0.187196	0.385614	0.088632	0.102420	0.219812	0.444362	0.139479	0.086893	0.152489	0.209112	0.269438	0.363977	0.430265	0.511268	0.279617	0.070447	0.144486	0.352510	0.071313	0.075969	0.277893	0.228669	0.352872	0.145269	0.198511	0.377182	0.075379	0.094311	0.286936	0.343425
7	0.131677	0.255915	0.180609	0.385959	0.162638	0.204251	0.259477	0.581170	0.168788	0.263239	0.367535	0.345853	0.225372	0.252325	0.172696	0.271295	0.096908	0.096446	0.189605	0.269137	0.318942	0.311703	0.231672	0.376521	0.083427	0.090755	0.258493	0.519874	0.172670	0.402439	0.409284	0.334816	0.139285	0.121226	0.142833	0.294480	0.577697	0.194402	0.216593	0.226345	0.186335	0.146197	0.190217	0.386769	0.091606	0.103215	0.230308	0.437669	0.140187	0.084008	0.174624	0.208159	0.262492	0.365806	0.434294	0.503194	0.308606	0.103480	0.142143	0.349768	0.065126	0.074308	0.393166	0.270058	0.345656	0.129094	0.195335	0.393651	0.075002	0.092734	0.279274	0.346749
8	0.048718	0.281779	0.180512	0.310901	0.124229	0.218492	0.320021	0.690024	0.167785	0.271427	0.263032	0.340488	0.179698	0.251334	0.173775	0.285713	0.100026	0.106017	0.225320	0.261186	0.369539	0.321283	0.228644	0.422480	0.071555	0.092675	0.244812	0.558386	0.179009	0.429313	0.428088	0.324829	0.144669	0.105157	0.159414	0.286702	0.568291	0.191709	0.218880	0.289505	0.181919	0.164523	0.196529	0.435387	0.094972	0.102764	0.297862	0.465806	0.157974	0.081282	0.176352	0.213399	0.260740	0.366759	0.383974	0.504925	0.290828	0.118603	0.137837	0.359332	0.075080	0.098001	0.410476	0.291144	0.369953	0.163312	0.238813	0.337811	0.080734	0.109781	0.270396	0.362568
9	0.088028	0.447565	0.174307	0.321639	0.089628	0.240481	0.385720	0.677477	0.182761	0.270842	0.228151	0.279164	0.170588	0.263378	0.169228	0.301877	0.091977	0.103105	0.268814	0.262252	0.441192	0.326468	0.210199	0.455642	0.074909	0.113715	0.193627	0.523913	0.171501	0.427862	0.435573	0.319617	0.151095	0.102131	0.174716	0.306927	0.571701	0.207610	0.251501	0.336752	0.202932	0.194365	0.211168	0.454489	0.087673	0.103728	0.366632	0.437788	0.163356	0.081648	0.179777	0.229344	0.257658	0.367608	0.326643	0.508348	0.266004	0.118985	0.134493	0.356927	0.075408	0.104326	0.424013	0.305058	0.379495	0.164222	0.317381	0.309344	0.083464	0.116918	0.267894	0.372271
10	0.104589	0.457281	0.172247	0.358897	0.090245	0.244117	0.390942	0.716497	0.175312	0.266659	0.218068	0.237930	0.157217	0.283558	0.186031	0.309110	0.082447	0.104778	0.277062	0.259443	0.486036	0.350022	0.172502	0.426068	0.087031	0.129913	0.185880	0.466763	0.148104	0.406211	0.428998	0.351440	0.151344	0.115112	0.233466	0.377619	0.577968	0.229532	0.373201	0.367878	0.210412	0.204203	0.247453	0.427774	0.084110	0.135263	0.374729	0.441689	0.178111	0.071611	0.177907	0.235611	0.225865	0.366894	0.318618	0.488058	0.228323	0.120383	0.093699	0.305115	0.097984	0.098758	0.433787	0.286523	0.318933	0.166076	0.354134	0.303012	0.082867	0.117203	0.267693	0.366357
11	0.116768	0.459530	0.265575	0.340798	0.110484	0.253542	0.430821	0.840025	0.176290	0.248194	0.207404	0.235937	0.170873	0.287587	0.198495	0.331184	0.089283	0.105702	0.267097	0.229636	0.450079	0.344614	0.167944	0.359974	0.093509	0.121287	0.183373	0.445235	0.141239	0.404377	0.424408	0.382027	0.146890	0.116816	0.240336	0.395776	0.634700	0.237509	0.433342	0.405624	0.213734	0.206026	0.234506	0.405106	0.069439	0.129568	0.389626	0.510372	0.192072	0.083207	0.181493	0.237133	0.230636	0.305668	0.327488	0.503140	0.223146	0.119268	0.096942	0.287698	0.132665	0.100083	0.467549	0.271827	0.299019	0.163455	0.373829	0.252221	0.082021	0.118467	0.267431	0.357969
12	0.118006	0.460629	0.274796	0.349696	0.123961	0.196857	0.449658	0.950253	0.192389	0.184598	0.207117	0.231561	0.176024	0.272490	0.201640	0.359493	0.088129	0.106834	0.307311	0.213008	0.447277	0.344783	0.184933	0.352471	0.095351	0.119491	0.159841	0.423901	0.142109	0.403572	0.423080	0.381198	0.145044	0.110958	0.235774	0.394556	0.641288	0.244761	0.449127	0.411391	0.179656	0.192090	0.232285	0.423363	0.069034	0.130555	0.403827	0.515593	0.196349	0.085544	0.192416	0.240452	0.154699	0.292205	0.349509	0.522483	0.217584	0.118516	0.104208	0.316870	0.159483	0.106912	0.491054	0.264844	0.295959	0.178228	0.419859	0.217342	0.083165	0.113975	0.266958	0.372816
13	0.118952	0.460379	0.258500	0.373319	0.124234	0.178902	0.448362	0.982580	0.205792	0.180061	0.235291	0.234670	0.182405	0.225776	0.201028	0.360594	0.079680	0.102387	0.349029	0.258725	0.446981	0.329641	0.217765	0.369851	0.096607	0.123371	0.163695	0.374475	0.143532	0.330682	0.412353	0.383620	0.147431	0.105470	0.233339	0.419535	0.634899	0.278094	0.467190	0.432555	0.162501	0.178441	0.257614	0.431182	0.077554	0.139380	0.405408	0.533972	0.194322	0.086830	0.192188	0.241554	0.131785	0.193971	0.399826	0.531754	0.154153	0.113292	0.073587	0.298910	0.202359	0.109760	0.494705	0.249310	0.289525	0.186491	0.453839	0.232161	0.084976	0.114665	0.274135	0.357326
14	0.122714	0.433159	0.257268	0.384315	0.126769	0.175526	0.442545	0.987137	0.214466	0.187543	0.233209	0.175180	0.183966	0.167193	0.181971	0.362132	0.087997	0.108194	0.347517	0.299963	0.439961	0.233941	0.227885	0.390096	0.106410	0.139815	0.154243	0.480677	0.144617	0.296065	0.406126	0.440172	0.155212	0.101165	0.243531	0.446683	0.569797	0.288764	0.468008	0.435380	0.156920	0.162943	0.296218	0.440462	0.078749	0.139170	0.380899	0.573067	0.193697	0.090038	0.193974	0.239197	0.137808	0.135565	0.397033	0.499007	0.083293	0.077187	0.079693	0.289151	0.201442	0.110278	0.439998	0.237474	0.282382	0.187890	0.455810	0.260530	0.088003	0.119762	0.288850	0.328769
15	0.124370	0.392271	0.309757	0.421083	0.126833	0.174322	0.446681	0.992814	0.222137	0.174265	0.242389	0.215271	0.181246	0.164702	0.178706	0.344039	0.109167	0.124411	0.426758	0.299039	0.434920	0.225152	0.297398	0.413619	0.103239	0.142421	0.211612	0.756652	0.121622	0.260908	0.409608	0.409984	0.174988	0.113672	0.232217	0.443772	0.516388	0.254091	0.570847	0.461752	0.160225	0.160601	0.304183	0.448301	0.072402	0.134265	0.380820	0.532663	0.192615	0.089546	0.193633	0.203904	0.132286	0.128040	0.384845	0.402426	0.051540	0.063758	0.080594	0.265001	0.203668	0.109387	0.336867	0.188913	0.235262	0.187584	0.463159	0.260540	0.085979	0.118610	0.285808	0.404059
16	0.120586	0.384950	0.322652	0.413061	0.125069	0.165476	0.447205	0.799967	0.217535	0.171435	0.290175	0.253692	0.156348	0.161696	0.225574	0.346990	0.123284	0.132378	0.557041	0.420346	0.388269	0.201601	0.372019	0.390989	0.129195	0.158435	0.241820	0.820730	0.105804	0.160925	0.358261	0.397507	0.160086	0.121803	0.230939	0.440203	0.429394	0.236620	0.677384	0.442140	0.156726	0.177898	0.315830	0.431051	0.070444	0.133210	0.391996	0.537762	0.190568	0.089784	0.197033	0.197156	0.116783	0.118190	0.390494	0.413195	0.049974	0.066490	0.123074	0.298829	0.202250	0.089784	0.310216	0.153094	0.169184	0.156381	0.460820	0.232578	0.086974	0.118088	0.270004	0.430785
17	0.093378	0.152390	0.336624	0.404382	0.122685	0.140217	0.409897	0.762347	0.243844	0.175930	0.294957	0.243968	0.152822	0.139723	0.280820	0.341344	0.125442	0.134916	0.554294	0.429597	0.326232	0.197682	0.385518	0.312436	0.137900	0.158462	0.233877	0.839066	0.109151	0.138452	0.287136	0.436444	0.164103	0.119880	0.195631	0.409460	0.355266	0.232394	0.704591	0.448002	0.139113	0.166503	0.372058	0.357425	0.068098	0.132043	0.361042	0.543137	0.190192	0.093022	0.195320	0.193610	0.119127	0.123909	0.420786	0.409824	0.052662	0.060634	0.143182	0.369001	0.214237	0.082014	0.291879	0.088127	0.104954	0.148299	0.417648	0.237675	0.085678	0.116388	0.280531	0.431811
18	0.078702	0.100197	0.336015	0.379755	0.122492	0.095984	0.353501	0.761546	0.327206	0.234061	0.291692	0.254018	0.136529	0.092106	0.288481	0.322408	0.131915	0.145319	0.565082	0.472367	0.130875	0.115068	0.384226	0.302560	0.129857	0.137568	0.294333	0.932610	0.113487	0.142121	0.262857	0.451502	0.161067	0.106026	0.143693	0.356873	0.350219	0.230583	0.705606	0.476043	0.118618	0.151461	0.349586	0.328267	0.062775	0.125456	0.285445	0.524607	0.190455	0.093948	0.174988	0.181477	0.117463	0.124394	0.428279	0.406657	0.052869	0.059326	0.141447	0.376034	0.217067	0.084485	0.272509	0.093562	0.105584	0.143005	0.391238	0.237187	0.084069	0.114276	0.275151	0.436281
19	0.049921	0.085884	0.280416	0.387714	0.104903	0.094396	0.340604	0.699870	0.449473	0.286771	0.288797	0.278394	0.103057	0.076329	0.281527	0.298387	0.133327	0.154808	0.612575	0.500054	0.115162	0.097542	0.391076	0.301916	0.141880	0.154085	0.310626	1.001761	0.125919	0.151983	0.148517	0.412736	0.169262	0.105679	0.150826	0.341591	0.348386	0.230974	0.704746	0.462312	0.110034	0.146717	0.349311	0.328518	0.073417	0.107799	0.283786	0.544530	0.193367	0.093710	0.135504	0.182095	0.131099	0.139855	0.426798	0.406914	0.063761	0.069362	0.167258	0.410741	0.199069	0.079815	0.222764	0.093938	0.105645	0.142547	0.405212	0.235234	0.081919	0.113710	0.238429	0.433083
20	0.058853	0.082846	0.257256	0.358254	0.079539	0.064005	0.238739	0.552822	0.441078	0.287310	0.266297	0.319486	0.068748	0.220410	0.286615	0.262009	0.133631	0.157220	0.626188	0.497435	0.080153	0.098972	0.401347	0.295672	0.161329	0.176898	0.347364	1.052106	0.125844	0.170451	0.170884	0.396606	0.170041	0.106908	0.168202	0.344231	0.344715	0.226349	0.706189	0.448527	0.109660	0.149007	0.348181	0.297088	0.073678	0.091336	0.269096	0.486000	0.181119	0.098254	0.127132	0.193228	0.126633	0.130265	0.416212	0.363219	0.084089	0.096079	0.246321	0.446801	0.177037	0.075087	0.194751	0.109413	0.085184	0.099836	0.360234	0.231432	0.076329	0.113753	0.204588	0.432523
21	0.071533	0.084859	0.275555	0.341974	0.069920	0.075100	0.209360	0.388368	0.434164	0.286760	0.222056	0.330177	0.045175	0.251142	0.281155	0.257426	0.135589	0.158493	0.602644	0.483419	0.077443	0.090699	0.373662	0.286219	0.164001	0.178770	0.375970	1.067292	0.127939	0.179622	0.198725	0.388372	0.158554	0.108829	0.158666	0.273493	0.337606	0.201189	0.672162	0.455890	0.117524	0.156309	0.341184	0.272808	0.074702	0.126519	0.235206	0.461707	0.203979	0.105249	0.134957	0.174983	0.120004	0.133342	0.400087	0.311364	0.080910	0.095907	0.247173	0.511809	0.127979	0.079549	0.172004	0.138616	0.057560	0.069190	0.283846	0.225555	0.073757	0.113325	0.211652	0.435092
22	0.065684	0.083343	0.279989	0.359192	0.088120	0.090319	0.207447	0.359868	0.423854	0.279613	0.223786	0.324784	0.034807	0.291650	0.267629	0.347084	0.137512	0.158351	0.601980	0.439353	0.072079	0.108911	0.373875	0.240167	0.161433	0.177173	0.372567	1.044484	0.129537	0.180115	0.198799	0.376653	0.137122	0.099626	0.139742	0.159532	0.268393	0.186240	0.606842	0.411295	0.115405	0.154651	0.293655	0.233029	0.065952	0.118560	0.234947	0.467561	0.214345	0.109980	0.133166	0.168821	0.110620	0.136972	0.391664	0.287421	0.099345	0.135510	0.282052	0.528159	0.123393	0.072845	0.171301	0.149141	0.071318	0.063002	0.274657	0.199365	0.077345	0.108314	0.265409	0.432167
23	0.074088	0.088817	0.225742	0.313296	0.094023	0.112975	0.202524	0.332894	0.418261	0.266971	0.220863	0.289332	0.040233	0.300781	0.277659	0.358147	0.122803	0.142577	0.590419	0.437724	0.068647	0.109293	0.330960	0.185155	0.155476	0.181861	0.365042	0.973752	0.130021	0.178211	0.206211	0.285456	0.099228	0.096309	0.128480	0.152148	0.190442	0.177991	0.585178	0.396136	0.113788	0.161555	0.292577	0.253590	0.057938	0.114100	0.284012	0.416248	0.186794	0.103631	0.131768	0.175469	0.098530	0.136678	0.356988	0.287279	0.107669	0.142759	0.294683	0.514252	0.128997	0.082481	0.169463	0.150863	0.077943	0.063345	0.266338	0.174007	0.076968	0.096153	0.312158	0.406628
24	0.076210	0.088180	0.192117	0.273304	0.130285	0.113465	0.188479	0.283272	0.418870	0.254245	0.168634	0.248581	0.046269	0.306447	0.258524	0.376375	0.094685	0.119956	0.514963	0.355192	0.035968	0.095216	0.254063	0.196385	0.142345	0.169963	0.331441	0.847505	0.132744	0.197834	0.236210	0.279748	0.093147	0.118030	0.124760	0.134046	0.170250	0.152223	0.582790	0.384746	0.109819	0.139324	0.310056	0.312150	0.060762	0.114957	0.306021	0.409603	0.181950	0.092881	0.111087	0.175804	0.096463	0.147197	0.340064	0.260891	0.123222	0.154206	0.302781	0.494054	0.182987	0.111374	0.171622	0.150196	0.077039	0.083503	0.241303	0.166713	0.079595	0.091476	0.330886	0.373908
25	0.084431	0.173680	0.209357	0.269779	0.147071	0.121061	0.155870	0.289150	0.404424	0.247248	0.176670	0.241573	0.054449	0.306016	0.196809	0.417308	0.098862	0.140263	0.496857	0.338840	0.031551	0.094581	0.221580	0.217979	0.123905	0.156545	0.366407	0.836284	0.127490	0.215248	0.258425	0.244643	0.088699	0.144915	0.137669	0.122236	0.171366	0.069918	0.576774	0.386110	0.082201	0.101942	0.233313	0.347971	0.056318	0.115419	0.290405	0.396927	0.180154	0.096449	0.103383	0.185559	0.096190	0.149268	0.342119	0.185800	0.128802	0.157527	0.353767	0.479293	0.223195	0.130964	0.189494	0.146673	0.075850	0.097504	0.241272	0.103351	0.079129	0.091017	0.331930	0.372986
26	0.096381	0.196260	0.287620	0.263211	0.147802	0.134208	0.137090	0.285898	0.369926	0.223421	0.236766	0.235071	0.065278	0.308529	0.176454	0.431074	0.084471	0.124815	0.492683	0.362087	0.037433	0.093909	0.232345	0.229570	0.121932	0.156821	0.342065	0.739601	0.125564	0.284346	0.256001	0.137661	0.082425	0.147479	0.150311	0.129432	0.127086	0.079010	0.540375	0.371077	0.089279	0.122402	0.221783	0.356047	0.055784	0.115421	0.290685	0.349565	0.180014	0.095242	0.121117	0.197280	0.094618	0.150705	0.303722	0.173034	0.127874	0.155152	0.434689	0.564560	0.239561	0.130983	0.214285	0.203685	0.071211	0.098370	0.255316	0.114719	0.078862	0.090431	0.334665	0.374545
27	0.096874	0.234408	0.298931	0.278647	0.149661	0.135817	0.134265	0.289727	0.100749	0.108647	0.388550	0.243071	0.075850	0.309868	0.201152	0.430394	0.081770	0.113401	0.461006	0.363089	0.041658	0.095025	0.224872	0.227577	0.114780	0.150120	0.302366	0.616580	0.095302	0.301190	0.249034	0.114397	0.053479	0.205436	0.127985	0.186517	0.095227	0.082411	0.374272	0.351794	0.096885	0.148296	0.249868	0.357506	0.064277	0.118029	0.323284	0.349697	0.180953	0.096750	0.163645	0.203580	0.093194	0.149243	0.276107	0.165575	0.125344	0.150358	0.424030	0.685258	0.316663	0.163893	0.270583	0.248903	0.077014	0.103318	0.224792	0.201771	0.077725	0.090831	0.341931	0.359071
28	0.091135	0.255151	0.291422	0.304252	0.149925	0.131550	0.105232	0.275825	0.090274	0.098328	0.390412	0.191410	0.076039	0.229404	0.195715	0.426942	0.089580	0.107731	0.445021	0.355278	0.047750	0.094636	0.228081	0.225177	0.077107	0.126795	0.292366	0.495087	0.095656	0.323934	0.249267	0.215809	0.067104	0.238316	0.134460	0.230433	0.082339	0.085330	0.240024	0.351355	0.095859	0.147301	0.274196	0.359521	0.065244	0.107035	0.333098	0.300955	0.181591	0.097314	0.184836	0.234607	0.084995	0.138370	0.272993	0.183063	0.149741	0.167911	0.435919	0.667821	0.342176	0.164663	0.464499	0.277418	0.081910	0.110582	0.213689	0.254898	0.072627	0.079571	0.347163	0.357588
29	0.084359	0.283081	0.279675	0.285482	0.146712	0.126104	0.080512	0.201907	0.094547	0.096576	0.403602	0.180438	0.072867	0.200477	0.200141	0.416703	0.091823	0.129069	0.475609	0.352854	0.058192	0.108630	0.208600	0.223789	0.065974	0.202668	0.230552	0.484209	0.092918	0.373966	0.227643	0.254026	0.080047	0.299601	0.157079	0.254751	0.076637	0.089151	0.207269	0.298142	0.082496	0.139787	0.289774	0.416882	0.065644	0.108930	0.331201	0.304764	0.181664	0.094655	0.183430	0.244631	0.071599	0.131242	0.282266	0.168830	0.182997	0.182376	0.615802	0.685859	0.365095	0.176355	0.484344	0.285347	0.096467	0.115391	0.234191	0.261673	0.069886	0.074576	0.339914	0.337419
30	0.099301	0.316312	0.269241	0.238990	0.141849	0.120577	0.105603	0.168797	0.088117	0.084495	0.407709	0.221558	0.070478	0.134694	0.199095	0.366247	0.081636	0.124511	0.498217	0.352192	0.062867	0.095745	0.204355	0.277798	0.071687	0.305545	0.225116	0.610499	0.100433	0.396654	0.217879	0.327416	0.120214	0.336839	0.157556	0.312073	0.068767	0.087376	0.205209	0.296200	0.076432	0.146864	0.310383	0.567437	0.086504	0.063030	0.333156	0.316214	0.181915	0.092897	0.183088	0.248852	0.060650	0.135237	0.305400	0.208958	0.193329	0.213548	0.735035	0.824661	0.407270	0.201742	0.484641	0.399261	0.092641	0.141030	0.238110	0.255282	0.067828	0.074419	0.338151	0.251775
31	0.100768	0.343214	0.281690	0.237582	0.128550	0.124619	0.135314	0.185569	0.092896	0.147453	0.407463	0.245462	0.077608	0.149781	0.288208	0.356392	0.081977	0.122572	0.486518	0.408466	0.083101	0.121281	0.204642	0.268837	0.100301	0.377856	0.288356	0.663899	0.107485	0.424615	0.263108	0.358596	0.125028	0.368462	0.221953	0.336806	0.085651	0.087081	0.223746	0.264210	0.083771	0.146693	0.300082	0.743429	0.087915	0.064086	0.344043	0.303187	0.181311	0.101909	0.183281	0.252587	0.060558	0.139275	0.337035	0.218470	0.197512	0.247619	0.727704	0.918183	0.414099	0.206050	0.563099	0.407885	0.085525	0.162383	0.267473	0.340770	0.065501	0.075356	0.338546	0.239237
32	0.101551	0.399289	0.285547	0.249080	0.125149	0.123622	0.174014	0.252868	0.098061	0.358607	0.421923	0.249147	0.102986	0.158279	0.455973	0.399016	0.080306	0.150341	0.449393	0.557974	0.308977	0.189774	0.233566	0.242600	0.150844	0.598858	0.466285	0.617108	0.115964	0.428468	0.310729	0.427148	0.138836	0.433085	0.488395	0.341023	0.094281	0.088255	0.238825	0.209101	0.122567	0.225593	0.343039	0.729980	0.087793	0.074326	0.312849	0.262069	0.177777	0.098341	0.181022	0.245494	0.066805	0.174305	0.308015	0.212728	0.194637	0.254636	0.720792	0.977108	0.392066	0.200437	0.618076	0.424952	0.087147	0.157343	0.271074	0.543545	0.065159	0.077106	0.334956	0.236016
33	0.100674	0.393197	0.264080	0.250773	0.063048	0.170757	0.187139	0.337854	0.105001	0.423332	0.416444	0.329444	0.110395	0.175133	0.496281	0.376881	0.072228	0.178262	0.389967	0.614103	0.309920	0.207196	0.258985	0.226906	0.167976	0.630545	0.653459	0.759500	0.127255	0.410449	0.286448	0.443736	0.203969	0.438965	0.579143	0.339361	0.120819	0.086696	0.239472	0.206590	0.156616	0.275506	0.425234	0.793680	0.091684	0.088576	0.261419	0.314529	0.165090	0.088920	0.175058	0.236225	0.068361	0.190450	0.304879	0.228538	0.196545	0.262012	0.697795	0.888389	0.375123	0.189074	0.613397	0.485178	0.109384	0.170524	0.293192	0.659113	0.062298	0.075592	0.333827	0.238367
34	0.091248	0.376960	0.255587	0.260195	0.058841	0.172272	0.341013	0.336969	0.123621	0.538843	0.406053	0.357743	0.108943	0.176443	0.494889	0.362242	0.102444	0.191804	0.448372	0.602597	0.309682	0.207863	0.251662	0.225161	0.179388	0.631764	0.696588	0.968702	0.175216	0.394179	0.285923	0.460103	0.212583	0.441073	0.623332	0.351954	0.123039	0.083243	0.237287	0.219899	0.159114	0.272896	0.428914	0.840324	0.099853	0.157065	0.244081	0.398164	0.081354	0.082865	0.171743	0.238072	0.069154	0.215920	0.310483	0.270618	0.190303	0.256069	0.701166	0.786403	0.358251	0.193493	0.609695	0.517155	0.141894	0.179358	0.418755	0.678224	0.059574	0.073202	0.333190	0.227895
35	0.094798	0.363758	0.326039	0.216428	0.065190	0.166571	0.513485	0.339465	0.115780	0.542494	0.263131	0.365121	0.123472	0.182723	0.547999	0.372389	0.148382	0.324189	0.579584	0.571183	0.313453	0.221974	0.292335	0.216500	0.182784	0.632694	0.698818	1.042897	0.228148	0.383608	0.292972	0.455449	0.224303	0.445761	0.797779	0.337999	0.123353	0.082617	0.224282	0.221862	0.166384	0.264152	0.425382	0.859667	0.101455	0.167399	0.241242	0.447538	0.056954	0.090408	0.175129	0.236500	0.114026	0.277393	0.326204	0.274313	0.165846	0.244302	0.732220	0.775588	0.303175	0.163757	0.577352	0.502999	0.154199	0.183013	0.490551	0.774550	0.063869	0.077146	0.332672	0.219949
36	0.095036	0.352349	0.397505	0.190329	0.060262	0.164788	0.568731	0.360986	0.149529	0.573642	0.262170	0.373697	0.123613	0.195015	0.627898	0.461264	0.151357	0.325910	0.581476	0.601619	0.315100	0.230444	0.313671	0.217871	0.219523	0.654532	0.737162	1.048281	0.265094	0.499870	0.331517	0.449072	0.220269	0.470451	0.844960	0.327743	0.116362	0.081807	0.185803	0.197253	0.167357	0.264173	0.408883	0.860736	0.101960	0.186828	0.211639	0.445912	0.057349	0.118969	0.179624	0.230463	0.118814	0.292932	0.326945	0.273209	0.128437	0.236678	0.534555	0.730769	0.395255	0.178605	0.419587	0.487870	0.161942	0.215137	0.496455	0.815643	0.066522	0.080997	0.315359	0.209944
37	0.105269	0.335142	0.396563	0.247624	0.057650	0.169221	0.611083	0.369607	0.160254	0.598489	0.323844	0.360259	0.124241	0.185893	0.646169	0.466485	0.155816	0.324463	0.564802	0.673572	0.315488	0.258505	0.311244	0.223989	0.261779	0.724960	0.836096	1.048017	0.285186	0.587298	0.349659	0.392517	0.215076	0.498686	0.863180	0.296924	0.115024	0.071238	0.183658	0.185155	0.171266	0.279090	0.391926	0.869530	0.100360	0.210790	0.178539	0.444669	0.067317	0.181706	0.193786	0.229593	0.125673	0.303916	0.365432	0.275212	0.095482	0.207497	0.418744	0.593333	0.523852	0.187970	0.401615	0.477598	0.173261	0.231851	0.499264	0.825917	0.060012	0.074949	0.266717	0.226067
38	0.097043	0.327477	0.399976	0.277503	0.066488	0.172820	0.743747	0.421675	0.159209	0.600823	0.321088	0.362866	0.124908	0.184106	0.645991	0.458774	0.168520	0.372145	0.540214	0.751300	0.313622	0.256589	0.313654	0.152767	0.270089	0.726429	0.887343	1.010679	0.286041	0.611671	0.371407	0.378189	0.198372	0.519120	0.868897	0.230858	0.117456	0.049929	0.187695	0.181353	0.175271	0.283901	0.396881	0.794678	0.107268	0.215653	0.216251	0.441314	0.069446	0.185940	0.200291	0.227293	0.128988	0.309420	0.412330	0.295386	0.074272	0.175505	0.426495	0.566692	0.529522	0.168959	0.409947	0.387859	0.175344	0.231276	0.495078	0.838586	0.057548	0.069977	0.217660	0.238609
39	0.097040	0.308544	0.417482	0.278103	0.076998	0.174233	0.757155	0.431077	0.158018	0.597702	0.314831	0.343316	0.119923	0.190443	0.604294	0.529166	0.184132	0.427377	0.539021	0.761139	0.312115	0.251466	0.308657	0.149947	0.268830	0.680732	0.903218	0.963015	0.280989	0.646740	0.373181	0.336864	0.196243	0.493829	0.834878	0.208685	0.141551	0.040982	0.222624	0.191907	0.175336	0.299281	0.401745	0.621545	0.090489	0.244683	0.218593	0.452702	0.070150	0.187399	0.176635	0.249250	0.133851	0.310225	0.419984	0.324864	0.074361	0.171591	0.385123	0.590356	0.531440	0.163788	0.294337	0.384112	0.177950	0.232651	0.571421	0.823860	0.055757	0.070840	0.209162	0.237579
40	0.099115	0.303424	0.449135	0.271614	0.077069	0.159852	0.751818	0.424205	0.154754	0.577676	0.302971	0.389301	0.096202	0.179073	0.481973	0.494581	0.185783	0.425582	0.577244	0.677859	0.121644	0.214148	0.312317	0.175970	0.245474	0.599921	0.871750	0.944467	0.279281	0.636790	0.313378	0.298898	0.157762	0.475763	0.700966	0.220766	0.198200	0.031817	0.256704	0.259011	0.161249	0.470047	0.349370	0.581802	0.086078	0.258892	0.241000	0.516995	0.078693	0.189297	0.172983	0.234048	0.159310	0.324334	0.383924	0.338055	0.080752	0.189081	0.374814	0.608443	0.586941	0.164508	0.174067	0.382706	0.182526	0.278989	0.653337	0.741184	0.060303	0.083951	0.211653	0.231687
41	0.104490	0.401163	0.500458	0.260404	0.079888	0.149547	0.751432	0.396698	0.159113	0.622043	0.320941	0.377693	0.083024	0.172768	0.443599	0.474895	0.185941	0.418193	0.603435	0.598635	0.086952	0.189969	0.272267	0.196491	0.223615	0.531908	0.751188	0.895256	0.278169	0.640558	0.278106	0.181538	0.110967	0.486634	0.673533	0.215086	0.210027	0.027083	0.257890	0.271298	0.126400	0.505548	0.258543	0.507640	0.086244	0.268679	0.266091	0.530508	0.098230	0.233861	0.181042	0.214264	0.165493	0.326388	0.380603	0.334711	0.082201	0.201302	0.395847	0.742472	0.585220	0.166963	0.172858	0.304314	0.175024	0.348965	0.645696	0.628924	0.061491	0.084452	0.202775	0.235277
42	0.108276	0.480334	0.508958	0.249159	0.100415	0.116501	0.747057	0.371698	0.139882	0.536769	0.370269	0.333284	0.081426	0.234646	0.441771	0.487838	0.179316	0.428645	0.575822	0.558350	0.104021	0.198544	0.266364	0.211346	0.216694	0.530474	0.657016	0.653564	0.265972	0.684063	0.278912	0.132429	0.086659	0.517169	0.593981	0.181262	0.231565	0.065707	0.275410	0.263744	0.125502	0.600388	0.254225	0.453411	0.085785	0.288572	0.269135	0.508250	0.112111	0.326758	0.191057	0.211862	0.166165	0.298756	0.435338	0.380092	0.104769	0.250199	0.309092	0.789323	0.585072	0.162253	0.164367	0.204856	0.149363	0.346860	0.598360	0.611368	0.060220	0.083310	0.194818	0.241924
43	0.107551	0.561954	0.458660	0.248361	0.106698	0.118455	0.675629	0.371240	0.142749	0.544777	0.373916	0.315746	0.043738	0.245247	0.358676	0.489328	0.140768	0.423582	0.450665	0.555809	0.124916	0.193113	0.233046	0.244583	0.210060	0.531337	0.645006	0.564297	0.235292	0.698655	0.264344	0.124822	0.080659	0.519258	0.352519	0.147607	0.298776	0.140628	0.403832	0.284939	0.106024	0.631497	0.251047	0.518020	0.079906	0.270433	0.287782	0.548200	0.116661	0.331556	0.194253	0.229313	0.169628	0.308569	0.441657	0.417620	0.114513	0.257559	0.316452	0.788245	0.579195	0.163970	0.191413	0.208937	0.130078	0.347464	0.594350	0.473491	0.061383	0.084681	0.179585	0.242870
44	0.112680	0.579114	0.395654	0.285072	0.102927	0.117210	0.573192	0.364780	0.138016	0.631894	0.368231	0.302043	0.044582	0.263356	0.180975	0.406645	0.121002	0.422424	0.353206	0.537326	0.125543	0.198416	0.159703	0.276837	0.199095	0.531103	0.645882	0.587955	0.171168	0.660662	0.282214	0.133256	0.086066	0.465956	0.249762	0.138345	0.321374	0.159730	0.532254	0.289906	0.125136	0.655298	0.375816	0.617274	0.076762	0.259238	0.283782	0.701592	0.123866	0.349315	0.201648	0.245991	0.168166	0.281853	0.516750	0.420685	0.113302	0.249679	0.311603	0.753016	0.503163	0.144148	0.198927	0.204733	0.125200	0.347447	0.597430	0.462712	0.064768	0.100946	0.177100	0.244134
45	0.101752	0.580928	0.393121	0.314989	0.103784	0.117348	0.560996	0.339254	0.096600	0.643963	0.303062	0.306309	0.046478	0.294108	0.096482	0.383014	0.113234	0.464790	0.325872	0.469845	0.235376	0.204355	0.145063	0.275550	0.141343	0.453340	0.585066	0.597772	0.146227	0.525630	0.239667	0.252159	0.091809	0.409254	0.187294	0.175146	0.321645	0.160006	0.558938	0.306173	0.130783	0.657566	0.415653	0.595483	0.088325	0.250820	0.288259	0.716708	0.129260	0.353264	0.212157	0.249599	0.160777	0.261958	0.597750	0.427768	0.113922	0.249918	0.299359	0.602074	0.344942	0.107988	0.192187	0.198139	0.096128	0.345557	0.629203	0.468642	0.065630	0.116386	0.177368	0.227921
46	0.096659	0.580958	0.396096	0.352618	0.096452	0.114024	0.471767	0.355599	0.097702	0.685741	0.284132	0.312400	0.069969	0.417694	0.123290	0.379228	0.093207	0.461168	0.331820	0.389664	0.314678	0.190444	0.136734	0.272952	0.113511	0.368982	0.568527	0.617996	0.099682	0.472820	0.204054	0.377499	0.113784	0.384361	0.179878	0.248273	0.326544	0.160138	0.559212	0.305942	0.123236	0.654011	0.407506	0.583383	0.109076	0.238972	0.297415	0.756526	0.148643	0.353782	0.211676	0.289644	0.157637	0.244512	0.603082	0.422302	0.111106	0.241904	0.294528	0.552248	0.283971	0.095089	0.192054	0.231546	0.084008	0.343856	0.635480	0.460688	0.065710	0.116090	0.165194	0.224298
47	0.096709	0.578817	0.415859	0.435798	0.092638	0.128265	0.282330	0.324389	0.100034	0.776663	0.310871	0.328554	0.083996	0.433412	0.271351	0.315156	0.064160	0.404424	0.375725	0.317277	0.396522	0.186402	0.137244	0.281452	0.107665	0.358496	0.554089	0.693776	0.123704	0.377499	0.230994	0.391414	0.122137	0.350929	0.188293	0.260960	0.329421	0.161598	0.577025	0.311577	0.117464	0.650090	0.406925	0.583771	0.108523	0.239655	0.274065	0.793738	0.161396	0.352558	0.214138	0.491063	0.149023	0.231772	0.559449	0.425504	0.108582	0.244516	0.218727	0.524388	0.265363	0.099631	0.186499	0.292448	0.079969	0.335656	0.578185	0.479260	0.066014	0.117508	0.152304	0.221473
48	0.112795	0.583806	0.492773	0.600111	0.086380	0.155745	0.276509	0.313671	0.104812	0.814008	0.353386	0.304906	0.088576	0.436832	0.358400	0.305264	0.052933	0.408604	0.329995	0.315613	0.527240	0.199345	0.188205	0.272947	0.107735	0.345374	0.532329	0.749621	0.133830	0.330166	0.393861	0.438458	0.127254	0.325610	0.180460	0.248410	0.334809	0.165209	0.633874	0.345470	0.114959	0.541270	0.413040	0.626915	0.151622	0.263451	0.276136	0.828178	0.164946	0.358026	0.262748	0.668626	0.149353	0.231309	0.541052	0.398665	0.104202	0.230643	0.151098	0.301478	0.119733	0.092710	0.163399	0.276182	0.071928	0.311596	0.459866	0.455256	0.066836	0.119926	0.152976	0.200839
49	0.183273	0.493222	0.458104	0.608939	0.086330	0.164063	0.291435	0.303876	0.088463	0.735242	0.343828	0.273811	0.089151	0.435166	0.357388	0.318024	0.063917	0.409768	0.270056	0.309676	0.610512	0.219439	0.232693	0.298052	0.118468	0.252820	0.506981	0.758354	0.145277	0.376240	0.417302	0.443137	0.129228	0.290791	0.194242	0.252279	0.341754	0.180026	0.677725	0.348851	0.109499	0.460363	0.397526	0.627010	0.164801	0.265327	0.263313	0.799895	0.215107	0.340860	0.316071	0.746426	0.145005	0.225696	0.535078	0.367992	0.077848	0.170693	0.145252	0.193594	0.097188	0.091122	0.174694	0.284821	0.083387	0.221472	0.457674	0.450042	0.065740	0.118312	0.168103	0.202864
50	0.204317	0.441546	0.407049	0.612657	0.078689	0.186667	0.290621	0.263330	0.087521	0.718642	0.277208	0.262144	0.089639	0.406852	0.363187	0.310179	0.102588	0.411604	0.254206	0.368986	0.614491	0.215553	0.255359	0.274142	0.125005	0.234043	0.493808	0.786532	0.159036	0.370208	0.419792	0.491345	0.121348	0.211339	0.178336	0.248776	0.341291	0.198719	0.715906	0.372091	0.108883	0.338862	0.395142	0.598077	0.165342	0.255610	0.223002	0.797963	0.243248	0.335423	0.350249	0.759477	0.133559	0.207031	0.533174	0.432200	0.055954	0.138281	0.123122	0.346440	0.188046	0.090399	0.172364	0.306066	0.083747	0.222041	0.436565	0.448887	0.061770	0.113794	0.189704	0.226554
51	0.213985	0.317321	0.423598	0.616274	0.045736	0.190878	0.269223	0.233451	0.089684	0.712533	0.290337	0.311863	0.127861	0.412015	0.364427	0.297844	0.106376	0.349061	0.260101	0.448127	0.608963	0.227834	0.324271	0.260374	0.126252	0.234168	0.489083	0.765723	0.153087	0.287851	0.422299	0.551737	0.111848	0.151348	0.177550	0.257202	0.324003	0.205688	0.712404	0.355235	0.115044	0.281307	0.389290	0.521896	0.166959	0.232193	0.219610	0.803472	0.249266	0.353370	0.419160	0.784470	0.145625	0.220327	0.496065	0.438896	0.056868	0.139945	0.188088	0.353140	0.235875	0.089621	0.147970	0.349873	0.087527	0.231760	0.318188	0.451507	0.059529	0.115096	0.202416	0.221198
52	0.225421	0.272754	0.427553	0.602965	0.030801	0.192988	0.280671	0.240283	0.095314	0.640404	0.292393	0.349118	0.132045	0.395024	0.370031	0.305974	0.105478	0.318811	0.260862	0.453155	0.606888	0.215554	0.372431	0.226067	0.122221	0.226301	0.484104	0.693179	0.150657	0.280578	0.422213	0.563179	0.107754	0.149052	0.181896	0.265902	0.300902	0.205541	0.709525	0.319799	0.091790	0.218545	0.285929	0.381301	0.166709	0.217337	0.205024	0.777868	0.252120	0.360013	0.451340	0.883408	0.147336	0.224523	0.481618	0.398949	0.072563	0.144887	0.327673	0.371870	0.256497	0.095154	0.145575	0.398498	0.096960	0.212409	0.318295	0.358878	0.055746	0.119405	0.204963	0.218765
53	0.245053	0.271287	0.476042	0.566354	0.030737	0.198387	0.288160	0.245403	0.107733	0.567243	0.335250	0.391504	0.130878	0.375516	0.369005	0.314277	0.105148	0.268133	0.266665	0.437617	0.614814	0.229194	0.375359	0.262177	0.113999	0.199082	0.467505	0.693879	0.152761	0.286346	0.399020	0.556534	0.097661	0.141180	0.221193	0.218118	0.300236	0.204742	0.712698	0.317482	0.075387	0.196514	0.207308	0.368718	0.167016	0.216305	0.212103	0.587137	0.247351	0.369443	0.444393	0.929392	0.143583	0.209829	0.459231	0.380315	0.068566	0.145092	0.339523	0.375119	0.370965	0.140675	0.168042	0.397603	0.094410	0.197093	0.270270	0.292763	0.054827	0.122269	0.240067	0.212582
54	0.247094	0.253820	0.481045	0.535609	0.043041	0.220687	0.240649	0.221646	0.107555	0.544349	0.341434	0.383017	0.120718	0.232451	0.388860	0.303457	0.127610	0.245834	0.287660	0.392491	0.860742	0.371876	0.375080	0.266474	0.078015	0.162341	0.360514	0.696469	0.156937	0.295470	0.408420	0.474674	0.077588	0.114093	0.266649	0.171022	0.231583	0.177528	0.675055	0.307910	0.075642	0.191642	0.244244	0.415278	0.162120	0.214271	0.218688	0.538647	0.240402	0.286735	0.440832	0.943200	0.137593	0.188461	0.326374	0.392437	0.056519	0.098166	0.362612	0.347097	0.417878	0.161146	0.166187	0.389353	0.098367	0.197307	0.251340	0.272404	0.057257	0.121275	0.250409	0.211980
55	0.246024	0.239073	0.484401	0.488207	0.064475	0.240226	0.231802	0.210506	0.141934	0.423226	0.336207	0.384618	0.111689	0.171574	0.324870	0.279715	0.146779	0.240559	0.257811	0.371509	0.927800	0.415097	0.375524	0.258583	0.079504	0.171980	0.222814	0.610834	0.151801	0.286888	0.411669	0.431993	0.083704	0.157056	0.287998	0.148591	0.175169	0.139367	0.572298	0.291231	0.075842	0.191291	0.252205	0.465712	0.146912	0.205756	0.193400	0.498302	0.240214	0.257842	0.439448	0.947860	0.161136	0.209758	0.253246	0.395797	0.056123	0.093543	0.371962	0.359248	0.498067	0.166201	0.250319	0.346275	0.107331	0.196228	0.249658	0.240812	0.053524	0.114656	0.252668	0.209763
56	0.241080	0.180617	0.372998	0.259393	0.068448	0.232451	0.230462	0.225653	0.258503	0.409686	0.296668	0.381059	0.112578	0.157486	0.247775	0.244090	0.152235	0.215704	0.229902	0.371662	1.335281	0.479205	0.351586	0.257160	0.083478	0.194625	0.217699	0.488844	0.128651	0.278129	0.320822	0.406826	0.075936	0.269760	0.281795	0.155116	0.177617	0.149171	0.499310	0.267785	0.068841	0.175261	0.247765	0.447996	0.141266	0.201783	0.187557	0.425178	0.238915	0.259190	0.439158	0.971735	0.168600	0.212908	0.244194	0.432522	0.056308	0.094505	0.367106	0.402745	0.516398	0.182016	0.274665	0.342795	0.105840	0.190294	0.245526	0.208312	0.061269	0.115228	0.262493	0.204061
57	0.188241	0.275778	0.346360	0.240409	0.072468	0.220875	0.220631	0.218497	0.298719	0.415125	0.296523	0.398676	0.118523	0.151790	0.251707	0.234099	0.159790	0.215033	0.237862	0.372678	1.380558	0.508785	0.303058	0.246320	0.101235	0.332928	0.227575	0.454601	0.119678	0.248199	0.183247	0.371440	0.071294	0.275703	0.265526	0.190725	0.172739	0.156295	0.493425	0.257044	0.066145	0.164842	0.271347	0.407835	0.114228	0.145968	0.187207	0.326916	0.234034	0.264219	0.457290	0.974371	0.169364	0.212390	0.241705	0.485374	0.078957	0.132700	0.406688	0.315267	0.523398	0.201581	0.271284	0.334734	0.107995	0.177613	0.245668	0.292772	0.063022	0.116019	0.274276	0.200768
58	0.157950	0.376679	0.347038	0.231020	0.098418	0.241656	0.229857	0.253529	0.309655	0.414515	0.294684	0.402137	0.116630	0.148664	0.241193	0.218999	0.140252	0.188471	0.226955	0.345435	1.379495	0.507498	0.313893	0.244497	0.096158	0.326119	0.243467	0.438109	0.084057	0.166652	0.184007	0.358565	0.069726	0.297365	0.278524	0.305698	0.184472	0.157513	0.492045	0.267558	0.075952	0.171574	0.281721	0.458404	0.115980	0.079166	0.162263	0.287484	0.231618	0.262691	0.519343	0.973550	0.165095	0.207284	0.224378	0.502097	0.091242	0.141683	0.409705	0.311597	0.499675	0.207216	0.327286	0.312735	0.144166	0.197243	0.243074	0.363077	0.062583	0.119611	0.271313	0.198448
59	0.146496	0.375139	0.324437	0.265791	0.111436	0.238678	0.235943	0.259414	0.309591	0.421188	0.332205	0.384898	0.077257	0.103395	0.240491	0.221607	0.147976	0.173667	0.211911	0.225072	1.379243	0.499715	0.275734	0.243905	0.098018	0.323671	0.253450	0.364895	0.070036	0.136721	0.197952	0.249890	0.069703	0.303398	0.312514	0.460831	0.265012	0.164540	0.434824	0.238856	0.084964	0.140739	0.281777	0.605004	0.175299	0.071567	0.162314	0.224874	0.220158	0.290645	0.592771	0.937507	0.157457	0.198519	0.224785	0.539883	0.080909	0.132764	0.323014	0.289283	0.479925	0.207880	0.343187	0.248544	0.148729	0.183682	0.261212	0.388731	0.059564	0.126259	0.270946	0.207282
60	0.133329	0.371768	0.319281	0.294189	0.114410	0.232765	0.239821	0.271276	0.317445	0.408986	0.376797	0.348401	0.069567	0.103312	0.232945	0.212783	0.148837	0.218293	0.209686	0.224342	1.379999	0.501805	0.194301	0.229612	0.103349	0.343034	0.284615	0.501040	0.070434	0.133334	0.207261	0.193018	0.080221	0.322018	0.378831	0.467470	0.262774	0.159032	0.353646	0.222619	0.099250	0.133204	0.298887	0.613930	0.221672	0.074144	0.166516	0.186936	0.221462	0.298102	0.622104	0.836786	0.151634	0.190558	0.221910	0.551752	0.080842	0.129791	0.318451	0.285741	0.485055	0.206917	0.343417	0.153762	0.141272	0.166819	0.238589	0.411508	0.060184	0.154563	0.273157	0.237037
61	0.108526	0.367770	0.258896	0.300645	0.114785	0.229782	0.213990	0.287048	0.313384	0.410364	0.348873	0.262121	0.069576	0.094056	0.239711	0.244206	0.149256	0.219431	0.207299	0.226098	1.381689	0.497270	0.188166	0.188058	0.106845	0.345500	0.262282	0.554006	0.084518	0.144911	0.258200	0.188958	0.086561	0.385463	0.399276	0.514633	0.254396	0.136992	0.268813	0.207252	0.103007	0.124728	0.302014	0.621688	0.302968	0.092650	0.166817	0.180240	0.227822	0.289454	0.611562	0.752187	0.146850	0.180227	0.204017	0.564151	0.081236	0.131299	0.291988	0.281998	0.440293	0.179753	0.331672	0.148663	0.145976	0.161658	0.162816	0.410246	0.060663	0.194308	0.275291	0.258338
62	0.118468	0.392138	0.293446	0.342075	0.115878	0.222737	0.210660	0.294555	0.314022	0.414266	0.332861	0.253162	0.067843	0.083403	0.193421	0.275018	0.138365	0.219949	0.171866	0.226757	1.271306	0.418233	0.183518	0.166580	0.117643	0.412407	0.259902	0.544384	0.080361	0.142095	0.309157	0.197739	0.080944	0.410102	0.371636	0.556085	0.253844	0.127141	0.171486	0.173098	0.107664	0.138891	0.282518	0.589926	0.320991	0.101504	0.149505	0.148324	0.238637	0.316927	0.606303	0.719916	0.144822	0.166152	0.237450	0.550127	0.093940	0.147866	0.283636	0.264298	0.533439	0.167595	0.334674	0.110783	0.153143	0.159317	0.186548	0.421812	0.066118	0.195875	0.293510	0.258866
63	0.111319	0.409357	0.271512	0.398869	0.104993	0.194359	0.211172	0.287887	0.309940	0.406947	0.340146	0.252443	0.077850	0.098795	0.155323	0.250695	0.113981	0.291635	0.133202	0.300612	1.163567	0.344291	0.183804	0.171692	0.138686	0.499683	0.370266	0.523596	0.078727	0.142451	0.306518	0.198979	0.082303	0.392238	0.369797	0.637044	0.250857	0.125975	0.168841	0.158379	0.134468	0.157686	0.259812	0.560605	0.327594	0.109514	0.140557	0.119216	0.269098	0.351108	0.582071	0.725151	0.149214	0.163123	0.211373	0.559204	0.104691	0.146401	0.283723	0.191307	0.553978	0.155036	0.292350	0.094460	0.149316	0.152578	0.203552	0.422380	0.067495	0.215640	0.305866	0.254989
64	0.109589	0.420038	0.304409	0.381750	0.098340	0.175728	0.215041	0.251973	0.233690	0.310049	0.333394	0.276244	0.076706	0.105597	0.144364	0.259951	0.102398	0.298977	0.095898	0.340608	0.981182	0.311805	0.185474	0.153886	0.141912	0.517696	0.521676	0.513941	0.078388	0.145145	0.300798	0.240737	0.101807	0.347367	0.383956	0.658927	0.249927	0.127372	0.161345	0.160708	0.143221	0.169799	0.257583	0.547741	0.335293	0.120831	0.177561	0.142184	0.270820	0.351384	0.543387	0.639587	0.121488	0.130568	0.206085	0.567121	0.088361	0.113633	0.187035	0.276144	0.561505	0.140870	0.272132	0.083121	0.151730	0.174834	0.237347	0.419888	0.075032	0.225749	0.295812	0.247743
65	0.113822	0.371157	0.368394	0.377693	0.094822	0.171240	0.228432	0.239536	0.140224	0.215884	0.311476	0.298888	0.072428	0.105767	0.197770	0.253297	0.092238	0.327160	0.063288	0.385149	0.264539	0.165520	0.199504	0.118753	0.143416	0.466126	0.543034	0.550752	0.078157	0.151014	0.299369	0.344435	0.106349	0.341502	0.401882	0.646854	0.299286	0.137818	0.154142	0.163933	0.157600	0.179098	0.229520	0.548597	0.336120	0.126862	0.184442	0.138497	0.274416	0.345206	0.549021	0.625495	0.107197	0.113573	0.208228	0.581911	0.077606	0.107397	0.107882	0.298619	0.731863	0.184736	0.277794	0.114966	0.143026	0.167470	0.235393	0.379343	0.085075	0.228102	0.283178	0.225328
66	0.114277	0.260406	0.469684	0.404217	0.091443	0.161290	0.235767	0.235219	0.121388	0.240169	0.320325	0.291991	0.069713	0.098383	0.238096	0.274750	0.127218	0.408925	0.229677	0.406949	0.271318	0.177620	0.215222	0.140473	0.150183	0.423486	0.540729	0.542362	0.076977	0.160545	0.301977	0.445801	0.107311	0.315800	0.396790	0.579454	0.398683	0.137557	0.149258	0.162956	0.198460	0.165004	0.203299	0.534410	0.336632	0.126099	0.219567	0.150766	0.275065	0.341179	0.550148	0.599860	0.108903	0.115113	0.205055	0.550363	0.075880	0.110581	0.096717	0.304966	0.731276	0.201805	0.215689	0.205383	0.105900	0.139638	0.239808	0.336621	0.086956	0.229749	0.286738	0.216230
67	0.120643	0.285622	0.513016	0.399169	0.059894	0.106697	0.191714	0.202534	0.121964	0.227079	0.332284	0.297555	0.063572	0.124726	0.279579	0.272980	0.127202	0.491573	0.386386	0.649204	0.273741	0.177930	0.199020	0.149380	0.156513	0.422370	0.550580	0.559707	0.099788	0.174440	0.316299	0.479480	0.103149	0.312654	0.364115	0.492927	0.444720	0.145826	0.162409	0.166213	0.233528	0.159200	0.201565	0.380801	0.325511	0.121619	0.233740	0.154383	0.274008	0.338490	0.558835	0.593106	0.126152	0.113630	0.234798	0.535258	0.075315	0.110402	0.117659	0.303564	0.748028	0.204750	0.184353	0.208008	0.123213	0.147528	0.233541	0.285727	0.085861	0.232894	0.304897	0.204868
68	0.107824	0.288871	0.508695	0.373855	0.047350	0.080455	0.187306	0.208703	0.085827	0.264247	0.436437	0.361604	0.063766	0.138149	0.278692	0.321498	0.132495	0.500373	0.469312	0.812065	0.277399	0.172964	0.194608	0.162182	0.175199	0.422327	0.548576	0.650638	0.110139	0.214841	0.370213	0.468564	0.097202	0.258641	0.297640	0.486002	0.472132	0.180367	0.168393	0.184957	0.255281	0.173369	0.183984	0.440303	0.329419	0.124424	0.236282	0.159776	0.275699	0.336096	0.591470	0.543503	0.216745	0.124012	0.308686	0.495451	0.075061	0.106821	0.122561	0.302157	0.743475	0.218477	0.187529	0.223353	0.163168	0.191482	0.232066	0.336027	0.081110	0.237740	0.290635	0.209227
69	0.098895	0.287345	0.506595	0.367639	0.043236	0.073737	0.174758	0.187667	0.073157	0.297867	0.684905	0.492773	0.064788	0.138652	0.276218	0.332552	0.132644	0.507822	0.476924	0.813464	0.265348	0.161089	0.198694	0.172705	0.180492	0.428406	0.614306	0.493650	0.106659	0.218802	0.358950	0.460262	0.092641	0.324517	0.260939	0.427408	0.604028	0.211115	0.171095	0.172102	0.301788	0.243889	0.276489	0.467958	0.300995	0.128476	0.236363	0.212261	0.322461	0.314569	0.727860	0.600273	0.215196	0.113905	0.411303	0.412685	0.048660	0.080794	0.149167	0.315028	0.754604	0.241764	0.197493	0.245223	0.178683	0.209294	0.242858	0.352506	0.083351	0.246836	0.288693	0.210011
70	0.075642	0.262436	0.548848	0.349368	0.045439	0.074244	0.161226	0.168295	0.067710	0.303401	0.778265	0.543198	0.065802	0.137789	0.345161	0.325775	0.133946	0.506112	0.509447	0.812955	0.273077	0.152772	0.201625	0.200565	0.177552	0.402604	0.649353	0.491649	0.093675	0.201864	0.332742	0.463035	0.098417	0.334682	0.258427	0.394081	0.593356	0.210434	0.171019	0.152120	0.328192	0.259366	0.279171	0.467514	0.232789	0.132264	0.300259	0.262360	0.354666	0.317436	0.873588	0.794300	0.212368	0.111367	0.446521	0.391804	0.034365	0.090273	0.149345	0.303160	0.698413	0.242225	0.175278	0.257368	0.174318	0.210388	0.296704	0.376943	0.090158	0.256065	0.286147	0.211873
71	0.078986	0.272075	0.618203	0.264342	0.047073	0.075271	0.191293	0.188303	0.067550	0.310500	0.786300	0.580911	0.050973	0.127124	0.358989	0.338265	0.136538	0.472203	0.563717	0.791786	0.284481	0.153174	0.208865	0.203502	0.164851	0.314704	0.628705	0.483509	0.090677	0.198906	0.330299	0.458847	0.093400	0.336897	0.229512	0.261670	0.579400	0.206569	0.189765	0.172567	0.334935	0.270387	0.263965	0.466300	0.232209	0.144212	0.359095	0.276442	0.357245	0.311992	0.892837	0.929133	0.233535	0.131865	0.468597	0.397869	0.049917	0.106137	0.154049	0.215453	0.705337	0.273138	0.149536	0.257344	0.175272	0.205751	0.309220	0.490104	0.089150	0.257934	0.272931	0.212065
72	0.092264	0.269095	0.604304	0.260097	0.054056	0.075831	0.221981	0.265521	0.131392	0.320584	0.875636	0.556786	0.046400	0.124453	0.354579	0.340950	0.142265	0.472704	0.629503	0.812404	0.303248	0.151237	0.209723	0.222555	0.151781	0.212855	0.520813	0.482914	0.094747	0.207686	0.333188	0.457420	0.078775	0.335739	0.195904	0.300428	0.578332	0.205485	0.205143	0.197389	0.333818	0.267483	0.280430	0.510162	0.327465	0.155265	0.360046	0.269627	0.357102	0.286576	0.860334	0.945514	0.230976	0.126375	0.525345	0.376676	0.063869	0.121636	0.207637	0.196153	0.702502	0.271258	0.162183	0.257357	0.193083	0.220923	0.353210	0.591665	0.089410	0.257506	0.255402	0.210166
73	0.097724	0.315698	0.573610	0.249194	0.054282	0.119209	0.233933	0.289800	0.172136	0.345957	0.966364	0.567823	0.041682	0.128797	0.344812	0.347719	0.143898	0.460712	0.651987	0.815440	0.338527	0.130261	0.204097	0.230885	0.151140	0.220613	0.432835	0.464591	0.100194	0.207770	0.337504	0.446719	0.074781	0.340668	0.229638	0.299016	0.578429	0.200111	0.210991	0.224305	0.330741	0.264838	0.282801	0.521997	0.495584	0.182425	0.346206	0.259360	0.344743	0.291398	0.847622	0.932236	0.236469	0.124214	0.539543	0.357528	0.064273	0.118907	0.224345	0.190538	0.528891	0.228016	0.150122	0.245314	0.220491	0.266603	0.498234	0.641565	0.089459	0.253263	0.253305	0.230111
74	0.098006	0.320980	0.500031	0.225299	0.062868	0.155772	0.250087	0.334641	0.174307	0.343332	0.998890	0.599272	0.060884	0.230462	0.322171	0.398475	0.117616	0.431682	0.646782	0.799777	0.361478	0.097182	0.174225	0.236071	0.132528	0.208119	0.456733	0.488948	0.100444	0.199793	0.342641	0.378631	0.082170	0.343868	0.223759	0.315413	0.578387	0.196504	0.211472	0.233344	0.308718	0.264834	0.286927	0.528444	0.597842	0.191795	0.333976	0.260560	0.312345	0.293950	0.850303	0.958042	0.242822	0.124678	0.561000	0.331088	0.065434	0.121128	0.219952	0.197448	0.527947	0.210378	0.132233	0.174553	0.225402	0.313785	0.519685	0.700391	0.089293	0.239619	0.281033	0.337199
75	0.088359	0.331869	0.443149	0.198868	0.063092	0.177826	0.246587	0.347757	0.179122	0.364709	1.007382	0.601646	0.078759	0.271275	0.340855	0.410496	0.099027	0.305994	0.570955	0.717252	0.460939	0.137223	0.139270	0.252521	0.128975	0.213067	0.450856	0.486501	0.095292	0.193363	0.337445	0.280617	0.106478	0.347534	0.219161	0.389026	0.578689	0.197096	0.231742	0.231635	0.283067	0.272842	0.349984	0.506698	0.630507	0.196697	0.310078	0.256055	0.272095	0.251374	0.871914	1.042055	0.246432	0.124115	0.566219	0.277455	0.066322	0.123322	0.217194	0.218889	0.551621	0.207677	0.132140	0.169051	0.214630	0.308253	0.514220	0.699776	0.091023	0.209973	0.331257	0.477243
76	0.091777	0.345929	0.446645	0.186894	0.060263	0.189922	0.251709	0.349010	0.187821	0.383586	0.982604	0.590422	0.081093	0.296079	0.355758	0.376168	0.085579	0.274395	0.497094	0.401551	0.470801	0.139021	0.136674	0.277472	0.120413	0.219555	0.441281	0.359447	0.068199	0.170202	0.278444	0.275411	0.107135	0.337933	0.212800	0.393420	0.577840	0.191161	0.275893	0.229107	0.270672	0.276645	0.375038	0.446124	0.698694	0.207230	0.308236	0.267053	0.256513	0.208070	0.910366	1.149884	0.254776	0.126022	0.562209	0.284947	0.065792	0.118999	0.246141	0.254348	0.554104	0.196693	0.139295	0.146808	0.186089	0.290280	0.517114	0.664300	0.091866	0.188320	0.370926	0.521342
77	0.131403	0.360105	0.444651	0.184648	0.059135	0.193629	0.287222	0.357424	0.196454	0.362276	0.842187	0.488910	0.080753	0.339303	0.352805	0.357137	0.083100	0.252484	0.493057	0.367796	0.570329	0.152301	0.113750	0.271738	0.106470	0.196479	0.450237	0.262787	0.067903	0.131257	0.242363	0.332527	0.138906	0.218056	0.243163	0.393656	0.515000	0.188540	0.301110	0.259631	0.212209	0.237257	0.328405	0.374845	0.727255	0.215823	0.308286	0.273013	0.250532	0.214100	0.927096	1.198570	0.198141	0.117425	0.539567	0.303066	0.065618	0.114700	0.295066	0.246340	0.510317	0.166978	0.127204	0.121023	0.163582	0.297802	0.516007	0.649680	0.093108	0.180829	0.370018	0.524227
78	0.158318	0.398757	0.374506	0.297652	0.059153	0.192792	0.318079	0.422292	0.212169	0.355280	0.721233	0.417151	0.081305	0.361874	0.283778	0.340881	0.096249	0.267653	0.483070	0.387248	0.582321	0.160961	0.103216	0.254995	0.104389	0.234493	0.378207	0.256426	0.064888	0.116430	0.255396	0.335052	0.154086	0.215679	0.250201	0.354966	0.452940	0.191562	0.300979	0.309440	0.169831	0.226868	0.307976	0.395821	0.759076	0.228136	0.304364	0.253062	0.253518	0.288592	0.926093	1.178789	0.189533	0.113746	0.480790	0.304898	0.051962	0.094037	0.291475	0.244233	0.479720	0.160573	0.130200	0.090541	0.159546	0.294762	0.488864	0.627733	0.099491	0.159744	0.364626	0.532028
79	0.172902	0.378362	0.182654	0.343096	0.060140	0.195860	0.312396	0.427410	0.214064	0.352001	0.726741	0.347218	0.084601	0.373629	0.272750	0.332638	0.104986	0.275341	0.461820	0.442563	0.616491	0.193574	0.104698	0.246597	0.157698	0.272057	0.370044	0.280103	0.059349	0.111814	0.249117	0.360569	0.157547	0.232757	0.252568	0.343982	0.451923	0.191175	0.290464	0.324873	0.134849	0.215204	0.323091	0.512495	0.843428	0.237905	0.267659	0.184778	0.261495	0.330463	0.925804	1.189882	0.199044	0.115933	0.422094	0.289014	0.058096	0.063261	0.263117	0.245130	0.402472	0.098465	0.135740	0.194343	0.156079	0.295636	0.473123	0.568923	0.093260	0.151161	0.365412	0.547438
80	0.183520	0.375313	0.133315	0.357376	0.059346	0.196488	0.308138	0.416880	0.229638	0.345069	0.725874	0.339013	0.082310	0.374455	0.263198	0.324546	0.097543	0.252112	0.364807	0.413727	0.635929	0.203305	0.098342	0.245902	0.183049	0.275403	0.380703	0.285765	0.058326	0.072594	0.240259	0.358781	0.162630	0.237356	0.239052	0.288039	0.335066	0.195638	0.311982	0.320587	0.136927	0.225263	0.317821	0.453540	0.843744	0.228288	0.149160	0.145097	0.263786	0.337139	0.916348	1.197018	0.217261	0.091424	0.421079	0.250033	0.068281	0.070026	0.244645	0.271711	0.366680	0.100475	0.120847	0.201413	0.137693	0.276382	0.445668	0.453619	0.092590	0.155091	0.372284	0.577345
81	0.195416	0.354402	0.103310	0.369474	0.055472	0.195347	0.340314	0.399383	0.215458	0.325367	0.650959	0.313294	0.079861	0.372451	0.236427	0.326988	0.111637	0.232154	0.302966	0.354152	0.608292	0.204007	0.108048	0.233880	0.187379	0.281045	0.380309	0.284810	0.047349	0.075719	0.237904	0.350637	0.164206	0.230433	0.192798	0.288412	0.259955	0.209456	0.347379	0.329774	0.164043	0.270212	0.330699	0.426706	0.818583	0.216220	0.133174	0.143573	0.237248	0.343380	0.857820	1.193205	0.213274	0.068186	0.325053	0.245514	0.075535	0.068817	0.246095	0.266711	0.346201	0.096699	0.118934	0.211524	0.082572	0.232789	0.265415	0.394604	0.102713	0.168273	0.385580	0.620179
82	0.196695	0.358066	0.126419	0.498316	0.054305	0.155993	0.321131	0.402239	0.207954	0.304173	0.590966	0.196214	0.065293	0.317340	0.226220	0.240161	0.121916	0.228586	0.304289	0.374077	0.616779	0.205772	0.137119	0.222859	0.217719	0.304316	0.375310	0.161871	0.044564	0.075785	0.228220	0.299462	0.182425	0.241331	0.203441	0.228502	0.264030	0.210120	0.351939	0.334871	0.178924	0.372077	0.379132	0.486987	0.745432	0.193536	0.130505	0.135599	0.172624	0.341521	0.681667	1.152146	0.213608	0.067394	0.252783	0.251650	0.076200	0.064455	0.264936	0.225783	0.344961	0.089975	0.124437	0.215053	0.076198	0.160909	0.187722	0.305657	0.109383	0.173042	0.379838	0.644054
83	0.203853	0.330250	0.136643	0.506551	0.040113	0.144531	0.309186	0.358841	0.203354	0.289071	0.598649	0.214360	0.044130	0.269349	0.147933	0.222981	0.127155	0.204716	0.321717	0.345911	0.566623	0.182697	0.158294	0.191056	0.222440	0.332059	0.376699	0.212256	0.044816	0.075748	0.219530	0.300218	0.229269	0.244388	0.231007	0.111627	0.291768	0.222143	0.339191	0.314172	0.173336	0.366081	0.396260	0.611055	0.641005	0.176268	0.132243	0.133255	0.149849	0.348468	0.537236	1.106642	0.219350	0.067128	0.219394	0.257628	0.088660	0.071145	0.216791	0.190841	0.260097	0.089352	0.127419	0.352096	0.103618	0.176203	0.364326	0.363391	0.110692	0.166363	0.369773	0.661747
84	0.209345	0.299405	0.205007	0.512760	0.039672	0.106324	0.307840	0.351260	0.198368	0.252034	0.599238	0.290838	0.045092	0.234526	0.109639	0.215971	0.143018	0.202215	0.321854	0.342114	0.640339	0.191124	0.223355	0.146000	0.216343	0.331782	0.376230	0.298600	0.044412	0.070657	0.221946	0.326531	0.260325	0.241619	0.267680	0.180581	0.336627	0.258344	0.325347	0.295053	0.168695	0.359870	0.370861	0.610354	0.628883	0.180329	0.135966	0.134322	0.212859	0.372932	0.503875	1.046791	0.221943	0.086665	0.216249	0.262353	0.089712	0.066972	0.158580	0.294465	0.239853	0.088578	0.107834	0.395254	0.108695	0.180518	0.540145	0.438591	0.106805	0.149884	0.366871	0.665080
85	0.202437	0.287130	0.258422	0.635630	0.042223	0.089363	0.307294	0.351194	0.194788	0.222471	0.576432	0.389795	0.044300	0.163905	0.109304	0.179719	0.150069	0.256145	0.344109	0.391964	0.594321	0.191194	0.254066	0.134640	0.210472	0.340715	0.332320	0.311568	0.037698	0.067830	0.216041	0.306177	0.278456	0.199132	0.289930	0.378966	0.342584	0.259078	0.318676	0.285048	0.168747	0.365145	0.392632	0.607315	0.592020	0.176623	0.108181	0.121403	0.234163	0.384569	0.503220	1.066597	0.253146	0.098400	0.303681	0.264422	0.088938	0.066699	0.163122	0.305295	0.237209	0.092839	0.123356	0.418531	0.159846	0.153918	0.556050	0.451217	0.100176	0.135131	0.366935	0.668367
86	0.179768	0.247810	0.291511	0.644383	0.040738	0.079991	0.257868	0.320866	0.183965	0.218919	0.574870	0.404906	0.042212	0.105792	0.206109	0.161801	0.157560	0.272855	0.372290	0.449997	0.528994	0.180207	0.257471	0.137268	0.216908	0.348112	0.260447	0.390916	0.032045	0.097561	0.205876	0.272590	0.298061	0.198945	0.340390	0.516620	0.345455	0.260268	0.315316	0.285743	0.173745	0.356028	0.399287	0.618631	0.569648	0.181479	0.092365	0.101259	0.234958	0.372437	0.494648	1.096739	0.433327	0.145317	0.338343	0.227550	0.072028	0.067418	0.245640	0.311364	0.215789	0.101961	0.166380	0.427262	0.186309	0.223959	0.698764	0.460864	0.100645	0.133233	0.366697	0.670281
87	0.163472	0.241172	0.309565	0.735294	0.040652	0.078647	0.242800	0.233024	0.192138	0.195851	0.557918	0.412146	0.035526	0.048790	0.332811	0.166304	0.148469	0.270339	0.339043	0.404876	0.490169	0.164334	0.275427	0.133791	0.205008	0.306512	0.254325	0.404516	0.031703	0.100745	0.160384	0.249207	0.307033	0.199362	0.460410	0.543712	0.351541	0.260510	0.277976	0.285652	0.183024	0.379203	0.389348	0.541786	0.567901	0.188441	0.090737	0.091930	0.233634	0.359888	0.457914	1.053168	0.448968	0.154003	0.354608	0.218440	0.075405	0.064795	0.319717	0.338273	0.106272	0.111682	0.173456	0.393031	0.206956	0.279925	0.799603	0.460114	0.099285	0.132247	0.365552	0.670040
88	0.159303	0.231633	0.308791	0.730605	0.030451	0.067299	0.248771	0.225592	0.177726	0.201652	0.470008	0.413018	0.036758	0.029955	0.338980	0.166392	0.145856	0.257668	0.324494	0.374821	0.418731	0.135326	0.286118	0.113948	0.175663	0.288881	0.232868	0.426700	0.041654	0.110917	0.125638	0.226809	0.312484	0.204339	0.470606	0.590840	0.376318	0.262837	0.236633	0.280000	0.188412	0.410716	0.390058	0.520983	0.457777	0.159903	0.092820	0.087539	0.229722	0.361801	0.372467	0.935873	0.452654	0.180909	0.363432	0.222851	0.069091	0.068012	0.328673	0.376295	0.104463	0.099391	0.204424	0.400200	0.286840	0.286768	0.802095	0.519112	0.099126	0.132295	0.359412	0.657005
89	0.150768	0.207253	0.310234	0.727861	0.027753	0.063464	0.239662	0.209164	0.133760	0.206683	0.384061	0.411681	0.037158	0.026419	0.349226	0.139887	0.137598	0.277118	0.338111	0.371700	0.422045	0.131789	0.307552	0.105171	0.161519	0.278423	0.242643	0.529220	0.042483	0.121334	0.094280	0.222359	0.312095	0.207979	0.469793	0.594752	0.377380	0.266079	0.226934	0.225045	0.175445	0.396419	0.397406	0.529576	0.503566	0.213170	0.091577	0.087408	0.226548	0.360539	0.315806	0.781422	0.449830	0.209142	0.376527	0.272822	0.094718	0.075784	0.379129	0.400915	0.110472	0.099263	0.211516	0.396809	0.364331	0.295311	0.839321	0.527896	0.098721	0.132110	0.331173	0.582058
90	0.149604	0.204861	0.323733	0.646236	0.029536	0.059482	0.190162	0.186706	0.132883	0.178859	0.394146	0.421626	0.042493	0.034889	0.390808	0.137747	0.122109	0.288214	0.368217	0.339426	0.410125	0.122944	0.299969	0.122365	0.146470	0.264485	0.261505	0.598141	0.039704	0.118429	0.085382	0.221486	0.288100	0.185297	0.465515	0.624086	0.372165	0.259565	0.248088	0.168478	0.159594	0.285735	0.390781	0.509301	0.650615	0.311231	0.077800	0.088309	0.225438	0.330684	0.349934	0.758037	0.467788	0.210035	0.379116	0.282058	0.084946	0.074110	0.409737	0.401889	0.122472	0.118656	0.219116	0.395143	0.361474	0.291739	0.861540	0.533903	0.096746	0.132227	0.272554	0.489036
91	0.152687	0.216420	0.328608	0.640751	0.049768	0.108585	0.224881	0.169750	0.133359	0.184358	0.359732	0.421892	0.047655	0.048734	0.425215	0.127254	0.117804	0.289062	0.358151	0.332421	0.360682	0.122172	0.295736	0.120475	0.125743	0.251579	0.278361	0.602910	0.039606	0.118074	0.107625	0.224770	0.244854	0.184572	0.452382	0.654091	0.354001	0.235424	0.256162	0.159531	0.183862	0.279773	0.312256	0.342843	0.672267	0.331465	0.076867	0.098077	0.217243	0.267511	0.401952	0.739612	0.470381	0.207274	0.378750	0.281042	0.098916	0.111392	0.421408	0.336719	0.159519	0.133082	0.218216	0.281540	0.355374	0.282595	0.832340	0.503160	0.094477	0.131682	0.221295	0.474817
92	0.143222	0.218838	0.294116	0.642061	0.053389	0.116540	0.261017	0.181181	0.132918	0.165034	0.329253	0.359359	0.044636	0.049292	0.427344	0.124915	0.099254	0.297462	0.349171	0.359380	0.121619	0.104051	0.258623	0.110029	0.124759	0.226997	0.280174	0.560863	0.038379	0.118322	0.129388	0.204430	0.222260	0.190356	0.422364	0.684313	0.313747	0.196125	0.199550	0.187104	0.191300	0.280730	0.315708	0.448570	0.678316	0.329356	0.075606	0.097893	0.217718	0.255274	0.395610	0.726788	0.484174	0.210453	0.378753	0.245104	0.120674	0.157887	0.446551	0.341477	0.186320	0.152579	0.217232	0.219748	0.359723	0.278489	0.756905	0.456876	0.089770	0.131786	0.201140	0.476624
93	0.122868	0.236288	0.267795	0.554785	0.056083	0.168260	0.263111	0.193504	0.134081	0.152686	0.375321	0.326056	0.045491	0.050144	0.431116	0.131244	0.102562	0.279333	0.343419	0.532507	0.117813	0.102850	0.237462	0.119843	0.128386	0.215413	0.309084	0.583099	0.037612	0.117539	0.141614	0.169624	0.168900	0.201265	0.454523	0.608677	0.289305	0.186309	0.157492	0.174346	0.187135	0.263625	0.289513	0.511290	0.690439	0.328188	0.065242	0.105186	0.227645	0.249611	0.406209	0.722544	0.492858	0.209202	0.379430	0.242717	0.121977	0.162154	0.392267	0.345574	0.223386	0.193421	0.232187	0.161694	0.343395	0.273977	0.760642	0.452549	0.087222	0.136075	0.198915	0.463536
94	0.127584	0.225015	0.225531	0.525807	0.068491	0.202606	0.266020	0.197324	0.137750	0.162882	0.375437	0.317312	0.043802	0.049530	0.399962	0.129115	0.071191	0.237029	0.271849	0.504565	0.118362	0.092703	0.255201	0.120841	0.127282	0.177892	0.328311	0.731990	0.042926	0.106213	0.138708	0.176992	0.120950	0.157096	0.379911	0.545229	0.290480	0.184996	0.150570	0.169892	0.180147	0.264216	0.268375	0.517671	0.727879	0.324820	0.053282	0.092350	0.238195	0.244544	0.487972	0.756937	0.509722	0.208622	0.328752	0.223764	0.119662	0.174990	0.369164	0.322035	0.326458	0.197420	0.225377	0.133452	0.331923	0.227160	0.664660	0.451208	0.088122	0.140932	0.193393	0.447672
95	0.144180	0.315079	0.229744	0.413232	0.069150	0.215934	0.288392	0.200458	0.110950	0.209454	0.373656	0.389121	0.042589	0.051323	0.303071	0.132825	0.071380	0.247557	0.299452	0.501015	0.115856	0.067436	0.235938	0.119890	0.126466	0.168797	0.363932	0.758701	0.052048	0.099478	0.134417	0.166992	0.087964	0.138648	0.289795	0.509395	0.215139	0.130454	0.148784	0.175637	0.168555	0.223066	0.270917	0.511315	0.714821	0.333777	0.046351	0.082141	0.238338	0.241140	0.497096	0.716092	0.382239	0.186263	0.292181	0.213349	0.118158	0.177549	0.357436	0.378420	0.378831	0.199015	0.219144	0.122007	0.320352	0.145545	0.514964	0.474025	0.077845	0.128715	0.170415	0.400824
96	0.144690	0.351820	0.239818	0.570806	0.076522	0.220419	0.286997	0.196964	0.112100	0.204882	0.387007	0.570740	0.041934	0.055375	0.299357	0.142098	0.074131	0.252205	0.330000	0.505538	0.102439	0.064903	0.217993	0.113628	0.121791	0.154471	0.383981	0.756844	0.051857	0.097732	0.141089	0.208482	0.072921	0.135842	0.329533	0.493751	0.219650	0.109511	0.151422	0.168801	0.154117	0.113099	0.267338	0.521232	0.677033	0.327922	0.044169	0.081864	0.234354	0.215157	0.530991	0.682585	0.310844	0.164808	0.283140	0.212672	0.102873	0.179300	0.313644	0.402702	0.444781	0.226101	0.187191	0.085881	0.284997	0.126401	0.508563	0.386389	0.062818	0.100638	0.091883	0.335481
97	0.124963	0.351278	0.266513	0.585609	0.076954	0.220688	0.289731	0.200478	0.103475	0.197858	0.362462	0.667127	0.043396	0.096698	0.287994	0.148167	0.074424	0.244733	0.337536	0.510471	0.093752	0.066310	0.200893	0.146560	0.127131	0.149030	0.383675	0.733348	0.046311	0.080381	0.141437	0.311290	0.072993	0.135553	0.344730	0.505779	0.247892	0.108841	0.161971	0.166752	0.148858	0.117898	0.234361	0.559170	0.659583	0.334374	0.040681	0.080748	0.220722	0.222003	0.601414	0.695248	0.305952	0.154792	0.256889	0.204831	0.106263	0.185574	0.276279	0.400020	0.448958	0.230274	0.203139	0.069219	0.157619	0.110647	0.459442	0.403017	0.054359	0.084479	0.060100	0.290642
98	0.148116	0.354243	0.358781	0.658739	0.078231	0.221771	0.276164	0.181186	0.113983	0.216755	0.398844	0.698140	0.037733	0.113567	0.236481	0.143117	0.091087	0.237326	0.294776	0.512872	0.090625	0.070278	0.182674	0.201247	0.126397	0.147448	0.378695	0.667814	0.051537	0.068927	0.149007	0.319185	0.070801	0.130476	0.357041	0.503951	0.253159	0.108653	0.163524	0.165212	0.142375	0.125774	0.295778	0.561026	0.625085	0.315042	0.036865	0.083587	0.248328	0.234046	0.668349	0.725837	0.304200	0.097857	0.249352	0.167707	0.091479	0.160253	0.264592	0.418263	0.445833	0.225731	0.211050	0.070608	0.166598	0.123423	0.428405	0.337470	0.054277	0.083291	0.060814	0.251023
99	0.198450	0.368691	0.394579	0.687009	0.077885	0.219329	0.268861	0.147223	0.113375	0.214618	0.422566	0.766022	0.032414	0.125844	0.162689	0.141152	0.140118	0.234104	0.273359	0.519520	0.086500	0.069794	0.179422	0.209929	0.114600	0.120406	0.347605	0.663503	0.052511	0.071238	0.157920	0.321717	0.084235	0.129492	0.356749	0.464380	0.261074	0.114205	0.164964	0.174623	0.115804	0.135487	0.296341	0.557710	0.475364	0.234113	0.041404	0.100246	0.307840	0.242458	0.736269	0.838043	0.263663	0.084893	0.218151	0.210554	0.082952	0.128074	0.262936	0.430785	0.434298	0.216750	0.208332	0.076821	0.295479	0.143405	0.424261	0.424302	0.055125	0.086486	0.072750	0.246571
100	0.218781	0.365839	0.483674	0.684689	0.069213	0.194425	0.244121	0.168570	0.105749	0.209813	0.407496	0.820008	0.035438	0.127253	0.172053	0.152047	0.146222	0.220640	0.280124	0.522135	0.083890	0.066235	0.182143	0.218957	0.115820	0.103603	0.358619	0.661247	0.054408	0.071224	0.131616	0.341354	0.118233	0.112681	0.343026	0.399678	0.329257	0.125726	0.164516	0.184939	0.122488	0.174676	0.516711	0.481848	0.441874	0.171187	0.054536	0.118152	0.413227	0.237050	0.765557	0.889507	0.249837	0.085408	0.225821	0.220646	0.093004	0.131813	0.272651	0.429407	0.423449	0.198639	0.221228	0.155726	0.315574	0.139923	0.412463	0.405803	0.053395	0.090564	0.096188	0.231621
101	0.238156	0.358065	0.583493	0.673660	0.077533	0.199220	0.214391	0.180450	0.133358	0.239570	0.337974	0.805634	0.033940	0.127050	0.178531	0.156291	0.205446	0.218176	0.289014	0.376242	0.083074	0.065717	0.182018	0.227833	0.137195	0.112305	0.396307	0.668632	0.057950	0.072207	0.132526	0.366671	0.138152	0.119367	0.373734	0.576216	0.357570	0.129800	0.154115	0.190541	0.141901	0.227667	0.687530	0.408347	0.442851	0.172269	0.053443	0.122398	0.426303	0.256117	0.757030	0.893915	0.287441	0.085434	0.248315	0.260878	0.121451	0.138407	0.363621	0.499601	0.404672	0.155346	0.206837	0.248243	0.370724	0.173569	0.374030	0.408368	0.052510	0.094497	0.130991	0.228890
