	327_At_T1_sh_L_ND_02.c3d	327_At_T1_sh_L_ND_02.c3d	327_At_T1_sh_L_ND_02.c3d	327_At_T1_sh_L_ND_02.c3d	327_At_T1_sh_L_ND_02.c3d	327_At_T1_sh_L_ND_02.c3d	327_At_T1_sh_L_ND_02.c3d	327_At_T1_sh_L_ND_02.c3d	327_At_T1_sh_L_ND_03.c3d	327_At_T1_sh_L_ND_03.c3d	327_At_T1_sh_L_ND_03.c3d	327_At_T1_sh_L_ND_03.c3d	327_At_T1_sh_L_ND_03.c3d	327_At_T1_sh_L_ND_03.c3d	327_At_T1_sh_L_ND_03.c3d	327_At_T1_sh_L_ND_03.c3d	327_At_T1_sh_L_ND_04.c3d	327_At_T1_sh_L_ND_04.c3d	327_At_T1_sh_L_ND_04.c3d	327_At_T1_sh_L_ND_04.c3d	327_At_T1_sh_L_ND_04.c3d	327_At_T1_sh_L_ND_04.c3d	327_At_T1_sh_L_ND_04.c3d	327_At_T1_sh_L_ND_04.c3d	327_At_T1_sh_L_ND_05.c3d	327_At_T1_sh_L_ND_05.c3d	327_At_T1_sh_L_ND_05.c3d	327_At_T1_sh_L_ND_05.c3d	327_At_T1_sh_L_ND_05.c3d	327_At_T1_sh_L_ND_05.c3d	327_At_T1_sh_L_ND_05.c3d	327_At_T1_sh_L_ND_05.c3d	327_At_T1_sh_L_ND_06.c3d	327_At_T1_sh_L_ND_06.c3d	327_At_T1_sh_L_ND_06.c3d	327_At_T1_sh_L_ND_06.c3d	327_At_T1_sh_L_ND_06.c3d	327_At_T1_sh_L_ND_06.c3d	327_At_T1_sh_L_ND_06.c3d	327_At_T1_sh_L_ND_06.c3d	327_At_T1_sh_L_ND_07.c3d	327_At_T1_sh_L_ND_07.c3d	327_At_T1_sh_L_ND_07.c3d	327_At_T1_sh_L_ND_07.c3d	327_At_T1_sh_L_ND_07.c3d	327_At_T1_sh_L_ND_07.c3d	327_At_T1_sh_L_ND_07.c3d	327_At_T1_sh_L_ND_07.c3d	327_At_T1_sh_L_ND_08.c3d	327_At_T1_sh_L_ND_08.c3d	327_At_T1_sh_L_ND_08.c3d	327_At_T1_sh_L_ND_08.c3d	327_At_T1_sh_L_ND_08.c3d	327_At_T1_sh_L_ND_08.c3d	327_At_T1_sh_L_ND_08.c3d	327_At_T1_sh_L_ND_08.c3d	327_At_T1_sh_L_ND_10.c3d	327_At_T1_sh_L_ND_10.c3d	327_At_T1_sh_L_ND_10.c3d	327_At_T1_sh_L_ND_10.c3d	327_At_T1_sh_L_ND_10.c3d	327_At_T1_sh_L_ND_10.c3d	327_At_T1_sh_L_ND_10.c3d	327_At_T1_sh_L_ND_10.c3d
	Biceps femoris_lat	Semitendinosus_lat	Vastus lateralis_lat	Vastus medialis_lat	Biceps femoris_med	Semitendinosus_med	Vastus lateralis_med	Vastus medialis_med	Biceps femoris_lat	Semitendinosus_lat	Vastus lateralis_lat	Vastus medialis_lat	Biceps femoris_med	Semitendinosus_med	Vastus lateralis_med	Vastus medialis_med	Biceps femoris_lat	Semitendinosus_lat	Vastus lateralis_lat	Vastus medialis_lat	Biceps femoris_med	Semitendinosus_med	Vastus lateralis_med	Vastus medialis_med	Biceps femoris_lat	Semitendinosus_lat	Vastus lateralis_lat	Vastus medialis_lat	Biceps femoris_med	Semitendinosus_med	Vastus lateralis_med	Vastus medialis_med	Biceps femoris_lat	Semitendinosus_lat	Vastus lateralis_lat	Vastus medialis_lat	Biceps femoris_med	Semitendinosus_med	Vastus lateralis_med	Vastus medialis_med	Biceps femoris_lat	Semitendinosus_lat	Vastus lateralis_lat	Vastus medialis_lat	Biceps femoris_med	Semitendinosus_med	Vastus lateralis_med	Vastus medialis_med	Biceps femoris_lat	Semitendinosus_lat	Vastus lateralis_lat	Vastus medialis_lat	Biceps femoris_med	Semitendinosus_med	Vastus lateralis_med	Vastus medialis_med	Biceps femoris_lat	Semitendinosus_lat	Vastus lateralis_lat	Vastus medialis_lat	Biceps femoris_med	Semitendinosus_med	Vastus lateralis_med	Vastus medialis_med
	P2D	P2D	P2D	P2D	P2D	P2D	P2D	P2D	P2D	P2D	P2D	P2D	P2D	P2D	P2D	P2D	P2D	P2D	P2D	P2D	P2D	P2D	P2D	P2D	P2D	P2D	P2D	P2D	P2D	P2D	P2D	P2D	P2D	P2D	P2D	P2D	P2D	P2D	P2D	P2D	P2D	P2D	P2D	P2D	P2D	P2D	P2D	P2D	P2D	P2D	P2D	P2D	P2D	P2D	P2D	P2D	P2D	P2D	P2D	P2D	P2D	P2D	P2D	P2D
	EMG_lat	EMG_lat	EMG_lat	EMG_lat	EMG_med	EMG_med	EMG_med	EMG_med	EMG_lat	EMG_lat	EMG_lat	EMG_lat	EMG_med	EMG_med	EMG_med	EMG_med	EMG_lat	EMG_lat	EMG_lat	EMG_lat	EMG_med	EMG_med	EMG_med	EMG_med	EMG_lat	EMG_lat	EMG_lat	EMG_lat	EMG_med	EMG_med	EMG_med	EMG_med	EMG_lat	EMG_lat	EMG_lat	EMG_lat	EMG_med	EMG_med	EMG_med	EMG_med	EMG_lat	EMG_lat	EMG_lat	EMG_lat	EMG_med	EMG_med	EMG_med	EMG_med	EMG_lat	EMG_lat	EMG_lat	EMG_lat	EMG_med	EMG_med	EMG_med	EMG_med	EMG_lat	EMG_lat	EMG_lat	EMG_lat	EMG_med	EMG_med	EMG_med	EMG_med
ITEM	Y	Y	Y	Y	Y	Y	Y	Y	Y	Y	Y	Y	Y	Y	Y	Y	Y	Y	Y	Y	Y	Y	Y	Y	Y	Y	Y	Y	Y	Y	Y	Y	Y	Y	Y	Y	Y	Y	Y	Y	Y	Y	Y	Y	Y	Y	Y	Y	Y	Y	Y	Y	Y	Y	Y	Y	Y	Y	Y	Y	Y	Y	Y	Y
1	0.260803	0.561147	0.116017	0.069523	0.392559	0.242636	0.149207	0.274616	0.237355	0.481837	0.302282	0.185740	0.633646	0.769522	0.229524	0.288969	0.672622	0.582932	0.214729	0.169092	0.585074	0.649517	0.209697	0.260614	0.073544	0.220057	0.139486	0.234017	0.252817	0.387137	0.284114	0.301729	0.204169	0.309507	0.134808	0.121033	0.152880	0.494347	0.149927	0.237566	0.145865	0.549326	0.104144	0.157900	0.504924	0.452219	0.252738	0.124478	0.377666	0.482158	0.120939	0.266610	0.177270	0.339109	0.172725	0.119865	0.245759	0.337443	0.130496	0.190621	0.177897	0.667684	0.235561	0.247250
2	0.241536	0.512333	0.114710	0.094729	0.379441	0.251228	0.126107	0.228848	0.239967	0.472273	0.306049	0.213610	0.621291	0.756681	0.226026	0.279785	0.587415	0.523460	0.203044	0.131894	0.651697	0.702251	0.209290	0.246325	0.076835	0.196962	0.138458	0.237481	0.247380	0.378007	0.285010	0.308699	0.209777	0.336559	0.135379	0.131917	0.150541	0.495255	0.151904	0.233483	0.163151	0.503237	0.101450	0.197804	0.429009	0.366167	0.265003	0.138569	0.325138	0.365228	0.124585	0.258742	0.176690	0.312471	0.181162	0.124549	0.247912	0.381597	0.128567	0.190326	0.160631	0.575513	0.246982	0.221858
3	0.268823	0.502441	0.114705	0.111877	0.371821	0.254227	0.119430	0.181071	0.224307	0.431144	0.305909	0.219796	0.659522	0.786312	0.228767	0.297913	0.581817	0.525865	0.198757	0.146656	0.658198	0.704991	0.218699	0.244684	0.083723	0.201543	0.132623	0.209477	0.231579	0.381273	0.209443	0.330278	0.207689	0.334304	0.135009	0.149775	0.142297	0.492773	0.139095	0.227511	0.160646	0.489157	0.104098	0.227977	0.365543	0.324035	0.268575	0.143867	0.249557	0.374765	0.123030	0.249629	0.173184	0.306343	0.197237	0.167281	0.256134	0.429932	0.130469	0.185073	0.153831	0.527928	0.232188	0.200879
4	0.233261	0.436881	0.109836	0.128229	0.294902	0.258993	0.127521	0.203193	0.212500	0.314247	0.312045	0.233070	0.711601	0.901172	0.232383	0.321474	0.418295	0.469354	0.200004	0.159927	0.659929	0.723191	0.213112	0.258738	0.080930	0.185780	0.141083	0.198658	0.178950	0.322808	0.185889	0.339707	0.206698	0.329495	0.134008	0.171414	0.142737	0.482900	0.135786	0.234817	0.162617	0.382356	0.104934	0.234025	0.362011	0.370517	0.268969	0.130255	0.211211	0.391269	0.122679	0.242609	0.158921	0.303343	0.191485	0.199718	0.276086	0.458192	0.111898	0.169647	0.144213	0.533024	0.220821	0.182693
5	0.217732	0.316799	0.130088	0.133135	0.252338	0.258451	0.132475	0.215079	0.247610	0.270678	0.327509	0.241298	0.801229	1.079039	0.236420	0.338218	0.301224	0.476499	0.196674	0.154071	0.661640	0.730553	0.191077	0.247336	0.084391	0.186554	0.166533	0.206339	0.122577	0.231906	0.192987	0.334575	0.209096	0.340874	0.132284	0.182084	0.140710	0.481065	0.159052	0.250183	0.176586	0.342203	0.096708	0.231909	0.368007	0.443638	0.263806	0.131106	0.211731	0.390608	0.121997	0.245533	0.144138	0.298339	0.184142	0.206760	0.298020	0.488540	0.107588	0.165085	0.117751	0.525672	0.218899	0.160583
6	0.217695	0.333278	0.134389	0.139068	0.247192	0.292278	0.176312	0.215174	0.244202	0.241507	0.309320	0.244111	0.833140	1.103693	0.241471	0.329427	0.279671	0.452456	0.196826	0.151455	0.668293	0.847302	0.193507	0.227304	0.085523	0.196557	0.190523	0.181210	0.120543	0.230199	0.213276	0.349660	0.201838	0.340220	0.144353	0.175584	0.141581	0.479489	0.202188	0.246484	0.175531	0.333639	0.097033	0.214583	0.365569	0.455190	0.267655	0.131723	0.202432	0.352673	0.123321	0.254827	0.127436	0.301613	0.187099	0.200528	0.318542	0.498599	0.126475	0.168334	0.087147	0.449472	0.218827	0.160552
7	0.216058	0.332370	0.137678	0.209552	0.230767	0.309987	0.189902	0.196308	0.253528	0.237795	0.305778	0.240930	0.832869	1.081159	0.242442	0.294154	0.208908	0.506127	0.193664	0.153207	0.673027	0.884166	0.198552	0.222509	0.088296	0.193486	0.194045	0.186487	0.083419	0.222277	0.224343	0.366002	0.200943	0.342021	0.148057	0.167164	0.141581	0.496141	0.218518	0.239263	0.172227	0.293540	0.097815	0.247821	0.364643	0.461712	0.305499	0.172610	0.140351	0.338078	0.138628	0.249808	0.104201	0.290278	0.177716	0.204112	0.309497	0.480867	0.146622	0.163096	0.091068	0.363942	0.229437	0.211227
8	0.215267	0.334139	0.195725	0.314714	0.201872	0.303643	0.190965	0.192855	0.261444	0.238099	0.300987	0.257535	0.834155	1.080263	0.262067	0.285436	0.174395	0.546557	0.194493	0.158396	0.669474	0.880002	0.216991	0.220354	0.094318	0.224472	0.190397	0.239256	0.057614	0.224324	0.222547	0.369398	0.193822	0.338615	0.148921	0.207545	0.145224	0.488014	0.218361	0.246330	0.163994	0.243489	0.141586	0.334863	0.357157	0.468095	0.303930	0.216608	0.093940	0.332148	0.120871	0.233346	0.100355	0.277967	0.183900	0.227908	0.340515	0.511291	0.152293	0.200024	0.089644	0.361156	0.222725	0.252551
9	0.209866	0.326018	0.342059	0.346317	0.190147	0.293520	0.202764	0.223533	0.265080	0.234793	0.353433	0.279213	0.832013	1.075223	0.280941	0.286438	0.172571	0.625543	0.225738	0.190168	0.649808	0.864217	0.233803	0.217093	0.081834	0.228133	0.175719	0.237579	0.057323	0.233372	0.229307	0.359798	0.157246	0.304213	0.142925	0.236964	0.128013	0.420620	0.217739	0.246370	0.152542	0.215998	0.150560	0.358295	0.345485	0.486423	0.260211	0.221912	0.067722	0.336738	0.123033	0.207159	0.073740	0.231813	0.202823	0.285774	0.410077	0.664422	0.154210	0.259148	0.092012	0.342753	0.279071	0.268587
10	0.194392	0.308739	0.369797	0.349438	0.134395	0.292566	0.209738	0.224927	0.267524	0.246056	0.367363	0.298661	0.814737	1.059462	0.324802	0.300416	0.171641	0.651276	0.280533	0.252802	0.577579	0.782519	0.219296	0.208165	0.073544	0.244503	0.180448	0.258288	0.056912	0.259895	0.224849	0.377074	0.152808	0.321244	0.108511	0.238438	0.113715	0.384976	0.224518	0.228811	0.144591	0.195009	0.154960	0.359545	0.309035	0.485051	0.265888	0.220477	0.069556	0.341568	0.110304	0.213314	0.075707	0.259164	0.217313	0.367506	0.429447	0.790768	0.176680	0.278843	0.094715	0.281314	0.413248	0.270849
11	0.191997	0.301736	0.368863	0.348534	0.106708	0.313937	0.211364	0.221400	0.271240	0.266448	0.365452	0.312685	0.767111	1.008296	0.347165	0.282854	0.179498	0.701570	0.293580	0.276919	0.504066	0.729390	0.205453	0.233006	0.088984	0.251775	0.185816	0.280000	0.056995	0.264886	0.220109	0.434161	0.184755	0.324225	0.136525	0.241927	0.123211	0.369962	0.268621	0.214314	0.144473	0.171352	0.169744	0.365620	0.301035	0.507339	0.347986	0.217265	0.069872	0.331861	0.115084	0.215177	0.085215	0.273443	0.213841	0.405142	0.414596	0.844731	0.230400	0.274488	0.104226	0.285256	0.531591	0.303650
12	0.171711	0.259787	0.384779	0.343378	0.106594	0.312301	0.236542	0.243781	0.274334	0.270236	0.358887	0.317534	0.689649	0.927279	0.427086	0.293657	0.181661	0.698792	0.285464	0.281162	0.476313	0.721655	0.232814	0.249845	0.093577	0.271320	0.183239	0.278814	0.065079	0.262116	0.216235	0.538337	0.230109	0.303169	0.203800	0.248258	0.113503	0.276412	0.320328	0.197473	0.144910	0.157649	0.203170	0.373328	0.196383	0.510913	0.489013	0.213383	0.068480	0.332509	0.129800	0.211908	0.094945	0.278781	0.221128	0.406373	0.405211	0.861059	0.329951	0.268027	0.114244	0.304558	0.545219	0.412003
13	0.117927	0.208398	0.440190	0.337154	0.105188	0.305872	0.241456	0.321415	0.282481	0.276502	0.378305	0.304660	0.610748	0.843179	0.508255	0.304161	0.176750	0.698908	0.287831	0.279543	0.466246	0.704618	0.249435	0.232381	0.106235	0.274023	0.180404	0.275342	0.084460	0.270792	0.223760	0.622319	0.233217	0.294842	0.213170	0.254905	0.100848	0.248984	0.318746	0.171459	0.153420	0.192374	0.219323	0.388856	0.158996	0.511730	0.545929	0.215844	0.063942	0.329385	0.127828	0.206899	0.102187	0.288492	0.259583	0.412050	0.404984	0.862656	0.369140	0.263706	0.142452	0.339166	0.571497	0.471837
14	0.122137	0.263789	0.466264	0.345093	0.106436	0.290968	0.334342	0.350928	0.292389	0.277676	0.392636	0.284315	0.596526	0.833459	0.519272	0.303581	0.167973	0.696709	0.301906	0.283318	0.365277	0.649301	0.303224	0.229799	0.175477	0.339211	0.160497	0.318368	0.105836	0.371503	0.252870	0.634618	0.227945	0.270715	0.224796	0.251339	0.099553	0.251408	0.320467	0.180594	0.186515	0.243267	0.236789	0.401894	0.167552	0.517046	0.599649	0.220630	0.070481	0.313121	0.130702	0.225122	0.106491	0.296168	0.267604	0.427668	0.441153	0.887505	0.386197	0.279738	0.149048	0.346837	0.578780	0.476048
15	0.128765	0.286832	0.467741	0.366704	0.106827	0.287758	0.482726	0.351836	0.284927	0.285081	0.396573	0.294266	0.521886	0.774419	0.530550	0.336271	0.151471	0.691887	0.303547	0.287772	0.193798	0.575520	0.359457	0.234074	0.207558	0.366290	0.128326	0.341689	0.112369	0.454047	0.248469	0.648586	0.229681	0.289500	0.266545	0.305028	0.105019	0.251978	0.332525	0.210197	0.190343	0.257904	0.248479	0.392602	0.184782	0.528558	0.620871	0.255063	0.070273	0.255626	0.138708	0.244557	0.107804	0.295862	0.284878	0.421866	0.463924	0.901974	0.431556	0.299901	0.149704	0.346247	0.570217	0.492298
16	0.121579	0.263822	0.467551	0.369068	0.104221	0.281328	0.560682	0.384247	0.263898	0.279802	0.422633	0.309251	0.449563	0.671077	0.536120	0.395549	0.147394	0.687963	0.308214	0.282503	0.168169	0.570656	0.373805	0.234878	0.210429	0.369523	0.119236	0.336550	0.112019	0.455538	0.257009	0.690365	0.234457	0.304066	0.274001	0.334033	0.105262	0.254319	0.334382	0.227206	0.192882	0.259868	0.257924	0.375197	0.199343	0.507949	0.635367	0.289380	0.071422	0.260934	0.138402	0.237180	0.110351	0.299743	0.330025	0.406211	0.462516	0.881448	0.451427	0.310818	0.149767	0.342282	0.570369	0.496973
17	0.121983	0.260673	0.468805	0.328305	0.105134	0.279423	0.565085	0.400131	0.227029	0.248166	0.428759	0.312573	0.265530	0.423323	0.547639	0.411860	0.145816	0.690443	0.301363	0.282126	0.161983	0.549833	0.385342	0.239477	0.220041	0.401468	0.107196	0.305713	0.124127	0.462874	0.267624	0.718211	0.229629	0.296223	0.273760	0.329611	0.117958	0.273516	0.342714	0.230568	0.211274	0.268763	0.258602	0.372813	0.192092	0.444035	0.689605	0.305891	0.075391	0.271411	0.142692	0.219077	0.110587	0.297539	0.341350	0.400226	0.452344	0.865832	0.456392	0.315461	0.150615	0.338963	0.570854	0.501699
18	0.121139	0.253358	0.452254	0.251794	0.119026	0.289464	0.574929	0.399729	0.224796	0.269175	0.437591	0.311729	0.202763	0.422891	0.544851	0.413381	0.138283	0.666713	0.299494	0.282818	0.156920	0.539520	0.403550	0.254734	0.300066	0.541994	0.136662	0.316774	0.140036	0.479189	0.328073	0.738496	0.222407	0.288710	0.265885	0.333069	0.130451	0.291731	0.328588	0.236649	0.203660	0.269168	0.259934	0.373456	0.187429	0.446672	0.724998	0.307543	0.086598	0.253444	0.171606	0.215995	0.108884	0.293277	0.338255	0.411053	0.436786	0.894826	0.458535	0.315574	0.150313	0.339315	0.571014	0.519904
19	0.110271	0.251324	0.375966	0.229172	0.120253	0.251629	0.577184	0.408987	0.213606	0.318504	0.449834	0.310998	0.196190	0.431896	0.544291	0.409644	0.116676	0.572460	0.300933	0.281379	0.128817	0.348317	0.399602	0.264057	0.361558	0.565182	0.142271	0.310124	0.142018	0.482003	0.338751	0.744952	0.216073	0.275698	0.289102	0.339545	0.132575	0.267022	0.318846	0.231796	0.210867	0.276182	0.256811	0.373307	0.186839	0.445899	0.733036	0.288630	0.088745	0.252304	0.173638	0.221351	0.102178	0.285733	0.341523	0.433825	0.427856	0.926591	0.459744	0.314607	0.153968	0.343189	0.584605	0.536602
20	0.095095	0.244876	0.364165	0.228984	0.119005	0.238320	0.584770	0.409688	0.204867	0.353864	0.449425	0.297237	0.192879	0.434330	0.533412	0.410645	0.120065	0.459784	0.290405	0.277010	0.095357	0.174066	0.396618	0.268413	0.366266	0.567372	0.138071	0.286337	0.138568	0.479540	0.330954	0.739549	0.209067	0.268742	0.298788	0.333289	0.126750	0.239502	0.321301	0.209411	0.235317	0.300858	0.258963	0.349324	0.186343	0.438049	0.748444	0.254790	0.092454	0.267461	0.198866	0.222872	0.113273	0.312500	0.364429	0.438304	0.429358	0.933240	0.453591	0.312889	0.151998	0.343127	0.608882	0.525009
21	0.090208	0.243480	0.362807	0.236577	0.113022	0.237419	0.583177	0.425149	0.200510	0.359552	0.410949	0.273077	0.192642	0.435614	0.510102	0.417552	0.152716	0.429870	0.248876	0.244536	0.090283	0.163517	0.392459	0.260343	0.382618	0.587903	0.136794	0.271943	0.137884	0.470810	0.351908	0.731285	0.220382	0.317320	0.302508	0.325553	0.129765	0.235521	0.322297	0.216631	0.290675	0.350323	0.240011	0.263545	0.185021	0.424388	0.761579	0.256959	0.091614	0.237736	0.199930	0.209132	0.133834	0.337735	0.395997	0.419368	0.444671	0.935371	0.446039	0.306603	0.151630	0.357915	0.615249	0.505023
22	0.090156	0.241679	0.339321	0.262674	0.106690	0.236990	0.580279	0.450042	0.197292	0.354701	0.395073	0.241310	0.190882	0.434929	0.465546	0.424428	0.163984	0.373067	0.189279	0.216227	0.079336	0.119458	0.443531	0.269462	0.407219	0.593754	0.136131	0.267370	0.140684	0.470995	0.389198	0.724336	0.234870	0.392023	0.306080	0.333075	0.130169	0.222447	0.326269	0.234340	0.355308	0.398253	0.237815	0.222653	0.174511	0.381434	0.770972	0.310244	0.103071	0.263227	0.198740	0.199333	0.138173	0.314987	0.406668	0.357119	0.415397	0.919160	0.444934	0.269978	0.149966	0.384517	0.590858	0.496072
23	0.090913	0.234688	0.259192	0.264599	0.105445	0.227006	0.586146	0.457999	0.197426	0.349771	0.374180	0.215335	0.192325	0.434551	0.484918	0.428270	0.157927	0.311896	0.186314	0.239458	0.064516	0.117510	0.496481	0.316249	0.396984	0.570292	0.134890	0.232999	0.141452	0.459861	0.431693	0.724133	0.226665	0.414451	0.297245	0.334798	0.121806	0.208568	0.311756	0.304014	0.385966	0.410538	0.244281	0.221177	0.157923	0.348085	0.742486	0.413472	0.112129	0.318267	0.187723	0.203607	0.134081	0.291357	0.412198	0.287809	0.364346	0.840299	0.444692	0.212922	0.144434	0.394527	0.508335	0.496144
24	0.082095	0.164021	0.209737	0.245145	0.097380	0.196243	0.595134	0.456647	0.200268	0.358546	0.333765	0.209864	0.193730	0.436444	0.404747	0.434360	0.217176	0.342512	0.180488	0.238813	0.072754	0.137105	0.514302	0.368544	0.371780	0.544609	0.134206	0.170688	0.141428	0.449431	0.437755	0.707633	0.180153	0.426376	0.270772	0.329980	0.116653	0.197153	0.252698	0.348849	0.390005	0.412926	0.236391	0.211013	0.157580	0.284248	0.661483	0.439157	0.120830	0.344909	0.184239	0.206899	0.127733	0.275207	0.416441	0.290759	0.350279	0.758643	0.433982	0.196237	0.137840	0.402635	0.377431	0.478962
25	0.076799	0.125750	0.200667	0.219089	0.096296	0.193646	0.585697	0.429307	0.195639	0.369450	0.298443	0.209621	0.191215	0.442714	0.322823	0.447978	0.277154	0.391078	0.158651	0.244201	0.104345	0.213415	0.513198	0.383719	0.369827	0.539754	0.136008	0.163129	0.139577	0.449122	0.436168	0.651886	0.173984	0.439494	0.267139	0.324490	0.116344	0.202975	0.252567	0.350189	0.403226	0.442772	0.217120	0.192588	0.172849	0.310946	0.631866	0.439915	0.126214	0.378171	0.180711	0.197388	0.124259	0.261224	0.397433	0.311694	0.365191	0.732045	0.405143	0.255685	0.134301	0.395414	0.357499	0.394395
26	0.079464	0.116468	0.201058	0.223621	0.096712	0.189926	0.588087	0.377837	0.200330	0.389943	0.275743	0.199790	0.189997	0.443669	0.311699	0.445810	0.290179	0.416069	0.132575	0.251203	0.126082	0.270485	0.509467	0.384429	0.367528	0.526335	0.134579	0.155089	0.132735	0.448919	0.442529	0.532825	0.174222	0.435784	0.259502	0.323316	0.117162	0.202646	0.265013	0.347995	0.477801	0.519994	0.219556	0.157168	0.172425	0.348599	0.593765	0.458859	0.134332	0.392433	0.176251	0.170715	0.137395	0.240468	0.383260	0.293742	0.376525	0.731755	0.329818	0.301731	0.102571	0.365421	0.320812	0.308252
27	0.075399	0.115772	0.210632	0.218876	0.095457	0.189602	0.514824	0.362612	0.204556	0.383631	0.274957	0.172233	0.187335	0.445183	0.286023	0.397242	0.289938	0.420797	0.123199	0.267830	0.128469	0.274287	0.483049	0.391242	0.320565	0.497592	0.107322	0.108336	0.115837	0.418431	0.432181	0.465672	0.174536	0.463679	0.217862	0.272128	0.115957	0.200439	0.256868	0.344870	0.515179	0.561332	0.203639	0.111399	0.157414	0.335522	0.569468	0.463637	0.135489	0.388411	0.177500	0.183859	0.151374	0.245570	0.370310	0.283042	0.371327	0.733415	0.302302	0.306217	0.094536	0.415566	0.281809	0.301277
28	0.077290	0.114383	0.187070	0.203549	0.103537	0.193854	0.385974	0.357737	0.175000	0.376201	0.229868	0.120474	0.136844	0.310418	0.296666	0.341787	0.290249	0.461654	0.119261	0.282581	0.128358	0.275596	0.442080	0.392711	0.238378	0.515934	0.065279	0.079956	0.101626	0.279044	0.423169	0.463468	0.166838	0.482032	0.204265	0.209953	0.116216	0.202559	0.254132	0.339471	0.520998	0.574380	0.191747	0.079324	0.156175	0.370656	0.557203	0.452096	0.136293	0.383138	0.184716	0.193169	0.152728	0.238734	0.341194	0.282806	0.325131	0.701696	0.271012	0.287233	0.099692	0.445107	0.276265	0.262567
29	0.073273	0.123353	0.171840	0.221047	0.123581	0.203610	0.298972	0.302654	0.167864	0.394506	0.184507	0.087243	0.077071	0.267757	0.280020	0.350953	0.292829	0.516587	0.122576	0.285741	0.136294	0.294315	0.424258	0.389579	0.213833	0.511751	0.060872	0.069094	0.101049	0.261539	0.421295	0.405666	0.156484	0.476935	0.203942	0.203944	0.116718	0.244359	0.240157	0.324800	0.523810	0.580641	0.182545	0.080815	0.164958	0.393472	0.494881	0.441663	0.133347	0.374635	0.172292	0.194328	0.152307	0.241612	0.313956	0.277423	0.305715	0.681393	0.192471	0.271794	0.113984	0.599617	0.274996	0.244946
30	0.074320	0.135843	0.171167	0.224421	0.107887	0.155408	0.295839	0.278643	0.176250	0.380202	0.163799	0.079065	0.071246	0.206652	0.278597	0.369501	0.301163	0.555257	0.125794	0.287156	0.137963	0.302933	0.413151	0.377626	0.194859	0.509444	0.069102	0.068256	0.096840	0.243479	0.424097	0.322439	0.155230	0.477320	0.205417	0.198873	0.102980	0.227112	0.223982	0.316907	0.516342	0.576612	0.199387	0.078082	0.166224	0.374603	0.437496	0.439526	0.138427	0.409159	0.152262	0.194409	0.154494	0.241785	0.316879	0.259486	0.303384	0.680183	0.147134	0.279674	0.131357	0.728627	0.274080	0.235860
31	0.081785	0.142462	0.178940	0.206189	0.103723	0.189184	0.283346	0.270458	0.180205	0.364646	0.127226	0.080769	0.077835	0.203155	0.276443	0.370644	0.309484	0.558628	0.124213	0.287247	0.136228	0.302659	0.397559	0.358637	0.114969	0.593067	0.079077	0.069048	0.070562	0.190900	0.392726	0.247838	0.154616	0.479158	0.174103	0.186638	0.114580	0.269245	0.235284	0.317210	0.513601	0.574678	0.208092	0.078886	0.166459	0.380563	0.399066	0.439515	0.136257	0.431597	0.113979	0.180924	0.153686	0.240062	0.319052	0.223410	0.301802	0.653228	0.150383	0.300014	0.133517	0.745350	0.277870	0.189591
32	0.088144	0.178946	0.180728	0.174416	0.105297	0.210286	0.262464	0.264551	0.229383	0.357215	0.125894	0.082436	0.076847	0.194954	0.277842	0.370008	0.302792	0.553253	0.125706	0.287226	0.135366	0.318358	0.401901	0.349204	0.085553	0.633253	0.081333	0.101398	0.065487	0.230041	0.357554	0.203620	0.154955	0.483623	0.152606	0.152481	0.112978	0.274114	0.240627	0.320044	0.510686	0.573666	0.206997	0.082260	0.167662	0.383478	0.348320	0.439214	0.136167	0.435677	0.099947	0.166556	0.149044	0.223871	0.300661	0.186111	0.302795	0.586665	0.152556	0.310027	0.127131	0.742590	0.256272	0.122376
33	0.097062	0.296224	0.181456	0.171672	0.105085	0.210671	0.255085	0.263320	0.243786	0.354587	0.143302	0.083872	0.083031	0.196308	0.270640	0.355712	0.294070	0.598922	0.124725	0.283207	0.136204	0.333010	0.404975	0.341214	0.080014	0.637459	0.101227	0.200282	0.068445	0.242205	0.360616	0.193781	0.139996	0.466466	0.145940	0.106779	0.105539	0.280172	0.239338	0.315077	0.499777	0.562182	0.201774	0.081625	0.168032	0.377693	0.308860	0.434980	0.130854	0.425155	0.094767	0.160965	0.130470	0.157515	0.244978	0.172259	0.290648	0.504134	0.165397	0.314661	0.122771	0.734496	0.176172	0.099095
34	0.097986	0.329941	0.181373	0.164517	0.104669	0.212138	0.267920	0.204394	0.243349	0.376110	0.175899	0.103995	0.090283	0.202984	0.251403	0.337528	0.295814	0.619075	0.115006	0.248496	0.147337	0.338540	0.402506	0.340502	0.072483	0.634573	0.113725	0.290237	0.071361	0.246436	0.341289	0.199614	0.113158	0.395334	0.136669	0.064697	0.105484	0.280254	0.229327	0.302562	0.470020	0.529224	0.200803	0.081098	0.167053	0.377325	0.276191	0.404346	0.122298	0.389972	0.098873	0.157656	0.118326	0.135294	0.197377	0.169548	0.265227	0.464220	0.188893	0.317920	0.122426	0.728383	0.142384	0.109479
35	0.090240	0.331921	0.177541	0.162109	0.105499	0.223563	0.281012	0.127180	0.248495	0.415330	0.215732	0.111895	0.087470	0.198081	0.175789	0.322204	0.287923	0.609892	0.107541	0.216628	0.149582	0.339250	0.341159	0.335339	0.080178	0.636734	0.196742	0.298129	0.067436	0.246370	0.312309	0.210253	0.090183	0.361790	0.135606	0.034960	0.105956	0.282211	0.205285	0.242599	0.423042	0.489687	0.200256	0.104621	0.161003	0.370333	0.261088	0.298047	0.113605	0.350595	0.105696	0.151676	0.116842	0.142481	0.162522	0.169051	0.241999	0.461392	0.205425	0.322430	0.122481	0.714991	0.129002	0.103491
36	0.090696	0.346540	0.203023	0.160457	0.122180	0.424038	0.268273	0.110594	0.242890	0.405924	0.218672	0.102808	0.085117	0.197154	0.158210	0.276771	0.242406	0.705587	0.108885	0.215282	0.149604	0.336617	0.238814	0.293846	0.088036	0.579905	0.325669	0.319745	0.062942	0.241574	0.247669	0.211332	0.067366	0.364850	0.108091	0.023887	0.104474	0.291179	0.203127	0.167215	0.393060	0.479549	0.187718	0.139334	0.153295	0.371215	0.248117	0.249742	0.103865	0.337385	0.110737	0.149611	0.116592	0.145944	0.141162	0.157512	0.237869	0.434411	0.231477	0.327744	0.122724	0.698786	0.127577	0.093370
37	0.102609	0.484670	0.182160	0.204180	0.124636	0.448895	0.252066	0.111825	0.238993	0.396724	0.222520	0.106739	0.086867	0.191375	0.179282	0.251323	0.186828	0.747816	0.108822	0.202058	0.145424	0.331202	0.199304	0.200237	0.087575	0.471656	0.333935	0.377810	0.062512	0.243071	0.202781	0.199231	0.068494	0.448473	0.084872	0.023343	0.103714	0.284070	0.199631	0.162189	0.391673	0.475663	0.190973	0.145883	0.132402	0.355628	0.191830	0.245759	0.089120	0.302335	0.113394	0.147812	0.115899	0.146284	0.138474	0.092967	0.251022	0.386442	0.252195	0.332003	0.120721	0.694214	0.122529	0.090925
38	0.118014	0.547769	0.164687	0.216055	0.127044	0.451900	0.248055	0.103638	0.220481	0.404304	0.225923	0.122701	0.083056	0.181578	0.185981	0.248809	0.171150	0.767460	0.108698	0.167293	0.127131	0.289820	0.184004	0.122963	0.096636	0.483575	0.373389	0.411633	0.062266	0.254004	0.203725	0.189043	0.069890	0.463173	0.088553	0.025089	0.100124	0.281724	0.179644	0.161567	0.380245	0.451354	0.188494	0.146291	0.118093	0.298478	0.125990	0.197940	0.086448	0.312735	0.114237	0.126199	0.103767	0.133120	0.153942	0.074930	0.281424	0.361189	0.253312	0.330476	0.118939	0.698307	0.098453	0.090943
39	0.132258	0.553528	0.187409	0.211004	0.129478	0.452243	0.233337	0.103931	0.214119	0.459328	0.231290	0.136875	0.082482	0.158834	0.175403	0.240434	0.175209	0.770270	0.131506	0.113954	0.106236	0.232059	0.200875	0.116130	0.106799	0.495771	0.441637	0.421899	0.062884	0.262597	0.191608	0.203028	0.075512	0.508097	0.100873	0.025505	0.095200	0.278567	0.173057	0.133401	0.288902	0.358098	0.170346	0.147386	0.117761	0.295523	0.139793	0.125398	0.085101	0.327872	0.129979	0.089790	0.074416	0.109463	0.155327	0.073183	0.297462	0.331240	0.248274	0.281327	0.118650	0.701211	0.084271	0.092380
40	0.161802	0.570986	0.235933	0.219032	0.131770	0.454191	0.230578	0.108106	0.214473	0.453317	0.238974	0.138102	0.082033	0.156560	0.130290	0.205775	0.187287	0.743071	0.134428	0.088422	0.104726	0.228585	0.202149	0.091061	0.113182	0.379681	0.503521	0.451053	0.064335	0.264811	0.177304	0.203097	0.075977	0.484457	0.166402	0.026745	0.094342	0.286745	0.169684	0.110791	0.181169	0.260032	0.163152	0.151450	0.093661	0.246525	0.179821	0.087147	0.097637	0.419108	0.132324	0.144391	0.057881	0.105769	0.154057	0.064833	0.318357	0.308037	0.238978	0.238498	0.113182	0.676579	0.085022	0.093646
41	0.183438	0.587108	0.445817	0.223853	0.119966	0.450243	0.229847	0.109867	0.208789	0.435095	0.248722	0.138524	0.081497	0.151163	0.135029	0.141890	0.206251	0.703865	0.129491	0.219451	0.105368	0.228158	0.205972	0.069070	0.114128	0.272880	0.506484	0.560192	0.068869	0.285831	0.175952	0.195714	0.107299	0.518416	0.227116	0.035448	0.079620	0.246932	0.165281	0.123263	0.159391	0.284333	0.160501	0.154907	0.068180	0.185431	0.173006	0.079467	0.105313	0.447004	0.131902	0.401283	0.057944	0.087530	0.139601	0.071652	0.333309	0.299504	0.243214	0.230738	0.105553	0.655285	0.086975	0.090409
42	0.180364	0.574243	0.464713	0.227185	0.107241	0.447261	0.224581	0.109810	0.210264	0.473180	0.254779	0.144467	0.078272	0.149495	0.149325	0.106810	0.227884	0.686244	0.212565	0.328532	0.091275	0.210300	0.218080	0.071267	0.135028	0.254562	0.525180	0.555268	0.073006	0.290938	0.168888	0.192044	0.159982	0.538945	0.271879	0.122760	0.080422	0.245291	0.167049	0.125365	0.169015	0.354003	0.163117	0.152563	0.075399	0.197074	0.168878	0.114495	0.112416	0.410571	0.142855	0.532608	0.052970	0.089636	0.135349	0.082799	0.342041	0.296402	0.291035	0.230132	0.103015	0.564466	0.114503	0.106559
43	0.174991	0.517286	0.468284	0.235110	0.105761	0.439817	0.218142	0.110167	0.215572	0.465435	0.258679	0.157567	0.073384	0.147061	0.149203	0.144448	0.248920	0.699622	0.322158	0.416352	0.085876	0.199296	0.230295	0.073614	0.152727	0.266645	0.552887	0.511090	0.079896	0.373549	0.155098	0.191067	0.210133	0.538607	0.279272	0.180292	0.073177	0.211572	0.182645	0.122469	0.181965	0.377856	0.177153	0.153239	0.095708	0.186549	0.169089	0.164358	0.134660	0.393616	0.143361	0.543151	0.054070	0.090593	0.125366	0.089334	0.339675	0.302262	0.407985	0.243578	0.100096	0.414141	0.148440	0.125493
44	0.180579	0.509782	0.476556	0.240020	0.098043	0.426448	0.194449	0.113503	0.168838	0.452187	0.299529	0.272565	0.084775	0.163850	0.172494	0.177208	0.335670	0.739691	0.349787	0.442598	0.085700	0.199853	0.223202	0.075131	0.157534	0.272823	0.571381	0.499794	0.085274	0.435518	0.141120	0.188992	0.230844	0.564710	0.284620	0.268786	0.079829	0.202143	0.193102	0.119662	0.182379	0.391872	0.167269	0.158248	0.104229	0.188100	0.193881	0.176914	0.179589	0.424264	0.144228	0.562907	0.054730	0.088244	0.124783	0.171680	0.342071	0.312327	0.500962	0.357402	0.103471	0.382544	0.156117	0.133200
45	0.198332	0.519412	0.502213	0.233509	0.096469	0.443391	0.185359	0.120432	0.142193	0.455025	0.305919	0.407048	0.107740	0.182420	0.176745	0.271944	0.396841	0.725349	0.503023	0.450490	0.085942	0.201409	0.215507	0.075695	0.170909	0.357350	0.508501	0.501194	0.087917	0.492215	0.126656	0.184840	0.291098	0.667259	0.345626	0.405127	0.094274	0.220071	0.193764	0.124185	0.185531	0.405028	0.170856	0.187166	0.103724	0.186828	0.203266	0.196095	0.204680	0.442938	0.169893	0.587363	0.062626	0.095951	0.127166	0.230120	0.341906	0.316607	0.518964	0.457289	0.116742	0.367662	0.173151	0.132728
46	0.213534	0.506091	0.520742	0.223261	0.099344	0.449676	0.187717	0.126158	0.186329	0.473057	0.322216	0.437123	0.144867	0.222303	0.201037	0.288122	0.398510	0.712980	0.526938	0.509652	0.085574	0.201843	0.219278	0.096159	0.201133	0.419110	0.517583	0.488925	0.089115	0.493192	0.100867	0.176359	0.535555	0.808223	0.472834	0.434866	0.095076	0.226511	0.194600	0.125091	0.195680	0.424795	0.182701	0.265638	0.104725	0.188229	0.238747	0.198677	0.214112	0.461172	0.177943	0.599220	0.081698	0.120833	0.154775	0.246513	0.339527	0.317332	0.527000	0.492425	0.131260	0.372224	0.188287	0.130580
47	0.212436	0.381752	0.521931	0.172602	0.114192	0.486301	0.172212	0.129478	0.248100	0.471625	0.327343	0.444286	0.151126	0.223097	0.205023	0.287530	0.398370	0.695749	0.576528	0.522903	0.080589	0.273844	0.217658	0.119476	0.205279	0.403696	0.503912	0.500092	0.089946	0.497081	0.096457	0.162409	0.580952	0.831378	0.522935	0.446536	0.097028	0.225607	0.196626	0.121976	0.261303	0.489862	0.182169	0.283005	0.114360	0.205576	0.260095	0.207930	0.245549	0.518677	0.203121	0.610077	0.100610	0.143694	0.158663	0.270625	0.361556	0.378000	0.528160	0.502416	0.130908	0.380694	0.190338	0.131404
48	0.209928	0.359734	0.519251	0.158724	0.145123	0.523259	0.226805	0.151273	0.286763	0.506819	0.341665	0.466840	0.151972	0.219571	0.200751	0.303786	0.403340	0.574578	0.650274	0.523746	0.088379	0.282969	0.217881	0.129211	0.208133	0.378751	0.462353	0.507582	0.092872	0.527991	0.094793	0.152341	0.583903	0.823457	0.526518	0.524830	0.101450	0.211487	0.226445	0.111537	0.305772	0.544929	0.179258	0.276407	0.127368	0.223425	0.260012	0.222850	0.258397	0.541603	0.233086	0.612045	0.114255	0.155610	0.160686	0.276309	0.526445	0.592879	0.604940	0.500698	0.139214	0.421814	0.199979	0.133394
49	0.201939	0.360026	0.505591	0.123259	0.158209	0.440723	0.249666	0.166899	0.310102	0.520102	0.442314	0.473769	0.155699	0.227274	0.191632	0.329336	0.421704	0.556346	0.675718	0.524029	0.095311	0.285249	0.218526	0.128213	0.201802	0.377141	0.372694	0.499090	0.100704	0.585099	0.085433	0.161283	0.584783	0.773802	0.527785	0.599451	0.104185	0.209817	0.246182	0.129682	0.326566	0.578257	0.201622	0.260925	0.133546	0.227208	0.261660	0.241983	0.258128	0.542467	0.243537	0.612315	0.123205	0.164725	0.160693	0.312206	0.613164	0.694497	0.738574	0.501037	0.147381	0.439657	0.224149	0.146151
50	0.173914	0.327079	0.461912	0.113377	0.172956	0.455780	0.269440	0.161355	0.312567	0.512655	0.466884	0.477473	0.177433	0.293129	0.189313	0.347334	0.433208	0.532759	0.678670	0.524759	0.104750	0.300241	0.217576	0.130954	0.204339	0.414012	0.362199	0.374484	0.199456	0.653845	0.091979	0.153197	0.586864	0.763725	0.529590	0.633588	0.104403	0.209708	0.246905	0.140219	0.327153	0.586113	0.275004	0.259508	0.134390	0.225730	0.269202	0.261028	0.258404	0.538414	0.248085	0.612706	0.128995	0.171484	0.152088	0.345117	0.634054	0.706993	0.785732	0.502681	0.149871	0.428772	0.276951	0.152594
51	0.157649	0.303914	0.284891	0.107116	0.173693	0.455827	0.286703	0.159935	0.322443	0.495961	0.466144	0.479863	0.195659	0.339256	0.193014	0.361697	0.436240	0.544015	0.684695	0.528861	0.111404	0.303913	0.219208	0.131449	0.195729	0.424081	0.356405	0.317427	0.254736	0.701093	0.156153	0.151596	0.589115	0.727010	0.532946	0.639814	0.103684	0.206749	0.254050	0.139614	0.326129	0.585705	0.333603	0.264184	0.132991	0.239304	0.266677	0.267126	0.257035	0.500603	0.245495	0.612639	0.128873	0.173488	0.171680	0.367374	0.628023	0.695225	0.788226	0.503516	0.151356	0.417342	0.301867	0.160304
52	0.161729	0.309011	0.269897	0.097462	0.192269	0.481903	0.288280	0.157876	0.329714	0.511931	0.463737	0.487605	0.202395	0.357110	0.193307	0.368498	0.431020	0.534258	0.717702	0.551010	0.109251	0.315995	0.194758	0.152751	0.183164	0.420263	0.326124	0.320499	0.266172	0.710658	0.209107	0.137883	0.596412	0.743364	0.521107	0.642268	0.103691	0.202010	0.264916	0.134280	0.330588	0.592365	0.340949	0.280289	0.128960	0.272740	0.254547	0.262631	0.249212	0.429405	0.284050	0.553286	0.137935	0.212078	0.165095	0.387080	0.614036	0.679853	0.806590	0.503334	0.151466	0.408666	0.303817	0.204463
53	0.162820	0.313161	0.263179	0.077383	0.215973	0.513059	0.301116	0.154791	0.337007	0.520078	0.459857	0.497409	0.203921	0.364101	0.181541	0.370055	0.423080	0.538382	0.780850	0.547651	0.109534	0.343981	0.228567	0.176372	0.172865	0.416789	0.260614	0.325836	0.267636	0.719851	0.212396	0.128149	0.600358	0.737831	0.498238	0.651284	0.107196	0.196355	0.271548	0.120282	0.336329	0.594038	0.340798	0.302290	0.126396	0.273153	0.257786	0.261279	0.252734	0.421336	0.313686	0.380932	0.146951	0.243963	0.160115	0.394758	0.593779	0.670843	0.811467	0.537236	0.151861	0.402190	0.305853	0.216981
54	0.152152	0.322432	0.243418	0.064205	0.219982	0.520415	0.303514	0.153983	0.346354	0.500564	0.474915	0.516090	0.203651	0.364081	0.190545	0.364165	0.402882	0.534153	0.775356	0.499464	0.109845	0.345408	0.253880	0.185304	0.160012	0.369976	0.251923	0.321176	0.268255	0.726150	0.220422	0.121383	0.598183	0.731861	0.475420	0.654642	0.104137	0.207357	0.272016	0.116643	0.327022	0.563221	0.345993	0.328639	0.118850	0.263028	0.257834	0.251813	0.257926	0.426793	0.315381	0.310836	0.153225	0.256958	0.160286	0.393718	0.585738	0.690890	0.823058	0.601560	0.151779	0.399307	0.306791	0.216735
55	0.135269	0.309215	0.165551	0.061572	0.219352	0.520979	0.305947	0.156553	0.357184	0.506131	0.505494	0.540447	0.202768	0.362999	0.192326	0.351368	0.384929	0.510235	0.751290	0.439056	0.118943	0.358105	0.242304	0.192422	0.114683	0.270352	0.213120	0.289941	0.266712	0.718331	0.224797	0.118906	0.599867	0.737601	0.469970	0.645782	0.094783	0.220514	0.248515	0.117310	0.314624	0.512235	0.345571	0.343815	0.105585	0.255564	0.257159	0.225763	0.237517	0.408904	0.317846	0.305605	0.159452	0.266159	0.161647	0.393441	0.596177	0.723502	0.839952	0.643525	0.146647	0.370346	0.305794	0.215592
56	0.140528	0.310885	0.076278	0.059649	0.218772	0.519249	0.306171	0.175282	0.366927	0.505300	0.519803	0.513331	0.199745	0.360563	0.169294	0.321959	0.303264	0.419589	0.727647	0.490869	0.128095	0.405775	0.231220	0.191842	0.087514	0.267999	0.189735	0.213186	0.268112	0.704484	0.235877	0.127821	0.596366	0.724570	0.469164	0.619810	0.101532	0.272255	0.230716	0.117782	0.305715	0.490925	0.338981	0.344939	0.098798	0.251754	0.241752	0.219934	0.234770	0.397071	0.318416	0.259686	0.173370	0.282017	0.161973	0.380389	0.599955	0.741208	0.826090	0.659316	0.131202	0.295954	0.315566	0.220232
57	0.143773	0.333027	0.073692	0.145383	0.218826	0.506293	0.302604	0.194698	0.368787	0.500200	0.513682	0.413611	0.184388	0.345928	0.165617	0.255450	0.233355	0.370803	0.648792	0.547186	0.133503	0.428039	0.227188	0.205278	0.069806	0.356286	0.173156	0.136833	0.271850	0.661317	0.244338	0.165164	0.588981	0.644209	0.436546	0.547412	0.094890	0.270245	0.240946	0.107926	0.306758	0.485866	0.377143	0.340963	0.099202	0.257854	0.233831	0.203637	0.372778	0.498015	0.305009	0.225235	0.191740	0.291779	0.162679	0.339183	0.602221	0.745522	0.772146	0.646636	0.125565	0.286756	0.323342	0.228914
58	0.153824	0.297807	0.091998	0.258636	0.220429	0.498405	0.304806	0.210329	0.353325	0.472144	0.497324	0.370115	0.164347	0.332510	0.148007	0.247879	0.234819	0.369179	0.656722	0.505326	0.134228	0.426234	0.223249	0.228021	0.066636	0.360398	0.171294	0.127861	0.270222	0.621941	0.244699	0.229336	0.392339	0.466828	0.299969	0.530923	0.095673	0.274012	0.241523	0.105567	0.305653	0.475657	0.399505	0.331860	0.099657	0.275027	0.202370	0.200785	0.539197	0.558688	0.297220	0.195460	0.208806	0.298566	0.140551	0.322912	0.603321	0.746402	0.721160	0.573814	0.116038	0.285064	0.313861	0.236569
59	0.173449	0.290981	0.097498	0.279173	0.227245	0.523009	0.340916	0.229693	0.303121	0.424996	0.494494	0.359001	0.162850	0.334202	0.147141	0.241526	0.255531	0.374393	0.602157	0.513818	0.134385	0.412638	0.214566	0.224430	0.058704	0.334231	0.171187	0.127399	0.273821	0.616442	0.245710	0.244283	0.399406	0.487162	0.183586	0.541778	0.096254	0.331749	0.242871	0.106148	0.300551	0.458166	0.420964	0.275939	0.092518	0.283192	0.167598	0.193001	0.630491	0.579414	0.271852	0.172865	0.228821	0.290933	0.156616	0.307067	0.606488	0.747202	0.715264	0.499878	0.096548	0.274939	0.313223	0.237149
60	0.182669	0.290690	0.100800	0.288978	0.222665	0.530641	0.336595	0.241684	0.269506	0.381480	0.533665	0.330057	0.192585	0.346694	0.142149	0.214986	0.272004	0.344077	0.555486	0.546932	0.129320	0.379099	0.214919	0.213522	0.052819	0.325363	0.150844	0.122969	0.280092	0.649147	0.246059	0.246282	0.473153	0.534244	0.183775	0.489351	0.102904	0.373399	0.221640	0.106729	0.250606	0.394307	0.440977	0.252819	0.073689	0.264917	0.168090	0.176074	0.674739	0.583565	0.254799	0.172146	0.230466	0.282521	0.171156	0.300266	0.607795	0.747689	0.740190	0.489159	0.103608	0.286601	0.339728	0.235809
61	0.182276	0.306133	0.140052	0.332595	0.199939	0.478600	0.293196	0.224491	0.241786	0.360383	0.543057	0.328113	0.222780	0.342864	0.133394	0.171621	0.251882	0.287392	0.543050	0.563080	0.121151	0.367075	0.216391	0.222475	0.047843	0.348378	0.088272	0.112098	0.279887	0.637414	0.247899	0.256674	0.575886	0.574295	0.192515	0.394803	0.110720	0.378306	0.193974	0.085560	0.189442	0.313102	0.441420	0.253588	0.077428	0.252595	0.167843	0.149613	0.682468	0.589819	0.255721	0.172215	0.225925	0.283229	0.171309	0.280741	0.587115	0.708923	0.760698	0.487041	0.099550	0.236395	0.365574	0.237081
62	0.190860	0.351705	0.151136	0.371140	0.181684	0.433988	0.281856	0.220506	0.260800	0.370037	0.548529	0.333463	0.231052	0.289187	0.133638	0.134835	0.240243	0.237824	0.537321	0.565401	0.115612	0.363920	0.218968	0.239847	0.047995	0.351296	0.076787	0.095316	0.279785	0.600302	0.262627	0.282972	0.600065	0.590273	0.190321	0.332753	0.121785	0.383660	0.189702	0.057015	0.140636	0.235805	0.432286	0.251774	0.089231	0.252869	0.165860	0.112882	0.807003	0.687036	0.257308	0.172752	0.230173	0.284994	0.178269	0.232082	0.435386	0.536793	0.688635	0.487195	0.084430	0.199641	0.358953	0.234457
63	0.211979	0.411944	0.151371	0.382544	0.170148	0.440199	0.262275	0.234090	0.270742	0.326572	0.551236	0.380852	0.226265	0.247759	0.127309	0.090627	0.240329	0.213355	0.517535	0.557495	0.107347	0.351367	0.217469	0.243863	0.058725	0.387085	0.064639	0.079524	0.263944	0.537837	0.270283	0.317407	0.686636	0.640126	0.173996	0.316880	0.133962	0.386579	0.175415	0.054140	0.130341	0.209842	0.394725	0.248108	0.097979	0.243717	0.140696	0.088886	0.963954	0.764809	0.252249	0.184441	0.243305	0.290789	0.178111	0.188730	0.336680	0.430576	0.564200	0.483187	0.079741	0.199909	0.326529	0.234675
64	0.214233	0.532868	0.151310	0.384837	0.168048	0.455158	0.247405	0.248215	0.261674	0.290998	0.575275	0.414186	0.261355	0.235481	0.126261	0.067897	0.239404	0.202098	0.458420	0.521857	0.099144	0.356808	0.201799	0.245399	0.059573	0.385559	0.048794	0.066880	0.192671	0.462520	0.253044	0.329327	0.710321	0.638605	0.164973	0.312494	0.145997	0.444055	0.155177	0.053814	0.139103	0.214419	0.333198	0.247382	0.100465	0.224362	0.113974	0.092705	0.980452	0.764754	0.183533	0.192963	0.243686	0.279305	0.175434	0.143706	0.352500	0.445319	0.514388	0.483242	0.086863	0.202575	0.313007	0.231933
65	0.208070	0.536652	0.151688	0.385834	0.131590	0.418393	0.240924	0.250642	0.261773	0.270781	0.594296	0.408795	0.264345	0.247271	0.114063	0.060337	0.238570	0.188595	0.344618	0.480518	0.098730	0.355296	0.203373	0.239420	0.066591	0.402455	0.044768	0.052248	0.154150	0.412765	0.205040	0.331474	0.719615	0.641864	0.162518	0.294539	0.210100	0.513070	0.132798	0.053200	0.183922	0.223203	0.332889	0.238401	0.119401	0.243625	0.087191	0.109386	0.978228	0.761309	0.158260	0.180067	0.258490	0.259489	0.177571	0.098047	0.417197	0.487249	0.504153	0.493323	0.087462	0.200007	0.312515	0.200221
66	0.190169	0.544025	0.148510	0.386829	0.097025	0.395825	0.226727	0.252568	0.242542	0.245340	0.616185	0.393154	0.289267	0.346306	0.094311	0.063557	0.288407	0.258892	0.308486	0.474341	0.103857	0.372953	0.166977	0.226211	0.066003	0.377281	0.079815	0.045373	0.151035	0.408772	0.184940	0.328243	0.742891	0.646825	0.160219	0.263460	0.224247	0.551396	0.129698	0.062983	0.252688	0.245231	0.338306	0.219747	0.137786	0.265272	0.086715	0.120751	0.977278	0.762645	0.166677	0.164646	0.281238	0.267230	0.178153	0.088218	0.449432	0.508863	0.473511	0.503113	0.088024	0.195629	0.310855	0.187695
67	0.178334	0.516780	0.159797	0.351146	0.091720	0.420420	0.226726	0.255705	0.218332	0.217420	0.636493	0.355277	0.435815	0.566385	0.090713	0.076345	0.410791	0.359381	0.299700	0.463900	0.109749	0.412664	0.109259	0.218573	0.065757	0.463166	0.082613	0.063663	0.148481	0.395257	0.186877	0.326479	0.745409	0.644010	0.163034	0.249574	0.224177	0.542273	0.127826	0.081324	0.324889	0.298406	0.344551	0.182667	0.179909	0.277869	0.086960	0.117583	0.976934	0.796486	0.166166	0.159519	0.288391	0.259718	0.181228	0.086148	0.486345	0.547589	0.479280	0.474121	0.088205	0.194009	0.315465	0.187887
68	0.170480	0.637545	0.149093	0.285765	0.094883	0.488671	0.238640	0.252291	0.196387	0.205956	0.622227	0.333554	0.618750	0.699854	0.088732	0.082177	0.585961	0.461876	0.292997	0.379742	0.098803	0.402687	0.110287	0.210749	0.094868	0.562012	0.138082	0.100070	0.159892	0.463937	0.185172	0.329913	0.746271	0.638922	0.159123	0.248622	0.218494	0.517389	0.109381	0.078662	0.370220	0.316481	0.346327	0.149298	0.247485	0.309250	0.098745	0.108307	0.966545	0.820965	0.162311	0.152342	0.315018	0.252320	0.180205	0.092655	0.539038	0.574898	0.486621	0.394817	0.087857	0.200385	0.313838	0.187364
69	0.153285	0.703031	0.160865	0.291566	0.096592	0.506790	0.242184	0.237130	0.188811	0.211193	0.627632	0.335000	0.651436	0.710012	0.079518	0.083652	0.754497	0.510340	0.262365	0.290967	0.084401	0.356511	0.110730	0.210153	0.150561	0.616521	0.165813	0.180567	0.172970	0.519098	0.186966	0.330480	0.738488	0.627184	0.149137	0.232558	0.215941	0.506396	0.073276	0.077418	0.377387	0.324041	0.338719	0.161347	0.274883	0.445534	0.099546	0.117055	0.922342	0.779989	0.194377	0.158813	0.317783	0.255860	0.180311	0.095445	0.595417	0.557796	0.518201	0.336795	0.090363	0.201205	0.290353	0.205813
70	0.155052	0.742456	0.315079	0.342208	0.097463	0.511083	0.242298	0.215421	0.191038	0.227659	0.658564	0.343547	0.708417	0.733274	0.063867	0.088271	0.799761	0.580948	0.226172	0.288795	0.075408	0.322893	0.133017	0.209912	0.190410	0.637457	0.167556	0.215947	0.170657	0.523602	0.168568	0.324487	0.735478	0.627611	0.146504	0.251592	0.237535	0.511893	0.073150	0.076903	0.452309	0.410250	0.300592	0.212274	0.279403	0.449809	0.100353	0.138067	0.842294	0.728703	0.233964	0.200451	0.343920	0.296906	0.179041	0.095986	0.597712	0.555535	0.556782	0.363497	0.090008	0.204799	0.293307	0.226663
71	0.176983	0.770134	0.361486	0.448607	0.107695	0.553310	0.224815	0.193560	0.193606	0.233251	0.652527	0.363318	0.710377	0.748152	0.088728	0.111796	0.944083	0.662380	0.214049	0.252373	0.078090	0.314403	0.150991	0.278672	0.198052	0.634229	0.167154	0.221010	0.168535	0.521190	0.169087	0.288274	0.700450	0.598490	0.151195	0.306334	0.244906	0.482593	0.086163	0.077507	0.516004	0.451708	0.272683	0.222015	0.279187	0.442254	0.107921	0.143997	0.793051	0.698133	0.261146	0.249502	0.338603	0.307566	0.168830	0.102508	0.693771	0.648772	0.607139	0.411136	0.087667	0.214031	0.296949	0.233111
72	0.183044	0.769549	0.359968	0.502912	0.123075	0.614645	0.183457	0.174202	0.190680	0.241120	0.663065	0.376906	0.777359	0.932475	0.099859	0.118198	0.955318	0.659822	0.247709	0.174638	0.086069	0.310801	0.165200	0.377442	0.199641	0.623252	0.187171	0.234188	0.169460	0.518475	0.209014	0.260633	0.657276	0.565793	0.136837	0.338972	0.241268	0.449237	0.113373	0.082191	0.532477	0.464401	0.230557	0.230458	0.279250	0.441960	0.128891	0.143844	0.773818	0.692600	0.261836	0.282089	0.324657	0.307316	0.145910	0.106345	0.880147	0.766309	0.685282	0.458493	0.085723	0.213893	0.291529	0.234587
73	0.161472	0.727047	0.360168	0.505256	0.119843	0.583369	0.173875	0.176406	0.186912	0.236189	0.625057	0.372224	0.846671	1.091636	0.100587	0.118909	0.954989	0.660106	0.263324	0.129385	0.102723	0.325933	0.205565	0.433295	0.204599	0.637744	0.330579	0.241313	0.158145	0.466078	0.348883	0.299425	0.573209	0.530968	0.147099	0.345753	0.236012	0.443444	0.119204	0.082785	0.552474	0.485650	0.282806	0.247487	0.276661	0.450609	0.175686	0.147303	0.753581	0.657136	0.254242	0.287519	0.326432	0.304671	0.146503	0.100518	0.936455	0.808057	0.685388	0.616420	0.076726	0.205624	0.272496	0.253955
74	0.160520	0.639701	0.444959	0.504722	0.119571	0.580912	0.171484	0.210526	0.161617	0.192985	0.607376	0.380313	0.903695	1.160521	0.142343	0.126568	0.953770	0.660787	0.265278	0.124481	0.131145	0.360853	0.233183	0.459683	0.237751	0.686124	0.343600	0.333672	0.156476	0.443703	0.414920	0.389445	0.568453	0.576550	0.216463	0.346652	0.230232	0.439784	0.121510	0.085241	0.573035	0.502290	0.470588	0.293658	0.273156	0.458077	0.185858	0.166722	0.471028	0.514675	0.245409	0.328515	0.340742	0.301866	0.156757	0.096397	0.970174	0.838826	0.662850	0.766755	0.066451	0.204008	0.229530	0.269106
75	0.169302	0.650291	0.544981	0.532541	0.120229	0.584546	0.161734	0.238084	0.121287	0.206600	0.631673	0.368348	0.935757	1.181935	0.164432	0.129830	0.955922	0.672929	0.266720	0.127031	0.139969	0.391546	0.265842	0.454591	0.252870	0.704403	0.339688	0.441450	0.163843	0.465709	0.416176	0.481968	0.498974	0.552508	0.228380	0.348932	0.223935	0.437976	0.122182	0.120874	0.580373	0.504532	0.525379	0.329051	0.287159	0.465395	0.182527	0.193870	0.360254	0.511901	0.244835	0.401667	0.327568	0.291678	0.140186	0.095393	1.013813	0.885131	0.689648	0.873035	0.066459	0.188952	0.218468	0.285213
76	0.216900	0.688385	0.560355	0.600522	0.118973	0.568028	0.164492	0.248041	0.120791	0.212264	0.613309	0.358401	0.934476	1.181830	0.189609	0.145800	0.959168	0.685006	0.277891	0.127127	0.151146	0.392115	0.278369	0.456604	0.255401	0.652355	0.337940	0.482506	0.165121	0.503011	0.406230	0.513898	0.452727	0.523225	0.238486	0.350171	0.220156	0.387419	0.123943	0.142840	0.580442	0.502802	0.529176	0.331809	0.319466	0.479552	0.190148	0.202986	0.358021	0.531230	0.244749	0.427790	0.325618	0.290971	0.171944	0.096974	1.033393	0.910435	0.737855	0.960305	0.066134	0.198477	0.212811	0.285324
77	0.235071	0.705872	0.559772	0.653190	0.119537	0.560838	0.163608	0.267786	0.103125	0.212715	0.600993	0.363998	0.933775	1.176232	0.275151	0.218034	0.972475	0.698865	0.326860	0.126960	0.155525	0.394896	0.287028	0.462111	0.262418	0.607089	0.333532	0.479974	0.167974	0.525724	0.434334	0.503386	0.431496	0.505729	0.246511	0.350995	0.159691	0.276360	0.169002	0.145421	0.582074	0.505259	0.543410	0.331456	0.381383	0.530173	0.193677	0.198437	0.394254	0.561616	0.247122	0.428699	0.317331	0.287790	0.247514	0.121413	1.045784	0.928266	0.733022	0.989526	0.052786	0.203798	0.191667	0.284446
78	0.237359	0.590881	0.564986	0.672285	0.119434	0.560905	0.163464	0.270080	0.100853	0.215370	0.564996	0.362075	0.921114	1.141992	0.307604	0.363253	0.965689	0.677362	0.381118	0.124118	0.171588	0.414630	0.349603	0.462692	0.248947	0.606021	0.316629	0.464291	0.180462	0.554252	0.572253	0.530636	0.435225	0.535593	0.253732	0.358288	0.134222	0.163505	0.213304	0.175705	0.581765	0.510847	0.590827	0.335386	0.441390	0.562483	0.208996	0.199387	0.425936	0.585605	0.281041	0.438235	0.291059	0.281284	0.250518	0.157673	1.031713	0.915824	0.808494	0.993754	0.048031	0.205285	0.188271	0.289756
79	0.239177	0.539512	0.568105	0.665027	0.119640	0.551316	0.164993	0.297206	0.101056	0.211480	0.515441	0.386398	0.841602	1.035347	0.313713	0.444618	0.911373	0.622065	0.397270	0.121829	0.171772	0.384585	0.427757	0.477589	0.219916	0.573776	0.315801	0.452320	0.181764	0.558505	0.675069	0.593931	0.536134	0.609192	0.253255	0.373930	0.135449	0.155482	0.217146	0.250122	0.567305	0.513161	0.713200	0.342142	0.448668	0.574723	0.211514	0.211168	0.426728	0.494186	0.371109	0.489932	0.286225	0.298183	0.248146	0.180878	1.003745	0.897064	0.901595	1.067513	0.045684	0.203020	0.211905	0.291652
80	0.233400	0.484981	0.484786	0.624774	0.120907	0.521298	0.161118	0.334620	0.123617	0.220417	0.544280	0.441426	0.731982	0.974314	0.320793	0.457222	0.798634	0.555845	0.407787	0.131151	0.166719	0.333126	0.475133	0.512048	0.207522	0.577643	0.314789	0.453127	0.184798	0.562631	0.693204	0.633946	0.620719	0.662504	0.258215	0.407413	0.133132	0.161851	0.233740	0.300694	0.559822	0.498750	0.797211	0.340229	0.492459	0.610546	0.208126	0.250130	0.375237	0.416585	0.404374	0.601528	0.252539	0.342837	0.252607	0.193125	0.996760	0.893814	0.935892	1.198804	0.046562	0.202562	0.221948	0.292573
81	0.215495	0.433938	0.463428	0.521547	0.118460	0.456530	0.153664	0.372998	0.162173	0.233549	0.559736	0.473607	0.702130	0.960082	0.366103	0.458111	0.677751	0.533954	0.416665	0.149714	0.175894	0.345251	0.492881	0.559895	0.204333	0.590808	0.312450	0.447576	0.183011	0.542054	0.690457	0.645005	0.675911	0.675327	0.267078	0.455784	0.132863	0.157525	0.241512	0.316588	0.537217	0.492206	0.827279	0.343867	0.531506	0.553600	0.205964	0.266007	0.347323	0.391848	0.403273	0.674600	0.229132	0.349732	0.258960	0.194985	0.982776	0.869214	0.940283	1.297244	0.046950	0.195427	0.220253	0.302857
82	0.200777	0.406671	0.470810	0.460191	0.117827	0.453712	0.172435	0.404576	0.180934	0.238290	0.533067	0.468631	0.663516	0.950161	0.454109	0.476163	0.589985	0.415259	0.414658	0.282722	0.192702	0.367501	0.492240	0.593249	0.214566	0.589308	0.187382	0.442413	0.174066	0.478808	0.687941	0.643817	0.693096	0.669533	0.267873	0.482172	0.097361	0.124011	0.296883	0.338327	0.562508	0.513522	0.828268	0.338468	0.549254	0.568234	0.221750	0.258420	0.373434	0.414729	0.391268	0.726117	0.197328	0.317851	0.282054	0.197294	0.952948	0.840091	0.923541	1.365723	0.046635	0.194549	0.221565	0.302946
83	0.199800	0.413067	0.473768	0.454469	0.123890	0.456935	0.177996	0.413113	0.195076	0.248528	0.557792	0.456011	0.667651	0.938505	0.472519	0.534052	0.371316	0.321337	0.401877	0.339886	0.201370	0.392943	0.486705	0.600037	0.195277	0.589107	0.107606	0.401224	0.165128	0.453600	0.690221	0.643339	0.721191	0.695238	0.272843	0.446725	0.077413	0.106408	0.358033	0.472205	0.518093	0.454775	0.829823	0.308932	0.555887	0.577175	0.261036	0.268500	0.389428	0.437296	0.395823	0.718377	0.147047	0.289500	0.285401	0.201142	0.913094	0.835235	0.888660	1.392573	0.052501	0.195490	0.204640	0.284634
84	0.204909	0.423941	0.366541	0.452703	0.100756	0.340649	0.171392	0.411444	0.223493	0.261670	0.541999	0.455752	0.564560	0.739885	0.471203	0.591350	0.338865	0.320938	0.407089	0.339937	0.201784	0.409641	0.481065	0.568767	0.167270	0.542215	0.098065	0.275913	0.161512	0.447991	0.690933	0.643565	0.726902	0.713591	0.279145	0.449312	0.099370	0.156987	0.354228	0.608773	0.446059	0.427517	0.838592	0.312744	0.556563	0.577248	0.280851	0.323289	0.393687	0.457292	0.434393	0.760023	0.163632	0.314447	0.283175	0.221763	0.906954	0.829493	0.868512	1.391078	0.061285	0.214420	0.230203	0.271369
85	0.193751	0.388490	0.231430	0.405566	0.061971	0.185148	0.168208	0.409899	0.342566	0.347083	0.550020	0.465034	0.470701	0.543546	0.473676	0.652542	0.338758	0.319728	0.600960	0.370171	0.199203	0.410864	0.476013	0.505844	0.160527	0.554336	0.106073	0.153747	0.160611	0.473684	0.690258	0.644605	0.790771	0.744532	0.279410	0.546059	0.131565	0.222469	0.355453	0.649988	0.424611	0.417679	0.859302	0.350417	0.556028	0.571575	0.256317	0.350032	0.394726	0.467216	0.513102	0.850838	0.170322	0.350234	0.289364	0.223311	0.827652	0.769513	0.833426	1.381884	0.070327	0.262329	0.270848	0.269646
86	0.142767	0.292838	0.204377	0.292598	0.059263	0.178653	0.168800	0.406761	0.448177	0.400361	0.566049	0.449166	0.356980	0.428150	0.464583	0.684021	0.336729	0.312592	0.637604	0.376318	0.190361	0.398068	0.462183	0.458663	0.153497	0.563833	0.147866	0.127994	0.153917	0.458993	0.657664	0.639706	0.788004	0.703907	0.329932	0.631857	0.163523	0.298882	0.355554	0.657982	0.405192	0.393286	0.845653	0.397950	0.557045	0.569457	0.247787	0.347780	0.378373	0.447017	0.689452	0.887874	0.145575	0.364269	0.304742	0.225684	0.637397	0.669695	0.775975	1.363697	0.070190	0.261087	0.288434	0.253163
87	0.124132	0.249582	0.199232	0.164399	0.058997	0.172710	0.179964	0.395728	0.485306	0.392836	0.534727	0.417102	0.275515	0.390823	0.461168	0.687883	0.328043	0.279716	0.640620	0.376475	0.170768	0.365886	0.447316	0.429727	0.173138	0.550376	0.170537	0.126076	0.150602	0.459135	0.598854	0.602028	0.760937	0.656798	0.346678	0.721518	0.180715	0.399663	0.358876	0.654425	0.379302	0.368930	0.760926	0.405576	0.556252	0.585091	0.249858	0.334696	0.393313	0.470091	0.704253	0.899483	0.135099	0.372771	0.303542	0.238738	0.573334	0.634657	0.775146	1.289309	0.072127	0.267087	0.301482	0.237552
88	0.156275	0.244941	0.174467	0.079556	0.057391	0.154401	0.189865	0.382037	0.497097	0.401485	0.533657	0.380366	0.261935	0.390422	0.448577	0.683258	0.316019	0.246594	0.635507	0.405924	0.161733	0.328485	0.430669	0.431014	0.184413	0.578156	0.170177	0.128238	0.144245	0.453759	0.587486	0.529393	0.764209	0.653945	0.476992	0.749869	0.182594	0.445095	0.363050	0.649544	0.381520	0.397323	0.722937	0.381871	0.547584	0.591994	0.243796	0.328255	0.380637	0.476696	0.730567	0.930759	0.137052	0.374571	0.304701	0.290305	0.512016	0.594099	0.770106	1.198872	0.074210	0.307357	0.304856	0.216420
89	0.165349	0.241329	0.165022	0.057129	0.058420	0.148759	0.188182	0.361612	0.698646	0.505630	0.535583	0.368498	0.266517	0.390613	0.393176	0.655568	0.277798	0.260448	0.606524	0.466226	0.153940	0.330647	0.418816	0.432126	0.186952	0.564694	0.201812	0.163704	0.134752	0.442646	0.593051	0.442613	0.765505	0.646516	0.514890	0.753548	0.183385	0.499069	0.350471	0.650756	0.393853	0.450615	0.739969	0.418146	0.517047	0.564632	0.243539	0.327306	0.351422	0.450163	0.805413	0.943397	0.138424	0.375678	0.248702	0.326833	0.430583	0.523000	0.731436	1.131674	0.075224	0.315531	0.304676	0.208710
90	0.174391	0.287795	0.168416	0.076292	0.067562	0.150376	0.194951	0.355546	0.738410	0.518265	0.634976	0.380062	0.269716	0.393467	0.381175	0.580180	0.396583	0.514313	0.614021	0.583151	0.149877	0.327897	0.419152	0.431583	0.192438	0.553763	0.236182	0.173280	0.122518	0.438989	0.594714	0.418232	0.739087	0.607915	0.524293	0.761899	0.183039	0.500468	0.331164	0.649035	0.411861	0.481403	0.746391	0.522339	0.467575	0.525520	0.233077	0.323208	0.334246	0.434190	0.814151	0.937114	0.137006	0.371523	0.228652	0.331891	0.385615	0.479839	0.744301	1.080268	0.082799	0.362055	0.308216	0.207886
91	0.180859	0.303272	0.199313	0.088307	0.070532	0.151005	0.196105	0.360353	0.751953	0.568536	0.666521	0.408643	0.269761	0.393346	0.375255	0.535791	0.557927	0.680303	0.635383	0.664605	0.135064	0.296040	0.388212	0.431009	0.186998	0.538499	0.268613	0.172979	0.099188	0.405464	0.527740	0.408211	0.658715	0.535606	0.531622	0.793573	0.181645	0.502469	0.338694	0.624938	0.408060	0.479450	0.713273	0.606886	0.457604	0.513866	0.233713	0.319406	0.337232	0.442121	0.794880	0.965378	0.138667	0.377193	0.228501	0.321508	0.348974	0.445134	0.784207	1.091023	0.086718	0.367681	0.318841	0.196418
92	0.185972	0.333289	0.227874	0.093778	0.070528	0.159582	0.206896	0.332305	0.769939	0.594835	0.629131	0.395587	0.266980	0.390772	0.365889	0.529274	0.675528	0.763548	0.664889	0.710545	0.129143	0.290142	0.302724	0.414839	0.167230	0.461818	0.383070	0.179205	0.086377	0.427259	0.341143	0.323880	0.572315	0.466865	0.529557	0.810719	0.182122	0.510380	0.333124	0.602403	0.415823	0.481398	0.592270	0.626429	0.373999	0.454171	0.242482	0.294388	0.333972	0.440789	0.784479	0.992006	0.146642	0.403827	0.223761	0.312277	0.352831	0.456409	0.715623	1.102998	0.088182	0.373827	0.326493	0.188889
93	0.189063	0.329497	0.227723	0.097654	0.073029	0.192436	0.228053	0.290832	0.767064	0.591999	0.604205	0.377164	0.262209	0.387810	0.304357	0.530760	0.683561	0.769417	0.744455	0.727206	0.129125	0.293492	0.219732	0.371776	0.170921	0.455618	0.446662	0.189494	0.086851	0.438289	0.220427	0.208149	0.498120	0.446900	0.528718	0.792518	0.181819	0.512341	0.326698	0.593434	0.401555	0.486790	0.461198	0.652541	0.288165	0.413664	0.250891	0.276009	0.308373	0.417711	0.786686	0.953200	0.150746	0.404664	0.221192	0.306392	0.351103	0.472924	0.610926	1.016508	0.088330	0.381516	0.334485	0.193430
94	0.187027	0.327696	0.236209	0.112487	0.073259	0.196849	0.217772	0.262579	0.768340	0.597770	0.597736	0.417892	0.257432	0.380181	0.152125	0.505788	0.677604	0.769049	0.794560	0.678257	0.118488	0.283525	0.170531	0.298401	0.172593	0.426195	0.483450	0.193582	0.097685	0.444938	0.211231	0.114588	0.468626	0.446849	0.573867	0.765808	0.178675	0.514553	0.288637	0.586077	0.419860	0.496671	0.394289	0.693931	0.244614	0.379859	0.240045	0.271889	0.315114	0.396574	0.846697	0.938495	0.149390	0.419172	0.195092	0.308395	0.339699	0.482876	0.565451	0.851274	0.089544	0.382077	0.340652	0.177277
95	0.184437	0.356273	0.242279	0.154042	0.074329	0.204672	0.229371	0.228880	0.766658	0.590596	0.569543	0.428265	0.226494	0.334429	0.114977	0.437722	0.675290	0.768820	0.796399	0.679140	0.087637	0.250324	0.167611	0.218598	0.170009	0.389664	0.476421	0.196322	0.090760	0.499968	0.211685	0.090464	0.421175	0.367412	0.603363	0.761581	0.173255	0.513607	0.194729	0.495858	0.389913	0.473055	0.395840	0.713379	0.237208	0.379919	0.194575	0.260760	0.328087	0.378731	0.941765	0.967238	0.142430	0.427134	0.178424	0.311557	0.334367	0.475367	0.563745	0.688680	0.087317	0.381838	0.342484	0.136914
96	0.186519	0.406627	0.273766	0.158254	0.064925	0.199203	0.237976	0.221630	0.763689	0.587448	0.542547	0.418375	0.185673	0.283488	0.111758	0.355423	0.708846	0.768952	0.747320	0.716924	0.062845	0.224959	0.167660	0.186469	0.132461	0.315001	0.474956	0.195705	0.092293	0.552542	0.210388	0.094120	0.396397	0.310278	0.603446	0.744003	0.163255	0.501161	0.181860	0.306007	0.400854	0.505716	0.390060	0.714869	0.244732	0.388940	0.149576	0.192700	0.359702	0.394009	0.924848	0.969582	0.122735	0.419281	0.177230	0.298985	0.335551	0.481706	0.566010	0.556718	0.082608	0.378674	0.336842	0.114718
97	0.178902	0.397677	0.288205	0.185344	0.064547	0.198764	0.239269	0.224437	0.721498	0.544518	0.504043	0.407026	0.146547	0.236221	0.094472	0.231739	0.732307	0.799839	0.654364	0.860694	0.056054	0.203337	0.168997	0.179069	0.091532	0.133961	0.487350	0.179664	0.090361	0.552014	0.200631	0.094599	0.243940	0.203868	0.602520	0.681368	0.143131	0.496480	0.172192	0.187655	0.454577	0.561605	0.373089	0.753985	0.246044	0.388497	0.143447	0.129018	0.368267	0.393470	0.850997	0.929762	0.104688	0.391753	0.173979	0.292396	0.435869	0.528404	0.578644	0.495203	0.076516	0.360926	0.314815	0.113996
98	0.144014	0.390266	0.324682	0.206630	0.064668	0.197832	0.232556	0.218551	0.674681	0.515124	0.461417	0.436573	0.121340	0.213814	0.071966	0.149107	0.816375	0.839323	0.750121	0.974925	0.055869	0.233625	0.170055	0.178238	0.084260	0.187129	0.489862	0.131029	0.090174	0.542444	0.204970	0.088011	0.195339	0.200068	0.605202	0.677883	0.108100	0.477494	0.170855	0.153302	0.549817	0.641310	0.344668	0.833729	0.242869	0.381276	0.130669	0.110907	0.382103	0.376159	0.787443	0.895065	0.098306	0.367536	0.136580	0.288288	0.504939	0.527052	0.583951	0.472501	0.069503	0.327674	0.277888	0.114909
99	0.127205	0.372333	0.396772	0.229043	0.065570	0.197094	0.239307	0.208441	0.662345	0.519113	0.460595	0.471407	0.115348	0.208981	0.055525	0.140487	0.876841	0.872610	0.777623	1.017861	0.057805	0.259820	0.165124	0.171574	0.072253	0.185469	0.472207	0.105692	0.091829	0.596077	0.202875	0.076729	0.197684	0.200529	0.689359	0.668887	0.075638	0.421286	0.163675	0.147461	0.664396	0.708273	0.324846	0.887546	0.230432	0.353767	0.123622	0.108885	0.366397	0.312851	0.784891	0.870670	0.101908	0.384540	0.113097	0.286876	0.527198	0.493018	0.584625	0.472677	0.070531	0.320214	0.248453	0.105808
100	0.112993	0.326023	0.401912	0.224303	0.067714	0.198069	0.255667	0.195012	0.657380	0.513716	0.457649	0.476444	0.132857	0.227327	0.054555	0.141618	0.888815	0.895287	0.776243	1.006527	0.067008	0.325374	0.161455	0.149858	0.062853	0.196741	0.466187	0.104144	0.092378	0.648939	0.193581	0.069043	0.169460	0.207818	0.658946	0.695918	0.061036	0.360725	0.153952	0.148178	0.676097	0.711869	0.337208	0.913233	0.210409	0.309662	0.124341	0.106400	0.352331	0.277518	0.761128	0.844209	0.104416	0.392775	0.105636	0.250999	0.537589	0.527607	0.608435	0.472532	0.069732	0.304730	0.229082	0.093351
101	0.113662	0.311287	0.375964	0.226941	0.068551	0.199264	0.274936	0.191490	0.461367	0.417103	0.462296	0.485200	0.158254	0.340364	0.052389	0.142762	0.879825	0.881151	0.789148	0.989913	0.068004	0.356685	0.156252	0.124637	0.070789	0.233610	0.384674	0.096432	0.092654	0.656873	0.181769	0.067870	0.165469	0.236494	0.626629	0.734975	0.056246	0.285775	0.148093	0.141479	0.670300	0.698750	0.326813	0.927593	0.180800	0.262224	0.121360	0.106995	0.350254	0.259810	0.729893	0.839321	0.101626	0.393293	0.054663	0.183113	0.723530	0.633994	0.620661	0.486708	0.068727	0.263898	0.220217	0.081602
