	330_At_T1_sh_R_ND_01.c3d	330_At_T1_sh_R_ND_01.c3d	330_At_T1_sh_R_ND_01.c3d	330_At_T1_sh_R_ND_01.c3d	330_At_T1_sh_R_ND_01.c3d	330_At_T1_sh_R_ND_01.c3d	330_At_T1_sh_R_ND_01.c3d	330_At_T1_sh_R_ND_01.c3d	330_At_T1_sh_R_ND_02.c3d	330_At_T1_sh_R_ND_02.c3d	330_At_T1_sh_R_ND_02.c3d	330_At_T1_sh_R_ND_02.c3d	330_At_T1_sh_R_ND_02.c3d	330_At_T1_sh_R_ND_02.c3d	330_At_T1_sh_R_ND_02.c3d	330_At_T1_sh_R_ND_02.c3d	330_At_T1_sh_R_ND_03.c3d	330_At_T1_sh_R_ND_03.c3d	330_At_T1_sh_R_ND_03.c3d	330_At_T1_sh_R_ND_03.c3d	330_At_T1_sh_R_ND_03.c3d	330_At_T1_sh_R_ND_03.c3d	330_At_T1_sh_R_ND_03.c3d	330_At_T1_sh_R_ND_03.c3d	330_At_T1_sh_R_ND_04.c3d	330_At_T1_sh_R_ND_04.c3d	330_At_T1_sh_R_ND_04.c3d	330_At_T1_sh_R_ND_04.c3d	330_At_T1_sh_R_ND_04.c3d	330_At_T1_sh_R_ND_04.c3d	330_At_T1_sh_R_ND_04.c3d	330_At_T1_sh_R_ND_04.c3d	330_At_T1_sh_R_ND_05.c3d	330_At_T1_sh_R_ND_05.c3d	330_At_T1_sh_R_ND_05.c3d	330_At_T1_sh_R_ND_05.c3d	330_At_T1_sh_R_ND_05.c3d	330_At_T1_sh_R_ND_05.c3d	330_At_T1_sh_R_ND_05.c3d	330_At_T1_sh_R_ND_05.c3d	330_At_T1_sh_R_ND_08.c3d	330_At_T1_sh_R_ND_08.c3d	330_At_T1_sh_R_ND_08.c3d	330_At_T1_sh_R_ND_08.c3d	330_At_T1_sh_R_ND_08.c3d	330_At_T1_sh_R_ND_08.c3d	330_At_T1_sh_R_ND_08.c3d	330_At_T1_sh_R_ND_08.c3d	330_At_T1_sh_R_ND_09.c3d	330_At_T1_sh_R_ND_09.c3d	330_At_T1_sh_R_ND_09.c3d	330_At_T1_sh_R_ND_09.c3d	330_At_T1_sh_R_ND_09.c3d	330_At_T1_sh_R_ND_09.c3d	330_At_T1_sh_R_ND_09.c3d	330_At_T1_sh_R_ND_09.c3d	330_At_T1_sh_R_ND_10.c3d	330_At_T1_sh_R_ND_10.c3d	330_At_T1_sh_R_ND_10.c3d	330_At_T1_sh_R_ND_10.c3d	330_At_T1_sh_R_ND_10.c3d	330_At_T1_sh_R_ND_10.c3d	330_At_T1_sh_R_ND_10.c3d	330_At_T1_sh_R_ND_10.c3d
	Biceps femoris_lat	Semitendinosus_lat	Vastus lateralis_lat	Vastus medialis_lat	Biceps femoris_med	Semitendinosus_med	Vastus lateralis_med	Vastus medialis_med	Biceps femoris_lat	Semitendinosus_lat	Vastus lateralis_lat	Vastus medialis_lat	Biceps femoris_med	Semitendinosus_med	Vastus lateralis_med	Vastus medialis_med	Biceps femoris_lat	Semitendinosus_lat	Vastus lateralis_lat	Vastus medialis_lat	Biceps femoris_med	Semitendinosus_med	Vastus lateralis_med	Vastus medialis_med	Biceps femoris_lat	Semitendinosus_lat	Vastus lateralis_lat	Vastus medialis_lat	Biceps femoris_med	Semitendinosus_med	Vastus lateralis_med	Vastus medialis_med	Biceps femoris_lat	Semitendinosus_lat	Vastus lateralis_lat	Vastus medialis_lat	Biceps femoris_med	Semitendinosus_med	Vastus lateralis_med	Vastus medialis_med	Biceps femoris_lat	Semitendinosus_lat	Vastus lateralis_lat	Vastus medialis_lat	Biceps femoris_med	Semitendinosus_med	Vastus lateralis_med	Vastus medialis_med	Biceps femoris_lat	Semitendinosus_lat	Vastus lateralis_lat	Vastus medialis_lat	Biceps femoris_med	Semitendinosus_med	Vastus lateralis_med	Vastus medialis_med	Biceps femoris_lat	Semitendinosus_lat	Vastus lateralis_lat	Vastus medialis_lat	Biceps femoris_med	Semitendinosus_med	Vastus lateralis_med	Vastus medialis_med
	P2D	P2D	P2D	P2D	P2D	P2D	P2D	P2D	P2D	P2D	P2D	P2D	P2D	P2D	P2D	P2D	P2D	P2D	P2D	P2D	P2D	P2D	P2D	P2D	P2D	P2D	P2D	P2D	P2D	P2D	P2D	P2D	P2D	P2D	P2D	P2D	P2D	P2D	P2D	P2D	P2D	P2D	P2D	P2D	P2D	P2D	P2D	P2D	P2D	P2D	P2D	P2D	P2D	P2D	P2D	P2D	P2D	P2D	P2D	P2D	P2D	P2D	P2D	P2D
	EMG_lat	EMG_lat	EMG_lat	EMG_lat	EMG_med	EMG_med	EMG_med	EMG_med	EMG_lat	EMG_lat	EMG_lat	EMG_lat	EMG_med	EMG_med	EMG_med	EMG_med	EMG_lat	EMG_lat	EMG_lat	EMG_lat	EMG_med	EMG_med	EMG_med	EMG_med	EMG_lat	EMG_lat	EMG_lat	EMG_lat	EMG_med	EMG_med	EMG_med	EMG_med	EMG_lat	EMG_lat	EMG_lat	EMG_lat	EMG_med	EMG_med	EMG_med	EMG_med	EMG_lat	EMG_lat	EMG_lat	EMG_lat	EMG_med	EMG_med	EMG_med	EMG_med	EMG_lat	EMG_lat	EMG_lat	EMG_lat	EMG_med	EMG_med	EMG_med	EMG_med	EMG_lat	EMG_lat	EMG_lat	EMG_lat	EMG_med	EMG_med	EMG_med	EMG_med
ITEM	Y	Y	Y	Y	Y	Y	Y	Y	Y	Y	Y	Y	Y	Y	Y	Y	Y	Y	Y	Y	Y	Y	Y	Y	Y	Y	Y	Y	Y	Y	Y	Y	Y	Y	Y	Y	Y	Y	Y	Y	Y	Y	Y	Y	Y	Y	Y	Y	Y	Y	Y	Y	Y	Y	Y	Y	Y	Y	Y	Y	Y	Y	Y	Y
1	0.715123	0.614673	0.074935	0.074331	0.149604	0.118391	0.126361	0.406316	0.643125	0.711072	0.091527	0.169749	0.469068	0.247740	0.170915	0.168179	0.599370	0.552954	0.115896	0.208942	0.558448	0.424353	0.092886	0.095303	0.386637	0.422066	0.150048	0.127517	0.135113	0.229338	0.170718	0.221158	0.844147	0.859201	0.067504	0.165467	0.591340	0.332404	0.093648	0.138941	0.394105	0.416851	0.074424	0.072887	0.236325	0.311032	0.147173	0.162034	0.613925	0.687375	0.167144	0.254271	0.236249	0.412610	0.104983	0.218305	0.544125	0.569155	0.073066	0.209713	0.370989	0.246648	0.114090	0.128183
2	0.716331	0.635295	0.073999	0.060267	0.137550	0.119632	0.135676	0.422086	0.647994	0.712915	0.100631	0.170660	0.471381	0.241332	0.170864	0.155130	0.674378	0.586231	0.106235	0.208510	0.672126	0.438127	0.093104	0.095939	0.441587	0.458246	0.152496	0.128085	0.137449	0.220975	0.169809	0.217451	1.137530	1.038446	0.069903	0.172109	0.581956	0.353934	0.092915	0.160132	0.365009	0.412253	0.075580	0.072577	0.196764	0.214602	0.151257	0.162312	0.562364	0.597173	0.168246	0.249858	0.222403	0.413223	0.113913	0.211490	0.405738	0.536133	0.071021	0.204026	0.392365	0.322607	0.119879	0.109882
3	0.731602	0.666691	0.073918	0.058232	0.128078	0.119389	0.147856	0.364409	0.673993	0.712371	0.101356	0.168898	0.471775	0.261117	0.170948	0.145568	0.770300	0.636534	0.101909	0.192077	0.788585	0.458761	0.101059	0.108328	0.443424	0.460408	0.153377	0.127104	0.131033	0.140451	0.168894	0.217310	1.263639	1.055359	0.073120	0.179319	0.454852	0.365331	0.097211	0.169236	0.340207	0.395092	0.074474	0.072312	0.193392	0.193929	0.159290	0.164149	0.490675	0.424668	0.174500	0.249007	0.186223	0.393956	0.124116	0.193663	0.401847	0.560864	0.079257	0.179466	0.411759	0.370599	0.121185	0.109015
4	0.748864	0.684895	0.073157	0.063899	0.132253	0.120956	0.149663	0.326936	0.714897	0.715867	0.101217	0.152288	0.475355	0.262262	0.175944	0.146890	0.791658	0.646267	0.103344	0.177007	0.808763	0.460399	0.109941	0.129229	0.537117	0.478581	0.152556	0.117120	0.151907	0.103954	0.170830	0.233185	1.255864	0.997260	0.073815	0.191902	0.454963	0.453838	0.100039	0.166362	0.426244	0.396116	0.075622	0.075362	0.115485	0.193815	0.158038	0.162507	0.482779	0.370245	0.193585	0.251040	0.155927	0.327452	0.170552	0.199614	0.411455	0.558062	0.076655	0.152016	0.439323	0.370887	0.123839	0.135246
5	0.777526	0.701068	0.068865	0.103305	0.149773	0.138755	0.161184	0.336016	0.767305	0.803967	0.101251	0.140328	0.449948	0.262912	0.174159	0.158975	0.769045	0.610883	0.107282	0.160965	0.801047	0.365144	0.160112	0.125909	0.644009	0.488244	0.156200	0.112335	0.163752	0.104491	0.171690	0.246990	1.280855	0.949515	0.081074	0.193428	0.421174	0.456262	0.106239	0.166614	0.472672	0.397876	0.090791	0.077261	0.104541	0.118913	0.149198	0.149564	0.458772	0.332506	0.193241	0.252625	0.134591	0.284806	0.204293	0.202679	0.489609	0.587555	0.073381	0.142134	0.479050	0.372355	0.124544	0.180101
6	0.742694	0.708768	0.066889	0.168943	0.153471	0.146658	0.175892	0.341455	0.812037	0.930694	0.101107	0.138349	0.358501	0.265149	0.173342	0.154585	0.793336	0.573958	0.104830	0.134524	0.798712	0.323144	0.168049	0.124033	0.652025	0.489213	0.166386	0.112471	0.152545	0.101784	0.172531	0.244392	1.319478	0.952744	0.084543	0.195615	0.372609	0.457036	0.105664	0.164627	0.452515	0.340040	0.089399	0.087395	0.096745	0.108666	0.133586	0.167342	0.417843	0.278140	0.186096	0.250789	0.083299	0.110162	0.210406	0.199313	0.553433	0.603725	0.120579	0.142352	0.474960	0.356847	0.126510	0.186060
7	0.735640	0.704202	0.065354	0.236868	0.151820	0.145865	0.179442	0.326939	0.808244	0.965177	0.098586	0.153872	0.243190	0.239095	0.157229	0.133868	0.818668	0.524877	0.092669	0.105903	0.784021	0.268674	0.174014	0.147584	0.649436	0.492868	0.167428	0.111934	0.147751	0.101375	0.175099	0.244317	1.343557	0.944406	0.082209	0.197840	0.358321	0.412426	0.108817	0.155234	0.515149	0.449495	0.093566	0.122798	0.096371	0.103004	0.119461	0.195702	0.406879	0.249063	0.189513	0.238130	0.088680	0.103833	0.230514	0.199884	0.540866	0.534801	0.136811	0.145107	0.475527	0.344888	0.127408	0.185827
8	0.736507	0.701779	0.065366	0.251875	0.156112	0.148059	0.176828	0.286689	0.752243	0.947603	0.092690	0.194711	0.192112	0.222288	0.140842	0.123319	0.793724	0.535417	0.090060	0.097637	0.674965	0.253552	0.177403	0.182970	0.646660	0.482896	0.167651	0.108776	0.151306	0.107006	0.156029	0.254634	1.375149	0.937707	0.089012	0.197648	0.357603	0.386994	0.110476	0.166262	0.597334	0.596514	0.106671	0.134677	0.106295	0.106686	0.123627	0.214333	0.383166	0.198455	0.201699	0.215229	0.086593	0.102572	0.250068	0.201347	0.531517	0.495156	0.138076	0.150299	0.463602	0.338817	0.124566	0.185878
9	0.693711	0.667933	0.056759	0.252318	0.159738	0.167565	0.209491	0.272782	0.653657	0.883315	0.091767	0.253530	0.198525	0.220947	0.153500	0.155192	0.821943	0.585409	0.119985	0.123510	0.633833	0.261425	0.190602	0.180297	0.644716	0.482007	0.174210	0.142990	0.168382	0.127120	0.127124	0.264760	1.396958	0.948749	0.119341	0.194296	0.279833	0.347809	0.119612	0.153692	0.626393	0.619069	0.106738	0.137857	0.126956	0.105619	0.129757	0.215910	0.383867	0.194484	0.219600	0.204995	0.086543	0.100852	0.252492	0.199393	0.535993	0.495367	0.143047	0.135564	0.454061	0.328148	0.122724	0.187231
10	0.645858	0.614507	0.084535	0.255071	0.144802	0.167587	0.231090	0.315337	0.617713	0.829866	0.093270	0.292972	0.195307	0.206195	0.159489	0.201314	0.889634	0.638046	0.129430	0.265992	0.564149	0.245767	0.190123	0.185164	0.646482	0.514729	0.176296	0.207900	0.185438	0.173781	0.126878	0.240982	1.395412	0.948121	0.125464	0.191366	0.270523	0.332193	0.152227	0.130108	0.621561	0.622104	0.109156	0.137743	0.149270	0.113031	0.144294	0.284731	0.363815	0.198001	0.222121	0.193706	0.087037	0.099582	0.251644	0.187608	0.544688	0.497344	0.151139	0.120626	0.444023	0.325747	0.137587	0.185626
11	0.588303	0.525299	0.154902	0.283864	0.137174	0.174762	0.228116	0.330909	0.684372	0.764085	0.094341	0.297670	0.194962	0.206590	0.160075	0.214861	0.902647	0.637616	0.166959	0.367898	0.381605	0.205328	0.192053	0.189362	0.681689	0.540180	0.177292	0.229043	0.189574	0.179298	0.116852	0.223181	1.393491	0.941934	0.140853	0.183733	0.262661	0.295444	0.153480	0.127092	0.712864	0.661976	0.111610	0.151707	0.149365	0.099321	0.150995	0.366535	0.369640	0.216304	0.221904	0.193503	0.086554	0.089447	0.250749	0.162128	0.548913	0.500940	0.165171	0.116330	0.426668	0.318892	0.143370	0.180511
12	0.571721	0.517347	0.175752	0.346233	0.137739	0.186060	0.251839	0.330421	0.792218	0.777291	0.082103	0.298092	0.194703	0.193417	0.166250	0.218414	0.914684	0.631918	0.171634	0.392218	0.223720	0.152788	0.189593	0.178789	0.719215	0.614031	0.194169	0.237491	0.266122	0.268231	0.134094	0.244671	1.308976	0.859493	0.146979	0.180713	0.231549	0.152367	0.172656	0.151881	0.800614	0.730900	0.118866	0.189743	0.147230	0.100279	0.155756	0.375926	0.365206	0.214619	0.223938	0.214457	0.085456	0.080995	0.240961	0.164985	0.527442	0.464305	0.181845	0.141027	0.422747	0.313346	0.143534	0.172833
13	0.569468	0.507189	0.177704	0.366262	0.137632	0.182454	0.260320	0.320581	0.844298	0.779963	0.080789	0.313280	0.188681	0.201855	0.205695	0.273007	0.924451	0.632704	0.181402	0.391611	0.198166	0.130995	0.177257	0.174058	0.705965	0.612359	0.201756	0.241663	0.307172	0.314598	0.142614	0.275847	1.095273	0.612629	0.157551	0.186881	0.179007	0.146652	0.170540	0.155499	0.806006	0.733141	0.129381	0.197338	0.144993	0.099796	0.168364	0.420460	0.333398	0.254235	0.223804	0.218157	0.081446	0.069136	0.234387	0.188285	0.497018	0.420354	0.185960	0.167303	0.426029	0.315613	0.145276	0.167902
14	0.557583	0.478144	0.184990	0.369514	0.136152	0.182828	0.260650	0.285108	0.868721	0.777296	0.151944	0.337472	0.195897	0.161289	0.259243	0.369021	0.918003	0.632488	0.188055	0.406063	0.198756	0.127233	0.147311	0.174406	0.669571	0.592367	0.211810	0.254709	0.306990	0.319469	0.137281	0.286537	0.838796	0.389252	0.184870	0.212907	0.141348	0.104230	0.170221	0.164246	0.812224	0.731352	0.172868	0.212305	0.141389	0.104360	0.177554	0.414790	0.317344	0.257505	0.225009	0.209843	0.080489	0.051924	0.235668	0.185331	0.472279	0.389085	0.187640	0.168701	0.430389	0.317142	0.154976	0.169485
15	0.521353	0.425608	0.185721	0.370567	0.137116	0.202106	0.256848	0.289304	0.841703	0.776279	0.203587	0.360417	0.188679	0.158426	0.262762	0.421111	0.844251	0.588885	0.252360	0.461663	0.190015	0.129427	0.167425	0.199549	0.665626	0.592864	0.264919	0.341216	0.298529	0.319169	0.147372	0.275225	0.780220	0.353306	0.189346	0.231573	0.128550	0.109801	0.172992	0.163611	0.767666	0.732244	0.189946	0.230649	0.145088	0.119040	0.183861	0.402116	0.337927	0.270826	0.239902	0.204750	0.072804	0.048207	0.217053	0.189209	0.454694	0.345163	0.200484	0.179284	0.372862	0.251582	0.152212	0.188703
16	0.497073	0.395882	0.187632	0.372802	0.143070	0.202239	0.257351	0.301242	0.834525	0.768663	0.207886	0.363884	0.179350	0.167917	0.254901	0.421486	0.776624	0.544960	0.343473	0.580746	0.149006	0.103345	0.228400	0.224325	0.628766	0.570334	0.273361	0.435091	0.315312	0.319706	0.241589	0.298718	0.765373	0.364154	0.214752	0.227157	0.109260	0.138840	0.179022	0.146870	0.741153	0.730457	0.187481	0.235623	0.141019	0.130181	0.169563	0.389091	0.362178	0.300935	0.232175	0.204568	0.069211	0.047449	0.188885	0.227007	0.461333	0.346390	0.214366	0.200853	0.322418	0.158821	0.156490	0.209126
17	0.448905	0.369406	0.211079	0.375259	0.127162	0.187924	0.258616	0.295988	0.847607	0.631819	0.217803	0.363979	0.190047	0.156416	0.252596	0.428666	0.765178	0.537247	0.350189	0.648550	0.171568	0.095281	0.228034	0.243039	0.528926	0.527042	0.288617	0.446234	0.351877	0.325906	0.281534	0.334102	0.707038	0.382214	0.246457	0.230624	0.097464	0.137555	0.164252	0.145459	0.737895	0.725646	0.192097	0.235609	0.133916	0.132648	0.165049	0.384244	0.353957	0.300481	0.218783	0.205492	0.075083	0.048501	0.176906	0.265149	0.401012	0.308440	0.213407	0.216367	0.288343	0.149681	0.149705	0.199669
18	0.453899	0.359572	0.244719	0.363890	0.115581	0.178109	0.249547	0.281275	0.832172	0.474891	0.232219	0.362336	0.202375	0.151618	0.252489	0.452874	0.746920	0.520307	0.376015	0.650439	0.204457	0.121574	0.235651	0.237450	0.525269	0.520200	0.291180	0.458269	0.361945	0.326384	0.292364	0.331531	0.629459	0.361178	0.255724	0.231916	0.087295	0.139419	0.141968	0.142065	0.685458	0.652020	0.243424	0.222195	0.132915	0.139033	0.150364	0.336069	0.333570	0.295557	0.219023	0.241794	0.087826	0.047396	0.166336	0.269924	0.294632	0.281428	0.193586	0.217926	0.199751	0.130528	0.155893	0.160861
19	0.443619	0.395790	0.256416	0.342910	0.113524	0.177592	0.257540	0.271516	0.826787	0.384769	0.247799	0.352622	0.205300	0.155770	0.251648	0.455289	0.653906	0.477934	0.390626	0.663685	0.214569	0.157186	0.237030	0.231434	0.524538	0.515558	0.293081	0.475527	0.358036	0.323340	0.294955	0.321514	0.576811	0.375684	0.258161	0.234711	0.081766	0.151263	0.131584	0.138557	0.595216	0.503413	0.281611	0.254545	0.120310	0.135275	0.135849	0.244330	0.301086	0.294157	0.220004	0.311216	0.098854	0.048020	0.162649	0.268271	0.245491	0.341965	0.182279	0.218316	0.196583	0.131028	0.184053	0.152182
20	0.432206	0.400700	0.257739	0.364224	0.141219	0.178245	0.265410	0.273244	0.826657	0.357541	0.255471	0.322642	0.233608	0.147375	0.240700	0.455698	0.622073	0.475775	0.390826	0.688840	0.221621	0.160645	0.232667	0.229391	0.530341	0.515873	0.295017	0.502391	0.346620	0.300472	0.335845	0.317088	0.621899	0.453773	0.249083	0.235833	0.077559	0.170771	0.111313	0.138308	0.572662	0.474305	0.284786	0.288980	0.133499	0.193316	0.120442	0.228918	0.295494	0.299698	0.230569	0.351878	0.110868	0.070331	0.172199	0.270157	0.239782	0.369989	0.188073	0.221373	0.198082	0.131654	0.197435	0.156031
21	0.455042	0.441203	0.278151	0.393756	0.175885	0.196013	0.240450	0.268252	0.824386	0.348828	0.256064	0.268525	0.342981	0.135589	0.225382	0.448667	0.593796	0.429276	0.388430	0.704466	0.269365	0.301977	0.234145	0.227265	0.543673	0.495492	0.291768	0.508265	0.344447	0.294688	0.377517	0.337471	0.640909	0.481065	0.243074	0.229718	0.078670	0.172015	0.136064	0.190511	0.575916	0.460785	0.300268	0.294392	0.135260	0.206354	0.129766	0.148358	0.296211	0.303319	0.222132	0.356280	0.122943	0.110512	0.172017	0.270510	0.264333	0.429017	0.188174	0.220087	0.200562	0.131087	0.197168	0.158615
22	0.359223	0.378128	0.271083	0.391501	0.186095	0.199807	0.226716	0.243892	0.805407	0.363444	0.256111	0.226518	0.347837	0.133843	0.220564	0.449647	0.484773	0.320982	0.392075	0.701467	0.281130	0.372484	0.228896	0.232399	0.586702	0.458425	0.290460	0.484231	0.297122	0.230297	0.375229	0.338834	0.644098	0.499760	0.239342	0.217292	0.084594	0.192986	0.158858	0.179596	0.441177	0.359841	0.301848	0.288554	0.135962	0.204137	0.132501	0.165640	0.275680	0.298609	0.209666	0.358937	0.124981	0.116510	0.172254	0.269933	0.314844	0.542890	0.182275	0.219719	0.174506	0.118984	0.196200	0.157501
23	0.263825	0.355039	0.238655	0.361924	0.187885	0.216807	0.233278	0.308251	0.725851	0.321023	0.255377	0.219383	0.342399	0.139854	0.220201	0.451822	0.353781	0.225864	0.398420	0.657870	0.419243	0.517395	0.254287	0.292175	0.595147	0.433992	0.295378	0.469942	0.242960	0.125799	0.370627	0.316875	0.661084	0.510393	0.234512	0.226216	0.107521	0.208753	0.167125	0.262731	0.226467	0.172705	0.298980	0.264652	0.135981	0.208536	0.156638	0.184322	0.255580	0.287047	0.210276	0.369660	0.137435	0.124018	0.178368	0.255528	0.313480	0.546644	0.169212	0.220124	0.166038	0.116519	0.186626	0.158799
24	0.260289	0.353330	0.229095	0.314441	0.189730	0.212170	0.207376	0.397120	0.598799	0.278759	0.257460	0.209867	0.339816	0.145364	0.212085	0.431729	0.336346	0.211318	0.401574	0.615511	0.449558	0.569508	0.282086	0.318988	0.561882	0.324944	0.305035	0.469108	0.232780	0.102669	0.370535	0.301760	0.645758	0.510279	0.232238	0.245999	0.115349	0.195994	0.312379	0.394986	0.260777	0.186636	0.292935	0.260434	0.134367	0.202435	0.247681	0.187640	0.213272	0.279545	0.214783	0.391750	0.142478	0.135178	0.180457	0.232769	0.313417	0.548455	0.150659	0.202878	0.168044	0.126663	0.180769	0.160619
25	0.261212	0.345050	0.228735	0.316278	0.188531	0.246070	0.192205	0.423879	0.513717	0.273392	0.250267	0.182067	0.348681	0.146500	0.152793	0.360583	0.293114	0.211092	0.401490	0.616519	0.446650	0.574389	0.319643	0.310743	0.552991	0.263983	0.306453	0.479352	0.244595	0.153429	0.369662	0.292375	0.613725	0.500623	0.220077	0.237820	0.135598	0.199602	0.564722	0.499066	0.303794	0.214103	0.269629	0.247774	0.122051	0.214859	0.283983	0.193284	0.232686	0.247388	0.209154	0.405341	0.143067	0.142689	0.181769	0.230468	0.312299	0.546333	0.154450	0.182431	0.168832	0.142783	0.181354	0.158679
26	0.259330	0.341961	0.238922	0.366399	0.192768	0.273085	0.183910	0.425535	0.467139	0.268486	0.208081	0.126015	0.353826	0.154973	0.133782	0.282336	0.217281	0.201994	0.395270	0.630349	0.432303	0.572196	0.323472	0.324023	0.552134	0.224810	0.301355	0.489590	0.239944	0.223582	0.328934	0.277843	0.632669	0.507946	0.209532	0.208755	0.177360	0.207607	0.606547	0.512588	0.318863	0.207904	0.257987	0.229861	0.098830	0.212704	0.290144	0.193163	0.281655	0.237332	0.206920	0.399583	0.145936	0.147634	0.171430	0.220204	0.316880	0.545636	0.181876	0.190129	0.172069	0.204759	0.184290	0.158639
27	0.255997	0.342003	0.246677	0.398049	0.242573	0.266342	0.201833	0.445968	0.485070	0.296154	0.184000	0.059767	0.360647	0.247999	0.132580	0.268507	0.166442	0.198712	0.393998	0.621110	0.420204	0.564051	0.367614	0.332810	0.551097	0.207800	0.255480	0.447211	0.191903	0.278840	0.281150	0.227511	0.736323	0.637673	0.214244	0.193850	0.207628	0.196112	0.686475	0.539633	0.334368	0.205893	0.254135	0.224010	0.099162	0.211160	0.318334	0.214834	0.271922	0.238236	0.193025	0.400756	0.145689	0.155990	0.164696	0.179441	0.324150	0.547220	0.206285	0.198234	0.181116	0.288908	0.176846	0.160069
28	0.265344	0.347812	0.244631	0.405922	0.320384	0.319084	0.225684	0.497466	0.398937	0.319701	0.190817	0.083480	0.386021	0.364505	0.132541	0.259729	0.167400	0.193838	0.346425	0.567140	0.414138	0.560609	0.395926	0.357999	0.505440	0.200174	0.244800	0.364140	0.156217	0.290166	0.265624	0.217825	0.744396	0.667394	0.179650	0.202763	0.221224	0.199267	0.795815	0.625495	0.333851	0.197917	0.248601	0.220876	0.076328	0.172387	0.343757	0.224768	0.240077	0.214038	0.173712	0.400327	0.183166	0.201797	0.157822	0.098344	0.318307	0.549844	0.194854	0.190850	0.163034	0.297257	0.175800	0.150513
29	0.280687	0.362184	0.218238	0.403736	0.340516	0.351189	0.231331	0.527589	0.258669	0.318180	0.179576	0.114818	0.378805	0.398570	0.134094	0.207423	0.141944	0.191401	0.302722	0.445442	0.404711	0.551793	0.422432	0.366735	0.460683	0.193927	0.228526	0.359049	0.217490	0.341199	0.261539	0.246961	0.748913	0.663070	0.155369	0.197271	0.267318	0.217765	0.835547	0.681471	0.349282	0.198955	0.195890	0.218650	0.081050	0.157660	0.337129	0.211581	0.237380	0.193098	0.168203	0.402390	0.180504	0.219808	0.158207	0.064953	0.340752	0.564798	0.197454	0.179465	0.208677	0.379529	0.163549	0.127012
30	0.263200	0.348561	0.190564	0.398481	0.341282	0.356477	0.231583	0.536077	0.254642	0.326790	0.159167	0.119363	0.393826	0.410962	0.134527	0.195143	0.145915	0.183352	0.315833	0.383279	0.369652	0.463427	0.435261	0.382100	0.474921	0.238206	0.207218	0.352936	0.267769	0.416370	0.221606	0.279585	0.746806	0.666917	0.193566	0.194945	0.296270	0.207222	0.840469	0.704055	0.374222	0.213967	0.127687	0.182395	0.082362	0.158344	0.337416	0.196293	0.235593	0.192602	0.168528	0.402617	0.175966	0.219689	0.135523	0.064865	0.341251	0.551213	0.211504	0.177708	0.285115	0.469499	0.162393	0.117096
31	0.240302	0.308186	0.187664	0.394696	0.341753	0.355495	0.220045	0.535062	0.256765	0.321307	0.134908	0.124756	0.428847	0.463937	0.130046	0.184217	0.158065	0.170306	0.292997	0.379436	0.317802	0.416468	0.442188	0.379827	0.543915	0.368498	0.191380	0.329977	0.275165	0.433358	0.131852	0.272743	0.652205	0.614789	0.229829	0.208484	0.301523	0.180761	0.871026	0.665326	0.361701	0.212316	0.134541	0.197096	0.078515	0.144490	0.326863	0.178219	0.253547	0.192924	0.179448	0.360379	0.170328	0.217257	0.105419	0.056424	0.339738	0.512003	0.229424	0.178162	0.293168	0.479363	0.160455	0.113908
32	0.249109	0.321720	0.191829	0.365770	0.332621	0.355435	0.207850	0.532158	0.260274	0.306134	0.122730	0.127609	0.401115	0.578487	0.131820	0.156994	0.152310	0.141838	0.285863	0.345138	0.125559	0.191241	0.438738	0.366961	0.592292	0.484548	0.186067	0.288193	0.278422	0.439500	0.138953	0.252674	0.552648	0.555904	0.247176	0.218139	0.301559	0.178165	0.830146	0.594043	0.349734	0.207028	0.120030	0.206549	0.074462	0.139476	0.272032	0.213343	0.272104	0.198878	0.187851	0.306922	0.168922	0.214198	0.114656	0.071422	0.341247	0.488295	0.233527	0.169020	0.292879	0.479164	0.126944	0.112246
33	0.216636	0.251353	0.158170	0.342269	0.320525	0.341143	0.207654	0.531406	0.274797	0.306670	0.121855	0.128822	0.411037	0.626759	0.134995	0.156625	0.160022	0.129258	0.286311	0.295480	0.095462	0.132053	0.464460	0.450816	0.655347	0.552856	0.186021	0.260330	0.281685	0.444521	0.143706	0.260886	0.543577	0.546343	0.282914	0.240171	0.290115	0.177459	0.718436	0.540805	0.349608	0.207010	0.138082	0.209568	0.074887	0.106262	0.235254	0.222512	0.264607	0.200606	0.237743	0.293355	0.174733	0.225943	0.116067	0.079530	0.326531	0.448347	0.231601	0.173186	0.291172	0.479258	0.098120	0.107248
34	0.211611	0.247256	0.149851	0.341567	0.326041	0.348465	0.195184	0.523041	0.355823	0.306883	0.120423	0.135389	0.414003	0.635803	0.134946	0.156027	0.204192	0.134723	0.280865	0.264812	0.147228	0.148834	0.451338	0.453224	0.631294	0.581071	0.187749	0.258166	0.278477	0.444080	0.181028	0.273321	0.525043	0.521897	0.290048	0.248614	0.280219	0.182517	0.706526	0.561592	0.356927	0.213039	0.189815	0.233997	0.070242	0.088257	0.279169	0.224478	0.276038	0.220834	0.277452	0.310287	0.174495	0.230715	0.119783	0.079520	0.255819	0.273939	0.231917	0.174640	0.291113	0.480996	0.096256	0.105477
35	0.227751	0.253528	0.149752	0.341549	0.328145	0.338457	0.194031	0.482079	0.367521	0.303857	0.125058	0.140031	0.415699	0.632753	0.114531	0.157941	0.233201	0.138772	0.273561	0.255312	0.158624	0.157605	0.450061	0.464468	0.599748	0.573086	0.181148	0.259235	0.277592	0.443499	0.215772	0.300286	0.509064	0.524557	0.289623	0.229750	0.299227	0.213547	0.615932	0.510212	0.320183	0.193429	0.193494	0.247450	0.082301	0.087419	0.288362	0.210841	0.286428	0.229511	0.281651	0.383519	0.166581	0.227237	0.144432	0.078329	0.244768	0.252036	0.234313	0.197422	0.292524	0.485625	0.104896	0.108440
36	0.284662	0.263877	0.157383	0.339929	0.328663	0.336669	0.243345	0.427782	0.379037	0.286600	0.126658	0.140915	0.408293	0.631066	0.081916	0.156542	0.237880	0.139859	0.249900	0.262532	0.158665	0.150234	0.437426	0.460949	0.588013	0.577629	0.143723	0.258815	0.286844	0.452816	0.226164	0.355017	0.512975	0.524111	0.291867	0.211696	0.282490	0.198668	0.496810	0.380901	0.266375	0.152517	0.196331	0.248556	0.083401	0.049046	0.280685	0.289923	0.290897	0.226633	0.284620	0.421033	0.166934	0.219145	0.154780	0.078391	0.256655	0.259785	0.245256	0.238103	0.293804	0.487693	0.121223	0.106679
37	0.342629	0.310936	0.176905	0.345842	0.332593	0.315549	0.310326	0.458357	0.383955	0.273112	0.145481	0.177952	0.397801	0.629918	0.069794	0.155005	0.244927	0.146164	0.232283	0.263753	0.158398	0.148072	0.510757	0.449931	0.600153	0.595953	0.109556	0.267172	0.296444	0.447052	0.224867	0.362928	0.491095	0.523225	0.296191	0.202967	0.247340	0.193023	0.455016	0.325926	0.248967	0.130113	0.217799	0.256711	0.072981	0.046197	0.339924	0.336413	0.290647	0.226452	0.285870	0.397335	0.167966	0.218492	0.165511	0.089347	0.276206	0.264934	0.246578	0.270400	0.292805	0.485965	0.146725	0.105555
38	0.347571	0.323976	0.184077	0.340444	0.335973	0.293445	0.380678	0.497464	0.426116	0.307495	0.242844	0.317348	0.397953	0.610080	0.092148	0.154023	0.241101	0.151149	0.234369	0.228499	0.162953	0.156791	0.507954	0.458511	0.646928	0.705373	0.107609	0.259914	0.299087	0.434600	0.228060	0.364801	0.377462	0.444187	0.326525	0.211928	0.221456	0.190659	0.440875	0.312638	0.228434	0.130815	0.220144	0.280866	0.076476	0.040846	0.343835	0.338551	0.253686	0.213361	0.290402	0.403846	0.169607	0.210150	0.179827	0.093896	0.282271	0.263960	0.228289	0.270374	0.293775	0.483855	0.159014	0.108199
39	0.343581	0.329260	0.181763	0.327744	0.311534	0.294231	0.455272	0.526327	0.416297	0.294249	0.332084	0.378409	0.371768	0.543087	0.096560	0.150259	0.242852	0.154571	0.234412	0.195040	0.167490	0.173153	0.550991	0.483851	0.661631	0.742157	0.110255	0.253420	0.269488	0.417037	0.279501	0.358472	0.202469	0.241764	0.359687	0.215685	0.241321	0.202961	0.350370	0.331769	0.229199	0.135515	0.221569	0.331337	0.086687	0.034932	0.359601	0.344771	0.248185	0.202644	0.292552	0.458150	0.137005	0.183863	0.180545	0.106882	0.273555	0.262273	0.195058	0.263607	0.294308	0.466511	0.160502	0.122921
40	0.334535	0.322426	0.188415	0.313028	0.231447	0.242726	0.513668	0.508847	0.415601	0.270820	0.353348	0.377500	0.372267	0.516130	0.094187	0.146594	0.242993	0.155748	0.232242	0.188275	0.208990	0.170777	0.589598	0.462411	0.661826	0.742577	0.110111	0.262491	0.209715	0.353646	0.350518	0.342641	0.196423	0.209450	0.414803	0.217246	0.240615	0.215038	0.384182	0.443698	0.213789	0.130524	0.242913	0.339517	0.089107	0.036578	0.361562	0.368131	0.253630	0.192695	0.298083	0.471543	0.113997	0.138895	0.257184	0.163256	0.264749	0.250677	0.192825	0.261132	0.277982	0.413806	0.187638	0.122820
41	0.319508	0.288424	0.250454	0.300481	0.200217	0.192571	0.528040	0.472908	0.404645	0.275853	0.353332	0.371841	0.370443	0.514534	0.094387	0.146709	0.239902	0.156232	0.214237	0.175606	0.215907	0.170985	0.561903	0.405784	0.672115	0.746804	0.116917	0.324162	0.191025	0.325554	0.496823	0.474473	0.206529	0.237051	0.436176	0.225851	0.240240	0.213567	0.415810	0.492082	0.165682	0.105969	0.257282	0.378008	0.088432	0.036372	0.370050	0.379895	0.247678	0.191585	0.299074	0.471112	0.105547	0.138546	0.321388	0.249090	0.205372	0.189425	0.214225	0.258819	0.273398	0.400300	0.228960	0.114687
42	0.317184	0.281034	0.332570	0.316667	0.205176	0.189612	0.539786	0.463782	0.407083	0.283769	0.360926	0.385628	0.317569	0.475005	0.094370	0.148382	0.236169	0.160400	0.256668	0.185609	0.209961	0.147182	0.519313	0.334402	0.682891	0.782231	0.140276	0.356235	0.206652	0.328576	0.585062	0.567859	0.212360	0.232164	0.416338	0.228503	0.212197	0.189914	0.426498	0.477770	0.157306	0.103300	0.302003	0.373443	0.088261	0.035200	0.373098	0.382845	0.251215	0.194412	0.298710	0.480116	0.104165	0.138269	0.387688	0.270264	0.177556	0.143032	0.212954	0.259717	0.243302	0.339594	0.277661	0.108789
43	0.317241	0.278172	0.341260	0.453177	0.250275	0.284254	0.610776	0.467897	0.415239	0.285586	0.434633	0.447584	0.254963	0.339172	0.099805	0.143455	0.231993	0.158225	0.290237	0.262043	0.184921	0.124203	0.527110	0.335843	0.630421	0.748099	0.159982	0.372046	0.207065	0.321918	0.596976	0.592641	0.208340	0.230180	0.429842	0.223283	0.211034	0.168079	0.420983	0.481407	0.159515	0.098325	0.328865	0.365770	0.076278	0.032089	0.367892	0.399163	0.247009	0.194078	0.311110	0.542222	0.094834	0.120292	0.400192	0.270716	0.178458	0.140627	0.194281	0.261893	0.147527	0.182007	0.292641	0.105841
44	0.302199	0.249848	0.355275	0.580761	0.294019	0.374809	0.695715	0.494600	0.415876	0.286734	0.500062	0.554511	0.219717	0.221968	0.100863	0.125553	0.232665	0.152059	0.297970	0.323055	0.178318	0.117748	0.515276	0.310406	0.580714	0.677314	0.165460	0.373308	0.205512	0.320059	0.638675	0.587106	0.216164	0.233096	0.442232	0.205525	0.217467	0.178812	0.412810	0.506547	0.161625	0.094593	0.317625	0.363576	0.074159	0.036498	0.351265	0.356476	0.216024	0.185279	0.315938	0.656734	0.096981	0.085847	0.423399	0.295494	0.175746	0.137288	0.195268	0.260705	0.134055	0.143321	0.291605	0.104330
45	0.292493	0.245343	0.451309	0.642638	0.292140	0.387911	0.728299	0.553321	0.410896	0.287736	0.505809	0.581297	0.250397	0.257888	0.120287	0.102538	0.275420	0.155856	0.314698	0.350363	0.181966	0.118326	0.459837	0.322748	0.494676	0.626136	0.171078	0.379155	0.201039	0.315049	0.787263	0.620123	0.224188	0.236356	0.465216	0.186213	0.219021	0.165014	0.411696	0.494591	0.143697	0.078785	0.297235	0.349696	0.081462	0.043734	0.292657	0.312719	0.213878	0.164672	0.290807	0.750027	0.088799	0.047791	0.545782	0.352867	0.167811	0.136702	0.207269	0.278042	0.134535	0.145256	0.293315	0.113556
46	0.290934	0.236437	0.493239	0.650647	0.281901	0.405011	0.734382	0.593473	0.355779	0.256189	0.507347	0.591040	0.252799	0.264090	0.143013	0.097438	0.305364	0.189445	0.323816	0.370589	0.181414	0.117334	0.395304	0.322757	0.473154	0.604525	0.213321	0.414268	0.199631	0.272909	0.880640	0.679049	0.233907	0.235632	0.491428	0.181911	0.211132	0.155333	0.414504	0.489116	0.123514	0.074082	0.303425	0.350713	0.075965	0.042375	0.308312	0.303679	0.210619	0.155667	0.241748	0.755430	0.088132	0.062918	0.680996	0.416466	0.167809	0.135715	0.208027	0.296310	0.137714	0.149369	0.293494	0.122605
47	0.272571	0.228253	0.530882	0.668035	0.318460	0.405859	0.732786	0.592950	0.354504	0.251469	0.506182	0.616831	0.265167	0.290329	0.171012	0.126793	0.307983	0.206053	0.326400	0.375763	0.196016	0.153050	0.378197	0.270055	0.458759	0.607297	0.273617	0.478602	0.244630	0.253510	0.905749	0.691055	0.227210	0.224510	0.519622	0.184512	0.177595	0.132151	0.401529	0.446988	0.114802	0.071720	0.301505	0.368680	0.056784	0.035989	0.345410	0.302123	0.203323	0.112905	0.224650	0.732811	0.087352	0.074375	0.726125	0.440098	0.168270	0.134646	0.224148	0.284425	0.133771	0.145007	0.294755	0.152588
48	0.208804	0.207529	0.720013	0.776699	0.324721	0.404946	0.722299	0.595815	0.356266	0.250266	0.505930	0.632072	0.289257	0.315122	0.217906	0.141912	0.301350	0.208571	0.367378	0.382204	0.219547	0.263862	0.283793	0.270616	0.462524	0.600093	0.303219	0.487821	0.255111	0.261576	0.913493	0.703245	0.219566	0.217595	0.543155	0.265586	0.177141	0.113390	0.262530	0.321387	0.115750	0.071677	0.293624	0.367207	0.054592	0.034789	0.375763	0.315437	0.253015	0.140018	0.256728	0.706043	0.089512	0.076431	0.736918	0.438347	0.154743	0.105281	0.224719	0.255713	0.129807	0.129899	0.296529	0.165975
49	0.113195	0.135400	0.819408	0.913374	0.320553	0.408987	0.700657	0.560447	0.380212	0.250492	0.516188	0.627244	0.299784	0.315591	0.257220	0.143752	0.298661	0.208021	0.393362	0.433101	0.208820	0.274578	0.279384	0.342804	0.463739	0.592406	0.305783	0.482298	0.253866	0.253882	0.911448	0.705862	0.222025	0.217543	0.535361	0.399255	0.175883	0.122909	0.249926	0.257188	0.114036	0.071556	0.332221	0.418874	0.055574	0.035276	0.374911	0.339628	0.276229	0.150515	0.253625	0.750990	0.086612	0.077634	0.735764	0.437229	0.113410	0.087443	0.222526	0.225684	0.143593	0.136308	0.310955	0.166776
50	0.114978	0.118468	0.823458	0.985380	0.318636	0.409753	0.666167	0.524097	0.352745	0.187860	0.601511	0.586218	0.306043	0.316729	0.272459	0.168121	0.290891	0.202427	0.405750	0.482568	0.203949	0.282024	0.290528	0.339285	0.408447	0.469392	0.307019	0.484879	0.255261	0.242826	0.896370	0.702812	0.218046	0.212557	0.532114	0.446017	0.143074	0.118764	0.230845	0.266621	0.111816	0.062736	0.371907	0.474683	0.064844	0.047043	0.371035	0.338511	0.273004	0.146229	0.270179	0.798566	0.087763	0.081211	0.736764	0.450181	0.084436	0.077510	0.233939	0.245529	0.159315	0.160405	0.332113	0.164375
51	0.117261	0.109578	0.825040	0.994548	0.349915	0.431233	0.612056	0.477876	0.339006	0.177276	0.594553	0.614276	0.317297	0.331258	0.278974	0.194737	0.288875	0.196769	0.424407	0.518080	0.200490	0.289765	0.268888	0.305438	0.380034	0.395059	0.313887	0.483954	0.256327	0.264409	0.837885	0.632934	0.206031	0.203250	0.571827	0.459913	0.122697	0.119225	0.200981	0.251189	0.106227	0.077663	0.364795	0.550908	0.107507	0.066444	0.395543	0.339699	0.258364	0.136691	0.312479	0.795122	0.102873	0.107187	0.721643	0.453775	0.072429	0.067864	0.232827	0.266370	0.158942	0.161627	0.346624	0.162092
52	0.120633	0.109372	0.831540	0.994015	0.377091	0.455505	0.559281	0.440106	0.350187	0.178284	0.594605	0.632053	0.323480	0.332163	0.298886	0.204185	0.291116	0.196330	0.454796	0.556181	0.215055	0.313226	0.280785	0.318011	0.379370	0.398512	0.317258	0.483980	0.247223	0.259699	0.757151	0.534258	0.183516	0.180673	0.576234	0.461237	0.098188	0.088119	0.188611	0.154894	0.168774	0.125649	0.386324	0.529342	0.164901	0.088059	0.407442	0.363428	0.240603	0.131618	0.334163	0.778705	0.115481	0.144933	0.699057	0.417379	0.070308	0.066696	0.228193	0.261368	0.174308	0.166765	0.359677	0.152710
53	0.135468	0.143925	0.811169	0.995009	0.378562	0.462288	0.540674	0.452348	0.358058	0.151428	0.612419	0.634388	0.323073	0.328364	0.373382	0.211379	0.302339	0.202249	0.463599	0.613714	0.215427	0.315096	0.351132	0.353005	0.352633	0.399464	0.314982	0.438957	0.245067	0.267024	0.736258	0.490569	0.155080	0.126521	0.602817	0.469905	0.067874	0.078517	0.175179	0.131848	0.210344	0.148127	0.387145	0.532946	0.162825	0.085703	0.405782	0.379918	0.254402	0.140818	0.334477	0.794567	0.115998	0.147156	0.667516	0.396110	0.095986	0.080312	0.221072	0.257450	0.174249	0.169452	0.362470	0.167645
54	0.150743	0.150558	0.786388	0.978968	0.375938	0.459759	0.532604	0.449932	0.353811	0.135528	0.639430	0.630492	0.320931	0.331471	0.454823	0.266561	0.321450	0.210695	0.464166	0.632288	0.219847	0.315635	0.357906	0.345477	0.241483	0.304799	0.346375	0.406534	0.246693	0.269749	0.724806	0.492841	0.175781	0.124062	0.616890	0.559515	0.064938	0.079243	0.185759	0.194550	0.221332	0.152083	0.363460	0.561966	0.162056	0.085925	0.395795	0.376442	0.266927	0.146308	0.335439	0.825015	0.117113	0.155835	0.660229	0.420716	0.118241	0.087574	0.209533	0.260623	0.177230	0.170732	0.341116	0.169305
55	0.158850	0.151147	0.792585	0.915513	0.350319	0.414374	0.463300	0.446640	0.369274	0.150164	0.655225	0.590682	0.312862	0.324180	0.496522	0.306670	0.327746	0.214090	0.435846	0.640308	0.229937	0.314612	0.359828	0.343265	0.218193	0.256683	0.396629	0.435869	0.252685	0.267776	0.582051	0.457601	0.188388	0.116989	0.593653	0.670003	0.058376	0.079369	0.254382	0.334642	0.218679	0.151956	0.362726	0.584150	0.165056	0.086715	0.352514	0.382733	0.268547	0.146876	0.343942	0.814503	0.112069	0.155513	0.717774	0.458763	0.131860	0.086608	0.207920	0.265061	0.179857	0.166506	0.315738	0.172149
56	0.170283	0.159519	0.779630	0.849595	0.313950	0.328207	0.321818	0.420017	0.368463	0.144504	0.693746	0.545666	0.298886	0.277512	0.502839	0.312606	0.328440	0.219828	0.410661	0.637975	0.201227	0.256747	0.373572	0.364782	0.242761	0.256599	0.401488	0.477615	0.250469	0.266139	0.386080	0.310661	0.189493	0.107644	0.569043	0.756965	0.065693	0.076055	0.293395	0.371680	0.231124	0.159934	0.358293	0.586353	0.167041	0.087115	0.331773	0.349758	0.265850	0.146216	0.336314	0.744830	0.106012	0.155534	0.763770	0.470219	0.135184	0.091499	0.197560	0.265035	0.179179	0.172275	0.299667	0.173379
57	0.192802	0.183601	0.735180	0.815122	0.306310	0.303676	0.230003	0.343162	0.353276	0.142287	0.700405	0.547126	0.298571	0.252353	0.497849	0.313819	0.316040	0.224748	0.399286	0.651249	0.181152	0.192994	0.438585	0.447309	0.249211	0.246024	0.417692	0.478257	0.185285	0.223044	0.316281	0.234290	0.179943	0.097908	0.550018	0.807345	0.104229	0.079274	0.322191	0.370401	0.258266	0.172182	0.361802	0.597841	0.170773	0.087308	0.351735	0.340806	0.270254	0.149079	0.378505	0.632294	0.112502	0.159708	0.734443	0.448051	0.140311	0.097102	0.199158	0.246981	0.171342	0.175643	0.305114	0.174304
58	0.206291	0.211166	0.746244	0.812410	0.304031	0.268507	0.205437	0.255565	0.345900	0.142644	0.699691	0.527014	0.292796	0.236548	0.489950	0.307689	0.266629	0.210478	0.383969	0.673525	0.160595	0.167173	0.582150	0.467614	0.243014	0.214414	0.400575	0.494825	0.152613	0.193663	0.283386	0.194154	0.174129	0.097241	0.532155	0.817120	0.190947	0.134475	0.322533	0.378190	0.263063	0.174873	0.363952	0.607028	0.174104	0.083476	0.324667	0.340509	0.268831	0.149424	0.413068	0.620251	0.115311	0.157086	0.715669	0.416609	0.232628	0.110599	0.222906	0.232302	0.171660	0.175530	0.310374	0.175447
59	0.194526	0.210570	0.742705	0.787564	0.261814	0.259171	0.203201	0.252579	0.341777	0.142978	0.700006	0.508718	0.266485	0.185897	0.474279	0.298181	0.217310	0.169687	0.390960	0.670118	0.178531	0.170681	0.610951	0.468448	0.248322	0.204000	0.367767	0.485522	0.147115	0.188704	0.395609	0.185650	0.175505	0.099438	0.503094	0.818854	0.201087	0.140260	0.405167	0.377335	0.287896	0.187752	0.358666	0.604784	0.174931	0.073260	0.307632	0.344509	0.275097	0.150598	0.416110	0.638362	0.113123	0.155400	0.707784	0.415836	0.332290	0.138879	0.214179	0.258900	0.169963	0.177741	0.311300	0.174664
60	0.211447	0.235947	0.589672	0.665327	0.248992	0.255735	0.192036	0.224210	0.319857	0.137072	0.708585	0.503546	0.261948	0.204696	0.447776	0.296873	0.186122	0.146853	0.379908	0.674734	0.206352	0.146617	0.628464	0.480267	0.283232	0.203532	0.364250	0.550783	0.142334	0.184673	0.600450	0.225973	0.172882	0.095218	0.502866	0.777701	0.214929	0.146054	0.411835	0.379064	0.303745	0.192054	0.322398	0.556024	0.227273	0.072563	0.321907	0.339006	0.265666	0.137464	0.439528	0.634081	0.123735	0.158650	0.725614	0.420532	0.390138	0.172135	0.200563	0.286328	0.179801	0.203051	0.312648	0.154632
61	0.217332	0.246407	0.489659	0.509991	0.251019	0.248466	0.178540	0.192612	0.274049	0.127398	0.683821	0.491253	0.283873	0.295432	0.435959	0.286388	0.184031	0.145079	0.336755	0.661166	0.209297	0.116001	0.641831	0.515984	0.386536	0.203013	0.370723	0.591696	0.158493	0.143387	0.798982	0.290999	0.168946	0.086689	0.503400	0.736917	0.216843	0.145706	0.410729	0.388317	0.318335	0.217575	0.278160	0.480522	0.294710	0.097523	0.323608	0.323995	0.223039	0.115441	0.438770	0.650492	0.126370	0.159105	0.792871	0.414439	0.402798	0.192861	0.202699	0.297572	0.180882	0.204855	0.313977	0.152069
62	0.211327	0.252985	0.485708	0.442962	0.249049	0.246128	0.230004	0.192207	0.249299	0.121630	0.568556	0.469810	0.283736	0.312788	0.429896	0.268850	0.193454	0.147503	0.333605	0.620186	0.203592	0.115211	0.615270	0.507462	0.466824	0.212008	0.370718	0.586367	0.199202	0.132194	0.869157	0.352392	0.167165	0.081154	0.469022	0.716486	0.217460	0.145812	0.404823	0.397290	0.344119	0.225672	0.270013	0.462886	0.302874	0.099608	0.314743	0.319788	0.219577	0.116476	0.440400	0.644825	0.118993	0.147650	0.873352	0.400376	0.407456	0.223994	0.215325	0.277958	0.168885	0.196312	0.295161	0.151479
63	0.216738	0.265227	0.506191	0.470022	0.202690	0.208856	0.305207	0.202313	0.273423	0.119869	0.559739	0.404364	0.264848	0.326459	0.424937	0.260651	0.194135	0.149082	0.321332	0.602935	0.187960	0.110004	0.609924	0.506093	0.522881	0.244370	0.363522	0.587228	0.220476	0.128575	0.872604	0.373219	0.168783	0.080624	0.384720	0.711093	0.227545	0.153150	0.362866	0.309011	0.344115	0.207569	0.239167	0.502106	0.344873	0.103562	0.305565	0.305123	0.231330	0.127675	0.417498	0.644313	0.108677	0.119558	0.919100	0.398118	0.453748	0.247624	0.260625	0.251072	0.151727	0.177454	0.259836	0.154624
64	0.232643	0.269416	0.532466	0.492800	0.124764	0.131418	0.331274	0.203210	0.283716	0.121612	0.613826	0.391711	0.252601	0.325680	0.381656	0.266718	0.222905	0.157939	0.324536	0.578924	0.177981	0.109055	0.608401	0.503793	0.525776	0.247572	0.360561	0.585895	0.232819	0.123246	0.899864	0.365102	0.174275	0.083090	0.333843	0.711467	0.227377	0.153378	0.319151	0.289617	0.332088	0.193772	0.188537	0.483667	0.357044	0.111569	0.286779	0.276068	0.255848	0.149281	0.397217	0.641336	0.107220	0.113273	0.940311	0.404932	0.524115	0.298672	0.279855	0.255715	0.149481	0.168477	0.232411	0.155800
65	0.251525	0.270023	0.604941	0.494152	0.098217	0.108982	0.332901	0.163277	0.262178	0.117576	0.653132	0.438993	0.258709	0.330474	0.302947	0.253291	0.245113	0.157305	0.315099	0.538687	0.177811	0.112495	0.580252	0.451047	0.530665	0.235552	0.368707	0.588197	0.236353	0.130912	0.979762	0.365422	0.167014	0.078145	0.271732	0.679280	0.200855	0.132026	0.334229	0.279547	0.352275	0.197841	0.186601	0.451263	0.360581	0.113305	0.261151	0.230404	0.262551	0.156632	0.460179	0.679975	0.106339	0.105809	0.939190	0.408569	0.548368	0.301651	0.271809	0.298251	0.118363	0.153826	0.216533	0.154675
66	0.264067	0.275742	0.663676	0.513680	0.097965	0.115281	0.353086	0.156023	0.235923	0.103476	0.615917	0.454181	0.256436	0.334762	0.228710	0.216830	0.284234	0.145612	0.313280	0.481080	0.176162	0.111597	0.476888	0.332431	0.557734	0.243898	0.402425	0.620011	0.232775	0.133741	1.041854	0.396343	0.139747	0.073982	0.256044	0.574856	0.131850	0.081759	0.341921	0.284728	0.379674	0.206743	0.218373	0.428058	0.384896	0.117242	0.246576	0.227183	0.241585	0.145562	0.513600	0.721827	0.099992	0.105531	0.903334	0.363447	0.551815	0.302862	0.273610	0.352255	0.114072	0.151228	0.199216	0.138784
67	0.258384	0.274861	0.675024	0.582554	0.095670	0.115419	0.394521	0.154186	0.200943	0.083940	0.536556	0.469558	0.246438	0.333012	0.206829	0.196902	0.395396	0.132832	0.299696	0.480930	0.169690	0.107049	0.376796	0.349772	0.632572	0.272082	0.357996	0.648268	0.255873	0.148744	1.044820	0.428581	0.118110	0.077316	0.258688	0.443788	0.119152	0.080326	0.280862	0.297286	0.381085	0.206748	0.226033	0.471830	0.376178	0.114203	0.204840	0.183415	0.232798	0.141695	0.517106	0.739114	0.098701	0.110526	0.822278	0.300981	0.553434	0.310837	0.275108	0.411775	0.112434	0.149424	0.211997	0.131965
68	0.249774	0.267780	0.675785	0.631061	0.095730	0.116257	0.403529	0.181921	0.207672	0.080425	0.475834	0.468214	0.243064	0.348211	0.216061	0.195064	0.409707	0.123177	0.289032	0.443017	0.134550	0.089127	0.384589	0.377327	0.632693	0.272611	0.348062	0.645587	0.293064	0.174595	1.042745	0.445633	0.108706	0.080164	0.255025	0.324325	0.099791	0.076117	0.361648	0.453493	0.457894	0.298879	0.209498	0.485644	0.322946	0.098871	0.171440	0.119094	0.247739	0.155228	0.509609	0.750099	0.095701	0.108095	0.718810	0.235756	0.555039	0.313429	0.274743	0.550474	0.105455	0.149605	0.194584	0.125559
69	0.231915	0.248883	0.669261	0.676780	0.095072	0.116717	0.401593	0.198954	0.231644	0.076986	0.471623	0.472921	0.241581	0.351858	0.221322	0.192955	0.414762	0.113792	0.307945	0.409522	0.100000	0.081399	0.323070	0.336714	0.629556	0.296701	0.326865	0.646326	0.321100	0.191986	1.024650	0.481305	0.123227	0.085407	0.248306	0.399482	0.099503	0.078920	0.375336	0.488943	0.675592	0.573477	0.210420	0.477364	0.267223	0.079233	0.172566	0.123349	0.273596	0.176032	0.491914	0.762346	0.098446	0.100680	0.669939	0.231262	0.555062	0.313039	0.267515	0.659159	0.130530	0.223993	0.184298	0.126832
70	0.228217	0.240636	0.642295	0.714997	0.095826	0.116993	0.406428	0.203061	0.254240	0.093205	0.476752	0.477298	0.240338	0.359281	0.227164	0.197811	0.448123	0.105634	0.317037	0.354868	0.096681	0.082235	0.288865	0.269921	0.630216	0.318212	0.325394	0.619642	0.339193	0.199218	0.926620	0.471061	0.131083	0.084464	0.239695	0.506007	0.115646	0.085189	0.377141	0.449060	0.710879	0.622450	0.214222	0.479902	0.267221	0.084928	0.164671	0.128719	0.313453	0.203031	0.445479	0.750559	0.099454	0.099349	0.650797	0.238608	0.528047	0.311088	0.259250	0.673856	0.141888	0.262891	0.174280	0.129208
71	0.234331	0.247524	0.604088	0.727862	0.134991	0.119461	0.431689	0.219134	0.261591	0.107959	0.475820	0.496713	0.234517	0.366922	0.241342	0.203976	0.501956	0.104767	0.318580	0.297197	0.096868	0.080567	0.308366	0.290820	0.652534	0.334366	0.320635	0.591216	0.334495	0.195563	0.773484	0.441202	0.146894	0.084890	0.229915	0.543678	0.097141	0.088206	0.433049	0.468331	0.708025	0.683087	0.211861	0.479699	0.210740	0.079961	0.170281	0.183554	0.335130	0.217888	0.444585	0.746438	0.087499	0.094885	0.637482	0.243793	0.474970	0.303185	0.254026	0.664457	0.152921	0.274495	0.164152	0.120633
72	0.244810	0.241075	0.586999	0.709707	0.226618	0.126778	0.491476	0.230980	0.264780	0.119372	0.497015	0.513948	0.196478	0.316332	0.256396	0.204326	0.507035	0.102829	0.304976	0.291693	0.093515	0.074517	0.334654	0.347911	0.681260	0.402005	0.299602	0.535206	0.315594	0.187570	0.656895	0.390780	0.158206	0.086620	0.230273	0.557062	0.103612	0.141604	0.442866	0.531555	0.719448	0.686443	0.211815	0.476005	0.189571	0.067817	0.172441	0.212430	0.322232	0.218301	0.431901	0.753108	0.089877	0.092804	0.560313	0.250098	0.440866	0.295678	0.294575	0.655013	0.175622	0.312545	0.177423	0.113804
73	0.311767	0.275582	0.592084	0.656612	0.283849	0.125163	0.582305	0.237725	0.264879	0.118993	0.595513	0.553519	0.153559	0.258008	0.283461	0.203970	0.506443	0.093984	0.308187	0.276634	0.086135	0.065275	0.356993	0.395880	0.619716	0.396305	0.286854	0.474477	0.296004	0.175523	0.664567	0.360636	0.162371	0.086423	0.319945	0.587000	0.107085	0.195851	0.412739	0.524800	0.722300	0.692507	0.230767	0.402666	0.182494	0.067696	0.160506	0.215470	0.313640	0.218912	0.422284	0.726356	0.089038	0.091164	0.431470	0.245591	0.441617	0.288837	0.412330	0.685785	0.167815	0.303781	0.188518	0.109321
74	0.368198	0.303062	0.596318	0.608684	0.286733	0.116731	0.633073	0.272703	0.267196	0.118981	0.627434	0.563946	0.166029	0.250161	0.284845	0.205229	0.504863	0.090865	0.315363	0.275468	0.088120	0.067775	0.358969	0.400427	0.552677	0.386385	0.287542	0.463367	0.308623	0.171380	0.714163	0.407709	0.229399	0.102850	0.458439	0.592046	0.110648	0.200279	0.395024	0.517789	0.734245	0.698613	0.227885	0.385203	0.115013	0.064835	0.161405	0.224447	0.311357	0.216295	0.426292	0.654794	0.084336	0.081850	0.305106	0.243810	0.441949	0.263265	0.478374	0.817135	0.165162	0.303343	0.186941	0.100069
75	0.405197	0.340815	0.570377	0.594023	0.291808	0.114986	0.619851	0.331185	0.237244	0.111647	0.610570	0.564743	0.170983	0.245291	0.283318	0.198430	0.502667	0.094910	0.307633	0.294255	0.091291	0.069051	0.305266	0.388182	0.494074	0.378305	0.304738	0.459147	0.325604	0.168762	0.621115	0.439393	0.301746	0.122149	0.507851	0.642809	0.107971	0.201609	0.353284	0.487769	0.735338	0.700491	0.218721	0.408100	0.120240	0.080758	0.172771	0.257396	0.325549	0.216629	0.428178	0.598902	0.096431	0.086247	0.229872	0.237611	0.398959	0.247579	0.462457	0.915364	0.165126	0.303573	0.187668	0.103490
76	0.410021	0.346908	0.536885	0.579492	0.310097	0.124257	0.601483	0.350186	0.206243	0.107457	0.531831	0.555852	0.164165	0.239664	0.259533	0.161676	0.501328	0.095995	0.308923	0.364080	0.090752	0.061920	0.267731	0.344600	0.496711	0.376751	0.337294	0.450355	0.321972	0.165715	0.527389	0.423072	0.302078	0.121847	0.510157	0.725227	0.115490	0.201081	0.290445	0.344962	0.723869	0.699445	0.239642	0.411249	0.131462	0.082184	0.159942	0.266597	0.348355	0.210356	0.435656	0.584159	0.102078	0.087829	0.282488	0.201569	0.316480	0.186272	0.459147	0.943438	0.165270	0.302604	0.186425	0.112443
77	0.391766	0.336773	0.457024	0.580198	0.341487	0.140807	0.593511	0.369977	0.205601	0.107591	0.478317	0.508503	0.155312	0.225124	0.235284	0.165512	0.491805	0.094397	0.291291	0.431512	0.082842	0.053811	0.284316	0.316984	0.494742	0.379186	0.338578	0.447551	0.313246	0.158914	0.492756	0.380761	0.345447	0.136148	0.513312	0.801555	0.116260	0.199703	0.281605	0.302611	0.714686	0.698272	0.221840	0.465497	0.129270	0.081865	0.181837	0.263745	0.363116	0.202689	0.408293	0.570124	0.106257	0.084717	0.320234	0.251885	0.285290	0.189316	0.471575	0.936064	0.165797	0.302719	0.202306	0.138247
78	0.385303	0.338668	0.373544	0.555944	0.366188	0.160609	0.584522	0.380543	0.205686	0.107684	0.487267	0.491811	0.145784	0.229016	0.225008	0.185282	0.481425	0.097624	0.281713	0.435810	0.066528	0.046939	0.294315	0.316164	0.468798	0.374735	0.270189	0.405821	0.283680	0.131129	0.514033	0.378248	0.390404	0.138072	0.516770	0.858169	0.099803	0.200572	0.293640	0.319367	0.719517	0.698581	0.220751	0.525503	0.109013	0.072888	0.184112	0.263817	0.380304	0.207402	0.319043	0.476714	0.105784	0.086740	0.340770	0.308875	0.308493	0.208825	0.474615	0.916373	0.166238	0.302098	0.216053	0.156393
79	0.448264	0.402174	0.352421	0.511407	0.382200	0.180921	0.560942	0.380684	0.204326	0.107930	0.492413	0.440383	0.122779	0.214210	0.220623	0.186551	0.440956	0.095282	0.288780	0.425822	0.084552	0.051724	0.312776	0.320865	0.361430	0.358850	0.254250	0.314504	0.263948	0.099909	0.558849	0.413985	0.396046	0.158172	0.532802	0.869236	0.101163	0.189872	0.193746	0.259142	0.667636	0.659197	0.242599	0.517002	0.110584	0.075304	0.201357	0.242668	0.386322	0.213009	0.287291	0.395327	0.108373	0.102089	0.340941	0.315515	0.338700	0.220039	0.487772	0.890283	0.164598	0.300511	0.211395	0.159962
80	0.471632	0.408502	0.357459	0.526647	0.383578	0.185471	0.560394	0.368255	0.190497	0.108899	0.490995	0.397974	0.117836	0.221281	0.225639	0.186524	0.334015	0.089490	0.302863	0.417588	0.118971	0.060496	0.407612	0.318945	0.341337	0.371706	0.278657	0.252400	0.251903	0.075732	0.556661	0.463672	0.418758	0.189199	0.546902	0.839711	0.107629	0.165757	0.198763	0.171389	0.449574	0.438291	0.280338	0.523933	0.110695	0.079848	0.204636	0.232751	0.380911	0.214416	0.308728	0.359684	0.110778	0.106635	0.342182	0.324565	0.352793	0.224570	0.508766	0.816560	0.163597	0.300679	0.194063	0.159084
81	0.491738	0.430103	0.366147	0.555322	0.383011	0.190316	0.568070	0.359498	0.163104	0.105092	0.494021	0.394990	0.124536	0.220815	0.225971	0.185823	0.328635	0.089049	0.352547	0.418122	0.124356	0.090192	0.421273	0.303706	0.342385	0.375843	0.322132	0.250348	0.255962	0.078947	0.558817	0.471605	0.421990	0.200495	0.545754	0.771822	0.126202	0.126739	0.259401	0.198959	0.383518	0.367459	0.291418	0.592947	0.107713	0.080006	0.201115	0.229527	0.370139	0.209836	0.326541	0.323022	0.131362	0.118117	0.395274	0.367245	0.358550	0.224982	0.513830	0.726508	0.163247	0.300517	0.195909	0.158854
82	0.551495	0.502118	0.366562	0.606725	0.385828	0.190449	0.568288	0.359651	0.159150	0.097117	0.497482	0.423418	0.131909	0.203586	0.240534	0.206592	0.319757	0.087221	0.373090	0.420858	0.130330	0.129969	0.411907	0.284980	0.345164	0.356916	0.354725	0.255842	0.254974	0.072537	0.570390	0.472099	0.423445	0.204433	0.546176	0.731418	0.138473	0.127316	0.294028	0.217952	0.375833	0.234810	0.296639	0.631730	0.108546	0.074951	0.194958	0.216783	0.338971	0.184187	0.348653	0.322306	0.134607	0.119649	0.461282	0.434298	0.358420	0.222563	0.508060	0.714846	0.137411	0.252462	0.234840	0.155780
83	0.602166	0.531711	0.385691	0.602643	0.380438	0.190288	0.552309	0.352212	0.156151	0.081835	0.517382	0.466507	0.132304	0.196127	0.254677	0.248218	0.240183	0.085851	0.371586	0.440629	0.142565	0.192752	0.413374	0.281320	0.305733	0.346512	0.359699	0.252964	0.261001	0.069561	0.592746	0.472509	0.422119	0.209981	0.541036	0.711525	0.137184	0.131932	0.298005	0.218206	0.346531	0.214250	0.317124	0.665476	0.095901	0.057558	0.164871	0.169615	0.314032	0.158283	0.363598	0.297219	0.136926	0.122899	0.484508	0.489441	0.354455	0.218322	0.509299	0.746398	0.119233	0.196740	0.239626	0.153052
84	0.609198	0.532488	0.421054	0.626963	0.344856	0.182852	0.503209	0.344931	0.152862	0.069910	0.509580	0.531315	0.128295	0.201363	0.235395	0.256916	0.169592	0.084148	0.375187	0.450878	0.147178	0.205742	0.419620	0.281434	0.170794	0.265317	0.399251	0.218740	0.256534	0.064861	0.512045	0.467201	0.426142	0.209981	0.516128	0.694208	0.146049	0.133571	0.298809	0.216764	0.340354	0.218991	0.309492	0.705713	0.081939	0.052777	0.160040	0.138107	0.309326	0.149392	0.379187	0.279505	0.144554	0.127229	0.485512	0.501426	0.340610	0.208979	0.494567	0.783647	0.112034	0.184188	0.276024	0.163339
85	0.582197	0.513369	0.423740	0.744264	0.293953	0.176567	0.397060	0.342855	0.159656	0.083146	0.467121	0.524612	0.110783	0.195949	0.254256	0.255273	0.162317	0.084871	0.385671	0.452379	0.161857	0.216419	0.411589	0.283696	0.150848	0.259199	0.443884	0.252586	0.253880	0.066933	0.485127	0.489864	0.425649	0.209798	0.402113	0.688572	0.144156	0.135604	0.307288	0.214725	0.356791	0.232281	0.303660	0.690492	0.077115	0.049998	0.130640	0.137337	0.367173	0.150119	0.358892	0.339970	0.148416	0.127630	0.529873	0.506664	0.318504	0.196044	0.403958	0.771436	0.065480	0.097107	0.321365	0.174678
86	0.547687	0.487064	0.418580	0.834883	0.290243	0.176056	0.268864	0.319770	0.173196	0.101325	0.454707	0.519282	0.102997	0.184977	0.273068	0.255036	0.159520	0.093345	0.379719	0.466582	0.188884	0.273533	0.392598	0.296557	0.143300	0.251797	0.488573	0.275583	0.279861	0.083543	0.440058	0.610750	0.385916	0.194852	0.286534	0.668648	0.151868	0.145944	0.327072	0.192353	0.441228	0.246481	0.300489	0.673492	0.079335	0.051319	0.126888	0.145132	0.393699	0.153895	0.340319	0.360390	0.142867	0.122374	0.545837	0.527309	0.320754	0.194885	0.297867	0.638712	0.062814	0.074309	0.345569	0.180098
87	0.522772	0.461018	0.417525	0.883820	0.290079	0.173846	0.209008	0.247879	0.216412	0.130620	0.478138	0.519009	0.107210	0.190872	0.270405	0.255109	0.159976	0.091640	0.365296	0.480274	0.195540	0.286423	0.390004	0.316754	0.141254	0.232911	0.522320	0.328265	0.288766	0.096696	0.424686	0.735075	0.382412	0.191389	0.341893	0.594128	0.169516	0.151700	0.332690	0.164290	0.538303	0.262866	0.333251	0.679274	0.089959	0.063538	0.132232	0.125138	0.387180	0.151120	0.328980	0.364887	0.137485	0.118265	0.520618	0.555937	0.331033	0.195479	0.283113	0.492959	0.062539	0.063769	0.377193	0.181988
88	0.531610	0.462264	0.410346	0.903123	0.283667	0.167178	0.203299	0.204085	0.297248	0.174893	0.571901	0.529663	0.110265	0.191449	0.270441	0.236069	0.167721	0.085947	0.365990	0.448169	0.225928	0.354478	0.319453	0.309651	0.113309	0.224462	0.511507	0.424509	0.287195	0.110081	0.410952	0.746102	0.369089	0.186737	0.361887	0.547668	0.178364	0.155439	0.308594	0.158960	0.611026	0.266327	0.373838	0.644829	0.093041	0.063314	0.191018	0.134215	0.433575	0.166627	0.319992	0.370822	0.135271	0.117670	0.492965	0.558232	0.325296	0.189111	0.282588	0.484666	0.062192	0.065230	0.415231	0.200718
89	0.558701	0.471375	0.416913	0.905679	0.260534	0.147419	0.202858	0.166727	0.330248	0.191053	0.673108	0.568520	0.132681	0.185922	0.268781	0.204622	0.170419	0.076839	0.372816	0.402111	0.215898	0.358455	0.172411	0.245769	0.105807	0.216755	0.515099	0.441808	0.277450	0.124369	0.347567	0.726893	0.328983	0.184413	0.370170	0.543927	0.158105	0.136273	0.240448	0.119893	0.605353	0.267130	0.384143	0.561132	0.090521	0.064697	0.234025	0.186545	0.506601	0.196740	0.295642	0.377465	0.143310	0.120053	0.477763	0.522511	0.319180	0.174596	0.275279	0.529859	0.062888	0.065330	0.426228	0.222031
90	0.581895	0.469438	0.419347	0.920791	0.238930	0.115503	0.196817	0.147964	0.342878	0.194154	0.677902	0.581855	0.156698	0.173691	0.267951	0.198706	0.152312	0.066008	0.395986	0.422771	0.213389	0.346051	0.135859	0.187660	0.120171	0.205208	0.522220	0.443683	0.261268	0.128554	0.320824	0.700295	0.345383	0.189149	0.353360	0.579648	0.153445	0.134201	0.231423	0.108734	0.598942	0.316728	0.369754	0.540222	0.115963	0.075633	0.242742	0.193484	0.527156	0.209682	0.289941	0.385814	0.152180	0.104481	0.505875	0.516541	0.289061	0.145208	0.351608	0.537988	0.064676	0.063756	0.419868	0.217263
91	0.560371	0.427016	0.417140	0.901468	0.232215	0.078938	0.178009	0.149748	0.350508	0.202914	0.661323	0.595719	0.162222	0.156113	0.267482	0.198962	0.157253	0.071812	0.423218	0.494655	0.212964	0.336851	0.136133	0.179677	0.124620	0.185770	0.528391	0.442602	0.257678	0.126575	0.311622	0.704857	0.337114	0.155795	0.342873	0.613522	0.150159	0.129904	0.237024	0.111218	0.595271	0.329504	0.341274	0.523819	0.132477	0.083184	0.297594	0.210510	0.522325	0.204439	0.291136	0.363221	0.152399	0.098894	0.549492	0.528288	0.246195	0.106294	0.362312	0.568535	0.071589	0.063856	0.408327	0.205672
92	0.550593	0.424667	0.409869	0.864704	0.229804	0.070835	0.137322	0.150823	0.399916	0.237399	0.661582	0.610528	0.157262	0.140173	0.291901	0.196807	0.203598	0.098539	0.421384	0.535403	0.203723	0.300302	0.121708	0.180923	0.125538	0.158801	0.547923	0.434147	0.277725	0.128394	0.281966	0.712374	0.340324	0.136763	0.402006	0.614729	0.138502	0.126906	0.236089	0.155905	0.600560	0.335834	0.330962	0.486109	0.133940	0.113954	0.352629	0.247935	0.524318	0.198935	0.271204	0.359282	0.133912	0.083852	0.539833	0.516931	0.216001	0.081168	0.347502	0.657362	0.075590	0.063619	0.405387	0.201147
93	0.530504	0.383590	0.390544	0.800112	0.232842	0.058119	0.095994	0.148453	0.455186	0.271804	0.658647	0.598919	0.150046	0.131779	0.287285	0.175709	0.303792	0.136653	0.421728	0.537683	0.195051	0.298808	0.095949	0.193569	0.123014	0.093033	0.572075	0.459852	0.298385	0.133636	0.245193	0.722434	0.352336	0.137615	0.478738	0.622879	0.140961	0.124542	0.271202	0.179834	0.652143	0.358000	0.329833	0.495103	0.143074	0.162307	0.370783	0.263450	0.522641	0.187421	0.246129	0.370005	0.125814	0.077918	0.487958	0.464636	0.246584	0.081411	0.350802	0.796709	0.075549	0.063064	0.406866	0.201889
94	0.461755	0.282086	0.388474	0.752867	0.227348	0.059602	0.076352	0.141332	0.477158	0.290566	0.655297	0.569880	0.151844	0.131046	0.270232	0.103029	0.442183	0.168357	0.425693	0.554734	0.174515	0.275717	0.086965	0.190297	0.129867	0.104193	0.569105	0.528344	0.295766	0.136968	0.259667	0.724466	0.364134	0.135689	0.519073	0.649384	0.121112	0.085050	0.298409	0.177828	0.701583	0.384919	0.323568	0.488572	0.145622	0.170062	0.372951	0.269334	0.531631	0.187751	0.266404	0.383894	0.130375	0.080049	0.455101	0.393026	0.434919	0.131690	0.361474	0.879211	0.076540	0.074992	0.408264	0.204254
95	0.400938	0.223461	0.322766	0.751216	0.220500	0.059121	0.071099	0.133659	0.505963	0.298876	0.630412	0.504338	0.154152	0.120876	0.258487	0.084268	0.526362	0.177926	0.431644	0.576388	0.156673	0.231302	0.091954	0.163717	0.125746	0.105129	0.570032	0.542812	0.274319	0.138339	0.300458	0.699127	0.451771	0.191690	0.524719	0.662892	0.098279	0.062419	0.305391	0.177684	0.716122	0.392106	0.329886	0.462886	0.142950	0.190055	0.362592	0.270488	0.530712	0.187998	0.296552	0.400358	0.124518	0.075536	0.450290	0.358464	0.510015	0.155604	0.359707	0.885886	0.077264	0.105575	0.390443	0.207345
96	0.370836	0.200919	0.250325	0.717373	0.218503	0.058168	0.071043	0.128354	0.601288	0.308059	0.588534	0.461211	0.157367	0.101625	0.235399	0.105507	0.539132	0.178433	0.463875	0.573110	0.106269	0.167131	0.096433	0.124455	0.128101	0.082680	0.565078	0.552744	0.244063	0.137776	0.303236	0.626818	0.493230	0.219374	0.525980	0.676403	0.080353	0.068331	0.305043	0.173957	0.722213	0.402088	0.332730	0.533318	0.148430	0.224585	0.332315	0.253721	0.525210	0.186687	0.283905	0.393476	0.121267	0.075332	0.403899	0.354193	0.517969	0.154392	0.361076	0.852055	0.090311	0.114141	0.392408	0.211443
97	0.366338	0.200988	0.249938	0.579679	0.222274	0.060052	0.082056	0.128492	0.623673	0.305536	0.542829	0.433536	0.158407	0.086287	0.204724	0.118456	0.553738	0.199174	0.502294	0.580885	0.064245	0.067657	0.139721	0.116928	0.129519	0.085336	0.531383	0.569171	0.223932	0.127578	0.299161	0.444952	0.482166	0.222402	0.522747	0.708431	0.089087	0.072796	0.300398	0.171071	0.700629	0.406383	0.405815	0.583507	0.147749	0.227895	0.303840	0.220352	0.506619	0.185077	0.277808	0.349839	0.120487	0.076234	0.347323	0.326247	0.521379	0.155019	0.362603	0.839713	0.087617	0.118081	0.379290	0.212791
98	0.365319	0.197758	0.253849	0.462668	0.222477	0.061564	0.094486	0.131644	0.615958	0.298707	0.547702	0.424113	0.153582	0.069655	0.200276	0.126039	0.625443	0.237421	0.507088	0.581698	0.078533	0.069666	0.198552	0.121354	0.162998	0.108828	0.533606	0.575180	0.216976	0.116514	0.300931	0.387923	0.476977	0.222504	0.493073	0.728891	0.089968	0.072629	0.290332	0.179440	0.632004	0.399781	0.417304	0.581581	0.127731	0.224563	0.303151	0.216043	0.468182	0.181144	0.277881	0.301620	0.120095	0.076303	0.340224	0.276568	0.519428	0.154630	0.366721	0.840987	0.087848	0.115570	0.355939	0.209312
99	0.367419	0.193722	0.256386	0.373927	0.239360	0.082964	0.095254	0.135017	0.618820	0.285671	0.524661	0.426288	0.150631	0.087328	0.201750	0.128251	0.684975	0.257776	0.527702	0.569216	0.071146	0.064224	0.203530	0.149158	0.236228	0.136832	0.581694	0.553607	0.217206	0.102027	0.297074	0.375519	0.496998	0.228741	0.468326	0.714279	0.090007	0.083529	0.330104	0.195767	0.568282	0.403602	0.392252	0.572189	0.114269	0.222169	0.253546	0.201019	0.464739	0.181569	0.287343	0.337284	0.119194	0.074551	0.332952	0.220556	0.512165	0.152277	0.374217	0.834102	0.083280	0.110604	0.350772	0.215991
100	0.367434	0.180299	0.235041	0.365923	0.259415	0.105300	0.097350	0.135881	0.606754	0.263661	0.396453	0.414550	0.135983	0.093072	0.204767	0.129199	0.717982	0.263191	0.549433	0.568231	0.071060	0.063015	0.249057	0.153990	0.262244	0.145100	0.648366	0.485575	0.220903	0.094760	0.298040	0.326234	0.517654	0.244915	0.469481	0.644689	0.089267	0.095896	0.367565	0.189957	0.570230	0.402488	0.404916	0.615486	0.130467	0.221816	0.167141	0.151778	0.451720	0.178717	0.305067	0.381613	0.112847	0.069809	0.332568	0.204554	0.543737	0.157297	0.379755	0.805698	0.083638	0.110428	0.341348	0.234648
101	0.352342	0.161563	0.213740	0.355612	0.263564	0.118214	0.100677	0.131518	0.593042	0.255999	0.233296	0.365026	0.108529	0.109090	0.204276	0.132636	0.729492	0.262922	0.555881	0.577605	0.070057	0.060609	0.298546	0.199779	0.268305	0.147163	0.670878	0.467093	0.219424	0.095903	0.297839	0.294226	0.518863	0.239686	0.472305	0.547139	0.089661	0.102554	0.342650	0.176413	0.568223	0.361030	0.425106	0.792582	0.122779	0.208570	0.120670	0.113563	0.310848	0.147058	0.315890	0.385002	0.096934	0.060801	0.302038	0.202451	0.589802	0.171751	0.384810	0.774551	0.091018	0.118304	0.299727	0.233614
