	332_At_T1_sh_L_ND_02.c3d	332_At_T1_sh_L_ND_02.c3d	332_At_T1_sh_L_ND_02.c3d	332_At_T1_sh_L_ND_02.c3d	332_At_T1_sh_L_ND_02.c3d	332_At_T1_sh_L_ND_02.c3d	332_At_T1_sh_L_ND_02.c3d	332_At_T1_sh_L_ND_02.c3d	332_At_T1_sh_L_ND_03.c3d	332_At_T1_sh_L_ND_03.c3d	332_At_T1_sh_L_ND_03.c3d	332_At_T1_sh_L_ND_03.c3d	332_At_T1_sh_L_ND_03.c3d	332_At_T1_sh_L_ND_03.c3d	332_At_T1_sh_L_ND_03.c3d	332_At_T1_sh_L_ND_03.c3d	332_At_T1_sh_L_ND_06.c3d	332_At_T1_sh_L_ND_06.c3d	332_At_T1_sh_L_ND_06.c3d	332_At_T1_sh_L_ND_06.c3d	332_At_T1_sh_L_ND_06.c3d	332_At_T1_sh_L_ND_06.c3d	332_At_T1_sh_L_ND_06.c3d	332_At_T1_sh_L_ND_06.c3d	332_At_T1_sh_L_ND_07.c3d	332_At_T1_sh_L_ND_07.c3d	332_At_T1_sh_L_ND_07.c3d	332_At_T1_sh_L_ND_07.c3d	332_At_T1_sh_L_ND_07.c3d	332_At_T1_sh_L_ND_07.c3d	332_At_T1_sh_L_ND_07.c3d	332_At_T1_sh_L_ND_07.c3d	332_At_T1_sh_L_ND_08.c3d	332_At_T1_sh_L_ND_08.c3d	332_At_T1_sh_L_ND_08.c3d	332_At_T1_sh_L_ND_08.c3d	332_At_T1_sh_L_ND_08.c3d	332_At_T1_sh_L_ND_08.c3d	332_At_T1_sh_L_ND_08.c3d	332_At_T1_sh_L_ND_08.c3d	332_At_T1_sh_L_ND_09.c3d	332_At_T1_sh_L_ND_09.c3d	332_At_T1_sh_L_ND_09.c3d	332_At_T1_sh_L_ND_09.c3d	332_At_T1_sh_L_ND_09.c3d	332_At_T1_sh_L_ND_09.c3d	332_At_T1_sh_L_ND_09.c3d	332_At_T1_sh_L_ND_09.c3d
	Biceps femoris_lat	Semitendinosus_lat	Vastus lateralis_lat	Vastus medialis_lat	Biceps femoris_med	Semitendinosus_med	Vastus lateralis_med	Vastus medialis_med	Biceps femoris_lat	Semitendinosus_lat	Vastus lateralis_lat	Vastus medialis_lat	Biceps femoris_med	Semitendinosus_med	Vastus lateralis_med	Vastus medialis_med	Biceps femoris_lat	Semitendinosus_lat	Vastus lateralis_lat	Vastus medialis_lat	Biceps femoris_med	Semitendinosus_med	Vastus lateralis_med	Vastus medialis_med	Biceps femoris_lat	Semitendinosus_lat	Vastus lateralis_lat	Vastus medialis_lat	Biceps femoris_med	Semitendinosus_med	Vastus lateralis_med	Vastus medialis_med	Biceps femoris_lat	Semitendinosus_lat	Vastus lateralis_lat	Vastus medialis_lat	Biceps femoris_med	Semitendinosus_med	Vastus lateralis_med	Vastus medialis_med	Biceps femoris_lat	Semitendinosus_lat	Vastus lateralis_lat	Vastus medialis_lat	Biceps femoris_med	Semitendinosus_med	Vastus lateralis_med	Vastus medialis_med
	P2D	P2D	P2D	P2D	P2D	P2D	P2D	P2D	P2D	P2D	P2D	P2D	P2D	P2D	P2D	P2D	P2D	P2D	P2D	P2D	P2D	P2D	P2D	P2D	P2D	P2D	P2D	P2D	P2D	P2D	P2D	P2D	P2D	P2D	P2D	P2D	P2D	P2D	P2D	P2D	P2D	P2D	P2D	P2D	P2D	P2D	P2D	P2D
	EMG_lat	EMG_lat	EMG_lat	EMG_lat	EMG_med	EMG_med	EMG_med	EMG_med	EMG_lat	EMG_lat	EMG_lat	EMG_lat	EMG_med	EMG_med	EMG_med	EMG_med	EMG_lat	EMG_lat	EMG_lat	EMG_lat	EMG_med	EMG_med	EMG_med	EMG_med	EMG_lat	EMG_lat	EMG_lat	EMG_lat	EMG_med	EMG_med	EMG_med	EMG_med	EMG_lat	EMG_lat	EMG_lat	EMG_lat	EMG_med	EMG_med	EMG_med	EMG_med	EMG_lat	EMG_lat	EMG_lat	EMG_lat	EMG_med	EMG_med	EMG_med	EMG_med
ITEM	Y	Y	Y	Y	Y	Y	Y	Y	Y	Y	Y	Y	Y	Y	Y	Y	Y	Y	Y	Y	Y	Y	Y	Y	Y	Y	Y	Y	Y	Y	Y	Y	Y	Y	Y	Y	Y	Y	Y	Y	Y	Y	Y	Y	Y	Y	Y	Y
1	0.154950	0.090961	0.315016	0.262970	0.181525	0.298270	0.273412	0.246193	0.478917	0.323486	0.228258	0.151118	0.168519	0.630207	0.210154	0.271668	0.412359	0.389851	0.261059	0.224777	0.163103	0.273571	0.203327	0.343075	0.075157	0.272849	0.209070	0.172509	0.276735	0.649646	0.206434	0.320805	0.234740	0.285259	0.327129	0.126560	0.210541	0.477914	0.116608	0.229477	0.150992	0.292171	0.178298	0.140911	0.179843	0.441589	0.110226	0.210075
2	0.117120	0.088134	0.330959	0.292665	0.180532	0.300734	0.250586	0.212862	0.477214	0.297123	0.221825	0.154704	0.141971	0.519945	0.214885	0.292616	0.382462	0.380561	0.259508	0.219243	0.138466	0.311884	0.213276	0.373189	0.086722	0.185120	0.242594	0.172789	0.237922	0.578656	0.236816	0.318681	0.231908	0.301701	0.294775	0.084992	0.203992	0.479559	0.138304	0.241256	0.124397	0.239082	0.187542	0.164663	0.182337	0.444003	0.106287	0.220752
3	0.099089	0.087360	0.358155	0.300638	0.178801	0.307200	0.244910	0.211215	0.407536	0.282999	0.214024	0.146281	0.174003	0.517172	0.210154	0.329042	0.377954	0.381755	0.256969	0.217977	0.166789	0.371553	0.241778	0.374586	0.122415	0.216628	0.233944	0.171521	0.231469	0.500431	0.333771	0.323553	0.234938	0.301055	0.212124	0.094510	0.174282	0.480970	0.137270	0.220907	0.116135	0.223469	0.209323	0.168556	0.175931	0.430104	0.098070	0.213728
4	0.117790	0.108021	0.352191	0.311723	0.177088	0.291685	0.235991	0.229695	0.372679	0.276554	0.182595	0.151190	0.210473	0.515387	0.266570	0.370413	0.362186	0.357574	0.184120	0.211057	0.164380	0.374783	0.240930	0.378377	0.147816	0.293367	0.229555	0.179675	0.179180	0.459048	0.344221	0.323534	0.224106	0.296770	0.191749	0.132433	0.192375	0.527115	0.134201	0.207752	0.125153	0.225547	0.209923	0.168734	0.173905	0.437889	0.099233	0.259419
5	0.148419	0.237902	0.324637	0.313208	0.179312	0.292919	0.218061	0.199054	0.289790	0.271423	0.191551	0.166555	0.209412	0.509246	0.423271	0.443950	0.330948	0.391815	0.172013	0.194455	0.160040	0.373459	0.247805	0.378366	0.150012	0.329577	0.235335	0.172154	0.151404	0.324806	0.347799	0.324543	0.218337	0.255723	0.195491	0.136348	0.219831	0.577976	0.218807	0.359437	0.117938	0.226056	0.211672	0.197291	0.180266	0.451168	0.131676	0.266652
6	0.153338	0.275056	0.292307	0.316571	0.150759	0.271036	0.205824	0.203926	0.181213	0.218542	0.210881	0.202391	0.218204	0.556188	0.437347	0.443814	0.164425	0.335683	0.179015	0.195520	0.163872	0.442199	0.314400	0.376764	0.154967	0.338860	0.238065	0.170452	0.099731	0.262527	0.338448	0.327777	0.230080	0.280128	0.184400	0.142956	0.210240	0.598910	0.306503	0.484519	0.122770	0.218196	0.199271	0.198192	0.313639	0.535963	0.326332	0.322236
7	0.164794	0.295720	0.291874	0.341671	0.119343	0.226601	0.229298	0.254684	0.159664	0.216614	0.176949	0.205825	0.230969	0.568380	0.477973	0.463974	0.133738	0.337114	0.164085	0.178840	0.186324	0.578841	0.345956	0.321781	0.167572	0.347330	0.221762	0.175597	0.109484	0.236702	0.352346	0.331201	0.222888	0.275661	0.175162	0.142493	0.220922	0.623516	0.360353	0.555577	0.113281	0.192658	0.278988	0.455570	0.319537	0.487739	0.515833	0.342175
8	0.181027	0.307166	0.290678	0.374153	0.116744	0.202689	0.298590	0.334012	0.154196	0.209936	0.183205	0.192361	0.240254	0.564499	0.513137	0.496310	0.151368	0.369057	0.197808	0.192939	0.217948	0.660143	0.338202	0.203697	0.179554	0.357453	0.206735	0.249312	0.092313	0.183377	0.363086	0.365335	0.216955	0.255947	0.197981	0.142048	0.214062	0.558466	0.429545	0.581643	0.123794	0.208235	0.412028	0.489263	0.316478	0.425080	0.592740	0.403361
9	0.211050	0.370235	0.298966	0.439430	0.116451	0.168147	0.318127	0.383898	0.165415	0.237049	0.211492	0.216367	0.262181	0.530533	0.596302	0.522696	0.162287	0.397120	0.220249	0.187634	0.232070	0.725474	0.399763	0.252950	0.183837	0.370980	0.188664	0.314889	0.093544	0.185627	0.366941	0.352144	0.215160	0.242391	0.216715	0.203430	0.215963	0.545742	0.472885	0.815773	0.125085	0.193023	0.436045	0.513480	0.310899	0.426967	0.593209	0.494228
10	0.209287	0.371397	0.299095	0.425630	0.142762	0.172579	0.344021	0.428202	0.170451	0.246918	0.236962	0.210015	0.246389	0.435718	0.614591	0.495765	0.161946	0.400573	0.230766	0.197823	0.214771	0.691138	0.509874	0.409221	0.191978	0.377470	0.188554	0.318219	0.089484	0.193925	0.381056	0.361137	0.211477	0.232061	0.314648	0.252544	0.216565	0.547567	0.500958	0.975114	0.126239	0.164209	0.463692	0.570562	0.323091	0.425685	0.728242	0.600172
11	0.209647	0.371562	0.267403	0.453454	0.146883	0.164753	0.396208	0.445475	0.169477	0.248206	0.240843	0.212322	0.211977	0.356004	0.630016	0.469787	0.159674	0.396061	0.301447	0.216870	0.209457	0.683659	0.559101	0.418843	0.188186	0.378287	0.221195	0.331317	0.099969	0.183356	0.390991	0.395860	0.215185	0.233643	0.406103	0.335610	0.210344	0.537949	0.523030	1.039105	0.113543	0.152785	0.463847	0.577730	0.338268	0.424319	0.774723	0.610676
12	0.198473	0.362588	0.288712	0.441225	0.152501	0.173403	0.407208	0.432963	0.168116	0.248421	0.245981	0.211049	0.210167	0.349919	0.534445	0.399179	0.139392	0.356048	0.368649	0.230696	0.208007	0.680814	0.560755	0.421668	0.172298	0.359165	0.319091	0.328730	0.105645	0.156426	0.397263	0.407589	0.211403	0.213879	0.446268	0.363616	0.210186	0.537769	0.661725	1.069168	0.113513	0.152717	0.472694	0.573199	0.353091	0.425989	0.777129	0.595258
13	0.173314	0.282556	0.288935	0.431087	0.149951	0.200358	0.416035	0.441345	0.153965	0.235097	0.278345	0.221337	0.199195	0.239728	0.512789	0.393478	0.118529	0.270448	0.368728	0.227159	0.215101	0.694900	0.542885	0.422183	0.150344	0.294596	0.345826	0.403555	0.108469	0.146968	0.419063	0.412004	0.173446	0.132639	0.522592	0.479705	0.204166	0.535273	0.690226	1.073533	0.115198	0.169003	0.502216	0.576027	0.300505	0.379592	0.757096	0.568726
14	0.165553	0.254289	0.273965	0.432826	0.152549	0.220504	0.557289	0.454713	0.130859	0.179191	0.284207	0.186636	0.186682	0.217747	0.467257	0.323914	0.113158	0.260482	0.359167	0.231747	0.233873	0.623236	0.496580	0.421591	0.156521	0.242074	0.393374	0.558464	0.109751	0.143025	0.409560	0.407445	0.155833	0.107729	0.536113	0.570272	0.168853	0.443328	0.690001	1.059066	0.119310	0.167843	0.450997	0.400411	0.230128	0.279695	0.601986	0.559199
15	0.151608	0.235335	0.280970	0.414726	0.156536	0.220613	0.584055	0.466606	0.131033	0.147014	0.320046	0.188750	0.180608	0.315162	0.433845	0.294654	0.108457	0.234322	0.356941	0.227930	0.236119	0.616485	0.477300	0.425841	0.161588	0.229207	0.423917	0.595661	0.085626	0.116995	0.394497	0.378078	0.130130	0.137323	0.548788	0.608424	0.139057	0.333236	0.648908	1.024255	0.097475	0.131299	0.342387	0.398129	0.211476	0.293028	0.543662	0.552624
16	0.123999	0.214268	0.328694	0.383319	0.154690	0.221326	0.566773	0.418151	0.125332	0.142289	0.319033	0.214508	0.137554	0.324785	0.296213	0.194691	0.081331	0.186925	0.328345	0.201080	0.220030	0.452389	0.430126	0.399126	0.153075	0.205028	0.444214	0.600870	0.084982	0.114253	0.385519	0.301094	0.140759	0.185400	0.545421	0.611028	0.127203	0.266723	0.631092	0.999820	0.084998	0.117087	0.304839	0.355311	0.209923	0.279286	0.530488	0.494511
17	0.106394	0.105746	0.288007	0.310159	0.153829	0.221455	0.526265	0.392761	0.096473	0.099286	0.312848	0.197620	0.120661	0.320620	0.278392	0.195648	0.096267	0.198171	0.312353	0.206951	0.207598	0.455288	0.350804	0.230276	0.137821	0.189653	0.450606	0.577697	0.087821	0.115038	0.396099	0.264524	0.145676	0.215511	0.527418	0.585803	0.085631	0.182965	0.585030	0.983631	0.132456	0.153749	0.272516	0.289474	0.200164	0.276668	0.497202	0.368748
18	0.120829	0.148479	0.269456	0.297111	0.128606	0.196897	0.508014	0.318402	0.074714	0.061575	0.296183	0.197390	0.110936	0.311932	0.222592	0.162093	0.139714	0.371134	0.300788	0.210590	0.202482	0.453804	0.159425	0.159167	0.131594	0.157700	0.452013	0.551901	0.083743	0.148679	0.417459	0.243163	0.141496	0.210620	0.457811	0.574325	0.091816	0.187613	0.575332	0.942170	0.141276	0.183074	0.298963	0.292561	0.199931	0.315725	0.232960	0.274934
19	0.123139	0.174894	0.266240	0.282730	0.128102	0.227424	0.488759	0.292158	0.071940	0.052930	0.291748	0.198424	0.085697	0.294290	0.194085	0.113009	0.147066	0.378096	0.251776	0.189078	0.208719	0.449686	0.174022	0.157024	0.119467	0.124843	0.454831	0.559911	0.112138	0.192966	0.348606	0.201876	0.126484	0.212143	0.405709	0.524077	0.106017	0.230025	0.551415	0.712734	0.142391	0.182369	0.304583	0.283666	0.216609	0.362445	0.199010	0.277752
20	0.124586	0.211833	0.237355	0.283292	0.123041	0.236128	0.455413	0.253606	0.076336	0.061406	0.291768	0.219935	0.088676	0.297054	0.196486	0.110530	0.147682	0.381982	0.112751	0.172417	0.212309	0.429822	0.194840	0.152913	0.115916	0.114763	0.455055	0.568004	0.104879	0.194121	0.299134	0.151592	0.121649	0.213455	0.374322	0.533912	0.123079	0.286195	0.536593	0.560203	0.138422	0.166111	0.257497	0.264598	0.202291	0.333336	0.196871	0.278898
21	0.158777	0.242227	0.277603	0.293405	0.114407	0.208538	0.460994	0.238979	0.081267	0.180678	0.253990	0.200877	0.087281	0.297292	0.214316	0.144022	0.158153	0.391523	0.114936	0.196182	0.194507	0.363027	0.200218	0.155458	0.107825	0.105309	0.413015	0.564628	0.107817	0.196320	0.241456	0.142194	0.124746	0.218562	0.330151	0.475558	0.128876	0.302288	0.456320	0.480251	0.133260	0.160364	0.258076	0.260977	0.197124	0.318120	0.196540	0.284203
22	0.176672	0.244114	0.281715	0.298770	0.108080	0.207491	0.441834	0.228900	0.082470	0.272726	0.261644	0.248267	0.084405	0.173887	0.259296	0.193674	0.170560	0.419461	0.140076	0.195202	0.150129	0.306473	0.196904	0.141133	0.105715	0.103683	0.389259	0.518343	0.105260	0.199261	0.241271	0.167329	0.129665	0.216015	0.320324	0.391757	0.128283	0.310518	0.276730	0.433431	0.131562	0.153548	0.279176	0.205827	0.185119	0.318103	0.204032	0.341288
23	0.208240	0.303175	0.289982	0.267778	0.105736	0.183237	0.241324	0.194770	0.087459	0.289267	0.218894	0.284724	0.074618	0.134237	0.253702	0.183309	0.184034	0.522458	0.153039	0.179343	0.127044	0.256401	0.196681	0.146425	0.091474	0.090994	0.342833	0.339292	0.109631	0.213379	0.242974	0.191395	0.114825	0.219456	0.312830	0.381182	0.130107	0.310928	0.255186	0.478782	0.128295	0.152306	0.265329	0.250971	0.184808	0.306605	0.177516	0.388044
24	0.211199	0.304546	0.226935	0.283894	0.116788	0.195156	0.206500	0.181112	0.103297	0.328513	0.215946	0.274135	0.075653	0.143105	0.233683	0.249841	0.184239	0.527495	0.220944	0.176190	0.133163	0.251686	0.201216	0.151511	0.073767	0.077413	0.301230	0.278212	0.112214	0.213906	0.256256	0.191259	0.095756	0.176232	0.307376	0.380460	0.130646	0.315967	0.272757	0.474948	0.085761	0.196937	0.238697	0.258318	0.185069	0.303129	0.165749	0.476805
25	0.196592	0.288442	0.236540	0.325307	0.140739	0.220432	0.222960	0.221209	0.112538	0.347240	0.230309	0.305398	0.069234	0.142551	0.252670	0.372332	0.168420	0.513684	0.222811	0.188138	0.139969	0.243758	0.201796	0.178234	0.082384	0.082622	0.260213	0.281730	0.112051	0.213878	0.271954	0.203877	0.098984	0.157528	0.323130	0.385016	0.128960	0.319916	0.282577	0.463387	0.111944	0.259911	0.235469	0.259871	0.183637	0.283931	0.179606	0.483251
26	0.196652	0.273127	0.247010	0.302537	0.144303	0.224066	0.265862	0.236727	0.120004	0.384619	0.233309	0.318936	0.077091	0.180462	0.278401	0.444500	0.144030	0.394403	0.226167	0.169993	0.143484	0.284559	0.249336	0.265702	0.080478	0.091393	0.247279	0.285184	0.111394	0.188311	0.228795	0.203462	0.095894	0.154158	0.331291	0.392019	0.126530	0.332145	0.326014	0.448663	0.127532	0.297781	0.306389	0.288992	0.105904	0.201619	0.245590	0.704128
27	0.195416	0.253372	0.254676	0.293894	0.151818	0.279631	0.283961	0.232603	0.128646	0.384766	0.242382	0.323246	0.081706	0.183937	0.302819	0.587058	0.192278	0.493513	0.228114	0.169800	0.164600	0.307936	0.277964	0.279330	0.076194	0.108903	0.247087	0.272333	0.081842	0.147188	0.203394	0.206403	0.093383	0.147975	0.316207	0.358208	0.125388	0.318584	0.305958	0.417735	0.122321	0.301268	0.428513	0.297594	0.069052	0.167538	0.316418	0.766054
28	0.187731	0.226997	0.255215	0.305448	0.140185	0.254969	0.285065	0.228999	0.140976	0.385639	0.243136	0.347049	0.122526	0.222484	0.340539	0.593976	0.203574	0.525301	0.216151	0.165215	0.182480	0.329802	0.291393	0.281140	0.073415	0.111494	0.242049	0.238910	0.067542	0.114119	0.206068	0.234677	0.090891	0.147951	0.240213	0.298887	0.119855	0.318330	0.322813	0.497925	0.127970	0.312128	0.440793	0.295456	0.071467	0.171671	0.345942	0.887879
29	0.162556	0.191062	0.220112	0.290738	0.141451	0.252623	0.306183	0.228553	0.147839	0.406149	0.239158	0.353874	0.124957	0.218771	0.314764	0.666377	0.207943	0.586441	0.212400	0.145605	0.184302	0.345664	0.415890	0.301955	0.073116	0.110233	0.191412	0.210583	0.065702	0.110639	0.277946	0.258056	0.090120	0.174111	0.228971	0.209127	0.106674	0.265807	0.327478	0.676711	0.135176	0.312891	0.441730	0.295018	0.086853	0.185742	0.465615	0.922288
30	0.137362	0.182825	0.219766	0.285558	0.178420	0.296228	0.287433	0.245680	0.184342	0.392984	0.221055	0.324680	0.147435	0.236757	0.431163	0.869438	0.201460	0.579550	0.195725	0.174032	0.176200	0.346351	0.446125	0.309101	0.083469	0.112595	0.132587	0.209646	0.065953	0.104136	0.333723	0.282679	0.084800	0.197184	0.205671	0.164611	0.119397	0.258779	0.335052	0.712761	0.146909	0.336327	0.486945	0.259171	0.086412	0.198002	0.518991	0.895514
31	0.092775	0.062352	0.199159	0.291141	0.213784	0.351922	0.287058	0.239733	0.184354	0.386578	0.204336	0.291160	0.147350	0.292569	0.477265	0.942996	0.186847	0.480944	0.190687	0.182580	0.172859	0.351496	0.450376	0.296321	0.101381	0.131916	0.184884	0.216460	0.060676	0.080294	0.375055	0.395684	0.094679	0.212615	0.192538	0.144342	0.124165	0.257463	0.343441	0.815127	0.158148	0.324688	0.521592	0.240919	0.076339	0.183067	0.526823	0.861675
32	0.079112	0.059623	0.187880	0.224237	0.237884	0.365434	0.281099	0.250769	0.176701	0.361963	0.209814	0.368919	0.168026	0.311674	0.459960	0.913872	0.190770	0.477620	0.111387	0.182182	0.169222	0.355224	0.492266	0.277578	0.111870	0.136879	0.215704	0.235464	0.058397	0.085047	0.402562	0.424803	0.099185	0.242865	0.196259	0.210471	0.124944	0.259570	0.343899	0.802839	0.204463	0.533655	0.510723	0.225962	0.081506	0.164189	0.529695	0.856122
33	0.077419	0.070914	0.189448	0.200158	0.245435	0.399069	0.288579	0.230149	0.176792	0.344872	0.216909	0.497180	0.178219	0.330685	0.442284	0.869685	0.191218	0.472604	0.131677	0.166890	0.185726	0.410796	0.497955	0.229076	0.118485	0.155810	0.357705	0.221215	0.063566	0.096607	0.386280	0.419510	0.094926	0.257230	0.167256	0.244891	0.128652	0.253089	0.339583	0.783238	0.275097	0.603049	0.448096	0.178092	0.085740	0.169808	0.519920	0.784096
34	0.063080	0.082771	0.218471	0.210387	0.241424	0.422508	0.269414	0.205140	0.187824	0.303601	0.388830	0.559838	0.219957	0.464577	0.424585	0.791579	0.188533	0.473492	0.158673	0.212382	0.182990	0.415948	0.485718	0.197732	0.126007	0.160913	0.433514	0.289378	0.063416	0.097947	0.380032	0.428339	0.093873	0.267260	0.212387	0.248683	0.132736	0.254206	0.339400	0.780947	0.302867	0.742233	0.337922	0.166966	0.102291	0.226471	0.469771	0.610335
35	0.066186	0.158908	0.281620	0.214486	0.237403	0.433997	0.213407	0.221472	0.197035	0.332893	0.450663	0.579476	0.204232	0.445556	0.398032	0.773402	0.146441	0.382170	0.210472	0.219259	0.214865	0.510912	0.470770	0.196119	0.140463	0.160309	0.436423	0.405739	0.065245	0.096292	0.466510	0.469758	0.121289	0.291771	0.278093	0.293423	0.136034	0.266232	0.323114	0.762388	0.316655	0.742226	0.328393	0.197583	0.103972	0.238076	0.445202	0.492303
36	0.093344	0.214576	0.294501	0.221437	0.229898	0.403609	0.362151	0.219378	0.190605	0.338205	0.503520	0.601751	0.206178	0.445372	0.406400	0.716194	0.142185	0.325076	0.223499	0.266758	0.317754	0.680704	0.460932	0.171411	0.145104	0.165795	0.478331	0.445661	0.070758	0.099142	0.573240	0.466866	0.205572	0.382696	0.342923	0.349490	0.136635	0.263276	0.327231	0.774142	0.316901	0.749085	0.304056	0.203932	0.104288	0.252172	0.423158	0.290842
37	0.096724	0.253119	0.304455	0.267204	0.234023	0.407089	0.509502	0.257516	0.200722	0.302453	0.521829	0.641636	0.195032	0.443788	0.306741	0.482290	0.140721	0.174221	0.260364	0.340385	0.369172	0.732933	0.450419	0.158137	0.149265	0.174041	0.496282	0.451282	0.083591	0.102325	0.564467	0.500220	0.226645	0.376880	0.484765	0.378289	0.135899	0.261716	0.355141	0.775727	0.312081	0.739120	0.248657	0.184802	0.095386	0.268407	0.218814	0.274704
38	0.104086	0.274333	0.398076	0.282742	0.239073	0.408020	0.489866	0.264541	0.195565	0.264225	0.531882	0.647033	0.221802	0.476112	0.222015	0.197997	0.144042	0.164467	0.391638	0.381640	0.368863	0.807480	0.445230	0.170254	0.153363	0.178733	0.499866	0.455446	0.099480	0.104105	0.530980	0.526125	0.250902	0.387737	0.531158	0.392900	0.132273	0.260515	0.330525	0.640743	0.300484	0.718939	0.191884	0.167694	0.096065	0.269334	0.207472	0.232813
39	0.108404	0.277861	0.429857	0.294700	0.213819	0.398584	0.502516	0.262571	0.192275	0.295610	0.540203	0.653918	0.229180	0.527721	0.240141	0.203050	0.182637	0.364491	0.402781	0.402600	0.407874	0.849687	0.392965	0.173637	0.150365	0.178650	0.519228	0.466671	0.100758	0.096003	0.508996	0.458871	0.249328	0.377123	0.554617	0.394186	0.109818	0.219983	0.375486	0.559420	0.263685	0.569283	0.197879	0.235825	0.093872	0.270527	0.173964	0.117028
40	0.113589	0.282175	0.449206	0.298438	0.202312	0.405928	0.598859	0.273627	0.197601	0.319636	0.542462	0.640145	0.217048	0.559303	0.272928	0.240821	0.187493	0.452074	0.399883	0.429165	0.406790	0.870362	0.360946	0.180048	0.138177	0.164041	0.505744	0.476686	0.115614	0.089839	0.477885	0.407455	0.285838	0.380776	0.556392	0.365245	0.092487	0.202597	0.365103	0.356798	0.182470	0.493631	0.200154	0.667634	0.088944	0.266847	0.171562	0.123979
41	0.142237	0.325365	0.441183	0.285199	0.174705	0.391778	0.626227	0.263017	0.194869	0.330492	0.538468	0.531116	0.248874	0.626179	0.271626	0.254517	0.213167	0.484061	0.395629	0.434668	0.403681	0.867497	0.343891	0.184212	0.132490	0.185773	0.490213	0.467105	0.122710	0.070653	0.480610	0.410265	0.314940	0.412427	0.553720	0.346921	0.106550	0.205108	0.362777	0.272522	0.157136	0.325752	0.211882	0.794773	0.089523	0.224280	0.175978	0.183417
42	0.149361	0.349561	0.422798	0.277071	0.233551	0.592537	0.634333	0.263913	0.183972	0.334792	0.444173	0.441795	0.245653	0.629859	0.267198	0.251767	0.227432	0.483403	0.389276	0.486335	0.413805	0.841739	0.357807	0.250997	0.144976	0.276760	0.413012	0.462607	0.192111	0.088383	0.479954	0.414587	0.347670	0.459025	0.531308	0.347160	0.120682	0.240733	0.377886	0.276382	0.143703	0.341896	0.225444	0.814448	0.092366	0.269087	0.192698	0.215658
43	0.154883	0.379195	0.370964	0.247396	0.254878	0.577415	0.690547	0.249480	0.169548	0.342529	0.359014	0.416674	0.241954	0.635361	0.275088	0.256387	0.221911	0.493655	0.364822	0.486510	0.311322	0.703266	0.293857	0.276487	0.146629	0.301188	0.328286	0.416355	0.229424	0.098317	0.449171	0.392661	0.329428	0.449082	0.493471	0.356514	0.128323	0.266576	0.388936	0.282078	0.139628	0.327141	0.273304	0.919366	0.092080	0.253965	0.181838	0.248769
44	0.157588	0.394950	0.366122	0.238523	0.251596	0.565049	0.695409	0.233489	0.168232	0.348636	0.288419	0.374794	0.256770	0.659572	0.260484	0.245512	0.217622	0.508176	0.394131	0.473106	0.253119	0.644557	0.200268	0.285109	0.163500	0.409450	0.335267	0.308817	0.253074	0.112080	0.264749	0.378539	0.307712	0.399132	0.420623	0.335272	0.132421	0.289985	0.386839	0.315366	0.148858	0.328720	0.250324	0.998440	0.092410	0.263896	0.194039	0.284698
45	0.213281	0.367223	0.357535	0.231130	0.250782	0.565067	0.595190	0.222574	0.151800	0.340615	0.238051	0.296717	0.236332	0.627673	0.254849	0.237482	0.218351	0.521416	0.393892	0.429231	0.246982	0.542616	0.200083	0.319315	0.158903	0.404790	0.276583	0.242150	0.311208	0.124341	0.230214	0.361328	0.299453	0.408340	0.341014	0.356022	0.132215	0.266742	0.364270	0.283298	0.155572	0.324463	0.265785	1.025662	0.091425	0.254811	0.270185	0.286533
46	0.261779	0.413609	0.241979	0.246947	0.245310	0.561807	0.523784	0.180942	0.106465	0.317564	0.207844	0.289470	0.215617	0.565654	0.272564	0.202138	0.229210	0.567257	0.253754	0.378593	0.190498	0.526822	0.231036	0.326602	0.157846	0.416969	0.240291	0.233042	0.321474	0.148857	0.239446	0.275595	0.292509	0.424750	0.283297	0.388958	0.153602	0.267015	0.317036	0.248716	0.145463	0.290768	0.265014	1.009087	0.091810	0.246994	0.265814	0.294927
47	0.267625	0.468301	0.182167	0.243255	0.241557	0.566788	0.526061	0.185859	0.101661	0.327522	0.218188	0.341623	0.211326	0.512783	0.283251	0.158504	0.205865	0.522972	0.233520	0.387467	0.248363	0.769199	0.225225	0.400255	0.156662	0.420764	0.230164	0.214282	0.327572	0.163804	0.254679	0.249534	0.293548	0.416591	0.244311	0.417784	0.157545	0.329349	0.301540	0.250059	0.128176	0.219619	0.263339	0.789865	0.094743	0.246395	0.291061	0.329279
48	0.264854	0.469997	0.142701	0.308866	0.228124	0.547046	0.497350	0.167597	0.089035	0.374122	0.316376	0.320584	0.111763	0.288980	0.294788	0.121293	0.223140	0.549545	0.236801	0.386752	0.256730	0.783050	0.230549	0.436281	0.157370	0.421760	0.189702	0.185575	0.328121	0.162958	0.332412	0.260528	0.236818	0.391252	0.245390	0.426760	0.161311	0.367772	0.256716	0.238659	0.120593	0.164535	0.286264	0.682371	0.093798	0.248170	0.289255	0.386294
49	0.245269	0.436830	0.141196	0.316971	0.229327	0.521752	0.389075	0.158658	0.145764	0.457896	0.353135	0.304402	0.111872	0.255857	0.328300	0.123215	0.205263	0.512461	0.258267	0.437595	0.230254	0.734521	0.243822	0.422873	0.157493	0.433869	0.192463	0.153952	0.324297	0.163590	0.376531	0.265453	0.215680	0.367374	0.250830	0.534998	0.174305	0.520204	0.213361	0.233414	0.091051	0.091579	0.275077	0.651451	0.080183	0.238474	0.283885	0.364142
50	0.245534	0.431124	0.167203	0.352340	0.186807	0.450180	0.386425	0.160198	0.142439	0.458741	0.355725	0.301446	0.118302	0.242403	0.334049	0.102365	0.182758	0.520435	0.269711	0.399575	0.229771	0.735352	0.256808	0.395148	0.159433	0.425908	0.202929	0.158476	0.297168	0.157100	0.417922	0.299189	0.156700	0.268192	0.258194	0.561958	0.202301	0.524308	0.213529	0.236852	0.088711	0.089471	0.229327	0.517319	0.105528	0.192442	0.306352	0.421277
51	0.238980	0.407376	0.179232	0.428442	0.123696	0.230178	0.337894	0.139110	0.137053	0.437130	0.384388	0.304226	0.090277	0.172562	0.325751	0.108264	0.180411	0.515462	0.264320	0.389547	0.227541	0.713052	0.281114	0.385582	0.142990	0.366268	0.225786	0.177303	0.257920	0.151384	0.461153	0.283604	0.144058	0.257460	0.253407	0.537106	0.185168	0.542717	0.208425	0.228827	0.070670	0.116279	0.236650	0.354998	0.146084	0.169502	0.315553	0.467373
52	0.235912	0.398206	0.187958	0.430988	0.088017	0.230577	0.241550	0.157430	0.135147	0.423487	0.392170	0.354525	0.080230	0.129852	0.323201	0.136976	0.175585	0.496774	0.210878	0.383191	0.227032	0.715398	0.274087	0.360614	0.126807	0.346195	0.213961	0.197289	0.250029	0.146831	0.556899	0.363238	0.139999	0.232060	0.264851	0.520801	0.180147	0.545870	0.154932	0.224796	0.070165	0.150397	0.218443	0.278361	0.185020	0.151670	0.268524	0.475392
53	0.179383	0.395805	0.173679	0.415043	0.089128	0.257719	0.237638	0.178850	0.134548	0.417597	0.400576	0.358328	0.090528	0.124698	0.299888	0.143632	0.166224	0.484203	0.190017	0.395050	0.225776	0.702076	0.246119	0.357002	0.071119	0.193436	0.202408	0.209627	0.164161	0.129130	0.552982	0.396389	0.078811	0.134372	0.225322	0.507017	0.166679	0.522033	0.147863	0.190302	0.083619	0.164194	0.230463	0.297994	0.205718	0.150263	0.248933	0.475285
54	0.110910	0.325455	0.165179	0.399563	0.088979	0.256708	0.265342	0.221602	0.135574	0.423602	0.398670	0.363003	0.114942	0.176983	0.245342	0.137261	0.138817	0.418984	0.190551	0.399855	0.156869	0.313212	0.247551	0.353082	0.066284	0.183869	0.200710	0.201908	0.113070	0.110791	0.542669	0.391758	0.064816	0.071928	0.286195	0.467977	0.165313	0.519120	0.178459	0.162231	0.099184	0.172507	0.235892	0.307622	0.250691	0.170483	0.256273	0.453544
55	0.132103	0.302739	0.157607	0.386603	0.086447	0.255552	0.288753	0.236361	0.136578	0.399006	0.378412	0.372991	0.126432	0.237931	0.230053	0.130970	0.135197	0.356187	0.205682	0.366852	0.166773	0.235524	0.245665	0.315620	0.060312	0.138018	0.196709	0.217458	0.104898	0.076347	0.533599	0.401056	0.088793	0.128793	0.303378	0.463082	0.161328	0.545902	0.180753	0.173529	0.103216	0.234158	0.210719	0.306336	0.254375	0.187295	0.299250	0.412944
56	0.168055	0.436496	0.155478	0.334975	0.089605	0.237735	0.289525	0.231621	0.136161	0.318076	0.301458	0.400529	0.125298	0.248667	0.173741	0.127009	0.081254	0.214632	0.247780	0.346325	0.143505	0.231989	0.227269	0.320575	0.054078	0.114391	0.219591	0.359722	0.129857	0.079294	0.513101	0.396621	0.098421	0.154907	0.295831	0.449318	0.142913	0.548179	0.177515	0.303294	0.170996	0.237505	0.201553	0.309239	0.261544	0.205747	0.361715	0.380320
57	0.206937	0.664569	0.151512	0.331595	0.113801	0.222221	0.302461	0.241005	0.056151	0.153665	0.234679	0.422000	0.121437	0.280211	0.110798	0.155120	0.070439	0.134096	0.232934	0.331110	0.137350	0.246832	0.277601	0.327715	0.050261	0.113211	0.214442	0.381045	0.135469	0.077051	0.473016	0.403305	0.095484	0.160336	0.305152	0.321069	0.144627	0.510729	0.166856	0.344665	0.178313	0.274483	0.212105	0.252328	0.261499	0.205253	0.365492	0.354346
58	0.217944	0.673530	0.126939	0.280586	0.110763	0.220643	0.312501	0.262733	0.068401	0.151933	0.230033	0.421848	0.131546	0.279928	0.130553	0.175964	0.085088	0.180615	0.225245	0.336351	0.136883	0.256177	0.265853	0.343091	0.050563	0.054992	0.212373	0.473373	0.138350	0.076231	0.423452	0.395263	0.100569	0.170090	0.301553	0.298525	0.131453	0.396373	0.201915	0.354384	0.193081	0.310089	0.207542	0.283940	0.240697	0.192909	0.374970	0.265903
59	0.269739	0.679624	0.106641	0.209785	0.119067	0.282639	0.309654	0.282433	0.194100	0.611889	0.229023	0.431579	0.159101	0.288779	0.129419	0.159540	0.094154	0.208009	0.228274	0.343865	0.141912	0.250073	0.281880	0.344886	0.043605	0.065808	0.201178	0.521796	0.145762	0.072337	0.429653	0.411912	0.103610	0.210246	0.317723	0.309366	0.099458	0.343387	0.233096	0.396754	0.226187	0.365703	0.235119	0.303292	0.220547	0.187334	0.392000	0.247687
60	0.279744	0.679220	0.081156	0.199660	0.142407	0.317615	0.307345	0.286051	0.219511	0.727408	0.249796	0.402089	0.171008	0.337746	0.128737	0.154127	0.096862	0.218147	0.223626	0.342955	0.138445	0.251316	0.331488	0.338314	0.045323	0.070371	0.207263	0.524788	0.156196	0.062790	0.299233	0.361577	0.103110	0.210561	0.305872	0.301727	0.067103	0.339562	0.234847	0.464591	0.243041	0.377839	0.229365	0.287601	0.204279	0.187924	0.395655	0.267767
61	0.287161	0.708747	0.080191	0.180121	0.159045	0.329676	0.335995	0.274638	0.229440	0.760272	0.234311	0.366969	0.157771	0.325401	0.122391	0.154615	0.110078	0.254092	0.235738	0.325899	0.117247	0.217210	0.342566	0.284646	0.046032	0.071018	0.234232	0.517067	0.156846	0.064985	0.257678	0.312209	0.096689	0.220790	0.272887	0.301063	0.082355	0.287128	0.283738	0.484391	0.261698	0.524846	0.287559	0.281268	0.131257	0.174692	0.390628	0.268358
62	0.328464	0.789679	0.066706	0.170619	0.211591	0.357710	0.386479	0.258156	0.233824	0.761789	0.246732	0.361499	0.154598	0.290361	0.141621	0.193214	0.116922	0.288561	0.274539	0.313241	0.082021	0.182369	0.342840	0.239685	0.044824	0.071666	0.239754	0.507507	0.162478	0.065484	0.265769	0.371624	0.089318	0.218710	0.194341	0.305801	0.124951	0.397809	0.306436	0.496240	0.282782	0.575130	0.276982	0.272655	0.119400	0.161118	0.367986	0.266219
63	0.337237	0.834676	0.148971	0.220908	0.229332	0.434118	0.373234	0.226784	0.237552	0.770548	0.247608	0.287768	0.151796	0.272503	0.168062	0.197674	0.126071	0.292043	0.315156	0.326095	0.070665	0.172134	0.333918	0.170680	0.047289	0.076037	0.299913	0.510288	0.171224	0.083233	0.296748	0.377225	0.094027	0.238981	0.192807	0.276912	0.141853	0.428204	0.297215	0.508597	0.278463	0.702866	0.269763	0.246850	0.140273	0.140031	0.307540	0.284572
64	0.318424	0.758701	0.192385	0.290543	0.269180	0.567468	0.357632	0.230138	0.247740	0.776608	0.246944	0.252795	0.160036	0.302521	0.168972	0.181613	0.128579	0.306160	0.279738	0.319154	0.109831	0.359783	0.285338	0.216645	0.055927	0.085711	0.330637	0.507192	0.149444	0.088721	0.328215	0.370248	0.083583	0.228192	0.217471	0.269738	0.142296	0.423240	0.311528	0.502896	0.316102	0.779141	0.262466	0.242241	0.192026	0.152965	0.267839	0.337789
65	0.312425	0.626023	0.193590	0.296914	0.265711	0.565215	0.440803	0.238537	0.269639	0.786939	0.244927	0.260259	0.156438	0.313324	0.226791	0.171921	0.134458	0.326278	0.268762	0.309812	0.153400	0.508687	0.270746	0.191855	0.097444	0.195692	0.316209	0.427297	0.133995	0.089942	0.316781	0.357763	0.083521	0.228187	0.203276	0.260730	0.170608	0.392205	0.351363	0.485955	0.311671	0.808230	0.276162	0.207689	0.199614	0.150107	0.283018	0.372143
66	0.300727	0.613122	0.236638	0.319273	0.272952	0.580182	0.448270	0.212721	0.273438	0.802054	0.267267	0.450047	0.133661	0.314545	0.280425	0.182832	0.135584	0.305877	0.268642	0.269534	0.186481	0.611768	0.260032	0.179151	0.132934	0.281797	0.313643	0.448639	0.131462	0.091084	0.314215	0.333936	0.076876	0.223510	0.184401	0.222727	0.179097	0.412028	0.356700	0.403952	0.291799	0.789812	0.270543	0.178935	0.199629	0.150975	0.229783	0.337539
67	0.277363	0.614667	0.275086	0.292159	0.278196	0.583147	0.431947	0.177039	0.217396	0.609187	0.309225	0.515670	0.150017	0.338471	0.284904	0.180216	0.132094	0.279797	0.287230	0.262791	0.190526	0.615735	0.244283	0.191642	0.150504	0.338407	0.337273	0.416107	0.128070	0.090148	0.288054	0.324963	0.092530	0.250894	0.152115	0.241004	0.176285	0.425302	0.357560	0.449451	0.274198	0.785371	0.338742	0.257331	0.212427	0.151074	0.224544	0.310603
68	0.292371	0.656115	0.406702	0.339217	0.276775	0.552509	0.443955	0.152717	0.184535	0.402720	0.283400	0.510734	0.162221	0.332527	0.284011	0.179500	0.129797	0.263205	0.298173	0.278618	0.190146	0.618285	0.265540	0.225712	0.149727	0.336911	0.361967	0.353274	0.113575	0.148979	0.297385	0.324238	0.112011	0.316392	0.169736	0.243064	0.175993	0.420079	0.323234	0.498822	0.264212	0.711449	0.314560	0.407479	0.214961	0.153333	0.226866	0.354534
69	0.293529	0.635642	0.446980	0.378838	0.263765	0.525897	0.443751	0.139788	0.169520	0.341051	0.300416	0.516390	0.163791	0.352616	0.275869	0.146967	0.121622	0.237684	0.289952	0.288975	0.190379	0.620282	0.314867	0.313973	0.149141	0.336157	0.354791	0.340743	0.169961	0.426047	0.311946	0.315781	0.121575	0.336825	0.181175	0.222174	0.176746	0.421287	0.318117	0.459673	0.235145	0.650855	0.311381	0.483589	0.213546	0.148955	0.225572	0.376092
70	0.249404	0.538514	0.451360	0.382850	0.265325	0.510877	0.403698	0.161663	0.162069	0.329621	0.321132	0.533529	0.170142	0.414561	0.263090	0.136941	0.111405	0.185046	0.261203	0.337812	0.187033	0.619894	0.353492	0.356603	0.150330	0.336605	0.341887	0.336904	0.217045	0.502692	0.311963	0.227862	0.135713	0.401847	0.181153	0.213276	0.192982	0.427749	0.307147	0.398992	0.196200	0.516280	0.323395	0.497068	0.211306	0.158938	0.225563	0.373265
71	0.276035	0.500270	0.427050	0.352596	0.236577	0.491776	0.370200	0.225100	0.166808	0.333035	0.322655	0.559182	0.161543	0.378782	0.263317	0.174559	0.100135	0.179407	0.200882	0.367177	0.182672	0.583663	0.352614	0.339600	0.151225	0.337243	0.337776	0.340050	0.221288	0.575555	0.308517	0.203467	0.139196	0.433723	0.174806	0.203182	0.182730	0.383984	0.256896	0.405768	0.135795	0.379955	0.348049	0.509554	0.171098	0.144274	0.221082	0.346170
72	0.279875	0.544859	0.425094	0.301245	0.208981	0.347415	0.419363	0.242291	0.157784	0.326457	0.341235	0.574770	0.155164	0.362918	0.254228	0.189659	0.095860	0.165592	0.265097	0.363433	0.145420	0.399222	0.357583	0.341964	0.149893	0.336336	0.298788	0.376631	0.218773	0.574550	0.261632	0.208929	0.140135	0.435473	0.142716	0.175895	0.169039	0.275912	0.255642	0.445984	0.148211	0.352637	0.415277	0.504990	0.141959	0.124257	0.196418	0.303167
73	0.275070	0.541451	0.425464	0.298398	0.190853	0.431449	0.445430	0.227341	0.144518	0.346248	0.342238	0.577713	0.153367	0.368968	0.171073	0.197407	0.089660	0.129449	0.265646	0.337354	0.073647	0.163458	0.362583	0.353258	0.148013	0.335466	0.262404	0.382371	0.222902	0.579121	0.248906	0.223540	0.149719	0.452254	0.145752	0.182449	0.155028	0.260146	0.259961	0.459761	0.168117	0.404885	0.443007	0.506295	0.129453	0.117800	0.207404	0.290214
74	0.276661	0.535229	0.404063	0.277301	0.188301	0.483514	0.365869	0.224742	0.157463	0.355768	0.328567	0.474357	0.112074	0.327222	0.172481	0.291196	0.075043	0.106837	0.279961	0.304893	0.059969	0.112763	0.380610	0.360848	0.125244	0.290524	0.263892	0.383070	0.225003	0.584973	0.264801	0.241266	0.164135	0.474634	0.153544	0.195379	0.154594	0.251963	0.211246	0.465574	0.203794	0.445473	0.389006	0.469312	0.115126	0.118394	0.222819	0.297956
75	0.254357	0.530267	0.369468	0.272700	0.214443	0.475085	0.351124	0.235255	0.155205	0.330294	0.278265	0.383728	0.113483	0.379065	0.177272	0.313117	0.096985	0.121718	0.260687	0.300128	0.059240	0.094095	0.360301	0.372830	0.092725	0.218608	0.279523	0.359791	0.226093	0.599887	0.350053	0.243025	0.192663	0.480903	0.151683	0.177367	0.115823	0.248068	0.168246	0.467613	0.193935	0.424183	0.385674	0.348818	0.089362	0.111204	0.239478	0.285759
76	0.239262	0.487201	0.247610	0.223350	0.215622	0.473915	0.348367	0.238243	0.151086	0.322844	0.249655	0.384299	0.130519	0.410089	0.185033	0.323252	0.098215	0.130375	0.303048	0.329079	0.052876	0.063023	0.302628	0.312556	0.049450	0.068654	0.251712	0.287692	0.225572	0.598671	0.330912	0.212304	0.193430	0.461834	0.136162	0.165938	0.116765	0.196878	0.162373	0.457905	0.191848	0.417726	0.385104	0.261698	0.089135	0.106761	0.281749	0.250052
77	0.241465	0.502152	0.195927	0.161194	0.229581	0.599065	0.342113	0.249429	0.155140	0.339787	0.226926	0.379118	0.125042	0.332175	0.193708	0.345522	0.096309	0.129288	0.327091	0.358785	0.056001	0.068460	0.332399	0.261781	0.055228	0.059622	0.209211	0.286718	0.190563	0.481758	0.308667	0.210868	0.190174	0.441236	0.134013	0.170315	0.122364	0.164612	0.154904	0.380709	0.186148	0.421783	0.389332	0.326154	0.077147	0.088447	0.280713	0.265628
78	0.220924	0.487771	0.196514	0.190777	0.235265	0.662636	0.383322	0.269637	0.178406	0.381676	0.206252	0.370780	0.122823	0.339371	0.210733	0.379659	0.095015	0.128408	0.325238	0.330071	0.046368	0.059785	0.329758	0.248577	0.054868	0.058963	0.191173	0.291063	0.159227	0.405591	0.326747	0.213522	0.184604	0.382372	0.172657	0.259169	0.123429	0.157514	0.154014	0.312262	0.185215	0.422740	0.390803	0.360899	0.062958	0.051709	0.365147	0.273973
79	0.169988	0.426755	0.216147	0.194046	0.254444	0.785344	0.383529	0.248566	0.177248	0.366160	0.202846	0.335748	0.124243	0.350068	0.275655	0.373015	0.094270	0.129071	0.320991	0.301427	0.041975	0.060635	0.313893	0.216841	0.054000	0.064097	0.232841	0.311590	0.087268	0.219013	0.314117	0.198062	0.187635	0.358976	0.166619	0.283089	0.109278	0.136617	0.153909	0.315413	0.157427	0.349202	0.310203	0.470818	0.062022	0.033220	0.404534	0.263956
80	0.181986	0.384252	0.221524	0.194807	0.256961	0.790034	0.359038	0.206000	0.176478	0.360361	0.171376	0.290130	0.123067	0.339300	0.270010	0.362871	0.094825	0.122142	0.263531	0.299721	0.045931	0.065394	0.288730	0.201435	0.061055	0.060014	0.266655	0.314348	0.079291	0.220472	0.308790	0.184960	0.187823	0.356306	0.179678	0.285769	0.090048	0.115827	0.142504	0.317281	0.138151	0.286377	0.258296	0.478858	0.063831	0.049922	0.393370	0.230577
81	0.173879	0.394746	0.224201	0.194012	0.252124	0.778838	0.301407	0.203696	0.165190	0.342087	0.184955	0.243116	0.126380	0.358255	0.266981	0.295566	0.096616	0.113385	0.265445	0.300982	0.048765	0.066512	0.258153	0.192405	0.061803	0.060448	0.267650	0.293342	0.070909	0.217754	0.310018	0.171958	0.176439	0.346188	0.207623	0.292680	0.121999	0.124229	0.136087	0.259625	0.117629	0.251135	0.248862	0.486217	0.066467	0.060696	0.379322	0.227451
82	0.172939	0.432013	0.224964	0.183703	0.243034	0.682802	0.251922	0.197810	0.129198	0.282540	0.213642	0.206818	0.125722	0.303570	0.266136	0.263977	0.090374	0.106240	0.260614	0.292420	0.048599	0.061179	0.225568	0.138593	0.067012	0.065414	0.269115	0.295157	0.065810	0.207418	0.307806	0.150964	0.162615	0.334385	0.229964	0.290550	0.148223	0.127091	0.107793	0.164231	0.110901	0.260315	0.288581	0.473788	0.072633	0.127265	0.387809	0.233331
83	0.170853	0.417442	0.210094	0.173168	0.230965	0.676694	0.251013	0.195096	0.143607	0.296272	0.239147	0.255298	0.127008	0.313685	0.264185	0.255584	0.061372	0.092266	0.256167	0.370336	0.048534	0.061653	0.230487	0.142217	0.073103	0.074272	0.283810	0.324451	0.056274	0.160759	0.206585	0.137885	0.124550	0.276846	0.221898	0.284868	0.157390	0.122384	0.098815	0.119918	0.111632	0.256954	0.357757	0.475720	0.112037	0.216894	0.356956	0.254208
84	0.216996	0.485558	0.193409	0.151206	0.189087	0.653497	0.242939	0.204363	0.143088	0.287468	0.258673	0.272567	0.122397	0.319030	0.258447	0.237064	0.055806	0.079617	0.193319	0.399477	0.057269	0.057166	0.148498	0.177203	0.074079	0.081810	0.297767	0.316714	0.063686	0.150902	0.184053	0.246656	0.124321	0.287077	0.234958	0.331954	0.155454	0.105103	0.092978	0.108308	0.111385	0.219796	0.357972	0.426122	0.118930	0.234926	0.382094	0.224871
85	0.212387	0.485359	0.183879	0.145910	0.188636	0.646603	0.241324	0.272618	0.141209	0.257508	0.257594	0.278674	0.123503	0.313001	0.254401	0.113481	0.062002	0.115828	0.174349	0.366530	0.059668	0.056364	0.130594	0.172529	0.075770	0.082486	0.357802	0.398347	0.097132	0.165216	0.173855	0.256647	0.134394	0.280147	0.230697	0.333637	0.153472	0.086740	0.083189	0.097699	0.131213	0.239986	0.329846	0.403593	0.116630	0.236047	0.395896	0.209658
86	0.223237	0.494931	0.169192	0.111827	0.166655	0.500842	0.253086	0.268382	0.109871	0.181646	0.304623	0.273108	0.124885	0.298597	0.166986	0.102445	0.063263	0.162278	0.181634	0.424609	0.066779	0.059000	0.153001	0.175694	0.073648	0.155927	0.386224	0.403971	0.100105	0.162764	0.134460	0.250806	0.123098	0.277439	0.217249	0.389933	0.150722	0.071703	0.085246	0.094187	0.135281	0.247723	0.332222	0.294713	0.110664	0.237661	0.342149	0.223907
87	0.226617	0.492949	0.128962	0.122135	0.112545	0.379787	0.222691	0.273458	0.105719	0.179903	0.325870	0.271809	0.138686	0.342245	0.168328	0.113059	0.067611	0.167780	0.192962	0.411335	0.065889	0.054302	0.160155	0.230328	0.074343	0.184279	0.445137	0.417905	0.096663	0.127022	0.115148	0.253004	0.112385	0.274857	0.222121	0.428407	0.168246	0.072647	0.089340	0.092193	0.202309	0.486704	0.322555	0.278105	0.108475	0.238394	0.320645	0.231033
88	0.219084	0.485806	0.104104	0.129659	0.076831	0.177147	0.287536	0.319676	0.101301	0.183151	0.329430	0.275168	0.136105	0.316145	0.165378	0.203828	0.068524	0.176380	0.222921	0.443117	0.091360	0.062018	0.185060	0.251163	0.075329	0.203762	0.462983	0.403570	0.096443	0.121789	0.113834	0.255686	0.108818	0.264902	0.223082	0.449950	0.186395	0.091293	0.105428	0.068466	0.254332	0.649674	0.345548	0.269646	0.108551	0.238050	0.313187	0.308254
89	0.235541	0.512357	0.093837	0.135126	0.091152	0.240520	0.301253	0.314686	0.101745	0.180110	0.340418	0.274794	0.131150	0.300955	0.209581	0.298620	0.064719	0.175616	0.231697	0.449057	0.143344	0.074834	0.212922	0.301949	0.072650	0.212213	0.450027	0.428723	0.099372	0.112520	0.103604	0.270154	0.110158	0.239454	0.221140	0.440787	0.205823	0.114111	0.100263	0.052897	0.276499	0.649646	0.313093	0.262458	0.108053	0.219083	0.302897	0.319414
90	0.330912	0.610877	0.081118	0.137759	0.093312	0.240331	0.291040	0.360693	0.121736	0.178898	0.328740	0.273848	0.103983	0.206979	0.249264	0.348093	0.062748	0.174705	0.218145	0.451947	0.144105	0.072508	0.209957	0.296714	0.102868	0.243123	0.451660	0.431920	0.125065	0.185300	0.103798	0.295585	0.111048	0.220927	0.276318	0.460776	0.211929	0.116649	0.107163	0.062899	0.299825	0.714608	0.247174	0.243726	0.114625	0.222369	0.298215	0.321299
91	0.331024	0.614453	0.071710	0.132708	0.091324	0.220507	0.286839	0.455195	0.147482	0.214143	0.337607	0.239829	0.107587	0.200227	0.296536	0.370741	0.055065	0.169838	0.221929	0.410247	0.155947	0.084439	0.225120	0.285270	0.102595	0.249314	0.451684	0.430106	0.172431	0.523251	0.095661	0.298247	0.092679	0.169990	0.327726	0.459372	0.188599	0.108996	0.130741	0.106742	0.317686	0.766820	0.226926	0.214732	0.075840	0.139863	0.336441	0.346862
92	0.299230	0.594086	0.072219	0.152162	0.094325	0.216805	0.303067	0.491104	0.174504	0.245640	0.330071	0.185571	0.106815	0.192363	0.292256	0.436520	0.058935	0.167815	0.235779	0.355045	0.158332	0.094253	0.227769	0.278416	0.115398	0.262006	0.457271	0.408905	0.190737	0.579966	0.098558	0.233835	0.080411	0.143824	0.329309	0.439053	0.171500	0.118368	0.145373	0.121766	0.315030	0.794958	0.230060	0.170090	0.075976	0.153468	0.250587	0.346902
93	0.316660	0.587472	0.076208	0.195885	0.093936	0.218271	0.315501	0.472562	0.182201	0.247155	0.332806	0.171066	0.099624	0.191304	0.294465	0.455982	0.054096	0.145145	0.225949	0.365969	0.158722	0.099365	0.206432	0.276536	0.123087	0.279316	0.449751	0.402561	0.186784	0.608752	0.082892	0.195095	0.067768	0.112466	0.341497	0.442625	0.172608	0.118623	0.167500	0.126047	0.314461	0.800502	0.256154	0.130119	0.092597	0.169002	0.235740	0.337298
94	0.315574	0.609644	0.097493	0.200467	0.088218	0.214681	0.298187	0.454004	0.181479	0.245692	0.286545	0.159105	0.084936	0.114034	0.336808	0.456681	0.057107	0.103122	0.258701	0.318325	0.166451	0.116326	0.210675	0.246004	0.126006	0.284124	0.407456	0.382082	0.232658	0.723854	0.083660	0.194091	0.066475	0.088569	0.338856	0.327194	0.173006	0.123885	0.193720	0.163580	0.274646	0.675121	0.291068	0.176210	0.112961	0.191224	0.223980	0.332453
95	0.319446	0.656685	0.123571	0.198083	0.093133	0.214917	0.288976	0.449770	0.183544	0.250677	0.247517	0.181043	0.076194	0.078580	0.370711	0.444600	0.067292	0.107874	0.262275	0.324864	0.165858	0.109821	0.185933	0.232402	0.131306	0.258725	0.389346	0.365872	0.239498	0.766500	0.085685	0.192187	0.083155	0.112912	0.348842	0.312172	0.173273	0.128944	0.200454	0.192575	0.229076	0.542480	0.286233	0.194860	0.117807	0.207581	0.225502	0.303001
96	0.308397	0.628467	0.195684	0.219328	0.109627	0.215337	0.256428	0.430157	0.188419	0.243487	0.259498	0.182220	0.070754	0.085288	0.380310	0.380444	0.070299	0.096491	0.245044	0.283129	0.126637	0.112063	0.183685	0.151629	0.131682	0.237934	0.338948	0.352008	0.243803	0.767458	0.085396	0.191375	0.089941	0.134272	0.365094	0.282040	0.176668	0.147476	0.201755	0.195887	0.213362	0.555562	0.289278	0.197246	0.119352	0.226533	0.235400	0.249781
97	0.282477	0.602472	0.202863	0.244555	0.105551	0.190738	0.212339	0.405987	0.197677	0.258427	0.245037	0.168942	0.051645	0.085976	0.346171	0.336332	0.073503	0.095068	0.225038	0.267021	0.125761	0.119565	0.173396	0.152202	0.133908	0.221199	0.267136	0.356669	0.256190	0.775409	0.106317	0.228278	0.086129	0.134026	0.378037	0.286426	0.174522	0.193095	0.196892	0.224141	0.194498	0.518894	0.299874	0.209971	0.112368	0.245270	0.253312	0.244326
98	0.186726	0.475150	0.209365	0.299207	0.087491	0.095368	0.195219	0.405938	0.186513	0.266764	0.247555	0.211635	0.052759	0.107531	0.309356	0.317143	0.084468	0.130892	0.224914	0.269049	0.113859	0.132380	0.162497	0.155786	0.134476	0.215156	0.261232	0.332490	0.251872	0.776003	0.109851	0.233448	0.086915	0.134079	0.311535	0.279319	0.150375	0.188540	0.210188	0.246601	0.181023	0.455319	0.293576	0.261042	0.179893	0.324825	0.225235	0.172369
99	0.215563	0.445200	0.211400	0.307308	0.190912	0.107423	0.199879	0.342617	0.163420	0.223623	0.206450	0.245383	0.049258	0.122255	0.309264	0.219175	0.094149	0.161681	0.247652	0.286319	0.104442	0.130272	0.146072	0.167014	0.117948	0.185253	0.243684	0.301910	0.221705	0.638978	0.121676	0.221600	0.094578	0.139046	0.277768	0.286330	0.132074	0.190141	0.270112	0.248545	0.185126	0.418021	0.287784	0.293682	0.215623	0.408373	0.182481	0.135729
100	0.287070	0.420450	0.273183	0.300039	0.367831	0.148220	0.208032	0.251946	0.129891	0.185758	0.195732	0.242156	0.050533	0.135684	0.292886	0.195761	0.103116	0.182003	0.251978	0.299408	0.104108	0.132681	0.154922	0.211198	0.153502	0.177135	0.263544	0.295876	0.210181	0.556955	0.123182	0.227025	0.093528	0.139484	0.265102	0.241437	0.122440	0.205303	0.301181	0.264481	0.191002	0.399326	0.259663	0.297165	0.271122	0.495675	0.182048	0.158718
101	0.371569	0.659912	0.371110	0.279886	0.445778	0.156243	0.179633	0.211322	0.122965	0.188350	0.264330	0.247223	0.051894	0.137037	0.261197	0.340932	0.099107	0.181658	0.285217	0.288606	0.137956	0.130558	0.176547	0.216273	0.220674	0.165545	0.244726	0.289293	0.198257	0.514172	0.167042	0.237966	0.085354	0.132462	0.258105	0.226300	0.123796	0.212536	0.386873	0.256994	0.175760	0.374222	0.265179	0.278460	0.259170	0.493780	0.175235	0.161599
