	333_At_T1_sh_L_ND_01.c3d	333_At_T1_sh_L_ND_01.c3d	333_At_T1_sh_L_ND_01.c3d	333_At_T1_sh_L_ND_01.c3d	333_At_T1_sh_L_ND_01.c3d	333_At_T1_sh_L_ND_01.c3d	333_At_T1_sh_L_ND_01.c3d	333_At_T1_sh_L_ND_01.c3d	333_At_T1_sh_L_ND_02.c3d	333_At_T1_sh_L_ND_02.c3d	333_At_T1_sh_L_ND_02.c3d	333_At_T1_sh_L_ND_02.c3d	333_At_T1_sh_L_ND_02.c3d	333_At_T1_sh_L_ND_02.c3d	333_At_T1_sh_L_ND_02.c3d	333_At_T1_sh_L_ND_02.c3d	333_At_T1_sh_L_ND_03.c3d	333_At_T1_sh_L_ND_03.c3d	333_At_T1_sh_L_ND_03.c3d	333_At_T1_sh_L_ND_03.c3d	333_At_T1_sh_L_ND_03.c3d	333_At_T1_sh_L_ND_03.c3d	333_At_T1_sh_L_ND_03.c3d	333_At_T1_sh_L_ND_03.c3d	333_At_T1_sh_L_ND_04.c3d	333_At_T1_sh_L_ND_04.c3d	333_At_T1_sh_L_ND_04.c3d	333_At_T1_sh_L_ND_04.c3d	333_At_T1_sh_L_ND_04.c3d	333_At_T1_sh_L_ND_04.c3d	333_At_T1_sh_L_ND_04.c3d	333_At_T1_sh_L_ND_04.c3d	333_At_T1_sh_L_ND_05.c3d	333_At_T1_sh_L_ND_05.c3d	333_At_T1_sh_L_ND_05.c3d	333_At_T1_sh_L_ND_05.c3d	333_At_T1_sh_L_ND_05.c3d	333_At_T1_sh_L_ND_05.c3d	333_At_T1_sh_L_ND_05.c3d	333_At_T1_sh_L_ND_05.c3d	333_At_T1_sh_L_ND_07.c3d	333_At_T1_sh_L_ND_07.c3d	333_At_T1_sh_L_ND_07.c3d	333_At_T1_sh_L_ND_07.c3d	333_At_T1_sh_L_ND_07.c3d	333_At_T1_sh_L_ND_07.c3d	333_At_T1_sh_L_ND_07.c3d	333_At_T1_sh_L_ND_07.c3d	333_At_T1_sh_L_ND_08.c3d	333_At_T1_sh_L_ND_08.c3d	333_At_T1_sh_L_ND_08.c3d	333_At_T1_sh_L_ND_08.c3d	333_At_T1_sh_L_ND_08.c3d	333_At_T1_sh_L_ND_08.c3d	333_At_T1_sh_L_ND_08.c3d	333_At_T1_sh_L_ND_08.c3d	333_At_T1_sh_L_ND_09.c3d	333_At_T1_sh_L_ND_09.c3d	333_At_T1_sh_L_ND_09.c3d	333_At_T1_sh_L_ND_09.c3d	333_At_T1_sh_L_ND_09.c3d	333_At_T1_sh_L_ND_09.c3d	333_At_T1_sh_L_ND_09.c3d	333_At_T1_sh_L_ND_09.c3d	333_At_T1_sh_L_ND_10.c3d	333_At_T1_sh_L_ND_10.c3d	333_At_T1_sh_L_ND_10.c3d	333_At_T1_sh_L_ND_10.c3d	333_At_T1_sh_L_ND_10.c3d	333_At_T1_sh_L_ND_10.c3d	333_At_T1_sh_L_ND_10.c3d	333_At_T1_sh_L_ND_10.c3d
	Biceps femoris_lat	Semitendinosus_lat	Vastus lateralis_lat	Vastus medialis_lat	Biceps femoris_med	Semitendinosus_med	Vastus lateralis_med	Vastus medialis_med	Biceps femoris_lat	Semitendinosus_lat	Vastus lateralis_lat	Vastus medialis_lat	Biceps femoris_med	Semitendinosus_med	Vastus lateralis_med	Vastus medialis_med	Biceps femoris_lat	Semitendinosus_lat	Vastus lateralis_lat	Vastus medialis_lat	Biceps femoris_med	Semitendinosus_med	Vastus lateralis_med	Vastus medialis_med	Biceps femoris_lat	Semitendinosus_lat	Vastus lateralis_lat	Vastus medialis_lat	Biceps femoris_med	Semitendinosus_med	Vastus lateralis_med	Vastus medialis_med	Biceps femoris_lat	Semitendinosus_lat	Vastus lateralis_lat	Vastus medialis_lat	Biceps femoris_med	Semitendinosus_med	Vastus lateralis_med	Vastus medialis_med	Biceps femoris_lat	Semitendinosus_lat	Vastus lateralis_lat	Vastus medialis_lat	Biceps femoris_med	Semitendinosus_med	Vastus lateralis_med	Vastus medialis_med	Biceps femoris_lat	Semitendinosus_lat	Vastus lateralis_lat	Vastus medialis_lat	Biceps femoris_med	Semitendinosus_med	Vastus lateralis_med	Vastus medialis_med	Biceps femoris_lat	Semitendinosus_lat	Vastus lateralis_lat	Vastus medialis_lat	Biceps femoris_med	Semitendinosus_med	Vastus lateralis_med	Vastus medialis_med	Biceps femoris_lat	Semitendinosus_lat	Vastus lateralis_lat	Vastus medialis_lat	Biceps femoris_med	Semitendinosus_med	Vastus lateralis_med	Vastus medialis_med
	P2D	P2D	P2D	P2D	P2D	P2D	P2D	P2D	P2D	P2D	P2D	P2D	P2D	P2D	P2D	P2D	P2D	P2D	P2D	P2D	P2D	P2D	P2D	P2D	P2D	P2D	P2D	P2D	P2D	P2D	P2D	P2D	P2D	P2D	P2D	P2D	P2D	P2D	P2D	P2D	P2D	P2D	P2D	P2D	P2D	P2D	P2D	P2D	P2D	P2D	P2D	P2D	P2D	P2D	P2D	P2D	P2D	P2D	P2D	P2D	P2D	P2D	P2D	P2D	P2D	P2D	P2D	P2D	P2D	P2D	P2D	P2D
	EMG_lat	EMG_lat	EMG_lat	EMG_lat	EMG_med	EMG_med	EMG_med	EMG_med	EMG_lat	EMG_lat	EMG_lat	EMG_lat	EMG_med	EMG_med	EMG_med	EMG_med	EMG_lat	EMG_lat	EMG_lat	EMG_lat	EMG_med	EMG_med	EMG_med	EMG_med	EMG_lat	EMG_lat	EMG_lat	EMG_lat	EMG_med	EMG_med	EMG_med	EMG_med	EMG_lat	EMG_lat	EMG_lat	EMG_lat	EMG_med	EMG_med	EMG_med	EMG_med	EMG_lat	EMG_lat	EMG_lat	EMG_lat	EMG_med	EMG_med	EMG_med	EMG_med	EMG_lat	EMG_lat	EMG_lat	EMG_lat	EMG_med	EMG_med	EMG_med	EMG_med	EMG_lat	EMG_lat	EMG_lat	EMG_lat	EMG_med	EMG_med	EMG_med	EMG_med	EMG_lat	EMG_lat	EMG_lat	EMG_lat	EMG_med	EMG_med	EMG_med	EMG_med
ITEM	Y	Y	Y	Y	Y	Y	Y	Y	Y	Y	Y	Y	Y	Y	Y	Y	Y	Y	Y	Y	Y	Y	Y	Y	Y	Y	Y	Y	Y	Y	Y	Y	Y	Y	Y	Y	Y	Y	Y	Y	Y	Y	Y	Y	Y	Y	Y	Y	Y	Y	Y	Y	Y	Y	Y	Y	Y	Y	Y	Y	Y	Y	Y	Y	Y	Y	Y	Y	Y	Y	Y	Y
1	0.708202	1.182711	0.364386	0.331332	0.482981	0.678744	0.290521	0.208765	0.197416	0.210130	0.163049	0.243732	0.280416	0.483192	0.194076	0.141240	0.238889	0.169289	0.316239	0.139207	0.260143	0.242250	0.412477	0.309741	0.123620	0.120120	0.299522	0.206889	0.269747	0.267235	0.229435	0.188170	0.085403	0.166184	0.189278	0.282982	0.227997	0.483468	0.243030	0.126753	0.333897	0.260375	0.162867	0.179458	0.156753	0.112466	0.368815	0.283890	0.495570	0.691230	0.233941	0.282621	0.348114	0.664151	0.168595	0.092590	0.296942	0.215154	0.225388	0.261836	0.305256	0.363164	0.158162	0.176781	0.338301	0.269702	0.248194	0.168889	0.345873	0.159954	0.375919	0.184027
2	0.706459	1.127207	0.363813	0.342979	0.457349	0.522884	0.242192	0.229309	0.195751	0.252832	0.162830	0.242565	0.293870	0.525760	0.267241	0.146178	0.224516	0.162421	0.284342	0.150956	0.256589	0.225664	0.456397	0.298214	0.131034	0.109530	0.297993	0.193968	0.243126	0.222112	0.239492	0.182100	0.084378	0.139310	0.189005	0.289506	0.232267	0.440983	0.190061	0.147578	0.323401	0.252396	0.187674	0.159136	0.190897	0.158807	0.363689	0.282368	0.446933	0.608582	0.228088	0.320650	0.245312	0.486025	0.259142	0.113609	0.309572	0.244299	0.183732	0.262037	0.173782	0.330557	0.223025	0.285968	0.342898	0.278181	0.253633	0.149673	0.330631	0.150887	0.360248	0.185906
3	0.709847	1.132713	0.361781	0.339174	0.407848	0.463476	0.184407	0.234955	0.178790	0.259165	0.167035	0.240196	0.291722	0.529612	0.272557	0.149595	0.210682	0.151182	0.214354	0.168814	0.262426	0.212682	0.473488	0.314827	0.151395	0.112257	0.289829	0.226770	0.233389	0.189779	0.212936	0.282778	0.082732	0.125526	0.178978	0.291275	0.217656	0.416368	0.178605	0.197709	0.299629	0.234693	0.206691	0.157114	0.189314	0.203466	0.310372	0.283565	0.424392	0.532224	0.207995	0.323586	0.228499	0.360028	0.277207	0.121533	0.311130	0.268384	0.178994	0.260990	0.254487	0.356286	0.254773	0.285637	0.343844	0.289197	0.259499	0.149244	0.091705	0.092262	0.329688	0.209572
4	0.684039	1.132933	0.338693	0.345084	0.324957	0.270562	0.179788	0.205074	0.174286	0.258412	0.165611	0.242113	0.308817	0.546489	0.295645	0.163874	0.197705	0.140269	0.155135	0.164470	0.284637	0.200715	0.546477	0.249727	0.170979	0.116407	0.286817	0.241672	0.079177	0.136284	0.232122	0.298331	0.083281	0.121201	0.153776	0.291213	0.146009	0.263864	0.134266	0.244800	0.277870	0.217463	0.222417	0.158340	0.258903	0.214627	0.277707	0.282867	0.396268	0.440506	0.204871	0.300519	0.209500	0.350063	0.278242	0.120736	0.309867	0.267234	0.178311	0.257285	0.241666	0.330721	0.240845	0.336701	0.343496	0.296852	0.249571	0.139881	0.139679	0.107989	0.359647	0.226953
5	0.647661	1.111404	0.307301	0.348824	0.189682	0.229831	0.197041	0.197057	0.192520	0.300894	0.173463	0.242078	0.301856	0.538915	0.353971	0.167938	0.181565	0.129511	0.163299	0.140930	0.289340	0.174738	0.556275	0.203099	0.172932	0.111966	0.302061	0.241742	0.079654	0.141606	0.232981	0.312492	0.086771	0.121775	0.144578	0.292238	0.143637	0.246979	0.113176	0.262766	0.280610	0.203673	0.220367	0.174505	0.384472	0.302146	0.197630	0.180788	0.372358	0.349536	0.236152	0.287783	0.248349	0.274272	0.289492	0.118366	0.307878	0.256515	0.179609	0.231350	0.354487	0.369648	0.242978	0.278049	0.337969	0.295931	0.244903	0.134497	0.140161	0.087471	0.267024	0.315195
6	0.590612	1.052398	0.299503	0.331924	0.193578	0.229764	0.183810	0.223200	0.209766	0.336384	0.193096	0.237407	0.279380	0.506775	0.391801	0.150454	0.175561	0.124917	0.164911	0.136612	0.253502	0.128699	0.557580	0.235493	0.165376	0.100849	0.306028	0.240537	0.093913	0.148839	0.205694	0.309241	0.086733	0.125151	0.146725	0.291615	0.137654	0.215607	0.156480	0.268900	0.297808	0.196190	0.228652	0.212316	0.414043	0.371740	0.223828	0.245092	0.375071	0.308781	0.293606	0.287636	0.262876	0.265449	0.293516	0.262794	0.308429	0.262311	0.182930	0.220078	0.357876	0.368087	0.188873	0.205306	0.332971	0.288230	0.265164	0.145943	0.183986	0.096188	0.261003	0.329796
7	0.500525	0.936872	0.304509	0.314325	0.235418	0.221116	0.171441	0.255372	0.213203	0.342469	0.217052	0.235529	0.268808	0.429798	0.376295	0.158091	0.225118	0.133272	0.179800	0.139263	0.278419	0.137474	0.421258	0.254798	0.160128	0.091383	0.306926	0.232668	0.096776	0.124526	0.229325	0.296283	0.086767	0.134094	0.146458	0.291339	0.133449	0.162678	0.185317	0.291439	0.303506	0.185291	0.225627	0.253710	0.440377	0.380319	0.307301	0.232260	0.369103	0.305605	0.332642	0.310010	0.265607	0.232412	0.301785	0.364671	0.307853	0.262213	0.189549	0.224134	0.283672	0.243833	0.114603	0.189247	0.307850	0.268664	0.297057	0.176033	0.211007	0.108293	0.304345	0.325621
8	0.409480	0.801725	0.288602	0.314413	0.341678	0.203918	0.214333	0.310788	0.214039	0.344262	0.230557	0.226668	0.280014	0.403269	0.391866	0.232291	0.263117	0.150544	0.189862	0.154783	0.302921	0.146548	0.430817	0.273996	0.159257	0.090028	0.313821	0.218299	0.131308	0.126788	0.229913	0.285042	0.088223	0.141272	0.146444	0.291337	0.127081	0.159073	0.204923	0.269490	0.304044	0.173319	0.205811	0.269126	0.470204	0.374458	0.326405	0.241173	0.340304	0.263373	0.353639	0.340813	0.250748	0.184560	0.229035	0.442088	0.301398	0.257971	0.159253	0.184980	0.257062	0.228749	0.100527	0.072911	0.279721	0.253995	0.314611	0.174875	0.226136	0.115391	0.312488	0.320636
9	0.338960	0.639723	0.275991	0.286082	0.345507	0.198598	0.346761	0.338122	0.212930	0.346843	0.244203	0.223874	0.280051	0.340262	0.387425	0.234746	0.284129	0.171754	0.193141	0.157359	0.252925	0.111903	0.358578	0.243176	0.160115	0.091448	0.335148	0.211131	0.150860	0.136437	0.261745	0.175343	0.089153	0.144380	0.150418	0.293390	0.134307	0.179906	0.222046	0.218017	0.304735	0.172777	0.202956	0.267185	0.480516	0.358893	0.325403	0.262366	0.302648	0.183004	0.348901	0.345377	0.254955	0.156849	0.235690	0.454397	0.295235	0.256332	0.121283	0.152230	0.149279	0.140502	0.124260	0.094199	0.245044	0.247010	0.314910	0.196997	0.221953	0.110342	0.307634	0.308899
10	0.318804	0.514274	0.271366	0.243154	0.355855	0.216836	0.373000	0.341001	0.210069	0.351956	0.240218	0.222947	0.230947	0.218724	0.345475	0.235283	0.288060	0.173626	0.237987	0.161401	0.210745	0.108042	0.264244	0.242840	0.163341	0.093010	0.352153	0.210879	0.154680	0.143318	0.274500	0.161699	0.087090	0.140266	0.147974	0.307520	0.124034	0.180520	0.228611	0.188316	0.304841	0.171417	0.208276	0.266260	0.467163	0.360659	0.318006	0.269162	0.279535	0.157339	0.347763	0.341010	0.268806	0.155662	0.277392	0.455951	0.297153	0.259140	0.119346	0.158392	0.131775	0.108634	0.140350	0.148164	0.222110	0.229838	0.304441	0.222645	0.192578	0.088741	0.253837	0.275693
11	0.332324	0.484258	0.262252	0.229154	0.351873	0.204434	0.392537	0.356399	0.205710	0.350087	0.246425	0.225171	0.220297	0.204679	0.355269	0.241186	0.338876	0.181870	0.281454	0.178914	0.209270	0.114174	0.243636	0.228996	0.171566	0.100030	0.356210	0.209011	0.150990	0.127680	0.266191	0.130359	0.077198	0.126743	0.111630	0.294246	0.111999	0.237727	0.228605	0.182914	0.304363	0.156253	0.209496	0.264510	0.360581	0.287960	0.315834	0.296210	0.284249	0.164860	0.388030	0.341967	0.229432	0.127120	0.260935	0.456921	0.289329	0.263220	0.119102	0.168974	0.151560	0.116955	0.235731	0.173056	0.225053	0.213883	0.303120	0.223454	0.181489	0.102321	0.243858	0.130913
12	0.339480	0.496763	0.257169	0.229532	0.346673	0.185800	0.393345	0.382134	0.203352	0.353346	0.292693	0.225601	0.192908	0.151584	0.350070	0.228328	0.409332	0.197098	0.284561	0.221407	0.202858	0.249397	0.220891	0.197677	0.182595	0.111186	0.349481	0.211223	0.140187	0.154036	0.253531	0.147403	0.071648	0.119117	0.096049	0.268971	0.124534	0.301098	0.226698	0.133353	0.273923	0.113927	0.214231	0.262330	0.344647	0.187018	0.275106	0.281209	0.287585	0.167202	0.425589	0.338348	0.175317	0.099953	0.222397	0.379981	0.240850	0.263847	0.120608	0.157779	0.146668	0.105032	0.281513	0.343051	0.224558	0.187332	0.309635	0.238876	0.110240	0.110271	0.193524	0.126403
13	0.333920	0.512438	0.252332	0.256134	0.335242	0.163765	0.379553	0.393441	0.201171	0.360134	0.316592	0.222707	0.177370	0.128363	0.307978	0.223535	0.478996	0.208647	0.284812	0.249949	0.222887	0.414327	0.206301	0.245419	0.188586	0.123268	0.313182	0.209725	0.135072	0.185609	0.225011	0.166461	0.071881	0.118030	0.094246	0.261609	0.163462	0.326495	0.270023	0.331886	0.196633	0.093291	0.213556	0.257826	0.314875	0.161078	0.187537	0.331294	0.276983	0.139452	0.439012	0.338214	0.147120	0.111266	0.212845	0.292210	0.240983	0.266622	0.128603	0.155617	0.133264	0.097075	0.277407	0.438587	0.221152	0.157781	0.333037	0.257746	0.091492	0.162578	0.102056	0.136803
14	0.338976	0.537353	0.261376	0.285973	0.335789	0.157570	0.387727	0.403786	0.194353	0.361193	0.322882	0.223871	0.164041	0.091384	0.257242	0.260985	0.523528	0.213326	0.282762	0.256232	0.241073	0.451822	0.291712	0.305562	0.193092	0.130303	0.277752	0.210109	0.131369	0.233131	0.202558	0.203201	0.085632	0.120310	0.107775	0.251309	0.199130	0.332052	0.254408	0.463466	0.191829	0.112471	0.210176	0.255459	0.239855	0.132013	0.157338	0.333050	0.259537	0.118419	0.438641	0.345471	0.145377	0.123435	0.214725	0.133773	0.232530	0.264357	0.133461	0.161671	0.137449	0.100567	0.305679	0.497225	0.220422	0.145703	0.347191	0.261279	0.080702	0.168896	0.074096	0.136731
15	0.360706	0.569069	0.309803	0.294683	0.210400	0.128545	0.392899	0.393548	0.187361	0.368159	0.322668	0.244490	0.163622	0.090067	0.254854	0.265523	0.525710	0.209690	0.291643	0.255944	0.270133	0.457980	0.331333	0.344957	0.189813	0.129791	0.266585	0.209572	0.143143	0.257844	0.188246	0.210944	0.091864	0.120800	0.124682	0.204949	0.243109	0.334234	0.345986	0.495135	0.196942	0.135386	0.220353	0.250758	0.215475	0.097634	0.165847	0.315819	0.251609	0.119834	0.439367	0.349884	0.122929	0.131494	0.180894	0.090654	0.211496	0.252372	0.142358	0.202838	0.116715	0.105669	0.244959	0.486493	0.217733	0.145404	0.348120	0.261343	0.091906	0.176650	0.094082	0.155342
16	0.355647	0.570611	0.383721	0.286551	0.175634	0.121713	0.346881	0.326084	0.187242	0.379346	0.323110	0.242468	0.145082	0.088549	0.228943	0.206866	0.547482	0.210483	0.323632	0.253513	0.326401	0.471120	0.336503	0.375967	0.190595	0.128661	0.318596	0.214167	0.168403	0.271795	0.153706	0.205737	0.097762	0.121418	0.126804	0.172547	0.258249	0.282922	0.373800	0.494032	0.199118	0.143094	0.239952	0.247953	0.169427	0.043961	0.150620	0.306692	0.252915	0.120631	0.437743	0.337214	0.097501	0.129474	0.121994	0.103146	0.190565	0.231618	0.138689	0.225484	0.123565	0.178736	0.212290	0.337876	0.212817	0.140423	0.347165	0.261813	0.098818	0.178474	0.099319	0.179042
17	0.349758	0.551501	0.424036	0.292837	0.159562	0.105779	0.302031	0.312866	0.204909	0.368749	0.344281	0.226289	0.112856	0.062302	0.228676	0.203787	0.562192	0.213327	0.353818	0.249070	0.331766	0.467894	0.320745	0.454815	0.194728	0.127278	0.367119	0.232865	0.179172	0.273351	0.242665	0.211821	0.113116	0.124272	0.152160	0.157764	0.251291	0.201772	0.374918	0.640119	0.200258	0.142642	0.228769	0.263914	0.157947	0.032552	0.147979	0.274345	0.227462	0.114928	0.437578	0.302464	0.095044	0.130396	0.144092	0.177803	0.207280	0.202894	0.132927	0.231589	0.089580	0.207682	0.120677	0.193673	0.223599	0.129100	0.338377	0.261026	0.099076	0.179418	0.097617	0.176322
18	0.377414	0.522064	0.426805	0.323855	0.144914	0.084959	0.326944	0.287270	0.232186	0.356769	0.399550	0.233125	0.124047	0.060761	0.220759	0.208054	0.566649	0.216984	0.357636	0.239774	0.332742	0.412783	0.319729	0.447043	0.219137	0.132829	0.378996	0.247442	0.216704	0.259658	0.261727	0.199000	0.114229	0.124632	0.175814	0.145434	0.307720	0.178020	0.369962	0.624082	0.205672	0.142564	0.211166	0.271364	0.103975	0.037593	0.150259	0.231029	0.195074	0.110524	0.436121	0.299889	0.093846	0.128980	0.144602	0.218584	0.206018	0.174514	0.135163	0.231843	0.114703	0.223565	0.072483	0.141201	0.244713	0.117484	0.331183	0.259491	0.089343	0.136009	0.082802	0.185951
19	0.409768	0.502782	0.456213	0.342083	0.143122	0.088446	0.296391	0.269214	0.241444	0.355782	0.500915	0.234290	0.111362	0.058433	0.210064	0.221587	0.570156	0.222368	0.352547	0.243825	0.257646	0.175243	0.273836	0.454106	0.242262	0.144430	0.380935	0.249198	0.236595	0.247275	0.262710	0.165641	0.114196	0.121396	0.203238	0.144606	0.341537	0.181921	0.431125	0.596668	0.206282	0.142671	0.205029	0.272253	0.118694	0.054393	0.125525	0.148439	0.180352	0.112634	0.427836	0.291587	0.112717	0.124578	0.180196	0.230324	0.210258	0.173554	0.141357	0.240776	0.117649	0.202005	0.079631	0.157988	0.277561	0.117974	0.331942	0.259224	0.070310	0.103120	0.100746	0.182698
20	0.431131	0.496563	0.488192	0.350209	0.139334	0.089732	0.307158	0.265213	0.234379	0.345674	0.569205	0.249258	0.112683	0.066923	0.200534	0.223260	0.570692	0.222233	0.343997	0.256400	0.253301	0.170546	0.223742	0.401478	0.252934	0.156239	0.375325	0.288792	0.222437	0.201966	0.273495	0.141475	0.112654	0.113858	0.214825	0.142908	0.357449	0.247189	0.463051	0.573932	0.194165	0.141643	0.211788	0.263341	0.138762	0.066327	0.147525	0.145753	0.165277	0.111706	0.404396	0.285878	0.131709	0.120499	0.179259	0.233001	0.239499	0.170836	0.175410	0.256755	0.115751	0.117714	0.094043	0.213459	0.307632	0.124808	0.331119	0.258245	0.065394	0.091792	0.116704	0.151974
21	0.436767	0.483433	0.503827	0.350703	0.135497	0.091836	0.316565	0.212470	0.224097	0.304336	0.577322	0.277550	0.115071	0.070221	0.190923	0.220060	0.575417	0.224347	0.347324	0.257770	0.208703	0.157745	0.230661	0.455330	0.272472	0.173887	0.362742	0.308419	0.201752	0.237447	0.294572	0.135836	0.116363	0.108835	0.220767	0.147479	0.360186	0.301871	0.433326	0.634512	0.157002	0.139288	0.204403	0.236248	0.139934	0.065253	0.175086	0.266308	0.151611	0.109320	0.362496	0.279796	0.120687	0.089394	0.184592	0.233828	0.286487	0.176347	0.181061	0.275170	0.137328	0.130087	0.145899	0.264419	0.314947	0.126576	0.311084	0.246854	0.046431	0.077546	0.111657	0.128422
22	0.441204	0.478732	0.511511	0.351517	0.144451	0.098057	0.302552	0.202527	0.238916	0.282938	0.581264	0.301478	0.114903	0.079484	0.171946	0.184020	0.567259	0.231770	0.355922	0.258351	0.186252	0.136675	0.334720	0.416979	0.283163	0.188321	0.361955	0.310871	0.236365	0.307081	0.318119	0.179150	0.117846	0.099972	0.228126	0.160208	0.413277	0.417348	0.446620	0.486114	0.140620	0.137773	0.200918	0.192079	0.193154	0.096724	0.182660	0.326814	0.147283	0.108948	0.324275	0.245447	0.126941	0.074766	0.179901	0.252800	0.343370	0.199807	0.183219	0.296843	0.143952	0.164248	0.186127	0.268671	0.340630	0.132608	0.274814	0.231623	0.053261	0.074381	0.168591	0.120029
23	0.444737	0.472959	0.508503	0.346220	0.148714	0.100377	0.308201	0.229704	0.261156	0.286304	0.611615	0.307789	0.110600	0.083188	0.185794	0.165116	0.550945	0.251340	0.355801	0.251249	0.187960	0.141257	0.457446	0.550192	0.284687	0.205537	0.361454	0.309421	0.264121	0.335513	0.268729	0.217402	0.119821	0.090900	0.230549	0.171733	0.363930	0.410896	0.435459	0.407496	0.134697	0.136501	0.197796	0.158759	0.246000	0.132051	0.383214	0.385251	0.144072	0.109158	0.306621	0.190751	0.166859	0.090769	0.183698	0.270037	0.391432	0.234046	0.198233	0.307331	0.180147	0.263406	0.195697	0.235100	0.333160	0.135023	0.239083	0.229206	0.056548	0.056367	0.211542	0.122407
24	0.445985	0.468807	0.493984	0.340917	0.147319	0.097844	0.270373	0.229986	0.274449	0.288389	0.640597	0.305371	0.115635	0.112292	0.177105	0.175015	0.538601	0.297081	0.357170	0.248528	0.185402	0.141683	0.532734	0.567693	0.298576	0.224092	0.351535	0.307054	0.243606	0.348592	0.342790	0.243573	0.124516	0.086896	0.229734	0.176241	0.311612	0.392668	0.410293	0.367065	0.132150	0.138353	0.201221	0.157826	0.258199	0.133612	0.475184	0.410068	0.142552	0.109015	0.306407	0.161139	0.172409	0.094101	0.286481	0.247415	0.401986	0.250313	0.223770	0.307473	0.200130	0.288748	0.209950	0.235661	0.317868	0.134152	0.226775	0.207171	0.058900	0.059184	0.220852	0.085177
25	0.441953	0.485056	0.481136	0.336188	0.143852	0.083798	0.218846	0.237365	0.283671	0.287253	0.664964	0.301097	0.124410	0.123089	0.169454	0.218789	0.537761	0.402701	0.335685	0.247366	0.176750	0.128950	0.539763	0.590555	0.308420	0.229726	0.328484	0.306707	0.225131	0.344219	0.456670	0.269339	0.127213	0.084166	0.228477	0.150224	0.262287	0.346829	0.296275	0.365285	0.131986	0.154581	0.202402	0.160760	0.284964	0.149240	0.501782	0.403465	0.127238	0.099940	0.292970	0.165952	0.161144	0.095669	0.262641	0.266281	0.403119	0.254434	0.246726	0.300998	0.229030	0.331068	0.254529	0.240335	0.305018	0.129232	0.227814	0.185834	0.062312	0.068126	0.274052	0.123107
26	0.435574	0.543342	0.477502	0.330516	0.136761	0.075022	0.208834	0.235134	0.291761	0.287919	0.682837	0.303342	0.109592	0.124589	0.153328	0.219899	0.516111	0.494888	0.287703	0.237855	0.186187	0.243536	0.535516	0.568482	0.312607	0.229227	0.313735	0.307400	0.229097	0.334048	0.471726	0.292109	0.128122	0.083353	0.227385	0.137683	0.235774	0.285105	0.314023	0.236268	0.130674	0.178769	0.205869	0.162879	0.280670	0.148002	0.528414	0.401268	0.111602	0.088286	0.218744	0.167367	0.150150	0.085500	0.277542	0.282362	0.425861	0.251169	0.257719	0.297256	0.247285	0.310472	0.231429	0.319617	0.305339	0.129577	0.222930	0.184346	0.088435	0.081857	0.340953	0.145787
27	0.436220	0.664173	0.477931	0.326477	0.152782	0.081554	0.228240	0.214075	0.306858	0.321503	0.685652	0.301943	0.115206	0.134101	0.143481	0.228101	0.516411	0.575024	0.276240	0.204737	0.173260	0.298502	0.494734	0.545055	0.323813	0.227020	0.313117	0.302981	0.271336	0.295836	0.448489	0.288117	0.127537	0.081468	0.227426	0.137645	0.102214	0.063478	0.273664	0.224513	0.130074	0.203281	0.202968	0.163123	0.281777	0.149778	0.519440	0.371800	0.108793	0.084113	0.149290	0.166778	0.166457	0.101876	0.279699	0.293153	0.468720	0.250250	0.258894	0.294127	0.255653	0.265284	0.231703	0.315971	0.326036	0.140901	0.198247	0.139722	0.127362	0.095085	0.361331	0.161245
28	0.435054	0.834642	0.472030	0.310768	0.161859	0.088211	0.220094	0.221409	0.323455	0.369028	0.672747	0.300596	0.120581	0.129492	0.127346	0.241703	0.500247	0.592030	0.280060	0.158807	0.141821	0.308276	0.481367	0.519722	0.342290	0.222252	0.313082	0.294670	0.224691	0.194843	0.429200	0.285886	0.124831	0.078419	0.226926	0.157719	0.091109	0.059747	0.254108	0.202925	0.130647	0.215315	0.202685	0.163164	0.251342	0.137309	0.527523	0.332057	0.114281	0.086699	0.117725	0.159966	0.207012	0.147555	0.283612	0.272820	0.475263	0.247325	0.255917	0.291920	0.261135	0.271162	0.182363	0.288309	0.384202	0.183420	0.132270	0.099701	0.155821	0.095514	0.344386	0.161432
29	0.407098	0.921052	0.459465	0.292312	0.162465	0.090692	0.265275	0.218598	0.337545	0.419557	0.666456	0.300032	0.121623	0.130853	0.152014	0.258259	0.459937	0.604844	0.287148	0.151327	0.142865	0.348904	0.320377	0.346983	0.410089	0.220720	0.312395	0.293469	0.195228	0.170406	0.419551	0.279972	0.121489	0.075864	0.229063	0.188285	0.113502	0.062739	0.253845	0.100266	0.131975	0.209832	0.205311	0.163333	0.204306	0.105610	0.416024	0.279621	0.116238	0.087280	0.111378	0.148420	0.223404	0.166880	0.276601	0.226936	0.475214	0.245985	0.248715	0.273001	0.213241	0.177012	0.145812	0.188469	0.438851	0.239510	0.106622	0.083855	0.184683	0.099715	0.340659	0.157545
30	0.384388	0.901023	0.418451	0.294978	0.153699	0.087107	0.505785	0.179413	0.343411	0.442363	0.665562	0.292441	0.155803	0.136077	0.231512	0.293946	0.578711	0.686861	0.282628	0.155793	0.150162	0.355386	0.264378	0.334572	0.430948	0.221243	0.313147	0.293936	0.182358	0.115600	0.344842	0.273596	0.129428	0.078909	0.249626	0.225546	0.137637	0.107162	0.246870	0.175077	0.122620	0.194059	0.213580	0.159864	0.190701	0.104417	0.313935	0.356878	0.108760	0.082416	0.108365	0.160651	0.244926	0.168596	0.175612	0.318824	0.473579	0.254579	0.258118	0.249369	0.195312	0.160015	0.133786	0.165603	0.449592	0.270721	0.107241	0.083218	0.189548	0.101772	0.337202	0.152733
31	0.434890	0.947213	0.355080	0.312604	0.162390	0.087501	0.544275	0.234238	0.342160	0.434964	0.665592	0.273812	0.234693	0.171858	0.278417	0.358089	0.648752	0.757928	0.296734	0.229589	0.169410	0.353686	0.242720	0.275065	0.457174	0.230257	0.308885	0.293741	0.200256	0.118535	0.178108	0.264522	0.145576	0.086554	0.276749	0.240139	0.156456	0.105549	0.235396	0.189510	0.110288	0.189961	0.243760	0.213408	0.134343	0.076351	0.294824	0.397795	0.101522	0.077577	0.107998	0.190405	0.369201	0.207615	0.173345	0.317487	0.461832	0.282673	0.265296	0.242537	0.298790	0.168069	0.134371	0.228417	0.456468	0.275466	0.102895	0.082117	0.212381	0.113666	0.257599	0.157125
32	0.556542	1.119473	0.323704	0.317552	0.202763	0.104901	0.608617	0.250135	0.336832	0.423448	0.661104	0.260923	0.279824	0.197133	0.278863	0.378535	0.667873	0.808947	0.333119	0.355216	0.151630	0.250348	0.225009	0.249354	0.481416	0.247247	0.261643	0.285483	0.190568	0.116639	0.186858	0.275436	0.151734	0.089806	0.283549	0.253067	0.161163	0.105642	0.237187	0.185000	0.108897	0.208474	0.285822	0.229095	0.138541	0.081480	0.265806	0.401148	0.097502	0.075176	0.118516	0.215804	0.391531	0.216608	0.141940	0.318021	0.522766	0.353465	0.264937	0.242010	0.303635	0.159697	0.186813	0.312211	0.539069	0.275424	0.104580	0.082464	0.212685	0.115249	0.205585	0.252903
33	0.670295	1.294536	0.326448	0.351614	0.284590	0.147208	0.689998	0.248751	0.319741	0.412017	0.645414	0.248748	0.277467	0.195497	0.280787	0.376949	0.703510	0.874219	0.360069	0.380205	0.145961	0.220926	0.215934	0.241440	0.484054	0.258848	0.296134	0.266558	0.141432	0.114020	0.187568	0.355334	0.160895	0.092736	0.283010	0.347961	0.174772	0.118043	0.238515	0.204928	0.102348	0.248646	0.332058	0.216605	0.145573	0.083841	0.284367	0.375637	0.096190	0.072069	0.139074	0.225956	0.390177	0.211479	0.134733	0.305923	0.591293	0.411190	0.267373	0.249107	0.322217	0.178413	0.225515	0.315887	0.547820	0.285736	0.135734	0.084556	0.195782	0.105135	0.156112	0.289428
34	0.730326	1.394346	0.353108	0.329411	0.285565	0.151585	0.744532	0.301876	0.305624	0.401318	0.597784	0.241991	0.323799	0.255214	0.285838	0.405942	0.754796	0.943480	0.369096	0.388497	0.158664	0.178202	0.211242	0.151843	0.488125	0.289836	0.424609	0.243080	0.134975	0.114725	0.191906	0.363143	0.165549	0.095913	0.304167	0.451047	0.274483	0.300982	0.221302	0.285202	0.293711	0.335736	0.360508	0.240174	0.162300	0.089800	0.260547	0.373367	0.088713	0.065787	0.142464	0.224501	0.365649	0.180056	0.157645	0.301288	0.592868	0.434286	0.262791	0.280497	0.259013	0.158217	0.212637	0.270341	0.550957	0.323089	0.182541	0.111912	0.184692	0.107053	0.160556	0.385613
35	0.764640	1.461837	0.394212	0.373646	0.273571	0.151911	0.747497	0.304373	0.311240	0.414667	0.510762	0.237470	0.337017	0.261039	0.352484	0.446877	0.790417	0.999475	0.415062	0.392422	0.155915	0.139634	0.213692	0.105252	0.508608	0.359913	0.530615	0.199579	0.161772	0.136702	0.217560	0.354498	0.166556	0.096045	0.358757	0.465436	0.325955	0.425078	0.298394	0.321529	0.445341	0.414233	0.368258	0.240010	0.150395	0.084657	0.293738	0.367769	0.085332	0.065177	0.149332	0.224819	0.343028	0.176776	0.157014	0.292333	0.575015	0.435363	0.291146	0.311765	0.138810	0.105769	0.179130	0.189848	0.577448	0.383374	0.229660	0.118114	0.176926	0.114391	0.181530	0.396055
36	0.787952	1.497517	0.450796	0.513250	0.274980	0.155044	0.745103	0.309977	0.329159	0.466892	0.453421	0.214372	0.337115	0.284962	0.357378	0.436880	0.797505	1.020946	0.497018	0.408237	0.137458	0.117650	0.252148	0.096023	0.512223	0.399858	0.581346	0.132125	0.160890	0.200354	0.232620	0.342620	0.198900	0.097110	0.382653	0.464725	0.374296	0.498789	0.292517	0.439328	0.471166	0.442506	0.373498	0.239393	0.144366	0.081783	0.287296	0.292798	0.083973	0.066660	0.143678	0.224029	0.334711	0.212707	0.163358	0.185112	0.546223	0.425536	0.364534	0.303440	0.089798	0.097802	0.156698	0.112201	0.596782	0.435244	0.276423	0.164623	0.156492	0.104522	0.206027	0.398805
37	0.786702	1.503565	0.513459	0.549671	0.272332	0.152065	0.678014	0.302147	0.345167	0.523799	0.448697	0.175965	0.342698	0.301575	0.366994	0.443173	0.794145	1.018872	0.503765	0.408773	0.116372	0.106791	0.271454	0.078877	0.501535	0.397418	0.591827	0.142914	0.170419	0.209336	0.247819	0.348144	0.209252	0.095286	0.388921	0.462661	0.425049	0.525600	0.304713	0.756485	0.476737	0.446620	0.379493	0.239308	0.131851	0.079493	0.266857	0.217059	0.083700	0.067261	0.149169	0.232375	0.240104	0.264738	0.164077	0.155523	0.520183	0.412421	0.472706	0.316981	0.048388	0.080901	0.180193	0.104144	0.608083	0.475204	0.314935	0.212454	0.147332	0.093357	0.203815	0.391817
38	0.799394	1.502770	0.545846	0.550215	0.317225	0.168214	0.566989	0.292981	0.340857	0.547380	0.421396	0.144455	0.339093	0.360617	0.327758	0.459401	0.802774	1.017069	0.503742	0.443841	0.148944	0.118104	0.273835	0.162392	0.498964	0.390422	0.594855	0.238054	0.178303	0.215328	0.210289	0.326672	0.209826	0.093440	0.449483	0.479063	0.440552	0.531864	0.312721	0.780073	0.478275	0.446000	0.418479	0.267848	0.121046	0.067424	0.235498	0.234532	0.090779	0.067906	0.219534	0.278707	0.235528	0.272760	0.248020	0.145298	0.519918	0.406023	0.535020	0.325749	0.144442	0.108315	0.210637	0.064427	0.614088	0.498005	0.344716	0.238294	0.141566	0.081153	0.255089	0.324722
39	0.823428	1.505983	0.548769	0.550906	0.310363	0.170612	0.550403	0.282392	0.334852	0.557244	0.357830	0.163120	0.310035	0.376803	0.283191	0.413723	0.812113	1.009120	0.511311	0.553046	0.161840	0.111021	0.294124	0.314153	0.497286	0.380586	0.639519	0.330680	0.215525	0.210137	0.221070	0.293466	0.210626	0.090683	0.475095	0.489902	0.405652	0.462995	0.306986	0.789232	0.481703	0.447258	0.434995	0.289913	0.125370	0.069900	0.207680	0.228996	0.113757	0.071264	0.289554	0.326264	0.266850	0.278998	0.262647	0.143791	0.531960	0.406302	0.536085	0.323891	0.202794	0.177791	0.324436	0.183611	0.613527	0.502855	0.352757	0.251498	0.167403	0.094694	0.258726	0.265249
40	0.855361	1.507125	0.603951	0.557645	0.260617	0.155020	0.462951	0.322586	0.342302	0.565519	0.293021	0.162766	0.270341	0.358958	0.333849	0.397120	0.828168	0.982011	0.514094	0.642370	0.179909	0.099094	0.288946	0.348101	0.499129	0.376190	0.682487	0.385617	0.227046	0.204234	0.265553	0.257557	0.207972	0.086706	0.477703	0.490540	0.361386	0.347773	0.243956	0.768026	0.499405	0.448754	0.433585	0.291789	0.096769	0.058345	0.202827	0.254572	0.156408	0.080245	0.341240	0.327835	0.315972	0.299666	0.275736	0.145267	0.527774	0.410679	0.530475	0.325481	0.274072	0.188399	0.353631	0.186519	0.618985	0.503395	0.377926	0.250580	0.158302	0.086536	0.247921	0.156972
41	0.876431	1.487927	0.695655	0.562335	0.281166	0.153064	0.299459	0.450554	0.359278	0.571001	0.228731	0.226611	0.277266	0.448444	0.350601	0.370414	0.857018	0.950682	0.519602	0.694594	0.203657	0.107924	0.354766	0.398483	0.518071	0.384915	0.706193	0.414492	0.208993	0.173493	0.252088	0.271852	0.207535	0.085000	0.488868	0.496087	0.299975	0.236332	0.249830	0.708061	0.539987	0.454831	0.447848	0.297048	0.132714	0.077051	0.152586	0.266875	0.218794	0.105862	0.357551	0.350115	0.312434	0.288963	0.280864	0.171637	0.515232	0.422739	0.533066	0.333923	0.279834	0.191410	0.321730	0.193622	0.626159	0.507267	0.434026	0.251727	0.144225	0.075963	0.220250	0.129269
42	0.883157	1.430809	0.734107	0.560901	0.295952	0.157664	0.268043	0.478013	0.369916	0.566247	0.169069	0.405350	0.228543	0.435409	0.347749	0.350183	0.869924	0.914158	0.539139	0.706560	0.201427	0.102150	0.336846	0.413181	0.528037	0.392957	0.728798	0.422761	0.209891	0.111070	0.275960	0.267009	0.210370	0.085841	0.500009	0.517745	0.232358	0.173401	0.251785	0.353419	0.643625	0.479420	0.488883	0.308398	0.146773	0.079737	0.116804	0.273783	0.247880	0.131747	0.357219	0.369885	0.304424	0.263208	0.290064	0.172931	0.529401	0.442119	0.573315	0.337004	0.231426	0.144704	0.320346	0.192610	0.626481	0.512526	0.459636	0.260752	0.148952	0.076816	0.221315	0.121132
43	0.887226	1.333815	0.746998	0.559592	0.337260	0.175628	0.288438	0.494677	0.373199	0.544590	0.137469	0.443560	0.193202	0.423551	0.285007	0.352720	0.869509	0.907224	0.566949	0.707696	0.194369	0.105445	0.316512	0.425705	0.530625	0.397014	0.750505	0.430135	0.181670	0.090455	0.263020	0.249846	0.212880	0.086744	0.502316	0.528525	0.200031	0.149173	0.246518	0.311476	0.746440	0.507316	0.515984	0.311253	0.190335	0.084285	0.140466	0.321177	0.248556	0.133525	0.368865	0.370904	0.260885	0.166070	0.288818	0.165044	0.556256	0.457800	0.664744	0.337757	0.212060	0.245273	0.233547	0.182553	0.612205	0.510273	0.478141	0.270596	0.123172	0.067084	0.227095	0.114383
44	0.903589	1.295961	0.762648	0.562150	0.348310	0.184763	0.362459	0.518439	0.379786	0.510134	0.233078	0.444872	0.214535	0.410776	0.274813	0.432533	0.885879	0.914186	0.587144	0.711603	0.172217	0.107406	0.308470	0.396438	0.511212	0.401570	0.760646	0.465093	0.171940	0.096227	0.269835	0.242275	0.211451	0.085989	0.501465	0.518592	0.140282	0.082845	0.226403	0.284493	0.814052	0.531718	0.526063	0.310815	0.192118	0.084603	0.153657	0.312710	0.270216	0.135795	0.419110	0.366572	0.234892	0.143643	0.217946	0.144186	0.566921	0.460318	0.723952	0.335871	0.198230	0.360034	0.170201	0.185291	0.597913	0.498779	0.490891	0.272705	0.122674	0.069436	0.164865	0.123545
45	0.904422	1.295503	0.772279	0.555153	0.349054	0.185569	0.374746	0.546170	0.381798	0.474326	0.379755	0.464008	0.247822	0.404105	0.287275	0.439664	0.828739	0.869280	0.597996	0.715984	0.151326	0.104708	0.276006	0.275174	0.473436	0.404617	0.762467	0.499717	0.102020	0.074995	0.248984	0.190525	0.204137	0.081394	0.495583	0.510385	0.155885	0.089380	0.229253	0.324400	0.846868	0.542940	0.528228	0.310167	0.186037	0.077405	0.248759	0.359558	0.293860	0.146859	0.523605	0.360598	0.185973	0.127113	0.203906	0.150651	0.570177	0.447041	0.751230	0.335368	0.194412	0.394062	0.166959	0.179688	0.610165	0.496248	0.501121	0.272728	0.083532	0.047391	0.172900	0.109044
46	0.872435	1.235506	0.771758	0.548578	0.332520	0.176778	0.407578	0.563976	0.380161	0.462337	0.501191	0.528571	0.249364	0.355881	0.308724	0.457524	0.754259	0.804906	0.584903	0.710653	0.085833	0.083923	0.216034	0.245355	0.469029	0.406588	0.765933	0.515677	0.074506	0.069320	0.213305	0.191037	0.195305	0.074938	0.481499	0.516344	0.228003	0.144020	0.244159	0.311092	0.855295	0.542082	0.509927	0.284650	0.182980	0.073891	0.280544	0.343963	0.303891	0.151915	0.600500	0.388597	0.098922	0.075744	0.145405	0.152750	0.540470	0.404485	0.759307	0.335850	0.197358	0.397674	0.159207	0.134409	0.600270	0.500342	0.505151	0.272690	0.083915	0.046133	0.171989	0.113858
47	0.782331	1.059992	0.772764	0.519869	0.344563	0.181502	0.436562	0.612591	0.399807	0.463308	0.532620	0.582756	0.290546	0.352242	0.308044	0.456900	0.716698	0.752651	0.546084	0.666173	0.053429	0.081917	0.137944	0.218126	0.437652	0.400972	0.763492	0.517883	0.085600	0.076099	0.197744	0.212146	0.181645	0.066779	0.485669	0.530378	0.225000	0.147763	0.260066	0.304107	0.865734	0.536117	0.485528	0.249053	0.158637	0.053272	0.297216	0.332019	0.304095	0.151957	0.625767	0.415816	0.099618	0.064776	0.115741	0.145990	0.434939	0.336678	0.758651	0.331906	0.127621	0.253985	0.124662	0.092594	0.529201	0.499731	0.504533	0.274465	0.108073	0.057107	0.152738	0.144869
48	0.678198	0.860411	0.761531	0.498505	0.358203	0.186826	0.467532	0.597664	0.436306	0.470227	0.534971	0.630462	0.297047	0.358381	0.278000	0.453406	0.683986	0.680825	0.516248	0.662169	0.063363	0.098880	0.192128	0.241284	0.422166	0.393499	0.751547	0.517733	0.098175	0.082146	0.140212	0.281132	0.170321	0.061481	0.485105	0.489448	0.205841	0.140365	0.246170	0.279491	0.865999	0.522288	0.456591	0.246590	0.148501	0.049925	0.324060	0.298114	0.303017	0.152145	0.628338	0.415528	0.104647	0.077268	0.102258	0.132798	0.414436	0.295385	0.756070	0.301614	0.108811	0.103764	0.145120	0.140556	0.522315	0.490439	0.495889	0.282729	0.123712	0.069662	0.141962	0.208353
49	0.606001	0.702773	0.723673	0.545378	0.339895	0.181912	0.566382	0.494997	0.469622	0.478397	0.536809	0.681526	0.288565	0.253213	0.254438	0.453421	0.623238	0.578937	0.510608	0.665314	0.072074	0.082996	0.210212	0.261167	0.412225	0.384935	0.714548	0.520558	0.110064	0.076677	0.132310	0.288646	0.165702	0.060483	0.466355	0.390357	0.195371	0.137742	0.234511	0.198920	0.838869	0.479364	0.425130	0.228708	0.085608	0.036719	0.321960	0.252352	0.303751	0.152225	0.628620	0.416820	0.113175	0.081543	0.106951	0.132773	0.411032	0.275587	0.746162	0.251548	0.112449	0.081437	0.119530	0.182289	0.493815	0.457982	0.479659	0.280793	0.131516	0.074121	0.136442	0.200138
50	0.555834	0.556274	0.687076	0.543989	0.323143	0.172798	0.588660	0.478921	0.496583	0.483902	0.539406	0.716749	0.286674	0.204467	0.254487	0.452353	0.570741	0.468057	0.494236	0.664644	0.118020	0.079217	0.209267	0.255174	0.379697	0.345873	0.634872	0.522016	0.121781	0.061723	0.156307	0.303372	0.175278	0.068918	0.424176	0.364848	0.190611	0.282760	0.233891	0.074376	0.762802	0.408585	0.410830	0.240523	0.067420	0.027118	0.324414	0.240480	0.303782	0.151354	0.659002	0.420744	0.118094	0.105030	0.107707	0.127860	0.423606	0.277827	0.724255	0.220390	0.101669	0.058181	0.130012	0.201759	0.449118	0.407386	0.460130	0.276015	0.124202	0.073584	0.113879	0.198100
51	0.534847	0.466837	0.643956	0.501319	0.286898	0.148370	0.578347	0.474532	0.516019	0.468317	0.554778	0.732131	0.286211	0.205107	0.254617	0.393696	0.548600	0.398386	0.423837	0.650218	0.175596	0.094102	0.231861	0.256715	0.336253	0.260479	0.559356	0.528886	0.118087	0.060352	0.174012	0.302300	0.158065	0.076631	0.413526	0.367963	0.175281	0.416714	0.209096	0.116224	0.746952	0.368605	0.404622	0.288598	0.056781	0.028452	0.254091	0.153064	0.304084	0.151417	0.746914	0.452229	0.113986	0.120275	0.114724	0.187038	0.446673	0.287159	0.661871	0.262101	0.126696	0.085540	0.180221	0.183729	0.411118	0.351854	0.437278	0.241264	0.125479	0.074772	0.101178	0.203268
52	0.541010	0.453627	0.593634	0.513312	0.287414	0.146333	0.545825	0.477336	0.516159	0.415654	0.565474	0.736155	0.268997	0.202276	0.254867	0.285017	0.546121	0.392674	0.389317	0.649547	0.174578	0.094483	0.238970	0.246802	0.325535	0.211509	0.513498	0.533848	0.119909	0.061790	0.202979	0.303479	0.133494	0.086612	0.427296	0.370346	0.273128	0.557865	0.157701	0.283988	0.750877	0.359066	0.405735	0.350340	0.060763	0.029946	0.214600	0.119634	0.304555	0.151709	0.826276	0.452881	0.096624	0.118486	0.126135	0.252172	0.474278	0.298269	0.597454	0.273838	0.125242	0.085666	0.186025	0.172881	0.383906	0.299155	0.413539	0.226237	0.116476	0.073028	0.082265	0.202780
53	0.525432	0.450678	0.580566	0.513722	0.273567	0.139582	0.535606	0.487722	0.505279	0.349012	0.565044	0.735937	0.234578	0.198989	0.228759	0.265421	0.526507	0.382029	0.387724	0.635710	0.174115	0.090014	0.256006	0.206952	0.325030	0.208828	0.507155	0.517129	0.141421	0.072403	0.211627	0.308640	0.132038	0.095483	0.370645	0.402851	0.286774	0.562708	0.186967	0.500265	0.770493	0.363282	0.418900	0.390933	0.122497	0.066264	0.191375	0.138427	0.305702	0.151786	0.838008	0.419535	0.091238	0.119460	0.135157	0.294309	0.502510	0.305365	0.575208	0.277816	0.187486	0.113306	0.207092	0.166112	0.388270	0.269032	0.390019	0.259182	0.090187	0.063462	0.070167	0.167850
54	0.498938	0.433049	0.573062	0.516083	0.278702	0.140375	0.536295	0.420091	0.500317	0.319568	0.566468	0.735029	0.222683	0.192289	0.186776	0.132340	0.508202	0.367889	0.375231	0.578589	0.176584	0.077350	0.236483	0.159211	0.324095	0.208749	0.493962	0.475235	0.160766	0.092169	0.235740	0.300580	0.139906	0.094739	0.329746	0.419019	0.307018	0.565872	0.256201	0.529899	0.800618	0.371473	0.511940	0.384402	0.141957	0.086821	0.176458	0.140567	0.307702	0.153919	0.822366	0.394754	0.097962	0.126509	0.128912	0.314272	0.518615	0.306310	0.576650	0.276811	0.199283	0.119112	0.201075	0.169992	0.403506	0.268802	0.386185	0.256366	0.071305	0.052324	0.099837	0.113620
55	0.447987	0.396976	0.493689	0.509551	0.270976	0.134494	0.488628	0.386300	0.494451	0.302406	0.572482	0.727945	0.163135	0.126201	0.223572	0.130905	0.485122	0.349354	0.378390	0.555548	0.165018	0.073231	0.230648	0.156163	0.320877	0.206911	0.436588	0.418287	0.156011	0.092886	0.343054	0.321499	0.190099	0.108649	0.356122	0.446584	0.333400	0.510987	0.320618	0.560475	0.817597	0.378232	0.609059	0.396679	0.150643	0.091980	0.204119	0.207167	0.291319	0.151023	0.805303	0.390697	0.092833	0.144681	0.139233	0.327598	0.506637	0.294316	0.607788	0.269638	0.175896	0.096315	0.171730	0.169691	0.426941	0.278613	0.346889	0.322072	0.072066	0.055057	0.105899	0.115413
56	0.403635	0.355790	0.377661	0.509543	0.226842	0.106900	0.448410	0.491724	0.480730	0.287367	0.592448	0.726375	0.171717	0.106809	0.245343	0.161976	0.444296	0.320630	0.374195	0.526296	0.128578	0.061592	0.208007	0.182538	0.295348	0.194618	0.405674	0.379198	0.152527	0.093833	0.328729	0.311807	0.281103	0.182694	0.435533	0.454760	0.302160	0.386354	0.346510	0.618455	0.821976	0.383116	0.653094	0.425166	0.163912	0.096232	0.227525	0.226178	0.248221	0.130166	0.813751	0.366908	0.115799	0.202083	0.178202	0.349310	0.474173	0.265182	0.731208	0.272384	0.167342	0.097817	0.144253	0.185215	0.469736	0.294744	0.337730	0.336482	0.080954	0.066525	0.104535	0.130894
57	0.383471	0.320949	0.335364	0.545097	0.247185	0.118040	0.299777	0.561000	0.464804	0.280581	0.612433	0.690028	0.177463	0.099315	0.293955	0.274660	0.392020	0.283476	0.367479	0.527411	0.072410	0.041647	0.186202	0.187366	0.257878	0.173410	0.381265	0.354260	0.176826	0.112784	0.315127	0.330711	0.386746	0.272122	0.558298	0.440875	0.250864	0.154436	0.357594	0.591656	0.782261	0.368181	0.656892	0.464907	0.174210	0.107032	0.382507	0.299442	0.246986	0.115124	0.843913	0.349569	0.125194	0.213725	0.202916	0.328499	0.442180	0.234433	0.750737	0.329253	0.145438	0.089239	0.220204	0.168721	0.476770	0.291007	0.426483	0.469055	0.077501	0.069880	0.102939	0.131583
58	0.379878	0.283512	0.306680	0.586592	0.252041	0.120910	0.280971	0.602669	0.451735	0.281420	0.623925	0.625260	0.177303	0.106537	0.295458	0.288666	0.332349	0.236672	0.405533	0.614247	0.072234	0.039487	0.175148	0.198873	0.256362	0.168283	0.334555	0.429704	0.180205	0.113168	0.302920	0.341340	0.441727	0.304991	0.742575	0.485614	0.277327	0.151648	0.362751	0.517927	0.695822	0.332313	0.656375	0.467740	0.174833	0.110543	0.420662	0.323683	0.267018	0.130157	0.839507	0.349538	0.126026	0.215030	0.196406	0.302342	0.424822	0.217275	0.718430	0.427957	0.131738	0.087150	0.218999	0.185766	0.453487	0.268556	0.492289	0.508787	0.078545	0.070065	0.097388	0.129062
59	0.361302	0.234362	0.283520	0.590734	0.262689	0.123624	0.276680	0.636653	0.437031	0.286151	0.626938	0.691717	0.205864	0.142768	0.295734	0.308699	0.299494	0.192112	0.420549	0.633051	0.070077	0.038282	0.117721	0.203494	0.284846	0.182141	0.293320	0.558203	0.154963	0.102114	0.324754	0.342587	0.455586	0.315123	0.857265	0.524665	0.284863	0.155513	0.341178	0.498476	0.608735	0.287425	0.648933	0.470947	0.157208	0.096450	0.449976	0.340400	0.258585	0.136614	0.817238	0.350010	0.142362	0.216082	0.190420	0.266724	0.417525	0.211448	0.700550	0.492545	0.129535	0.087216	0.194379	0.191510	0.431218	0.246801	0.527872	0.541630	0.086059	0.073958	0.098987	0.124730
60	0.349476	0.202187	0.305123	0.620202	0.265720	0.124865	0.283361	0.620752	0.416873	0.278967	0.632825	0.859238	0.255911	0.177466	0.311788	0.313753	0.316400	0.169751	0.435727	0.638235	0.049132	0.030322	0.107466	0.169879	0.325281	0.206486	0.340821	0.631668	0.133035	0.083297	0.314518	0.317762	0.456414	0.316042	0.866610	0.534037	0.262002	0.123768	0.295516	0.498128	0.554535	0.261484	0.667426	0.486550	0.149358	0.076834	0.464363	0.370066	0.235072	0.125591	0.765987	0.352397	0.143230	0.211132	0.218815	0.239996	0.422691	0.209813	0.695200	0.520497	0.097832	0.061434	0.184620	0.150528	0.417855	0.232562	0.540272	0.650564	0.100200	0.080485	0.156759	0.135106
61	0.346158	0.180774	0.345946	0.714394	0.245331	0.118338	0.271537	0.642013	0.415411	0.275971	0.602824	1.059647	0.320923	0.355769	0.330482	0.319077	0.319642	0.160325	0.468081	0.640571	0.027926	0.017338	0.112773	0.149992	0.384376	0.238860	0.488038	0.616446	0.129345	0.084759	0.202217	0.297516	0.459578	0.317035	0.868023	0.552143	0.290717	0.152417	0.259990	0.444552	0.562972	0.269242	0.701940	0.522843	0.152343	0.072000	0.448277	0.366806	0.231555	0.122981	0.735095	0.336617	0.142350	0.199955	0.252447	0.273965	0.445649	0.220088	0.700112	0.531877	0.129677	0.075356	0.136754	0.134032	0.404676	0.222616	0.578185	0.778961	0.089287	0.070445	0.202512	0.143715
62	0.362905	0.167651	0.361765	0.792093	0.233369	0.109396	0.294580	0.646374	0.449747	0.317227	0.548285	1.147863	0.325893	0.398150	0.334655	0.318858	0.323075	0.159950	0.475495	0.642003	0.031613	0.017348	0.106109	0.209655	0.446023	0.270672	0.624478	0.663496	0.122691	0.079928	0.344470	0.426809	0.476397	0.323423	0.871577	0.565244	0.289442	0.158701	0.352801	0.455934	0.563498	0.282662	0.726528	0.553230	0.136453	0.065697	0.432378	0.368347	0.236930	0.124051	0.719777	0.304470	0.179591	0.153227	0.230693	0.253747	0.463662	0.232137	0.744920	0.537718	0.151532	0.078236	0.177030	0.125628	0.402922	0.217392	0.630515	0.835633	0.091083	0.059598	0.217776	0.128923
63	0.369731	0.149571	0.363512	0.819085	0.228972	0.112391	0.416057	0.572499	0.519264	0.384955	0.541264	1.148571	0.323491	0.449331	0.305003	0.307284	0.321436	0.159813	0.480002	0.638788	0.081604	0.054022	0.127325	0.252247	0.472922	0.283948	0.752084	0.780004	0.104764	0.056481	0.406767	0.465145	0.492738	0.331617	0.882654	0.564226	0.280385	0.159136	0.350348	0.354542	0.582873	0.292786	0.730871	0.606908	0.121677	0.047833	0.303776	0.350442	0.237955	0.123844	0.736841	0.304405	0.206992	0.147696	0.238261	0.246852	0.474112	0.239459	0.803972	0.537921	0.156676	0.080773	0.181484	0.125800	0.402913	0.214914	0.635103	0.839126	0.103073	0.058021	0.274233	0.124463
64	0.380942	0.147907	0.366019	0.788286	0.198526	0.099507	0.466916	0.540875	0.574293	0.424538	0.600171	1.122308	0.297441	0.446357	0.278854	0.292331	0.323396	0.160273	0.482706	0.646016	0.096737	0.063605	0.248738	0.391785	0.471943	0.281890	0.800420	0.856300	0.138285	0.070849	0.406688	0.523893	0.500749	0.336262	0.900046	0.567351	0.252993	0.145968	0.334760	0.361861	0.593891	0.300859	0.732609	0.653485	0.119172	0.037190	0.252101	0.330641	0.249805	0.132201	0.776954	0.303989	0.313094	0.175678	0.239564	0.229430	0.468530	0.238610	0.870503	0.545266	0.142459	0.075015	0.192956	0.170996	0.402930	0.213080	0.650089	0.840609	0.101636	0.055717	0.288434	0.119476
65	0.404289	0.155827	0.388105	0.743370	0.145914	0.068729	0.467485	0.425309	0.591202	0.437782	0.821843	1.109654	0.302910	0.466690	0.216671	0.226012	0.334671	0.166039	0.506383	0.663268	0.097760	0.064341	0.268972	0.390975	0.477377	0.283740	0.801682	0.887493	0.143110	0.073766	0.411493	0.538480	0.509598	0.342877	0.916234	0.579077	0.241196	0.146761	0.318515	0.312410	0.600113	0.307793	0.733114	0.658976	0.108142	0.038321	0.209779	0.303626	0.291229	0.154723	0.820495	0.292609	0.332949	0.187247	0.240168	0.208750	0.445069	0.227563	0.928707	0.603255	0.126019	0.065548	0.154887	0.195635	0.406767	0.216174	0.658887	0.849032	0.091892	0.048617	0.295963	0.110310
66	0.417576	0.160877	0.450297	0.703810	0.133316	0.063781	0.445521	0.399782	0.569829	0.431843	0.982876	1.118252	0.314076	0.471966	0.214507	0.232111	0.358620	0.178663	0.502774	0.673708	0.100005	0.065331	0.279965	0.389282	0.501260	0.294561	0.824376	0.888977	0.141284	0.074056	0.440931	0.516898	0.511546	0.346075	0.927102	0.580316	0.207931	0.119411	0.322248	0.312103	0.595001	0.309043	0.741742	0.648043	0.094321	0.045960	0.128196	0.266740	0.323148	0.168720	0.792630	0.239840	0.330640	0.184292	0.204458	0.213565	0.397710	0.201349	0.950599	0.670875	0.088889	0.054645	0.148793	0.190484	0.411356	0.222768	0.679575	0.871543	0.072836	0.039362	0.244248	0.098753
67	0.432389	0.168392	0.508565	0.710651	0.094432	0.047354	0.441552	0.308118	0.551548	0.423119	1.042089	1.125454	0.304082	0.462341	0.217595	0.319544	0.372628	0.186748	0.501346	0.706065	0.161810	0.100622	0.289126	0.404449	0.542017	0.315855	0.886120	0.885549	0.144606	0.071179	0.450572	0.520826	0.515658	0.347934	0.932514	0.632084	0.179649	0.106440	0.202730	0.374395	0.589797	0.310452	0.743029	0.633180	0.088603	0.052837	0.145485	0.259107	0.362492	0.187179	0.772170	0.236529	0.330596	0.180858	0.196918	0.165252	0.343271	0.171538	0.959633	0.686519	0.099826	0.060502	0.169938	0.187502	0.413600	0.231859	0.701601	0.867826	0.132351	0.070624	0.255640	0.077010
68	0.432255	0.169111	0.531715	0.720007	0.103428	0.052086	0.424975	0.276469	0.545765	0.417717	1.068607	1.129775	0.272273	0.458633	0.206944	0.360481	0.374165	0.186046	0.507988	0.830021	0.177627	0.112046	0.314621	0.388644	0.570009	0.331421	0.938677	0.884201	0.148843	0.070475	0.373247	0.404906	0.532865	0.355972	0.960225	0.651575	0.158680	0.100779	0.175244	0.398178	0.566861	0.306464	0.742310	0.703115	0.104333	0.062670	0.186516	0.279515	0.370525	0.191477	0.792390	0.253263	0.301942	0.155622	0.227217	0.217711	0.318849	0.155478	0.961444	0.690325	0.108893	0.068690	0.172341	0.167710	0.413681	0.239388	0.732559	0.856184	0.137352	0.073104	0.265400	0.138608
69	0.415852	0.161672	0.529641	0.721658	0.110861	0.055639	0.394384	0.244611	0.547187	0.416177	1.074229	1.132535	0.205905	0.370157	0.167586	0.357614	0.376068	0.184907	0.514641	0.939323	0.157200	0.097946	0.291536	0.328438	0.578767	0.336227	0.958323	0.884183	0.133813	0.068796	0.319133	0.373446	0.540622	0.361880	1.034995	0.626753	0.156864	0.101981	0.165195	0.384733	0.526235	0.296530	0.721174	0.927475	0.123173	0.068904	0.191420	0.378720	0.359931	0.186920	0.794529	0.277270	0.281391	0.134916	0.191445	0.205714	0.324929	0.168632	0.956821	0.707638	0.096817	0.066310	0.135273	0.129191	0.403102	0.239796	0.764093	0.861103	0.135313	0.072719	0.238350	0.165568
70	0.411582	0.160110	0.526222	0.720697	0.111541	0.057678	0.376410	0.229909	0.548463	0.414090	1.073098	1.149425	0.185947	0.322987	0.153197	0.368929	0.379215	0.186571	0.519161	0.968191	0.158087	0.097958	0.215417	0.199926	0.580284	0.337055	0.957815	0.883461	0.101776	0.054902	0.314442	0.232623	0.529983	0.361679	1.064704	0.608283	0.142464	0.094214	0.153303	0.396980	0.483356	0.280508	0.687457	1.098009	0.151275	0.083629	0.215360	0.389976	0.356291	0.185294	0.799236	0.281016	0.153361	0.084470	0.204853	0.200883	0.351055	0.195112	0.893801	0.718948	0.092831	0.067908	0.171506	0.122819	0.379207	0.233039	0.774923	0.863847	0.165114	0.105853	0.239925	0.193846
71	0.411158	0.159873	0.513206	0.718469	0.127683	0.062273	0.239609	0.218351	0.560708	0.417769	1.070485	1.193891	0.180878	0.247946	0.152816	0.371049	0.372434	0.184909	0.520978	0.942402	0.158100	0.099216	0.172188	0.206203	0.580626	0.337411	0.951978	0.882643	0.107516	0.058925	0.296405	0.168709	0.496212	0.340998	1.038631	0.595180	0.121482	0.096907	0.166583	0.373256	0.454424	0.260981	0.651345	1.130120	0.185905	0.105705	0.245857	0.411529	0.355710	0.184669	0.792292	0.282205	0.111551	0.061220	0.240246	0.200188	0.361049	0.200679	0.813044	0.706614	0.119618	0.081431	0.211298	0.142170	0.335493	0.212428	0.751684	0.862952	0.177924	0.129832	0.235300	0.213504
72	0.414634	0.162357	0.509230	0.759637	0.123788	0.062121	0.196557	0.216092	0.591091	0.430408	1.092950	1.235145	0.181611	0.243999	0.147143	0.366762	0.358499	0.175588	0.514960	0.951169	0.154043	0.105980	0.157863	0.214368	0.581527	0.339152	0.941872	0.882289	0.109394	0.059732	0.259697	0.165643	0.427235	0.281316	0.988205	0.593563	0.119865	0.124907	0.149909	0.237357	0.422056	0.235273	0.622935	1.117830	0.202300	0.114551	0.269622	0.424421	0.347520	0.180209	0.779185	0.285824	0.122329	0.068957	0.249501	0.195995	0.354792	0.198675	0.774915	0.661101	0.125831	0.080394	0.220455	0.166077	0.327573	0.206788	0.705672	0.792281	0.181584	0.130259	0.234739	0.216797
73	0.411402	0.161656	0.509577	0.878968	0.135200	0.066558	0.197219	0.199555	0.623164	0.442239	1.151099	1.243040	0.161911	0.208526	0.158614	0.354933	0.358518	0.169036	0.463118	0.945025	0.085659	0.075282	0.143977	0.171469	0.582017	0.342055	0.939740	0.879807	0.104068	0.059710	0.229850	0.146768	0.368785	0.244221	0.874352	0.552701	0.109745	0.147982	0.152865	0.258554	0.393250	0.209551	0.651576	1.167942	0.196231	0.111328	0.283850	0.404717	0.333988	0.172632	0.784240	0.290120	0.120768	0.068088	0.216067	0.176149	0.355653	0.198233	0.758273	0.634322	0.134004	0.088039	0.242670	0.177614	0.338365	0.209291	0.663106	0.782088	0.134212	0.131194	0.189719	0.216838
74	0.423218	0.168465	0.495231	0.907294	0.139293	0.068773	0.203100	0.203782	0.650269	0.450822	1.198016	1.228858	0.136840	0.185366	0.235595	0.346186	0.371296	0.170000	0.407241	0.960072	0.082231	0.072577	0.097490	0.123031	0.574198	0.341057	0.947014	0.835912	0.104266	0.061476	0.187737	0.112614	0.357713	0.232097	0.737097	0.508927	0.106959	0.143871	0.145344	0.269525	0.402546	0.209062	0.718214	1.248026	0.195246	0.108154	0.262052	0.376039	0.329080	0.169163	0.773631	0.289652	0.115028	0.064909	0.176800	0.106539	0.366789	0.201939	0.745162	0.644687	0.138793	0.090216	0.209245	0.231446	0.338838	0.208798	0.632092	0.747103	0.134927	0.143961	0.151869	0.171245
75	0.440785	0.178632	0.475534	0.885921	0.144218	0.069109	0.204273	0.172903	0.669630	0.455950	1.246107	1.173431	0.151537	0.191358	0.250902	0.287915	0.351667	0.163911	0.404896	0.965708	0.087792	0.084846	0.141029	0.159146	0.560858	0.331358	0.948111	0.747860	0.115266	0.071414	0.173581	0.094751	0.366680	0.229515	0.707148	0.497246	0.113109	0.145785	0.308848	0.260332	0.414041	0.214481	0.731034	1.292528	0.190410	0.105180	0.264020	0.247766	0.329729	0.169943	0.758763	0.253268	0.115860	0.065913	0.174734	0.109306	0.359568	0.197137	0.746258	0.654932	0.112483	0.076719	0.176792	0.205605	0.347796	0.211939	0.616623	0.655183	0.131728	0.141258	0.129005	0.175369
76	0.443017	0.182200	0.494924	0.837474	0.150364	0.068685	0.210797	0.164067	0.682616	0.464186	1.269969	1.027590	0.202193	0.222324	0.288918	0.333567	0.348674	0.158765	0.385592	0.961109	0.088179	0.088353	0.207539	0.228976	0.533338	0.309344	0.919278	0.695210	0.131618	0.091598	0.167893	0.133272	0.367277	0.229221	0.705947	0.470384	0.119708	0.140170	0.319288	0.317481	0.420874	0.216757	0.701051	1.282975	0.172256	0.096462	0.239869	0.230687	0.327066	0.170981	0.761857	0.257381	0.114081	0.070455	0.153660	0.113288	0.355367	0.186677	0.718148	0.658817	0.099271	0.073083	0.158300	0.209168	0.347726	0.215726	0.564804	0.513973	0.089237	0.111195	0.090787	0.139828
77	0.432754	0.179524	0.519177	0.782705	0.173147	0.081685	0.185349	0.161445	0.679133	0.462500	1.271110	0.812791	0.220827	0.217518	0.338318	0.456486	0.347263	0.155467	0.369956	0.955798	0.090604	0.086052	0.238143	0.320552	0.481347	0.276164	0.846733	0.693347	0.138164	0.097138	0.124480	0.188503	0.348559	0.222644	0.697193	0.424206	0.121709	0.108311	0.324341	0.318468	0.410015	0.210437	0.673901	1.286047	0.130031	0.072654	0.199529	0.268753	0.327031	0.175979	0.771823	0.277939	0.085432	0.058443	0.096020	0.103571	0.351906	0.177508	0.656566	0.657810	0.079511	0.052968	0.131172	0.205274	0.335758	0.212692	0.524030	0.460010	0.077098	0.098372	0.096295	0.142892
78	0.450282	0.197051	0.527536	0.750287	0.156516	0.072880	0.126761	0.141554	0.645174	0.424723	1.269974	0.683543	0.252333	0.211099	0.399796	0.457258	0.346832	0.155355	0.367080	0.953118	0.163016	0.110239	0.236114	0.339235	0.425541	0.243691	0.743366	0.605074	0.141938	0.099258	0.106269	0.217962	0.324478	0.211866	0.679243	0.417371	0.128355	0.128537	0.355525	0.295222	0.390254	0.200540	0.712312	1.275588	0.100370	0.059589	0.168794	0.270722	0.349928	0.190501	0.765412	0.278264	0.062312	0.042990	0.062730	0.115317	0.346288	0.174141	0.565534	0.661453	0.046928	0.035364	0.104242	0.209896	0.334996	0.210598	0.517314	0.449137	0.078999	0.096423	0.091936	0.140875
79	0.447866	0.203843	0.580991	0.752180	0.164653	0.077614	0.131442	0.122274	0.561925	0.354087	1.268911	0.668333	0.321902	0.230721	0.452078	0.494299	0.345066	0.155037	0.362288	0.949310	0.214157	0.145417	0.281860	0.351577	0.409115	0.234183	0.631154	0.454917	0.141596	0.100050	0.096357	0.212113	0.311705	0.206523	0.659429	0.426780	0.151149	0.183242	0.354484	0.280383	0.374495	0.190119	0.763998	1.249913	0.100261	0.059553	0.155838	0.321742	0.369991	0.200092	0.725714	0.291335	0.055645	0.041926	0.086465	0.151480	0.347579	0.173346	0.457107	0.617607	0.051394	0.034829	0.128845	0.272796	0.332250	0.208404	0.508430	0.492723	0.095466	0.056257	0.090377	0.135857
80	0.418100	0.197094	0.561025	0.764081	0.164142	0.079541	0.132947	0.122618	0.505520	0.301279	1.221667	0.668062	0.355465	0.268252	0.505983	0.505898	0.342956	0.149944	0.326930	0.937055	0.216873	0.145101	0.283651	0.355280	0.410080	0.235371	0.597923	0.384872	0.155496	0.108316	0.094795	0.210156	0.299191	0.199289	0.638560	0.433087	0.196355	0.241696	0.226456	0.277145	0.358728	0.177588	0.783044	1.248000	0.103718	0.066326	0.204974	0.381161	0.377610	0.204411	0.642841	0.297115	0.068160	0.046458	0.134051	0.166688	0.345071	0.170678	0.396791	0.509079	0.060786	0.032086	0.223264	0.338845	0.327781	0.206404	0.491406	0.537016	0.094640	0.039878	0.072017	0.163139
81	0.406640	0.195556	0.571211	0.758107	0.161831	0.079506	0.128067	0.120662	0.505704	0.302312	1.116621	0.632071	0.362213	0.292332	0.506636	0.504317	0.331386	0.134960	0.299137	0.926695	0.215989	0.142966	0.270794	0.338232	0.398785	0.233137	0.603046	0.471308	0.153388	0.108008	0.105666	0.210723	0.307638	0.205182	0.619075	0.463754	0.209363	0.259124	0.208826	0.207879	0.352447	0.172047	0.783980	1.255730	0.099994	0.072703	0.211421	0.371278	0.381917	0.206887	0.588800	0.301443	0.069615	0.062995	0.134581	0.203970	0.345278	0.170102	0.412667	0.453915	0.091213	0.045886	0.215698	0.387611	0.330009	0.206477	0.460720	0.520810	0.096553	0.037643	0.071521	0.178659
82	0.411381	0.202311	0.583673	0.744022	0.155832	0.076586	0.115032	0.113566	0.529682	0.325594	1.062970	0.587521	0.362333	0.292838	0.474094	0.506848	0.314737	0.123398	0.341449	0.913789	0.222635	0.146945	0.203192	0.242134	0.358301	0.213865	0.559276	0.540178	0.155307	0.181532	0.119770	0.196442	0.362034	0.227822	0.645689	0.462165	0.253315	0.331514	0.212227	0.217711	0.344788	0.166974	0.788576	1.252677	0.112909	0.083939	0.234822	0.432847	0.363370	0.196898	0.514577	0.308184	0.054482	0.054457	0.132019	0.254772	0.336033	0.175935	0.470073	0.453208	0.133149	0.074636	0.235792	0.351021	0.381165	0.218510	0.423445	0.514394	0.098843	0.038666	0.063871	0.232754
83	0.447329	0.223565	0.620584	0.751139	0.151549	0.077614	0.115952	0.110846	0.559796	0.334900	1.041624	0.564841	0.355010	0.294883	0.465771	0.482772	0.321618	0.140485	0.369441	0.815937	0.219586	0.145902	0.205550	0.213799	0.292326	0.176250	0.446548	0.586428	0.151756	0.222153	0.123656	0.159362	0.389992	0.236135	0.675553	0.449938	0.254489	0.331246	0.137868	0.211819	0.344140	0.165608	0.789127	1.216152	0.122459	0.084669	0.250160	0.388970	0.361533	0.195059	0.464216	0.288362	0.059206	0.055838	0.127902	0.273284	0.343833	0.176314	0.511876	0.464803	0.160679	0.087113	0.224755	0.284542	0.442609	0.233347	0.376806	0.521811	0.093893	0.032331	0.056281	0.221938
84	0.510776	0.259547	0.694902	0.760023	0.163537	0.070256	0.109697	0.073342	0.565055	0.335496	1.024742	0.560120	0.326779	0.272924	0.438418	0.430878	0.438910	0.162738	0.359122	0.673807	0.132248	0.097152	0.179469	0.171563	0.262166	0.166362	0.344506	0.653181	0.171113	0.307121	0.116503	0.142234	0.411851	0.242160	0.599273	0.444311	0.274808	0.332119	0.142718	0.274890	0.342187	0.167463	0.756495	1.065840	0.194185	0.100621	0.288521	0.379121	0.363839	0.196431	0.462964	0.294975	0.064352	0.056911	0.136786	0.307619	0.347978	0.161921	0.489160	0.451729	0.154400	0.085812	0.149523	0.229688	0.452989	0.237827	0.345303	0.535120	0.100442	0.042641	0.086540	0.238343
85	0.528422	0.271516	0.775926	0.763152	0.177064	0.086095	0.094590	0.045041	0.575134	0.337720	1.042556	0.551120	0.304413	0.300826	0.405292	0.273560	0.485446	0.176923	0.347167	0.550026	0.095115	0.063551	0.120030	0.163879	0.355505	0.250357	0.312401	0.677062	0.194654	0.313761	0.120365	0.200351	0.464173	0.265075	0.508503	0.521801	0.250600	0.302513	0.143247	0.382483	0.345051	0.176794	0.707853	0.872537	0.203580	0.102782	0.283902	0.344310	0.374498	0.199986	0.458989	0.329462	0.095687	0.064911	0.128572	0.298045	0.407970	0.183730	0.450363	0.489200	0.138032	0.082216	0.145668	0.075154	0.431201	0.224738	0.334211	0.522630	0.082724	0.041283	0.088680	0.247155
86	0.552275	0.288289	0.788759	0.775500	0.185386	0.086471	0.092249	0.049927	0.594204	0.353913	1.087228	0.503686	0.283762	0.317983	0.334611	0.252093	0.511727	0.198269	0.371071	0.537966	0.080023	0.053963	0.114336	0.202185	0.495488	0.330003	0.345861	0.689791	0.207306	0.317872	0.140369	0.228410	0.532223	0.296516	0.533955	0.589245	0.243184	0.288038	0.129771	0.375679	0.438129	0.214352	0.705151	0.797936	0.207571	0.100562	0.257687	0.277464	0.400724	0.208537	0.455871	0.339675	0.106252	0.068937	0.088689	0.297974	0.465650	0.208381	0.444355	0.534142	0.107295	0.064186	0.156510	0.073525	0.410126	0.211300	0.307968	0.509107	0.081806	0.042261	0.086569	0.218854
87	0.592817	0.317455	0.883174	0.680576	0.356054	0.144966	0.103018	0.056368	0.600235	0.376948	1.124711	0.441615	0.195032	0.293004	0.277494	0.166014	0.534229	0.212721	0.453197	0.522507	0.060515	0.039642	0.152755	0.251271	0.561345	0.372980	0.425690	0.753578	0.215377	0.316804	0.135382	0.315068	0.552527	0.301977	0.592483	0.602565	0.208909	0.211347	0.215813	0.389381	0.529182	0.243925	0.734234	0.794952	0.205211	0.093401	0.288070	0.295099	0.415663	0.213236	0.440907	0.337286	0.104379	0.053094	0.135151	0.283819	0.468509	0.210046	0.436886	0.538547	0.079081	0.051796	0.164241	0.229511	0.391825	0.200727	0.298056	0.522016	0.100725	0.056966	0.096061	0.188424
88	0.602890	0.325757	1.096181	0.511943	0.376185	0.156663	0.099145	0.076237	0.574612	0.374886	1.086581	0.363172	0.112040	0.256696	0.134517	0.113175	0.550025	0.216195	0.479993	0.446447	0.097912	0.049700	0.169523	0.249702	0.592433	0.399285	0.575139	0.836811	0.228614	0.279156	0.123337	0.319764	0.549656	0.296835	0.615687	0.601095	0.205590	0.183507	0.221564	0.373008	0.567829	0.263061	0.720021	0.778501	0.197820	0.081879	0.275880	0.182532	0.442126	0.223490	0.428719	0.361270	0.118620	0.060510	0.152703	0.235343	0.464793	0.213794	0.466691	0.491045	0.082733	0.048924	0.185065	0.303746	0.385075	0.198087	0.347175	0.563365	0.121562	0.064414	0.117765	0.164057
89	0.594972	0.321570	1.191787	0.492257	0.375108	0.156704	0.098841	0.118649	0.540939	0.359335	1.018624	0.348868	0.090487	0.223923	0.106922	0.146075	0.547857	0.212975	0.481014	0.352419	0.127801	0.061503	0.207894	0.389619	0.595967	0.400357	0.711277	0.905159	0.230094	0.244045	0.136252	0.310604	0.552137	0.300317	0.622924	0.601085	0.159756	0.125216	0.242930	0.339329	0.615560	0.298527	0.690494	0.730183	0.203752	0.087371	0.260856	0.190859	0.467057	0.237446	0.452617	0.395161	0.145654	0.073541	0.156481	0.229770	0.454142	0.217544	0.494826	0.455268	0.065561	0.033494	0.236132	0.357319	0.381804	0.197305	0.372889	0.562114	0.133884	0.069258	0.117066	0.162316
90	0.585628	0.316503	1.208743	0.456146	0.374422	0.156632	0.115209	0.194630	0.510662	0.343714	0.961467	0.379102	0.148023	0.227111	0.105014	0.138929	0.535742	0.206859	0.488456	0.316425	0.161882	0.086822	0.307425	0.405063	0.589837	0.395329	0.754824	0.914254	0.213635	0.141394	0.133241	0.309266	0.550823	0.305954	0.658957	0.601415	0.176921	0.107701	0.237893	0.194604	0.641008	0.320037	0.757039	0.648490	0.168130	0.079169	0.223668	0.208558	0.475845	0.243606	0.475518	0.389733	0.167939	0.084105	0.188161	0.205561	0.444608	0.222375	0.489518	0.441898	0.070120	0.036540	0.228358	0.360392	0.369956	0.189940	0.374427	0.543235	0.125667	0.063376	0.104797	0.140664
91	0.583665	0.314918	1.193052	0.405717	0.370348	0.156147	0.116186	0.212783	0.489673	0.328468	0.888096	0.412058	0.203995	0.232547	0.116953	0.168211	0.529400	0.204447	0.465589	0.304605	0.223497	0.127921	0.321615	0.432060	0.577238	0.391187	0.755152	0.908682	0.195791	0.126579	0.135320	0.273658	0.559789	0.313680	0.662717	0.601260	0.213642	0.138493	0.237484	0.215900	0.626867	0.313094	0.844900	0.632594	0.158169	0.077834	0.205014	0.227818	0.475265	0.242350	0.450765	0.359483	0.153033	0.077255	0.204775	0.200256	0.439865	0.234584	0.486187	0.454886	0.109342	0.061898	0.228898	0.312334	0.369511	0.185883	0.375552	0.541517	0.126208	0.066002	0.101301	0.149121
92	0.569950	0.307566	1.186591	0.414734	0.353138	0.149076	0.121641	0.220124	0.493166	0.323990	0.828253	0.413615	0.212180	0.227946	0.122468	0.294548	0.532138	0.209288	0.464168	0.304409	0.228895	0.131224	0.327354	0.406333	0.577196	0.391746	0.755133	0.913747	0.168636	0.106687	0.119187	0.280879	0.565053	0.316588	0.673247	0.600186	0.196955	0.127163	0.152849	0.252777	0.620830	0.311409	0.861430	0.632688	0.154774	0.079209	0.221088	0.238996	0.471899	0.237132	0.428740	0.357233	0.148931	0.075600	0.217810	0.186723	0.466260	0.255064	0.498344	0.466335	0.100984	0.060846	0.211313	0.227441	0.372219	0.187067	0.389595	0.564385	0.119609	0.061989	0.097344	0.154511
93	0.550880	0.295122	1.175925	0.422866	0.340207	0.141064	0.143077	0.238832	0.516902	0.332921	0.841012	0.409806	0.220744	0.179725	0.125974	0.321585	0.546742	0.219405	0.472768	0.288959	0.225500	0.129174	0.300937	0.390385	0.588850	0.396042	0.751548	0.925485	0.148391	0.099378	0.127348	0.173247	0.564398	0.315488	0.679222	0.601121	0.196367	0.127735	0.139927	0.288875	0.623733	0.314413	0.840413	0.627491	0.172386	0.095535	0.163403	0.210804	0.452590	0.225652	0.399174	0.365580	0.159487	0.081473	0.197683	0.175386	0.505105	0.280453	0.509103	0.461424	0.111061	0.068733	0.151794	0.163597	0.371382	0.188839	0.403910	0.585617	0.102575	0.049293	0.077482	0.136344
94	0.546818	0.292093	1.151454	0.406485	0.303702	0.122385	0.140062	0.317921	0.540909	0.344972	0.881346	0.409026	0.278790	0.200013	0.148973	0.425144	0.561720	0.227517	0.485185	0.249139	0.204410	0.121972	0.296641	0.354150	0.598680	0.399724	0.776609	0.929750	0.100246	0.058565	0.190993	0.162205	0.564408	0.313137	0.681864	0.606510	0.196423	0.130914	0.124278	0.285853	0.628327	0.317355	0.799459	0.630933	0.174144	0.098930	0.153797	0.216932	0.438615	0.217295	0.367674	0.362197	0.162143	0.082935	0.193798	0.171332	0.526259	0.290355	0.508864	0.464999	0.101747	0.065340	0.141389	0.204399	0.370992	0.187573	0.400975	0.541025	0.061017	0.032054	0.091698	0.126143
95	0.563858	0.297857	1.145770	0.393519	0.063882	0.050287	0.157747	0.330106	0.547406	0.351487	0.902536	0.401113	0.303601	0.226135	0.209032	0.466066	0.572968	0.234720	0.500453	0.241468	0.197171	0.119997	0.241200	0.190728	0.600739	0.400367	0.837928	0.929429	0.095326	0.041857	0.184094	0.189110	0.566835	0.311070	0.688148	0.599960	0.183384	0.135188	0.169118	0.300926	0.637948	0.322104	0.776940	0.618613	0.159146	0.091080	0.157912	0.216721	0.422238	0.208465	0.351757	0.367011	0.148040	0.076448	0.205341	0.153408	0.529413	0.290871	0.486215	0.466607	0.082208	0.057663	0.119278	0.253797	0.367876	0.182050	0.406211	0.491597	0.039176	0.022750	0.087429	0.120941
96	0.587896	0.301977	1.112788	0.381109	0.094769	0.057447	0.163084	0.408661	0.521599	0.346693	0.883868	0.424745	0.303851	0.239416	0.218778	0.468881	0.577415	0.242591	0.556349	0.258139	0.130700	0.083226	0.141196	0.134496	0.600503	0.399462	0.881630	0.902060	0.089327	0.040389	0.192901	0.225510	0.560385	0.302591	0.689193	0.653916	0.131757	0.111765	0.166328	0.298504	0.645752	0.327261	0.777601	0.603152	0.124529	0.075359	0.154983	0.188421	0.404543	0.199815	0.351410	0.364975	0.120749	0.068012	0.170819	0.103253	0.529300	0.289994	0.429108	0.464633	0.078284	0.053541	0.121362	0.273276	0.356420	0.170947	0.403455	0.504993	0.043355	0.026890	0.099222	0.118268
97	0.598472	0.294916	1.086985	0.382223	0.128290	0.076538	0.161820	0.413412	0.493762	0.326406	0.820422	0.432285	0.300845	0.238995	0.211502	0.460293	0.581474	0.247438	0.548135	0.293615	0.053423	0.037595	0.094963	0.051722	0.601538	0.398602	0.880542	0.842476	0.072974	0.034488	0.189722	0.249054	0.529903	0.283085	0.651171	0.665152	0.126624	0.112014	0.203648	0.260950	0.661226	0.339274	0.814233	0.607237	0.116669	0.071653	0.160208	0.151819	0.394355	0.196386	0.354214	0.451210	0.124826	0.075987	0.149075	0.095649	0.515100	0.284016	0.370485	0.440416	0.056292	0.041491	0.179222	0.270367	0.256373	0.137293	0.404064	0.544974	0.027795	0.079047	0.100398	0.101575
98	0.577900	0.273878	1.055683	0.363606	0.146357	0.084096	0.157496	0.400358	0.462485	0.307993	0.747993	0.432204	0.280472	0.235261	0.211835	0.454284	0.581667	0.240403	0.518554	0.301212	0.064782	0.043630	0.084141	0.115369	0.602003	0.399930	0.881660	0.821267	0.070544	0.033430	0.193935	0.236317	0.493070	0.263921	0.583888	0.621831	0.096732	0.090920	0.215847	0.224590	0.672889	0.347353	0.881438	0.614466	0.101499	0.064999	0.123927	0.120170	0.393113	0.196103	0.351252	0.590769	0.132492	0.103400	0.158741	0.111826	0.498221	0.276669	0.347318	0.417649	0.051477	0.039887	0.212275	0.185647	0.144722	0.105322	0.389177	0.553606	0.027963	0.115354	0.111390	0.136640
99	0.527979	0.244708	1.025753	0.355673	0.146247	0.083602	0.156072	0.396836	0.429178	0.300129	0.724739	0.431557	0.241503	0.229033	0.207745	0.450629	0.515637	0.225370	0.515066	0.349774	0.095110	0.060575	0.104011	0.157684	0.601997	0.399876	0.899844	0.788636	0.066945	0.031662	0.198287	0.242015	0.470262	0.252239	0.539353	0.613721	0.092958	0.086321	0.204205	0.218517	0.677062	0.349729	0.921753	0.615816	0.055236	0.040655	0.125562	0.131693	0.391808	0.194176	0.354200	0.619195	0.130262	0.102234	0.164179	0.114286	0.457513	0.260514	0.344820	0.381110	0.047929	0.039454	0.223574	0.172717	0.108843	0.085937	0.367440	0.516440	0.035348	0.151566	0.148212	0.147787
100	0.587189	0.261151	1.006275	0.400073	0.146181	0.082987	0.132287	0.401973	0.415761	0.297530	0.718435	0.426318	0.231304	0.224602	0.204235	0.381550	0.459170	0.216465	0.526552	0.368789	0.102747	0.064433	0.184753	0.168376	0.590278	0.385921	0.904446	0.739567	0.050323	0.027754	0.145975	0.245177	0.435461	0.235946	0.539371	0.569660	0.058199	0.072886	0.173620	0.193953	0.676550	0.347191	0.925602	0.610096	0.063708	0.040706	0.106730	0.121014	0.386084	0.190846	0.337350	0.623639	0.113560	0.101372	0.218264	0.147278	0.378259	0.235669	0.344196	0.302964	0.057989	0.045148	0.220319	0.204500	0.113054	0.087663	0.385147	0.506201	0.049718	0.153274	0.151821	0.185235
101	0.649771	0.265069	1.024370	0.370205	0.144489	0.082436	0.117505	0.365772	0.392799	0.293628	0.680711	0.427684	0.221129	0.220921	0.210374	0.349725	0.433852	0.199592	0.527817	0.342373	0.122124	0.073803	0.189233	0.168146	0.510866	0.321313	0.910585	0.732080	0.038591	0.025783	0.147473	0.213338	0.370220	0.205632	0.532461	0.492026	0.040553	0.038366	0.200076	0.166764	0.633293	0.327999	0.912154	0.592470	0.071089	0.045120	0.099775	0.128316	0.357184	0.180614	0.313567	0.684951	0.099271	0.103163	0.213698	0.144376	0.368847	0.231501	0.343557	0.240320	0.080268	0.046653	0.186177	0.198659	0.131869	0.094543	0.413451	0.509577	0.056068	0.154965	0.155488	0.194110
