	119_F_P_sh_L_ND_A_01.c3d	119_F_P_sh_L_ND_A_01.c3d	119_F_P_sh_L_ND_A_01.c3d	119_F_P_sh_L_ND_A_01.c3d	119_F_P_sh_L_ND_A_01.c3d	119_F_P_sh_L_ND_A_01.c3d	119_F_P_sh_L_ND_A_01.c3d	119_F_P_sh_L_ND_A_01.c3d	119_F_P_sh_L_ND_A_02.c3d	119_F_P_sh_L_ND_A_02.c3d	119_F_P_sh_L_ND_A_02.c3d	119_F_P_sh_L_ND_A_02.c3d	119_F_P_sh_L_ND_A_02.c3d	119_F_P_sh_L_ND_A_02.c3d	119_F_P_sh_L_ND_A_02.c3d	119_F_P_sh_L_ND_A_02.c3d	119_F_P_sh_L_ND_A_03.c3d	119_F_P_sh_L_ND_A_03.c3d	119_F_P_sh_L_ND_A_03.c3d	119_F_P_sh_L_ND_A_03.c3d	119_F_P_sh_L_ND_A_03.c3d	119_F_P_sh_L_ND_A_03.c3d	119_F_P_sh_L_ND_A_03.c3d	119_F_P_sh_L_ND_A_03.c3d	119_F_P_sh_L_ND_A_04.c3d	119_F_P_sh_L_ND_A_04.c3d	119_F_P_sh_L_ND_A_04.c3d	119_F_P_sh_L_ND_A_04.c3d	119_F_P_sh_L_ND_A_04.c3d	119_F_P_sh_L_ND_A_04.c3d	119_F_P_sh_L_ND_A_04.c3d	119_F_P_sh_L_ND_A_04.c3d	119_F_P_sh_L_ND_A_05.c3d	119_F_P_sh_L_ND_A_05.c3d	119_F_P_sh_L_ND_A_05.c3d	119_F_P_sh_L_ND_A_05.c3d	119_F_P_sh_L_ND_A_05.c3d	119_F_P_sh_L_ND_A_05.c3d	119_F_P_sh_L_ND_A_05.c3d	119_F_P_sh_L_ND_A_05.c3d	119_F_P_sh_L_ND_A_06.c3d	119_F_P_sh_L_ND_A_06.c3d	119_F_P_sh_L_ND_A_06.c3d	119_F_P_sh_L_ND_A_06.c3d	119_F_P_sh_L_ND_A_06.c3d	119_F_P_sh_L_ND_A_06.c3d	119_F_P_sh_L_ND_A_06.c3d	119_F_P_sh_L_ND_A_06.c3d	119_F_P_sh_L_ND_A_07.c3d	119_F_P_sh_L_ND_A_07.c3d	119_F_P_sh_L_ND_A_07.c3d	119_F_P_sh_L_ND_A_07.c3d	119_F_P_sh_L_ND_A_07.c3d	119_F_P_sh_L_ND_A_07.c3d	119_F_P_sh_L_ND_A_07.c3d	119_F_P_sh_L_ND_A_07.c3d	119_F_P_sh_L_ND_A_08.c3d	119_F_P_sh_L_ND_A_08.c3d	119_F_P_sh_L_ND_A_08.c3d	119_F_P_sh_L_ND_A_08.c3d	119_F_P_sh_L_ND_A_08.c3d	119_F_P_sh_L_ND_A_08.c3d	119_F_P_sh_L_ND_A_08.c3d	119_F_P_sh_L_ND_A_08.c3d	119_F_P_sh_L_ND_A_09.c3d	119_F_P_sh_L_ND_A_09.c3d	119_F_P_sh_L_ND_A_09.c3d	119_F_P_sh_L_ND_A_09.c3d	119_F_P_sh_L_ND_A_09.c3d	119_F_P_sh_L_ND_A_09.c3d	119_F_P_sh_L_ND_A_09.c3d	119_F_P_sh_L_ND_A_09.c3d	119_F_P_sh_L_ND_A_10.c3d	119_F_P_sh_L_ND_A_10.c3d	119_F_P_sh_L_ND_A_10.c3d	119_F_P_sh_L_ND_A_10.c3d	119_F_P_sh_L_ND_A_10.c3d	119_F_P_sh_L_ND_A_10.c3d	119_F_P_sh_L_ND_A_10.c3d	119_F_P_sh_L_ND_A_10.c3d
	Biceps femoris_lat	Semitendinosus_lat	Vastus lateralis_lat	Vastus medialis_lat	Biceps femoris_med	Semitendinosus_med	Vastus lateralis_med	Vastus medialis_med	Biceps femoris_lat	Semitendinosus_lat	Vastus lateralis_lat	Vastus medialis_lat	Biceps femoris_med	Semitendinosus_med	Vastus lateralis_med	Vastus medialis_med	Biceps femoris_lat	Semitendinosus_lat	Vastus lateralis_lat	Vastus medialis_lat	Biceps femoris_med	Semitendinosus_med	Vastus lateralis_med	Vastus medialis_med	Biceps femoris_lat	Semitendinosus_lat	Vastus lateralis_lat	Vastus medialis_lat	Biceps femoris_med	Semitendinosus_med	Vastus lateralis_med	Vastus medialis_med	Biceps femoris_lat	Semitendinosus_lat	Vastus lateralis_lat	Vastus medialis_lat	Biceps femoris_med	Semitendinosus_med	Vastus lateralis_med	Vastus medialis_med	Biceps femoris_lat	Semitendinosus_lat	Vastus lateralis_lat	Vastus medialis_lat	Biceps femoris_med	Semitendinosus_med	Vastus lateralis_med	Vastus medialis_med	Biceps femoris_lat	Semitendinosus_lat	Vastus lateralis_lat	Vastus medialis_lat	Biceps femoris_med	Semitendinosus_med	Vastus lateralis_med	Vastus medialis_med	Biceps femoris_lat	Semitendinosus_lat	Vastus lateralis_lat	Vastus medialis_lat	Biceps femoris_med	Semitendinosus_med	Vastus lateralis_med	Vastus medialis_med	Biceps femoris_lat	Semitendinosus_lat	Vastus lateralis_lat	Vastus medialis_lat	Biceps femoris_med	Semitendinosus_med	Vastus lateralis_med	Vastus medialis_med	Biceps femoris_lat	Semitendinosus_lat	Vastus lateralis_lat	Vastus medialis_lat	Biceps femoris_med	Semitendinosus_med	Vastus lateralis_med	Vastus medialis_med
	P2D	P2D	P2D	P2D	P2D	P2D	P2D	P2D	P2D	P2D	P2D	P2D	P2D	P2D	P2D	P2D	P2D	P2D	P2D	P2D	P2D	P2D	P2D	P2D	P2D	P2D	P2D	P2D	P2D	P2D	P2D	P2D	P2D	P2D	P2D	P2D	P2D	P2D	P2D	P2D	P2D	P2D	P2D	P2D	P2D	P2D	P2D	P2D	P2D	P2D	P2D	P2D	P2D	P2D	P2D	P2D	P2D	P2D	P2D	P2D	P2D	P2D	P2D	P2D	P2D	P2D	P2D	P2D	P2D	P2D	P2D	P2D	P2D	P2D	P2D	P2D	P2D	P2D	P2D	P2D
	EMG_lat	EMG_lat	EMG_lat	EMG_lat	EMG_med	EMG_med	EMG_med	EMG_med	EMG_lat	EMG_lat	EMG_lat	EMG_lat	EMG_med	EMG_med	EMG_med	EMG_med	EMG_lat	EMG_lat	EMG_lat	EMG_lat	EMG_med	EMG_med	EMG_med	EMG_med	EMG_lat	EMG_lat	EMG_lat	EMG_lat	EMG_med	EMG_med	EMG_med	EMG_med	EMG_lat	EMG_lat	EMG_lat	EMG_lat	EMG_med	EMG_med	EMG_med	EMG_med	EMG_lat	EMG_lat	EMG_lat	EMG_lat	EMG_med	EMG_med	EMG_med	EMG_med	EMG_lat	EMG_lat	EMG_lat	EMG_lat	EMG_med	EMG_med	EMG_med	EMG_med	EMG_lat	EMG_lat	EMG_lat	EMG_lat	EMG_med	EMG_med	EMG_med	EMG_med	EMG_lat	EMG_lat	EMG_lat	EMG_lat	EMG_med	EMG_med	EMG_med	EMG_med	EMG_lat	EMG_lat	EMG_lat	EMG_lat	EMG_med	EMG_med	EMG_med	EMG_med
ITEM	Y	Y	Y	Y	Y	Y	Y	Y	Y	Y	Y	Y	Y	Y	Y	Y	Y	Y	Y	Y	Y	Y	Y	Y	Y	Y	Y	Y	Y	Y	Y	Y	Y	Y	Y	Y	Y	Y	Y	Y	Y	Y	Y	Y	Y	Y	Y	Y	Y	Y	Y	Y	Y	Y	Y	Y	Y	Y	Y	Y	Y	Y	Y	Y	Y	Y	Y	Y	Y	Y	Y	Y	Y	Y	Y	Y	Y	Y	Y	Y
1	0.208440	0.536016	0.469027	0.308445	0.179769	0.682255	0.302778	0.164404	0.342499	0.507585	0.483744	0.163080	0.244514	0.339254	0.349538	0.195460	0.134083	0.495471	0.693416	0.488317	0.529279	0.284702	0.475829	0.681555	0.278248	0.583452	0.447058	0.438706	0.402690	0.271878	0.321152	0.253335	0.258512	0.399099	0.443490	0.241254	0.259188	0.284553	0.289646	0.120954	0.160020	0.492214	0.416560	0.271686	0.572617	0.257953	0.787625	0.165491	0.156619	0.277609	0.407960	0.390632	0.194058	0.248368	0.255061	0.285190	0.171042	0.830549	0.316666	0.135970	0.314571	0.287504	0.377980	0.076345	0.241797	0.544732	0.264033	0.373810	0.448120	0.280802	0.317124	0.361133	0.245692	0.331498	0.335489	0.048180	0.165224	0.517261	0.499969	0.126212
2	0.158184	0.493862	0.442665	0.320260	0.211741	0.680372	0.309372	0.168185	0.345067	0.435236	0.469067	0.171691	0.294841	0.459726	0.423335	0.170443	0.109724	0.394174	0.684119	0.477901	0.617598	0.283484	0.503683	0.689714	0.262069	0.577249	0.446485	0.445415	0.397788	0.276510	0.332325	0.308909	0.268050	0.402663	0.478125	0.232891	0.236006	0.291969	0.286586	0.106482	0.188249	0.462513	0.407433	0.272063	0.635941	0.266567	0.764777	0.175926	0.159594	0.283370	0.415925	0.401285	0.184174	0.251844	0.258111	0.301148	0.175492	0.790971	0.290738	0.137293	0.309928	0.278859	0.344490	0.071786	0.242629	0.542514	0.289596	0.375762	0.447047	0.295033	0.309288	0.325160	0.231197	0.328010	0.335427	0.047042	0.195456	0.539875	0.586800	0.141355
3	0.178725	0.388318	0.488721	0.369518	0.235921	0.650946	0.319077	0.153324	0.345859	0.425333	0.487332	0.216358	0.306781	0.470400	0.430793	0.178909	0.133544	0.357539	0.631992	0.455402	0.657206	0.282241	0.504935	0.700398	0.257124	0.570229	0.452011	0.467669	0.397360	0.274747	0.333589	0.367792	0.269025	0.417244	0.474015	0.205627	0.227556	0.320024	0.282833	0.106194	0.195127	0.549941	0.407224	0.272139	0.680662	0.267228	0.712455	0.169846	0.166334	0.337815	0.426833	0.406941	0.193652	0.253198	0.282188	0.329839	0.236321	0.757351	0.286495	0.202051	0.295060	0.297391	0.266890	0.059997	0.247741	0.535111	0.317749	0.460232	0.440866	0.299275	0.300121	0.357057	0.225309	0.328890	0.327891	0.053203	0.207290	0.545092	0.625292	0.158747
4	0.199552	0.371472	0.550332	0.428927	0.236492	0.554098	0.321887	0.140113	0.338832	0.430284	0.475915	0.239711	0.302069	0.607124	0.432720	0.197719	0.132866	0.364991	0.565660	0.429176	0.632054	0.359326	0.549662	0.698846	0.255656	0.572638	0.413117	0.464340	0.378303	0.256707	0.336627	0.391121	0.276573	0.456071	0.458278	0.167305	0.187234	0.352110	0.230456	0.088015	0.240741	0.577300	0.402802	0.274807	0.670357	0.342876	0.716504	0.156017	0.169014	0.390366	0.431345	0.426771	0.233428	0.251048	0.288605	0.325559	0.273550	0.759095	0.357021	0.296024	0.289236	0.323618	0.253372	0.060473	0.249719	0.537078	0.344690	0.515530	0.420363	0.333408	0.309607	0.411693	0.243864	0.363242	0.334985	0.065657	0.211914	0.521226	0.649202	0.166457
5	0.200786	0.461486	0.576065	0.458706	0.265433	0.452754	0.328968	0.138555	0.338103	0.421803	0.467120	0.243179	0.301503	0.702636	0.425970	0.187994	0.145865	0.379898	0.496466	0.407081	0.593004	0.392848	0.600917	0.659980	0.251484	0.558888	0.393957	0.432982	0.385255	0.257036	0.339056	0.397314	0.312015	0.483783	0.455168	0.125781	0.168394	0.380858	0.244002	0.077852	0.251251	0.607329	0.403006	0.278189	0.689379	0.347673	0.762097	0.155787	0.190319	0.436175	0.435931	0.473758	0.242170	0.250796	0.286869	0.321093	0.273840	0.746323	0.434690	0.339323	0.262827	0.318476	0.254005	0.058951	0.246376	0.460859	0.356666	0.526951	0.405288	0.410745	0.318808	0.424139	0.239449	0.370493	0.334958	0.065824	0.215042	0.497887	0.676852	0.175239
6	0.203718	0.518421	0.566298	0.467442	0.266733	0.456496	0.335250	0.137589	0.345791	0.397544	0.489527	0.282139	0.316487	0.692527	0.415438	0.164152	0.175070	0.462181	0.486094	0.376009	0.497554	0.398854	0.602196	0.519499	0.258408	0.548602	0.438219	0.467393	0.387900	0.345489	0.332422	0.398601	0.308211	0.479446	0.452319	0.115100	0.200113	0.397347	0.262425	0.073005	0.251873	0.636809	0.397223	0.295104	0.737637	0.349678	0.774788	0.156732	0.222808	0.507340	0.452025	0.535946	0.218731	0.222053	0.339857	0.330479	0.277115	0.721072	0.459117	0.351222	0.257118	0.306163	0.253827	0.053932	0.248665	0.448766	0.393497	0.529051	0.404040	0.396285	0.303642	0.426416	0.229606	0.345602	0.364214	0.069590	0.214813	0.507329	0.694375	0.181131
7	0.202859	0.517626	0.552174	0.459536	0.269480	0.455529	0.332493	0.121955	0.347907	0.404507	0.461447	0.399535	0.332945	0.690036	0.401199	0.174424	0.175625	0.480747	0.491107	0.376019	0.499178	0.393229	0.607688	0.401828	0.244489	0.474559	0.488602	0.514247	0.385122	0.378039	0.313455	0.397318	0.305349	0.508381	0.497532	0.132530	0.205642	0.412283	0.264551	0.072733	0.254054	0.660156	0.391182	0.310326	0.756899	0.372152	0.773914	0.157130	0.245436	0.501252	0.480525	0.591539	0.239494	0.202867	0.361774	0.336451	0.305051	0.711046	0.457805	0.348590	0.260377	0.294146	0.268315	0.050962	0.275220	0.491843	0.404054	0.547036	0.403289	0.455893	0.312186	0.427405	0.230444	0.323046	0.335702	0.081214	0.216111	0.507886	0.709798	0.179525
8	0.197107	0.526927	0.504746	0.441859	0.270669	0.444652	0.324452	0.091342	0.256909	0.504968	0.371357	0.488173	0.338012	0.696455	0.471505	0.179812	0.178169	0.494314	0.483073	0.368162	0.495036	0.381018	0.611230	0.395181	0.244402	0.462784	0.507089	0.519004	0.346016	0.414774	0.311510	0.396518	0.338027	0.514752	0.544032	0.176917	0.242031	0.439753	0.260781	0.070956	0.264761	0.717668	0.390311	0.305837	0.757462	0.424724	0.769713	0.155567	0.254973	0.492836	0.522130	0.610516	0.250914	0.214986	0.368089	0.344409	0.328734	0.662361	0.459277	0.349134	0.285546	0.291321	0.294879	0.054743	0.300561	0.495016	0.424245	0.580048	0.321389	0.542654	0.384037	0.434074	0.245637	0.321089	0.317398	0.090130	0.213700	0.463498	0.706251	0.175854
9	0.183465	0.529368	0.468839	0.421339	0.270916	0.426683	0.322542	0.073247	0.224162	0.552950	0.331752	0.538606	0.316935	0.680848	0.481849	0.194676	0.180944	0.493180	0.447622	0.351756	0.498617	0.381945	0.607831	0.409005	0.266509	0.458988	0.511170	0.506131	0.343519	0.429971	0.329878	0.395839	0.348875	0.507359	0.540208	0.232323	0.252940	0.448345	0.281169	0.071077	0.266445	0.734998	0.387256	0.293896	0.756118	0.500790	0.768271	0.155404	0.299096	0.543827	0.529728	0.612409	0.256717	0.163078	0.371202	0.344685	0.325017	0.646468	0.471807	0.359885	0.290171	0.293413	0.306008	0.058205	0.328653	0.429704	0.494476	0.648305	0.284658	0.543599	0.396177	0.437777	0.253431	0.335738	0.353763	0.097176	0.216523	0.394471	0.677199	0.170457
10	0.182311	0.533249	0.448422	0.412413	0.256308	0.407178	0.331768	0.067351	0.225584	0.533898	0.344236	0.547509	0.375562	0.619042	0.459835	0.214710	0.189470	0.496583	0.359999	0.284054	0.493531	0.387362	0.598087	0.412676	0.340553	0.402435	0.510962	0.521337	0.357790	0.417024	0.322914	0.383737	0.338438	0.461410	0.534209	0.270598	0.241082	0.461541	0.299221	0.066169	0.266564	0.752112	0.420437	0.287668	0.751225	0.499182	0.767119	0.155491	0.318767	0.579296	0.526642	0.612840	0.259034	0.150635	0.373388	0.344413	0.324189	0.603683	0.454968	0.360438	0.274032	0.323088	0.357548	0.060880	0.324744	0.427339	0.562011	0.688005	0.285194	0.556111	0.361342	0.402597	0.223023	0.352578	0.373763	0.098613	0.247333	0.355518	0.620869	0.157075
11	0.185160	0.530751	0.452051	0.406935	0.256026	0.346715	0.330220	0.066091	0.201410	0.521985	0.424940	0.545410	0.540705	0.568057	0.476165	0.245569	0.192008	0.505973	0.264226	0.176221	0.492014	0.383845	0.605211	0.427698	0.395780	0.336241	0.530130	0.540769	0.298709	0.462781	0.321915	0.347589	0.332589	0.465664	0.572340	0.285223	0.229375	0.570262	0.294056	0.056168	0.259787	0.771644	0.400125	0.288080	0.693067	0.474085	0.767891	0.155082	0.332623	0.584833	0.513724	0.612244	0.255739	0.156275	0.360967	0.344806	0.399884	0.651907	0.449026	0.363835	0.258842	0.385310	0.360241	0.060726	0.316701	0.439436	0.641183	0.697323	0.289671	0.551386	0.367679	0.345468	0.214573	0.356219	0.360120	0.101354	0.266711	0.418503	0.634660	0.150196
12	0.186995	0.576617	0.457756	0.401325	0.254242	0.313310	0.293526	0.062479	0.198355	0.511506	0.476128	0.554452	0.728111	0.562829	0.829626	0.232968	0.218579	0.482394	0.261146	0.146142	0.490637	0.393301	0.609362	0.453010	0.394549	0.312329	0.548879	0.546449	0.293508	0.459725	0.322239	0.329583	0.347509	0.464293	0.598677	0.287852	0.228661	0.631131	0.330281	0.047709	0.258817	0.745445	0.390209	0.289441	0.653885	0.485604	0.731978	0.152345	0.331932	0.592681	0.504109	0.613190	0.257430	0.182746	0.348259	0.340916	0.419667	0.667916	0.446201	0.363434	0.247211	0.391539	0.348109	0.053927	0.320687	0.438095	0.709663	0.700512	0.290916	0.541025	0.379890	0.323438	0.276917	0.367368	0.366020	0.156215	0.246310	0.439154	0.711920	0.160815
13	0.205522	0.610753	0.473308	0.395044	0.251785	0.273777	0.252658	0.060235	0.207262	0.503736	0.492556	0.569606	0.925187	0.376510	0.856912	0.227388	0.273154	0.427100	0.253462	0.143628	0.492385	0.426250	0.590600	0.475524	0.428675	0.264849	0.556414	0.562069	0.288668	0.481454	0.353673	0.328464	0.350554	0.460590	0.582205	0.313218	0.227800	0.655902	0.356432	0.044602	0.266122	0.721579	0.398171	0.282751	0.616134	0.485637	0.585908	0.132276	0.332427	0.604920	0.504700	0.613919	0.257340	0.188541	0.349161	0.323928	0.413210	0.663189	0.450104	0.360613	0.222261	0.386126	0.341552	0.052913	0.318619	0.477641	0.720916	0.735626	0.291245	0.632561	0.419803	0.320889	0.368402	0.388913	0.373796	0.206847	0.268572	0.424095	0.687613	0.159256
14	0.232362	0.606552	0.478694	0.388092	0.239524	0.288872	0.249122	0.060665	0.204311	0.488230	0.505876	0.587139	0.931176	0.368142	0.883490	0.275009	0.277485	0.418361	0.305534	0.145716	0.492304	0.403437	0.553944	0.492291	0.472698	0.270799	0.550760	0.564886	0.314725	0.526035	0.362617	0.276844	0.367403	0.437072	0.574411	0.341982	0.228162	0.653129	0.357967	0.044732	0.262678	0.722996	0.369707	0.237596	0.619017	0.509518	0.521399	0.102615	0.342512	0.631116	0.502861	0.597850	0.258538	0.213147	0.340894	0.263971	0.439782	0.648892	0.475885	0.360122	0.223368	0.384397	0.337816	0.052201	0.326984	0.514401	0.728122	0.778439	0.334056	0.693328	0.510609	0.271137	0.410013	0.397170	0.487347	0.214551	0.263574	0.446841	0.633437	0.137689
15	0.225440	0.609572	0.482531	0.388032	0.237366	0.288696	0.247796	0.061293	0.200277	0.483350	0.539405	0.620727	0.937696	0.457664	0.919683	0.276999	0.304535	0.421830	0.398618	0.151138	0.486523	0.405481	0.497283	0.496731	0.479160	0.320017	0.568972	0.585294	0.360995	0.598371	0.355946	0.195406	0.375718	0.431137	0.569423	0.379946	0.233801	0.648513	0.356728	0.043466	0.267485	0.708397	0.376602	0.215371	0.608667	0.521015	0.528934	0.092527	0.342382	0.634523	0.482082	0.547199	0.251898	0.298533	0.324816	0.202783	0.481005	0.708547	0.480625	0.386990	0.220650	0.390794	0.336791	0.049951	0.328814	0.584698	0.758424	0.825803	0.408628	0.679989	0.538982	0.180582	0.417203	0.469445	0.607624	0.214534	0.260889	0.482978	0.624701	0.121431
16	0.233880	0.601004	0.455697	0.360785	0.248395	0.296323	0.226570	0.062120	0.199401	0.457681	0.563901	0.672201	0.937292	0.469847	0.937005	0.342743	0.317239	0.415887	0.403992	0.160861	0.400628	0.430333	0.453386	0.493339	0.478514	0.336281	0.576893	0.586057	0.363280	0.626274	0.355958	0.145597	0.373193	0.454815	0.604651	0.438430	0.234414	0.642356	0.400122	0.054021	0.268627	0.700953	0.420266	0.245122	0.593699	0.485191	0.596057	0.098919	0.347036	0.639836	0.487557	0.520846	0.218062	0.297445	0.340445	0.179649	0.498110	0.819254	0.494968	0.394022	0.220993	0.378571	0.333477	0.048849	0.332136	0.648347	0.802853	0.843951	0.409143	0.636678	0.552257	0.148853	0.513470	0.687803	0.725099	0.225680	0.263677	0.498875	0.599396	0.109702
17	0.213467	0.597534	0.392946	0.295696	0.257407	0.315108	0.221033	0.066411	0.229710	0.451719	0.572799	0.685811	0.931224	0.463260	0.924346	0.510145	0.325381	0.518570	0.403213	0.157436	0.333876	0.464141	0.463264	0.486486	0.479022	0.343632	0.568247	0.582542	0.374395	0.650619	0.361674	0.129417	0.380802	0.516032	0.665461	0.464403	0.210736	0.628693	0.424927	0.059931	0.273240	0.691316	0.414166	0.257921	0.598384	0.466585	0.621054	0.103855	0.347628	0.625821	0.488397	0.520548	0.198678	0.297191	0.355565	0.172097	0.498183	0.851133	0.512587	0.387161	0.220560	0.362865	0.339326	0.046880	0.349526	0.698041	0.838387	0.827624	0.409230	0.635935	0.605160	0.146141	0.687568	0.827536	0.796736	0.274328	0.277133	0.574465	0.579002	0.094299
18	0.201958	0.625447	0.318085	0.213039	0.270829	0.322714	0.263730	0.082521	0.243413	0.453551	0.592698	0.686329	0.929158	0.463184	0.926230	0.635686	0.310704	0.480531	0.393042	0.154878	0.359169	0.512139	0.445671	0.480152	0.468877	0.320795	0.539410	0.561718	0.373484	0.618584	0.376335	0.130495	0.427662	0.530770	0.670503	0.468977	0.242017	0.636816	0.453094	0.072668	0.252921	0.794788	0.419964	0.260977	0.566947	0.466746	0.603616	0.097988	0.345403	0.592275	0.481883	0.511778	0.194373	0.291215	0.305794	0.142683	0.498850	0.853059	0.596372	0.403522	0.233435	0.362932	0.343360	0.050851	0.349333	0.734751	0.850071	0.782564	0.448825	0.595344	0.617940	0.143821	0.768754	0.872325	0.807764	0.332623	0.279252	0.583601	0.568215	0.092715
19	0.205311	0.567909	0.265010	0.149308	0.289403	0.317342	0.257672	0.086787	0.236155	0.441208	0.587474	0.676387	0.860098	0.458374	0.932880	0.689139	0.310460	0.456622	0.384125	0.147515	0.362415	0.556156	0.463078	0.463882	0.473557	0.380182	0.547926	0.531282	0.370333	0.598856	0.369704	0.154281	0.453258	0.525331	0.669306	0.467866	0.279561	0.635840	0.452456	0.076116	0.269069	0.927753	0.420988	0.255839	0.521970	0.458654	0.605387	0.097970	0.351046	0.563667	0.479369	0.489568	0.157471	0.290689	0.246920	0.110530	0.497310	0.907713	0.613724	0.408713	0.213449	0.356506	0.349128	0.055589	0.384918	0.745862	0.841898	0.780658	0.464570	0.504404	0.582627	0.122117	0.771655	0.864709	0.902777	0.337577	0.278041	0.596664	0.568763	0.094496
20	0.202681	0.535855	0.260317	0.132451	0.286198	0.317375	0.254910	0.086797	0.219338	0.431970	0.584176	0.615206	0.792104	0.462047	0.761191	0.824316	0.309338	0.450089	0.389170	0.139209	0.427307	0.558849	0.500445	0.430895	0.475902	0.391190	0.577606	0.537161	0.363936	0.576343	0.359570	0.155998	0.441596	0.543839	0.690945	0.471930	0.262969	0.634038	0.486752	0.085740	0.276885	0.915546	0.423595	0.242774	0.516041	0.455284	0.620005	0.101816	0.340463	0.493420	0.483229	0.460454	0.129518	0.279718	0.258799	0.059763	0.494692	0.923425	0.616550	0.409078	0.206011	0.399540	0.331966	0.055059	0.447316	0.763859	0.839322	0.821117	0.451340	0.499083	0.576288	0.100637	0.771807	0.874230	0.990832	0.360159	0.279265	0.586622	0.570112	0.095549
21	0.243689	0.559899	0.271367	0.131473	0.312274	0.326699	0.240430	0.086853	0.214458	0.334953	0.618286	0.541631	0.615094	0.422854	0.558528	0.931189	0.317053	0.458373	0.434112	0.141258	0.443539	0.562758	0.496752	0.398637	0.449667	0.394178	0.755804	0.553420	0.351929	0.566389	0.344630	0.146561	0.440746	0.551690	0.712401	0.482951	0.269540	0.621472	0.543481	0.100923	0.302306	0.912625	0.424627	0.215169	0.517421	0.338767	0.624713	0.105081	0.319045	0.458551	0.497356	0.426865	0.129429	0.276762	0.265612	0.054619	0.497104	0.920102	0.621370	0.405001	0.246951	0.391829	0.389802	0.055737	0.478970	0.971276	0.874380	0.890216	0.456830	0.500009	0.573519	0.093573	0.777115	0.954814	1.060868	0.385984	0.274124	0.603280	0.569993	0.096840
22	0.247141	0.621195	0.289751	0.132170	0.301310	0.334183	0.240273	0.087914	0.218776	0.253122	0.657937	0.488355	0.587156	0.384609	0.543018	0.929237	0.387235	0.466394	0.463696	0.151042	0.449377	0.575559	0.521550	0.362508	0.410176	0.413643	0.809197	0.553919	0.322926	0.582246	0.331400	0.189703	0.427487	0.523733	0.664969	0.490315	0.264269	0.527195	0.564267	0.105383	0.323917	0.896055	0.434888	0.215678	0.517124	0.316789	0.625213	0.105097	0.319240	0.463819	0.455708	0.397484	0.174844	0.275566	0.265611	0.059426	0.504009	0.882609	0.627043	0.398029	0.293541	0.427587	0.452313	0.060036	0.471363	1.094239	0.943581	0.940010	0.455346	0.509736	0.564140	0.094562	0.777987	1.019646	1.107347	0.396028	0.281041	0.646013	0.512969	0.089996
23	0.254297	0.736246	0.303365	0.130304	0.320390	0.312650	0.239283	0.086413	0.206682	0.258905	0.717940	0.474502	0.737989	0.281549	0.472763	0.943004	0.460191	0.457599	0.481154	0.158187	0.443296	0.574044	0.544306	0.343912	0.367107	0.448169	0.810859	0.526052	0.310139	0.545678	0.331940	0.280362	0.408575	0.527326	0.662800	0.471438	0.262767	0.421494	0.563377	0.109537	0.329778	0.891076	0.433712	0.220855	0.518488	0.313931	0.623857	0.105854	0.291222	0.454021	0.416458	0.388414	0.176363	0.272858	0.265276	0.084265	0.495896	0.882251	0.631521	0.392653	0.305587	0.388722	0.494863	0.070685	0.482185	1.089691	1.052210	0.951426	0.458516	0.503399	0.553889	0.098230	0.775020	1.100910	1.128289	0.395156	0.283081	0.615244	0.386101	0.076200
24	0.252530	0.769643	0.319633	0.121651	0.317611	0.311482	0.231377	0.080355	0.229887	0.261924	0.674139	0.484105	0.792910	0.222400	0.393214	0.963205	0.459653	0.493029	0.466597	0.143748	0.436986	0.573390	0.549646	0.340585	0.360667	0.518692	0.875492	0.495314	0.359940	0.551215	0.332771	0.301584	0.407016	0.539635	0.690455	0.445958	0.263982	0.390095	0.550782	0.112062	0.403763	0.887890	0.384440	0.230310	0.518348	0.308406	0.620992	0.109392	0.255395	0.407606	0.417589	0.411695	0.185107	0.257348	0.267063	0.088214	0.438222	0.868953	0.644073	0.400399	0.353265	0.347024	0.501644	0.074856	0.491620	1.099977	1.055636	0.918103	0.457793	0.373481	0.525588	0.095677	0.772027	1.114697	1.125003	0.397881	0.282982	0.606154	0.355968	0.071197
25	0.258016	0.760562	0.309019	0.104540	0.326672	0.328607	0.257532	0.085244	0.331483	0.393681	0.647693	0.498664	0.887752	0.215104	0.337984	0.936447	0.492756	0.509527	0.498752	0.149257	0.432280	0.586842	0.542565	0.324517	0.353966	0.523775	0.883521	0.466702	0.466041	0.534993	0.295827	0.300735	0.405841	0.535783	0.684045	0.432119	0.263629	0.366752	0.549839	0.111991	0.457488	0.867817	0.430772	0.247184	0.516807	0.300706	0.587406	0.114485	0.224765	0.452718	0.417120	0.468960	0.230660	0.253055	0.277664	0.091492	0.428171	0.933338	0.670045	0.421326	0.363571	0.363223	0.503791	0.077487	0.495441	1.093337	1.034797	0.878995	0.418804	0.238278	0.451643	0.090195	0.774042	1.111616	1.116763	0.426223	0.297666	0.585871	0.342364	0.070899
26	0.279239	0.719247	0.289815	0.077174	0.349335	0.323591	0.256335	0.089525	0.400088	0.471098	0.652332	0.534457	0.884883	0.207643	0.364893	0.802289	0.566524	0.506385	0.489284	0.173018	0.438798	0.603755	0.531016	0.297498	0.287799	0.523979	0.929569	0.469225	0.449754	0.487543	0.279548	0.308817	0.382672	0.540488	0.662825	0.440023	0.262149	0.342500	0.543830	0.110520	0.464204	0.906532	0.511458	0.276540	0.469885	0.276270	0.547929	0.112984	0.221519	0.489312	0.410651	0.507963	0.238433	0.226074	0.337433	0.092952	0.426012	0.944767	0.683514	0.439179	0.379559	0.368765	0.514403	0.082233	0.488170	1.164313	1.005855	0.878149	0.354286	0.230894	0.412083	0.163899	0.777113	1.102763	1.120872	0.434844	0.295198	0.551578	0.342527	0.083718
27	0.271062	0.697202	0.283605	0.057702	0.355810	0.329859	0.287700	0.089676	0.405077	0.486738	0.665525	0.540288	0.883475	0.210298	0.348531	0.788076	0.565817	0.508379	0.434667	0.180545	0.438777	0.580133	0.536712	0.310403	0.264958	0.501719	0.991289	0.439151	0.420822	0.401542	0.266421	0.368231	0.401695	0.555224	0.659294	0.438113	0.261391	0.324397	0.502626	0.103703	0.482563	0.937180	0.510583	0.289294	0.302154	0.210845	0.556507	0.115446	0.227280	0.501148	0.420888	0.520243	0.242621	0.108223	0.398738	0.093411	0.391498	0.906853	0.673848	0.452862	0.391122	0.368091	0.512335	0.082587	0.470871	1.239194	0.950532	0.902394	0.373898	0.230614	0.387870	0.201658	0.791181	1.100335	1.112907	0.426737	0.337712	0.595000	0.356613	0.108196
28	0.251875	0.677511	0.350940	0.077036	0.399793	0.326155	0.310767	0.089396	0.409421	0.488637	0.674031	0.506015	0.886492	0.237702	0.324959	0.702780	0.556559	0.508693	0.451264	0.171462	0.442444	0.574225	0.549905	0.324717	0.271330	0.485895	0.987782	0.409711	0.418953	0.361957	0.261779	0.385896	0.396827	0.561772	0.660757	0.416284	0.259004	0.324975	0.472867	0.099309	0.550192	0.943546	0.519561	0.287494	0.273966	0.210638	0.532831	0.114999	0.204206	0.494475	0.433275	0.518343	0.249760	0.166358	0.418746	0.093212	0.330190	0.847740	0.686312	0.450171	0.415981	0.347153	0.525862	0.083064	0.491336	1.243394	0.941707	0.900973	0.365522	0.250709	0.291122	0.203241	0.798323	1.096539	1.123945	0.404464	0.346225	0.601531	0.358081	0.121279
29	0.255270	0.673405	0.431784	0.108332	0.448389	0.278173	0.295347	0.084838	0.437526	0.488162	0.687897	0.414103	0.892612	0.244106	0.353186	0.546456	0.555035	0.429443	0.452870	0.172466	0.444528	0.576944	0.551460	0.319457	0.323716	0.480286	0.995008	0.402080	0.393487	0.327121	0.250850	0.386581	0.385998	0.564381	0.663764	0.391884	0.227745	0.290802	0.450898	0.092356	0.569103	1.011802	0.574519	0.290827	0.251930	0.204553	0.386332	0.100310	0.185054	0.495410	0.461758	0.514261	0.289469	0.167087	0.407939	0.092688	0.251422	0.740347	0.677216	0.430232	0.427154	0.351004	0.545999	0.083178	0.489599	1.235895	0.960506	0.880104	0.320432	0.265736	0.226974	0.217147	0.800838	1.095601	1.107828	0.417427	0.343969	0.551308	0.375376	0.121723
30	0.264993	0.721682	0.480319	0.138252	0.434885	0.293217	0.285759	0.073730	0.437529	0.569641	0.736903	0.381642	0.813139	0.215669	0.382091	0.478102	0.557055	0.393494	0.482781	0.172662	0.438573	0.559150	0.552417	0.310927	0.326412	0.476120	0.999081	0.398218	0.395886	0.313149	0.239446	0.387430	0.378479	0.548330	0.637031	0.336047	0.130707	0.253124	0.482795	0.091634	0.563632	1.017062	0.591456	0.294370	0.198589	0.200799	0.299092	0.089032	0.190383	0.536273	0.493434	0.520920	0.330278	0.168416	0.408966	0.093048	0.243721	0.710923	0.586838	0.409447	0.428365	0.364305	0.561668	0.081425	0.529343	1.206463	0.970752	0.838049	0.277241	0.267609	0.192014	0.287014	0.805261	1.086996	1.102280	0.476277	0.342372	0.545822	0.414496	0.128230
31	0.338716	0.757614	0.486693	0.146767	0.435856	0.320065	0.318849	0.073221	0.429156	0.654544	0.770749	0.420260	0.728553	0.340467	0.400335	0.460400	0.556791	0.418117	0.491249	0.172180	0.417361	0.533682	0.540592	0.308561	0.311898	0.506350	0.998675	0.379255	0.393703	0.326251	0.246005	0.378692	0.377605	0.518832	0.574838	0.274537	0.154205	0.246359	0.456390	0.087080	0.590142	1.041462	0.635965	0.314472	0.173336	0.199116	0.288443	0.087229	0.181397	0.641259	0.497288	0.535763	0.333582	0.188313	0.453624	0.097872	0.254710	0.681014	0.474474	0.394604	0.423793	0.359175	0.571415	0.078931	0.575161	1.185066	0.943590	0.794506	0.247525	0.330370	0.217997	0.353988	0.779069	0.992961	1.115379	0.569236	0.342103	0.575421	0.424444	0.130514
32	0.397557	0.776979	0.472453	0.148365	0.431016	0.332457	0.353293	0.076388	0.429848	0.666790	0.759886	0.448667	0.674674	0.362880	0.414113	0.392886	0.557011	0.411081	0.488219	0.172712	0.395430	0.458754	0.515105	0.318858	0.307492	0.546375	0.997185	0.354382	0.401523	0.329810	0.245633	0.377681	0.352523	0.473191	0.556587	0.252802	0.136037	0.246649	0.370903	0.068076	0.658099	1.023674	0.676252	0.347665	0.270267	0.191577	0.259983	0.082586	0.219338	0.690615	0.550571	0.545536	0.394076	0.211330	0.596756	0.122330	0.244774	0.618248	0.456640	0.390224	0.420601	0.337875	0.578402	0.075230	0.579338	1.152976	0.913922	0.786663	0.245763	0.317740	0.253152	0.363669	0.687877	0.869790	1.165629	0.634793	0.344058	0.576944	0.422819	0.133155
33	0.400444	0.813393	0.472437	0.148941	0.424961	0.329214	0.370814	0.076208	0.437891	0.673573	0.771747	0.452474	0.469155	0.366435	0.442760	0.375901	0.554979	0.392173	0.458615	0.171587	0.422638	0.456736	0.439694	0.323188	0.316016	0.558584	0.885013	0.445114	0.436007	0.324424	0.252559	0.379956	0.294218	0.477547	0.561333	0.257055	0.156090	0.248749	0.328902	0.059809	0.672829	0.875811	0.682453	0.366610	0.459278	0.214785	0.284788	0.077313	0.281813	0.716549	0.565732	0.543129	0.448623	0.240976	0.614019	0.132604	0.211682	0.601933	0.453364	0.425957	0.408042	0.292875	0.570205	0.074507	0.587221	1.132598	0.890313	0.799595	0.247220	0.297644	0.287846	0.365521	0.692788	0.825913	1.201005	0.635987	0.339512	0.529638	0.424034	0.131727
34	0.428621	0.813463	0.475358	0.149892	0.407069	0.326767	0.374914	0.080823	0.442992	0.678222	0.751355	0.455875	0.447214	0.379115	0.425280	0.392543	0.522351	0.408338	0.421325	0.167328	0.404817	0.669615	0.362746	0.322051	0.333216	0.545219	0.826970	0.546255	0.446657	0.296097	0.257073	0.351628	0.270359	0.404460	0.549170	0.254911	0.242855	0.267642	0.276284	0.053160	0.674015	0.956376	0.681824	0.367266	0.503553	0.291517	0.471799	0.089624	0.267171	0.749038	0.559235	0.526244	0.436106	0.260669	0.615913	0.131908	0.192538	0.599375	0.440676	0.501785	0.341856	0.276580	0.487320	0.068521	0.620871	1.121999	0.884742	0.774937	0.241704	0.299351	0.305171	0.364747	0.787941	0.836716	1.152458	0.632144	0.307774	0.489934	0.466808	0.130626
35	0.488583	0.784785	0.479720	0.151685	0.405985	0.314562	0.390737	0.087163	0.444096	0.662980	0.748542	0.456512	0.458558	0.381397	0.379079	0.392677	0.459938	0.471478	0.397655	0.154593	0.394614	0.789374	0.350265	0.321270	0.307793	0.527567	0.817810	0.566401	0.472382	0.315906	0.298439	0.283455	0.280498	0.356865	0.497087	0.234091	0.276954	0.250501	0.277518	0.049373	0.693144	1.002907	0.717545	0.375612	0.596765	0.340523	0.700243	0.120495	0.267717	0.752873	0.558969	0.495875	0.442256	0.261933	0.620634	0.115282	0.229637	0.585102	0.449769	0.565299	0.340339	0.221973	0.420097	0.062932	0.603330	1.116654	0.888369	0.720601	0.299398	0.299088	0.320912	0.368430	0.803261	0.840003	1.072342	0.625435	0.298784	0.472095	0.499226	0.125612
36	0.506434	0.714803	0.471131	0.154909	0.404162	0.300584	0.390164	0.089688	0.471425	0.659126	0.684254	0.472214	0.482117	0.383624	0.386360	0.369352	0.472457	0.482870	0.389417	0.153513	0.486232	0.794087	0.309458	0.319282	0.319255	0.449166	0.738436	0.583986	0.467524	0.302733	0.295653	0.263131	0.259971	0.366986	0.467696	0.195493	0.299581	0.494993	0.340052	0.066447	0.705608	0.994890	0.792125	0.412220	0.778927	0.340074	0.736020	0.127286	0.273137	0.767712	0.613694	0.466749	0.437130	0.272419	0.622559	0.107648	0.236391	0.534944	0.482350	0.590130	0.298775	0.259915	0.336046	0.047725	0.573116	0.993506	0.855678	0.638534	0.303040	0.306193	0.370766	0.377516	0.796984	0.765043	0.999275	0.609111	0.272338	0.469243	0.508778	0.127204
37	0.502338	0.608390	0.461357	0.156391	0.369272	0.286488	0.374134	0.075470	0.467730	0.657238	0.683475	0.621314	0.459650	0.376696	0.407943	0.314790	0.437559	0.481035	0.407282	0.172902	0.734846	0.860897	0.254588	0.320151	0.302466	0.600904	0.753710	0.672440	0.376690	0.305245	0.296971	0.264431	0.280043	0.376732	0.471983	0.172640	0.334168	0.555944	0.410262	0.075003	0.713988	1.004567	0.825355	0.520845	0.800968	0.361393	0.764910	0.125448	0.266717	0.772793	0.668750	0.469774	0.414458	0.299983	0.618153	0.104838	0.231533	0.429841	0.503239	0.585779	0.299407	0.303681	0.333507	0.046962	0.565476	0.761120	0.789271	0.538556	0.292253	0.346198	0.436527	0.363169	0.797869	0.671682	0.946380	0.601692	0.254072	0.465261	0.512927	0.131833
38	0.507787	0.584099	0.453789	0.156663	0.351963	0.282578	0.367858	0.074774	0.399113	0.626118	0.702212	0.818440	0.375399	0.409270	0.365620	0.359041	0.337806	0.474824	0.427996	0.177537	0.816919	0.870569	0.239047	0.318840	0.311805	0.638469	0.753476	0.763619	0.386085	0.328731	0.296006	0.250511	0.292683	0.366217	0.428252	0.180720	0.402076	0.560922	0.450487	0.080541	0.695647	1.011619	0.829999	0.578903	0.804580	0.378664	0.816155	0.137363	0.263227	0.792736	0.695584	0.465453	0.412119	0.364280	0.584319	0.104229	0.252448	0.276241	0.479327	0.571501	0.277768	0.303332	0.326052	0.036477	0.559425	0.745628	0.642462	0.480179	0.277937	0.367223	0.467385	0.354159	0.798131	0.542383	0.938439	0.601007	0.213131	0.438660	0.499794	0.116702
39	0.504554	0.578188	0.453547	0.158068	0.311385	0.283787	0.353514	0.076449	0.323924	0.598330	0.715760	0.895261	0.338250	0.401002	0.402746	0.756621	0.323540	0.492998	0.418348	0.168519	0.822194	0.866761	0.235341	0.315916	0.345011	0.726571	0.703707	0.778799	0.382139	0.363116	0.318603	0.146956	0.298102	0.371845	0.443186	0.198371	0.416160	0.562053	0.474425	0.081219	0.673639	1.068582	0.825898	0.582032	0.808282	0.375776	0.828047	0.146344	0.262682	0.806817	0.760391	0.426132	0.413063	0.407577	0.540330	0.104948	0.255551	0.261994	0.446377	0.555647	0.264540	0.301036	0.347938	0.040524	0.534973	0.775190	0.541614	0.477330	0.293245	0.360432	0.466143	0.352073	0.795987	0.459687	0.948727	0.605297	0.147440	0.336905	0.499359	0.094899
40	0.493758	0.571310	0.457619	0.162618	0.211500	0.263748	0.387716	0.080963	0.314620	0.627976	0.739892	0.898512	0.271731	0.311837	0.461255	0.905407	0.349543	0.540538	0.384048	0.166955	0.818235	0.857569	0.237391	0.305149	0.348949	0.763059	0.755888	0.777493	0.385385	0.447623	0.335741	0.097843	0.294094	0.377419	0.449693	0.212919	0.426890	0.558959	0.523304	0.087607	0.675451	1.086673	0.788086	0.574090	0.806619	0.384338	0.822658	0.145130	0.269964	0.792613	0.808458	0.385760	0.412337	0.391562	0.517779	0.106161	0.277137	0.275874	0.434030	0.543494	0.220531	0.301577	0.353274	0.042596	0.524714	0.839136	0.529118	0.492660	0.293749	0.366771	0.471972	0.343410	0.792040	0.492321	0.971341	0.599935	0.133204	0.291131	0.498882	0.093506
41	0.501407	0.578919	0.441894	0.164688	0.154163	0.262377	0.415458	0.079695	0.316167	0.661169	0.711850	0.933030	0.266176	0.283885	0.430243	0.970077	0.347769	0.561968	0.385720	0.168938	0.817287	0.859138	0.223455	0.258579	0.317420	0.815841	0.873836	0.777581	0.390346	0.444072	0.343977	0.094112	0.280981	0.348425	0.460555	0.224338	0.433834	0.544061	0.526873	0.091352	0.674781	1.090634	0.756054	0.566079	0.806244	0.389400	0.819562	0.146362	0.279275	0.777139	0.818776	0.558692	0.382460	0.396019	0.526619	0.107482	0.284630	0.289474	0.409767	0.687777	0.189320	0.303160	0.326191	0.043377	0.534429	0.860167	0.493503	0.492354	0.289475	0.372265	0.484211	0.288390	0.790449	0.510585	0.997520	0.601754	0.130618	0.280546	0.470582	0.101208
42	0.502832	0.580350	0.381159	0.156668	0.173277	0.263881	0.455473	0.078524	0.323061	0.664837	0.688557	1.076278	0.289426	0.276271	0.433917	1.132837	0.342130	0.533484	0.354729	0.173913	0.815616	0.861579	0.191122	0.191890	0.367201	0.817456	0.945682	0.778406	0.390978	0.438992	0.335666	0.088032	0.262191	0.343508	0.466701	0.221600	0.430163	0.541908	0.522275	0.095910	0.640453	1.097577	0.749616	0.582266	0.804081	0.403311	0.819611	0.150512	0.291072	0.764543	0.795418	0.673259	0.351097	0.418528	0.534457	0.108080	0.288181	0.288225	0.409402	0.950737	0.158490	0.287319	0.278361	0.044780	0.545536	0.799782	0.481788	0.450731	0.295453	0.307954	0.508115	0.209372	0.773635	0.517348	1.024951	0.607208	0.131331	0.206924	0.431560	0.094586
43	0.500511	0.562113	0.285332	0.133848	0.242771	0.274061	0.443907	0.084888	0.368700	0.597855	0.778956	1.231039	0.294107	0.317983	0.435020	1.191512	0.347352	0.522386	0.347610	0.218401	0.814933	0.858775	0.180793	0.167093	0.405814	0.791542	0.938888	0.777505	0.388561	0.429762	0.332366	0.097137	0.256196	0.353870	0.469800	0.224418	0.431789	0.544276	0.521983	0.097184	0.619048	1.077533	0.720313	0.593878	0.803734	0.413654	0.823224	0.160647	0.296922	0.834072	0.774997	0.706420	0.348693	0.440569	0.496812	0.103758	0.329825	0.292847	0.408240	1.084016	0.150008	0.288796	0.248773	0.048047	0.530766	0.759511	0.538856	0.408452	0.310924	0.297238	0.574260	0.211302	0.733961	0.590514	1.030229	0.607707	0.138172	0.156041	0.423712	0.090155
44	0.487054	0.493644	0.223607	0.107898	0.244206	0.261830	0.433780	0.098390	0.407219	0.534022	0.980671	1.316761	0.299768	0.326126	0.469173	1.195807	0.349871	0.532787	0.347953	0.308077	0.811112	0.866048	0.174778	0.164622	0.411199	0.772137	0.902537	0.764472	0.382366	0.423946	0.327213	0.090964	0.258195	0.357473	0.455463	0.246059	0.435910	0.570727	0.520941	0.098852	0.641799	1.039915	0.669165	0.586268	0.796521	0.427596	0.823801	0.165774	0.293081	0.831687	0.785257	0.700244	0.271534	0.442434	0.302780	0.071725	0.368490	0.314682	0.429207	1.120673	0.150194	0.301795	0.224104	0.055296	0.531576	0.756665	0.536470	0.438396	0.354259	0.299720	0.601574	0.222787	0.700422	0.617145	1.014500	0.600811	0.148735	0.144156	0.429324	0.087568
45	0.436747	0.478120	0.222854	0.102882	0.244124	0.291528	0.433663	0.112214	0.419770	0.687592	1.112665	1.347027	0.391581	0.334613	0.469877	1.194963	0.358228	0.538777	0.355952	0.327173	0.807941	0.880342	0.167434	0.142820	0.407550	0.807292	0.897491	0.706813	0.348823	0.417550	0.315013	0.092868	0.259861	0.359201	0.448062	0.255587	0.397473	0.615604	0.520016	0.105942	0.644856	1.038178	0.724084	0.571696	0.729366	0.424305	0.826221	0.171483	0.291376	0.798755	0.810777	0.698017	0.176656	0.434575	0.265654	0.052982	0.370346	0.333542	0.466694	1.121868	0.153681	0.311832	0.217627	0.058700	0.535924	0.752446	0.479138	0.498175	0.349447	0.332657	0.592839	0.227064	0.687279	0.627530	0.993753	0.584458	0.151824	0.155835	0.433156	0.093463
46	0.412134	0.462159	0.228392	0.100264	0.246505	0.345426	0.422019	0.115711	0.485074	0.726459	1.151716	1.355429	0.400479	0.312981	0.470390	1.195133	0.380869	0.535085	0.391926	0.330416	0.815327	0.882364	0.160703	0.098270	0.386612	0.850554	0.951592	0.606892	0.335476	0.411076	0.311441	0.098768	0.257906	0.388335	0.427274	0.276823	0.393306	0.631946	0.510273	0.110502	0.585850	0.988541	0.775413	0.557429	0.656757	0.402958	0.776959	0.171076	0.314256	0.713862	0.779871	0.690488	0.169349	0.430605	0.258814	0.047784	0.382763	0.384012	0.499608	1.194696	0.167575	0.314931	0.221015	0.058638	0.499935	0.737151	0.443747	0.558641	0.313208	0.360961	0.582956	0.221965	0.686233	0.621137	0.918262	0.580347	0.167652	0.165608	0.396894	0.102630
47	0.412951	0.537180	0.229867	0.101019	0.246831	0.423659	0.415943	0.119708	0.509565	0.714270	1.153634	1.355579	0.409990	0.277830	0.530601	1.130384	0.368626	0.476436	0.406955	0.338781	0.825264	0.841606	0.190362	0.072832	0.413522	0.867822	0.978917	0.570264	0.316180	0.397968	0.256418	0.102329	0.245667	0.372317	0.432425	0.300085	0.400035	0.473179	0.471536	0.104563	0.552109	0.979348	0.814864	0.551870	0.643473	0.352933	0.632412	0.156592	0.289517	0.737911	0.755041	0.692450	0.192366	0.430982	0.252634	0.048466	0.388101	0.429863	0.519785	1.293718	0.169977	0.328922	0.221734	0.058297	0.477297	0.731889	0.544555	0.606848	0.316224	0.352640	0.538186	0.203329	0.659105	0.613693	0.805808	0.579735	0.203200	0.165456	0.362956	0.106596
48	0.362988	0.534616	0.224373	0.099915	0.246824	0.440334	0.416247	0.133266	0.513175	0.715433	1.141442	1.355636	0.514041	0.317857	0.493072	0.924658	0.363999	0.446678	0.459058	0.415142	0.826004	0.678408	0.193427	0.066326	0.453501	0.873877	0.979762	0.561825	0.260361	0.415369	0.247479	0.102801	0.244553	0.375490	0.479697	0.308995	0.430729	0.454692	0.466814	0.110872	0.584819	0.925220	0.828750	0.559437	0.414366	0.325386	0.469002	0.137973	0.311757	0.717478	0.759389	0.695629	0.201530	0.450597	0.279938	0.050489	0.365920	0.508831	0.508616	1.337717	0.159745	0.319329	0.230652	0.060222	0.473300	0.743808	0.595618	0.609832	0.325128	0.310921	0.492371	0.184586	0.551277	0.590503	0.701448	0.592406	0.220883	0.167080	0.354100	0.097034
49	0.258629	0.540115	0.210907	0.093077	0.243197	0.461824	0.419610	0.140116	0.490213	0.718238	1.146889	1.353312	0.518749	0.404519	0.451565	0.862909	0.389824	0.410098	0.444822	0.465359	0.818596	0.534334	0.189993	0.071567	0.484903	0.833362	0.953342	0.479049	0.264739	0.480918	0.261687	0.103356	0.247929	0.387852	0.505721	0.312598	0.417905	0.488637	0.546433	0.129675	0.578629	0.769357	0.821840	0.563729	0.184418	0.318959	0.456383	0.136508	0.327862	0.712971	0.755400	0.697405	0.206546	0.456372	0.324587	0.057944	0.357064	0.587547	0.515296	1.365408	0.131536	0.283268	0.258403	0.058903	0.418172	0.757873	0.596256	0.597285	0.354919	0.289568	0.484336	0.181047	0.317907	0.559250	0.694664	0.620360	0.220692	0.176460	0.346617	0.095961
50	0.252351	0.544446	0.237795	0.086510	0.246204	0.479484	0.437569	0.142536	0.484161	0.721537	1.161879	1.302734	0.511551	0.429773	0.469390	0.714326	0.407835	0.412357	0.395921	0.477526	0.777213	0.512673	0.175787	0.073739	0.484316	0.768764	0.909478	0.291575	0.246261	0.502134	0.262059	0.100111	0.246582	0.384172	0.530437	0.319226	0.420179	0.498000	0.538155	0.138660	0.541381	0.774008	0.760640	0.564059	0.173783	0.282826	0.362500	0.124858	0.321642	0.708164	0.717691	0.699423	0.208831	0.423072	0.334876	0.057527	0.357616	0.814923	0.607928	1.391312	0.124127	0.249221	0.277486	0.060133	0.367674	0.762120	0.596985	0.622462	0.344522	0.280256	0.528140	0.263694	0.218191	0.545505	0.702626	0.626618	0.221426	0.174265	0.346558	0.105558
51	0.261685	0.549448	0.269219	0.081943	0.249321	0.482717	0.404487	0.145069	0.492651	0.828708	1.152953	1.185280	0.505592	0.473506	0.483547	0.433283	0.419788	0.399080	0.433263	0.480152	0.593558	0.384452	0.177897	0.059889	0.483600	0.697079	0.888564	0.388968	0.244859	0.483264	0.245614	0.107134	0.232832	0.357531	0.532795	0.325701	0.478475	0.527201	0.558322	0.138539	0.524244	0.754690	0.747062	0.531533	0.149620	0.273998	0.297539	0.107424	0.321227	0.708165	0.679554	0.763989	0.210049	0.379400	0.336129	0.058302	0.366498	0.923176	0.693117	1.400622	0.130215	0.255817	0.299353	0.064439	0.359369	0.761731	0.599902	0.692441	0.344068	0.256879	0.542954	0.306101	0.223242	0.539012	0.742225	0.641686	0.227326	0.185062	0.334363	0.109422
52	0.269571	0.551408	0.270434	0.080637	0.249172	0.497381	0.375134	0.160465	0.502134	0.845926	1.140103	1.111187	0.493035	0.438807	0.504867	0.361181	0.496017	0.339751	0.480092	0.590151	0.413597	0.363929	0.177919	0.060228	0.479017	0.670778	0.844593	0.753726	0.240892	0.496979	0.236955	0.119890	0.246047	0.353176	0.532309	0.329729	0.492214	0.538215	0.597832	0.148136	0.528302	0.833360	0.763429	0.441813	0.135846	0.270770	0.297242	0.099967	0.323835	0.722337	0.668681	0.918174	0.243085	0.379560	0.323875	0.056728	0.361500	0.922953	0.703448	1.401957	0.184315	0.256753	0.302123	0.071010	0.354145	0.783227	0.615080	0.781226	0.341544	0.245990	0.535084	0.306121	0.217983	0.533394	0.859496	0.701699	0.229873	0.187386	0.330989	0.098615
53	0.275065	0.552395	0.272121	0.077470	0.255413	0.490051	0.313941	0.164377	0.505218	0.815128	1.116478	1.101042	0.469042	0.444520	0.518346	0.457093	0.494053	0.289863	0.471147	0.734181	0.407391	0.360656	0.175694	0.072533	0.479747	0.634887	0.740365	0.955294	0.229258	0.559498	0.254366	0.134421	0.267566	0.344253	0.524419	0.328948	0.558459	0.599012	0.588651	0.142635	0.509686	0.915140	0.760730	0.410766	0.131405	0.249621	0.280865	0.099172	0.330808	0.669048	0.616856	0.979181	0.280843	0.381153	0.314263	0.056220	0.348185	0.926025	0.710597	1.397122	0.193238	0.262396	0.310072	0.086289	0.352871	0.801865	0.663240	0.844318	0.334706	0.246467	0.497871	0.318461	0.217581	0.530526	0.982070	0.775094	0.230875	0.197324	0.331614	0.093229
54	0.271079	0.552591	0.266646	0.065640	0.196120	0.456438	0.269481	0.163798	0.507979	0.785795	1.114151	1.083960	0.404261	0.504509	0.528047	0.554679	0.515712	0.298353	0.469132	0.790636	0.422955	0.337169	0.171889	0.087454	0.455900	0.646044	0.630461	0.978062	0.220983	0.565482	0.274336	0.140213	0.289752	0.339128	0.500897	0.323457	0.590104	0.623432	0.589675	0.142453	0.480034	0.925789	0.744205	0.422495	0.130330	0.234792	0.275880	0.095250	0.346147	0.661024	0.535044	0.983524	0.283136	0.382835	0.364780	0.073029	0.343893	0.938239	0.738521	1.292797	0.198536	0.287847	0.365446	0.214638	0.357536	0.787046	0.708264	0.876106	0.303511	0.252963	0.416921	0.381579	0.242085	0.526043	1.076553	0.814216	0.226589	0.231033	0.327446	0.093497
55	0.252147	0.550053	0.275604	0.059289	0.163620	0.456038	0.257682	0.155161	0.537936	0.788184	1.102841	0.952291	0.375215	0.521077	0.533559	0.529667	0.529730	0.376976	0.474302	0.793396	0.440687	0.327952	0.170147	0.142906	0.459965	0.655012	0.627381	1.029880	0.219931	0.567695	0.276484	0.136232	0.339402	0.335822	0.505767	0.333726	0.610313	0.599674	0.593751	0.141547	0.470272	0.909629	0.740871	0.427558	0.128470	0.232351	0.268303	0.100238	0.350307	0.647908	0.508389	0.929096	0.289488	0.349580	0.421399	0.088854	0.343593	1.001391	0.749084	1.108383	0.199734	0.297190	0.405173	0.311262	0.357911	0.730641	0.726838	0.888183	0.245455	0.268543	0.355890	0.390259	0.275370	0.492515	1.092651	0.834478	0.225264	0.245937	0.328557	0.094278
56	0.252039	0.552568	0.277784	0.056129	0.156819	0.445484	0.260445	0.151184	0.501672	0.794701	1.041278	0.737000	0.318484	0.525027	0.460505	0.532492	0.530345	0.462111	0.488362	0.764266	0.454021	0.320411	0.172169	0.162781	0.465810	0.627362	0.625677	1.186807	0.206366	0.576091	0.291286	0.143905	0.348667	0.337407	0.496015	0.342744	0.609527	0.545956	0.595554	0.135689	0.472865	0.870392	0.741897	0.417683	0.128231	0.192784	0.268273	0.221513	0.369743	0.646601	0.504801	0.814620	0.287749	0.336314	0.430451	0.094379	0.289801	1.035402	0.752218	0.986686	0.210563	0.288351	0.408324	0.331406	0.348804	0.670282	0.755715	0.895693	0.260039	0.293167	0.383719	0.389020	0.323857	0.488979	1.070476	0.846177	0.236555	0.236882	0.313514	0.092032
57	0.247359	0.551336	0.289186	0.063502	0.165043	0.408367	0.268522	0.153646	0.498962	0.784298	0.809226	0.525108	0.209121	0.440486	0.479419	0.589428	0.555270	0.482482	0.505174	0.754354	0.483480	0.322960	0.169541	0.164315	0.467915	0.577994	0.606233	1.333171	0.185649	0.593411	0.337344	0.228553	0.356166	0.326036	0.507581	0.343638	0.597299	0.535081	0.599604	0.132307	0.463110	0.847551	0.741783	0.388261	0.110482	0.183903	0.268936	0.285085	0.377292	0.618156	0.552274	0.752075	0.286722	0.332181	0.435309	0.097552	0.246731	1.033062	0.745369	0.959893	0.222791	0.279820	0.405302	0.336193	0.338572	0.529497	0.775122	0.904901	0.276546	0.322814	0.410520	0.391380	0.345200	0.539961	1.051048	0.847205	0.235764	0.243288	0.307621	0.086215
58	0.238937	0.535915	0.286842	0.064574	0.180622	0.382674	0.267183	0.153825	0.510515	0.658966	0.601302	0.392049	0.228613	0.436287	0.507514	0.602672	0.541635	0.555435	0.541411	0.766562	0.503746	0.320395	0.171729	0.164513	0.483092	0.500696	0.533365	1.393293	0.184954	0.595257	0.368793	0.399902	0.364663	0.309300	0.506111	0.332324	0.606344	0.557823	0.601480	0.129579	0.431283	0.846205	0.742181	0.390735	0.109875	0.174386	0.248000	0.293019	0.385139	0.592128	0.616574	0.743074	0.289806	0.377623	0.446698	0.100178	0.265919	1.021801	0.719235	0.949748	0.244912	0.306825	0.402164	0.393492	0.330559	0.582987	0.739848	0.909788	0.280734	0.323506	0.411283	0.416585	0.344910	0.485469	1.038739	0.845791	0.257457	0.255584	0.320223	0.077768
59	0.229269	0.513392	0.285010	0.065719	0.176840	0.290168	0.289772	0.140221	0.444831	0.591926	0.495022	0.352303	0.216213	0.373072	0.479703	0.631363	0.539582	0.635014	0.660569	0.789316	0.499868	0.283278	0.189594	0.193830	0.472213	0.477902	0.471325	1.401354	0.137243	0.595413	0.410357	0.492109	0.367695	0.321066	0.500474	0.322966	0.567694	0.515287	0.561284	0.119989	0.409553	0.862090	0.717076	0.390113	0.080045	0.132787	0.256179	0.292886	0.387220	0.627437	0.677065	0.743143	0.307013	0.470753	0.458933	0.120948	0.252443	1.010018	0.721263	0.819357	0.269299	0.315831	0.397869	0.471670	0.333846	0.594726	0.717565	0.892806	0.281575	0.325193	0.404991	0.501314	0.336941	0.424175	1.028853	0.845086	0.274140	0.288742	0.318614	0.077786
60	0.225140	0.390479	0.281765	0.064618	0.183838	0.267570	0.292482	0.130245	0.455226	0.593307	0.479019	0.344939	0.213268	0.347400	0.482145	0.663419	0.531304	0.634731	0.690439	0.776538	0.485520	0.275295	0.191141	0.249337	0.438213	0.513506	0.470164	1.402572	0.127600	0.580300	0.424018	0.511587	0.368954	0.360725	0.503747	0.343924	0.532639	0.482522	0.449549	0.096908	0.412858	0.888011	0.579334	0.393877	0.074692	0.126744	0.252654	0.293779	0.381471	0.618083	0.706349	0.739373	0.307074	0.506614	0.439810	0.132480	0.222863	0.979002	0.816194	0.664305	0.286559	0.326482	0.396314	0.498992	0.330714	0.620519	0.723987	0.852681	0.251644	0.355545	0.386685	0.526737	0.321419	0.387408	1.031659	0.837905	0.276848	0.303253	0.330635	0.077975
61	0.222963	0.329397	0.292419	0.066130	0.192082	0.220570	0.274051	0.129953	0.465255	0.624871	0.471768	0.343548	0.196436	0.345830	0.424514	0.641592	0.500446	0.632245	0.684189	0.739841	0.450655	0.287744	0.156460	0.265597	0.401958	0.600395	0.468697	1.402463	0.106307	0.519023	0.410472	0.521505	0.367652	0.385815	0.579653	0.360141	0.520963	0.496109	0.433156	0.082713	0.393244	0.930474	0.477334	0.385928	0.071060	0.115206	0.251330	0.298898	0.419344	0.612713	0.733959	0.732494	0.320504	0.490492	0.404112	0.132465	0.220891	0.959458	0.865233	0.612535	0.288651	0.299087	0.404609	0.504985	0.297375	0.637081	0.738610	0.825770	0.250169	0.369234	0.325423	0.495548	0.316627	0.389189	1.041583	0.799381	0.278745	0.306952	0.347114	0.075809
62	0.235372	0.327421	0.304336	0.067441	0.181599	0.197816	0.259412	0.140652	0.467640	0.628451	0.432171	0.337331	0.190305	0.271415	0.438022	0.581701	0.471645	0.665794	0.695149	0.724156	0.390106	0.297750	0.130727	0.277281	0.394671	0.679498	0.493673	1.402223	0.102894	0.484737	0.407815	0.573039	0.364432	0.571445	0.601450	0.358038	0.478849	0.477578	0.334465	0.074019	0.345200	0.925647	0.425345	0.387991	0.078680	0.114098	0.260599	0.300188	0.461799	0.588759	0.733641	0.730253	0.355232	0.491950	0.407039	0.137051	0.228676	0.871233	0.856616	0.564578	0.313964	0.295394	0.409592	0.505547	0.292696	0.652385	0.696600	0.801389	0.240513	0.386437	0.318311	0.540197	0.315275	0.385003	1.053258	0.728500	0.278009	0.308976	0.352092	0.067863
63	0.270511	0.341399	0.309399	0.070778	0.184158	0.182047	0.275298	0.120699	0.467922	0.631679	0.409007	0.322777	0.182483	0.168237	0.424342	0.541285	0.458093	0.681447	0.741250	0.734927	0.390184	0.259152	0.152434	0.287713	0.380672	0.709252	0.603112	1.381252	0.096653	0.464048	0.402398	0.599565	0.364594	0.586528	0.596266	0.351966	0.508261	0.504399	0.179670	0.050574	0.286407	0.925347	0.451224	0.385616	0.103817	0.130673	0.251440	0.309726	0.467544	0.595857	0.765183	0.728521	0.379694	0.491707	0.479096	0.158922	0.250380	0.658864	0.756563	0.504550	0.310134	0.333320	0.400012	0.505492	0.307527	0.651490	0.692231	0.785831	0.239728	0.397209	0.357567	0.651179	0.318862	0.376473	1.107027	0.672122	0.272427	0.305737	0.353695	0.067355
64	0.264531	0.360787	0.282237	0.073068	0.179936	0.150851	0.264490	0.112136	0.462624	0.534479	0.412902	0.297719	0.191729	0.160272	0.362773	0.530228	0.357686	0.691996	0.773872	0.692118	0.398883	0.305585	0.177791	0.287850	0.373920	0.687503	0.636979	1.246424	0.099325	0.349748	0.394187	0.608174	0.358110	0.590633	0.568258	0.364441	0.542264	0.503325	0.172356	0.056010	0.285110	0.920208	0.449754	0.380141	0.173218	0.134461	0.255997	0.357526	0.466283	0.590934	0.840272	0.732490	0.363962	0.509430	0.529422	0.185067	0.265134	0.548422	0.697597	0.487518	0.305242	0.373139	0.365765	0.504593	0.312501	0.632698	0.712831	0.791995	0.242086	0.395770	0.406522	0.672267	0.368584	0.376444	1.170046	0.636828	0.272575	0.304350	0.352432	0.067670
65	0.253060	0.361063	0.265138	0.072933	0.168904	0.152307	0.258100	0.124084	0.458067	0.466811	0.414091	0.252719	0.214436	0.167141	0.357600	0.446531	0.350885	0.688199	0.784216	0.542150	0.412184	0.306918	0.176300	0.308137	0.367247	0.664655	0.642904	1.078487	0.157548	0.236001	0.393109	0.625386	0.353751	0.591926	0.557767	0.382291	0.687917	0.483325	0.275825	0.066206	0.276777	0.928462	0.410435	0.336865	0.218235	0.175620	0.250325	0.364981	0.468016	0.584326	0.919303	0.711388	0.500828	0.525910	0.573729	0.212153	0.287548	0.565435	0.700039	0.485569	0.310220	0.370494	0.377718	0.505733	0.321837	0.669680	0.732815	0.797420	0.242382	0.392111	0.407427	0.633116	0.456790	0.360244	1.191568	0.629019	0.271272	0.276729	0.352336	0.066338
66	0.231445	0.357052	0.263521	0.071931	0.170136	0.164983	0.259281	0.155264	0.464137	0.468301	0.395306	0.215103	0.243721	0.214897	0.369582	0.398598	0.340953	0.685940	0.787752	0.419310	0.532014	0.302860	0.183782	0.437707	0.360209	0.662152	0.664934	1.045423	0.193542	0.223463	0.380366	0.630841	0.346955	0.593386	0.555459	0.390327	0.670572	0.524997	0.374760	0.083667	0.255353	0.907843	0.306844	0.303025	0.228988	0.183701	0.247958	0.367473	0.468444	0.600708	0.933039	0.556218	0.649058	0.518325	0.538651	0.212434	0.292750	0.601416	0.740044	0.486946	0.307771	0.368438	0.365370	0.494761	0.324643	0.674413	0.735383	0.764475	0.253579	0.419173	0.405255	0.623112	0.524440	0.356291	1.171936	0.630392	0.268548	0.253201	0.351782	0.065491
67	0.230273	0.355056	0.266085	0.070799	0.181955	0.159807	0.250611	0.157527	0.460410	0.477828	0.398471	0.203229	0.321706	0.246912	0.364233	0.389934	0.399240	0.654347	0.784908	0.399798	0.576080	0.290517	0.241832	0.659226	0.297967	0.709266	0.653425	1.024749	0.209662	0.214674	0.409853	0.633651	0.304571	0.591056	0.598992	0.391082	0.681443	0.545257	0.386402	0.087071	0.294838	0.749288	0.310621	0.320661	0.246302	0.179023	0.277076	0.368487	0.466382	0.586116	0.963356	0.308827	0.646444	0.545418	0.504978	0.207261	0.335159	0.631400	0.738194	0.490821	0.313043	0.346660	0.301535	0.433662	0.344452	0.656283	0.716871	0.686013	0.241394	0.390662	0.379786	0.622428	0.544272	0.342789	1.110671	0.591150	0.245259	0.249402	0.343732	0.064622
68	0.232797	0.369087	0.256847	0.071020	0.195219	0.159575	0.221815	0.145840	0.402482	0.485341	0.399110	0.220497	0.347938	0.297958	0.400833	0.304221	0.516245	0.592485	0.785029	0.401705	0.572644	0.290554	0.280691	0.758602	0.276303	0.756044	0.650295	0.871349	0.242913	0.183495	0.401667	0.633417	0.295020	0.588872	0.603320	0.386958	0.726724	0.643499	0.408504	0.094770	0.392687	0.623797	0.317020	0.346553	0.325397	0.196980	0.285080	0.345076	0.456903	0.572270	0.993013	0.252494	0.656257	0.545407	0.518620	0.206539	0.361508	0.544434	0.736162	0.492533	0.331733	0.357835	0.282650	0.398027	0.383746	0.648816	0.674782	0.602432	0.216428	0.366966	0.360636	0.622060	0.588108	0.347665	1.056480	0.484235	0.235114	0.245743	0.310167	0.060545
69	0.231893	0.470822	0.243686	0.070533	0.178157	0.166931	0.224154	0.138890	0.428659	0.475075	0.334046	0.217614	0.347594	0.306653	0.449377	0.299187	0.522601	0.554201	0.836343	0.398902	0.562625	0.289778	0.341551	0.764875	0.285447	0.793659	0.660926	0.606178	0.252913	0.134601	0.368264	0.604413	0.236273	0.608788	0.571553	0.365274	0.718087	0.735070	0.424262	0.100496	0.427433	0.552996	0.319948	0.362203	0.335793	0.199011	0.293132	0.273820	0.455486	0.572322	0.991252	0.259851	0.659904	0.548370	0.518677	0.205516	0.372919	0.489964	0.732155	0.519915	0.448326	0.424797	0.307638	0.392848	0.412872	0.640586	0.629448	0.532227	0.228868	0.431906	0.363346	0.606198	0.677730	0.342713	0.933918	0.402467	0.219436	0.229544	0.292783	0.062803
70	0.232482	0.502841	0.234821	0.069038	0.173545	0.165388	0.250999	0.141215	0.404836	0.468404	0.362451	0.223176	0.347457	0.313256	0.473674	0.314914	0.544709	0.518988	0.832350	0.376562	0.551215	0.289755	0.349586	0.783716	0.263700	0.816647	0.709566	0.385451	0.252289	0.197803	0.334637	0.505130	0.183840	0.609349	0.570521	0.335036	0.786221	0.745360	0.422256	0.100197	0.428235	0.528818	0.388395	0.372238	0.338488	0.196166	0.296915	0.259985	0.492738	0.574975	0.979043	0.269951	0.659398	0.514705	0.510400	0.204959	0.373969	0.492938	0.732129	0.556511	0.517113	0.424043	0.316905	0.369426	0.416424	0.651264	0.673254	0.497356	0.215398	0.439836	0.363088	0.534579	0.688927	0.341736	0.888008	0.352747	0.134794	0.190765	0.270290	0.062949
71	0.234865	0.508278	0.241869	0.068169	0.176745	0.165706	0.255537	0.143062	0.380189	0.513433	0.413822	0.229743	0.348034	0.309847	0.460375	0.262874	0.639837	0.458545	0.763031	0.325404	0.528090	0.287349	0.350345	0.883981	0.326157	0.819013	0.789050	0.350689	0.253425	0.198843	0.291847	0.419599	0.177687	0.618625	0.565552	0.330892	0.825134	0.746633	0.433149	0.098718	0.423327	0.528788	0.573488	0.383030	0.340438	0.192311	0.303681	0.257425	0.544267	0.576856	0.969616	0.269292	0.639801	0.438777	0.496912	0.192769	0.356613	0.527708	0.729274	0.567564	0.501345	0.405113	0.324804	0.271173	0.435327	0.632789	0.703096	0.522401	0.193406	0.412869	0.358730	0.503866	0.671869	0.338559	0.907396	0.300279	0.079783	0.154806	0.262807	0.065616
72	0.238929	0.524986	0.263993	0.064779	0.185893	0.182486	0.254088	0.145180	0.383575	0.563257	0.411318	0.252518	0.344641	0.307383	0.463632	0.272903	0.686048	0.464203	0.709999	0.283375	0.504567	0.299511	0.349648	0.958045	0.397567	0.801926	0.835692	0.352163	0.260414	0.205156	0.264586	0.398692	0.164391	0.664438	0.561833	0.329696	0.824685	0.729772	0.487286	0.107865	0.421647	0.527941	0.653291	0.376626	0.350798	0.191008	0.309971	0.263309	0.569101	0.527529	0.929331	0.265032	0.637890	0.383367	0.495408	0.184704	0.358040	0.534198	0.692893	0.542144	0.492131	0.401212	0.380726	0.159285	0.507322	0.636432	0.716208	0.513813	0.199769	0.408366	0.377053	0.500406	0.680874	0.214632	0.908703	0.268373	0.077401	0.146510	0.234296	0.058499
73	0.237476	0.553961	0.275886	0.063552	0.180247	0.200131	0.248417	0.146930	0.344918	0.573246	0.403665	0.265582	0.327832	0.326101	0.502668	0.303679	0.684699	0.477620	0.765872	0.321383	0.501347	0.314135	0.354905	0.979026	0.399571	0.710066	0.849204	0.353851	0.260948	0.215727	0.259306	0.385292	0.149655	0.681568	0.571439	0.326842	0.815687	0.725042	0.499984	0.112253	0.441610	0.514958	0.665675	0.383666	0.353740	0.190040	0.302841	0.262686	0.590569	0.465140	0.890845	0.254852	0.634702	0.378533	0.503821	0.183612	0.359726	0.543974	0.582085	0.464310	0.492123	0.398142	0.404587	0.112641	0.561314	0.605820	0.735092	0.507265	0.254032	0.431865	0.368284	0.424226	0.695055	0.222137	0.920063	0.266368	0.078968	0.133173	0.190788	0.054869
74	0.236076	0.561939	0.307455	0.067583	0.180378	0.221929	0.251041	0.173024	0.331409	0.559932	0.394558	0.270997	0.291598	0.347177	0.486101	0.310194	0.685087	0.443004	0.797610	0.361699	0.494241	0.341230	0.420498	0.980726	0.399876	0.635240	0.841573	0.349482	0.262584	0.221720	0.260970	0.318993	0.154436	0.657284	0.579481	0.319736	0.785989	0.736633	0.501238	0.110039	0.502256	0.516456	0.667905	0.396601	0.369314	0.220445	0.293465	0.261020	0.651431	0.452544	0.854547	0.248053	0.615765	0.357164	0.498348	0.183186	0.361371	0.536821	0.486132	0.387189	0.489715	0.404761	0.395687	0.111356	0.582079	0.578388	0.732329	0.509942	0.265379	0.424793	0.342696	0.217435	0.694071	0.257453	1.004492	0.266876	0.081155	0.136472	0.175776	0.059465
75	0.321965	0.557469	0.311232	0.066651	0.174398	0.260086	0.305175	0.194437	0.343583	0.609576	0.453090	0.278508	0.296464	0.332394	0.453510	0.305159	0.684625	0.398875	0.773560	0.342733	0.493717	0.329373	0.423789	0.985010	0.416792	0.583409	0.773435	0.331109	0.266161	0.253361	0.271191	0.292754	0.154149	0.648768	0.541374	0.272837	0.713999	0.700891	0.509155	0.109687	0.539797	0.466643	0.690006	0.394135	0.400266	0.272051	0.347170	0.257227	0.661293	0.442062	0.828540	0.249671	0.600377	0.355120	0.430206	0.175774	0.365383	0.536578	0.446899	0.388191	0.480605	0.398659	0.396428	0.120988	0.568126	0.541346	0.732972	0.507248	0.289535	0.425888	0.291436	0.098125	0.713994	0.326109	1.048793	0.265599	0.104729	0.133597	0.240918	0.070795
76	0.314961	0.571200	0.313129	0.070301	0.172453	0.274500	0.313849	0.195523	0.343755	0.684133	0.611874	0.285165	0.383268	0.328155	0.447556	0.309806	0.672024	0.382889	0.740926	0.318634	0.493477	0.319818	0.427960	0.983612	0.456348	0.581865	0.724884	0.310152	0.283968	0.257483	0.264831	0.285049	0.158057	0.562289	0.462786	0.240142	0.540967	0.689790	0.478437	0.109001	0.541116	0.408475	0.749869	0.388308	0.404557	0.293954	0.346784	0.218584	0.608497	0.432074	0.822041	0.249207	0.595153	0.323390	0.383760	0.163372	0.403054	0.544225	0.438690	0.416584	0.488543	0.338154	0.398567	0.124923	0.555350	0.535751	0.748025	0.506989	0.290084	0.426541	0.274435	0.135326	0.784455	0.351678	1.032243	0.273069	0.154682	0.124668	0.273524	0.082206
77	0.285832	0.557023	0.341397	0.073284	0.173456	0.267427	0.318633	0.173864	0.358362	0.684627	0.742796	0.284344	0.535131	0.303127	0.426529	0.301234	0.663957	0.374581	0.732111	0.300175	0.497032	0.327112	0.422462	0.980156	0.471492	0.577668	0.686715	0.285948	0.302401	0.259813	0.242297	0.242227	0.158932	0.482017	0.422833	0.246485	0.530309	0.659671	0.421717	0.101418	0.592422	0.411651	0.755278	0.376113	0.381025	0.303622	0.335679	0.174616	0.572233	0.395910	0.826118	0.251332	0.451490	0.297809	0.322937	0.139655	0.451551	0.601726	0.472398	0.422156	0.491686	0.329908	0.397758	0.119446	0.554886	0.507067	0.767569	0.501766	0.280892	0.389666	0.327736	0.217138	0.827177	0.377157	1.006610	0.279948	0.161684	0.123807	0.278785	0.085332
78	0.283538	0.545877	0.348436	0.080504	0.167955	0.264366	0.339392	0.203769	0.422307	0.713045	0.836977	0.279313	0.659640	0.314478	0.389718	0.265154	0.663433	0.377144	0.735369	0.317610	0.489527	0.289949	0.411984	0.979517	0.503502	0.570637	0.702759	0.248561	0.292318	0.260158	0.286334	0.239290	0.148775	0.501720	0.430335	0.250496	0.520633	0.645142	0.410620	0.104628	0.641772	0.425764	0.760341	0.375400	0.372050	0.284592	0.337427	0.202964	0.571152	0.379068	0.788463	0.248158	0.215280	0.292773	0.307715	0.133690	0.451478	0.611423	0.521804	0.425082	0.501630	0.337232	0.392159	0.110568	0.550807	0.506363	0.760200	0.503555	0.281045	0.375798	0.372675	0.283383	0.828106	0.385251	0.974243	0.281398	0.161688	0.119558	0.280098	0.085135
79	0.284617	0.539785	0.346729	0.083404	0.148053	0.270765	0.347176	0.211258	0.434011	0.717796	0.839927	0.264779	0.661557	0.338934	0.447011	0.213883	0.625458	0.378044	0.775023	0.330025	0.480087	0.286772	0.422576	0.975358	0.536407	0.511988	0.685034	0.215974	0.319945	0.273082	0.398475	0.269462	0.155367	0.543421	0.453960	0.232828	0.458714	0.537708	0.380832	0.099823	0.641990	0.496668	0.786723	0.374982	0.387780	0.290619	0.332989	0.215126	0.582421	0.377429	0.702932	0.241900	0.236157	0.244225	0.288626	0.161090	0.446087	0.586245	0.479510	0.451947	0.508719	0.348998	0.459659	0.113917	0.552631	0.493475	0.753983	0.507539	0.273681	0.347445	0.382171	0.292965	0.816929	0.434202	0.890829	0.290227	0.159935	0.129076	0.293223	0.086878
80	0.282085	0.538862	0.349853	0.084197	0.156464	0.258008	0.348523	0.221077	0.436392	0.716620	0.864885	0.267959	0.662663	0.359014	0.493056	0.230338	0.539573	0.391606	0.789763	0.329785	0.375482	0.279454	0.423088	0.932387	0.535046	0.441822	0.702539	0.190930	0.390170	0.282620	0.420348	0.268516	0.182106	0.619810	0.462255	0.209108	0.443087	0.368485	0.360773	0.095951	0.650809	0.578404	0.815017	0.372697	0.344156	0.291036	0.305359	0.214611	0.583739	0.327220	0.620260	0.232938	0.234940	0.245986	0.271806	0.176259	0.457273	0.609266	0.488298	0.473397	0.528265	0.350574	0.503747	0.118673	0.557423	0.444314	0.773011	0.477351	0.249880	0.261754	0.375344	0.296878	0.780785	0.453285	0.848424	0.290416	0.193318	0.125535	0.294120	0.087785
81	0.281234	0.539541	0.356682	0.083970	0.155385	0.257958	0.338588	0.226032	0.435549	0.717400	0.883913	0.255384	0.663742	0.365301	0.473829	0.203482	0.491712	0.403372	0.732665	0.327759	0.289926	0.283330	0.420852	0.799875	0.551105	0.370894	0.819858	0.207611	0.409471	0.274891	0.416056	0.267526	0.184520	0.622626	0.434673	0.193986	0.391603	0.373864	0.360730	0.095930	0.666200	0.632460	0.819874	0.358106	0.312572	0.297890	0.302691	0.213977	0.583390	0.289501	0.582228	0.217628	0.223646	0.256551	0.300482	0.182158	0.551630	0.657089	0.483463	0.476941	0.532028	0.282667	0.515233	0.124256	0.561099	0.425149	0.792362	0.447040	0.247833	0.240757	0.376647	0.320942	0.735146	0.466331	0.842162	0.295162	0.220611	0.197959	0.312093	0.092278
82	0.291065	0.511043	0.361662	0.084313	0.149244	0.268690	0.301958	0.226342	0.399512	0.724660	0.884807	0.255252	0.663711	0.342613	0.442805	0.160814	0.477424	0.439632	0.707227	0.327860	0.270192	0.302440	0.477324	0.711153	0.574636	0.344017	0.848466	0.198595	0.412331	0.258293	0.433463	0.267237	0.193200	0.623175	0.390869	0.185903	0.342495	0.375353	0.343364	0.096081	0.621352	0.646195	0.813355	0.323951	0.317790	0.325955	0.298664	0.190724	0.584455	0.276771	0.546128	0.192923	0.229997	0.270474	0.404872	0.191955	0.629784	0.693060	0.477369	0.442654	0.394429	0.236628	0.501804	0.126118	0.560038	0.448621	0.794992	0.429757	0.239931	0.239316	0.381225	0.344637	0.706156	0.467652	0.834913	0.278708	0.230921	0.212014	0.333737	0.089817
83	0.309056	0.408836	0.359810	0.087973	0.139864	0.284232	0.304676	0.228226	0.381998	0.726442	0.871496	0.251058	0.656302	0.299549	0.435603	0.160042	0.341934	0.457183	0.728916	0.327842	0.267054	0.306033	0.471274	0.705688	0.549761	0.392981	0.771846	0.180836	0.415300	0.265727	0.449388	0.266677	0.192322	0.618255	0.379702	0.186116	0.371403	0.381527	0.262534	0.088239	0.581981	0.653435	0.841221	0.279104	0.336054	0.326378	0.301925	0.182666	0.585021	0.274751	0.564390	0.179079	0.234546	0.259409	0.444143	0.198639	0.650457	0.702533	0.475529	0.398660	0.357953	0.239195	0.501002	0.126210	0.536744	0.474011	0.798650	0.424171	0.232302	0.224175	0.370347	0.350702	0.692646	0.463190	0.753304	0.267802	0.230638	0.217401	0.340487	0.092286
84	0.317177	0.392407	0.353343	0.082922	0.119807	0.280687	0.308475	0.220417	0.378896	0.683790	0.845043	0.251420	0.613079	0.290471	0.442619	0.208117	0.201617	0.474235	0.725613	0.322942	0.277326	0.306085	0.463349	0.698545	0.487395	0.391206	0.713380	0.154390	0.412290	0.261270	0.454260	0.266042	0.191806	0.606773	0.381984	0.189057	0.435408	0.375070	0.239740	0.086866	0.573434	0.669297	0.878408	0.253874	0.343824	0.333687	0.285730	0.177922	0.565519	0.267510	0.609113	0.167013	0.243884	0.239478	0.446203	0.200112	0.650326	0.709783	0.541793	0.376991	0.356256	0.235349	0.480561	0.121253	0.501949	0.508013	0.799032	0.421996	0.171580	0.132387	0.359371	0.352077	0.592921	0.461900	0.734726	0.265199	0.251302	0.216711	0.328878	0.091389
85	0.315487	0.379715	0.355452	0.079967	0.197437	0.240195	0.306863	0.213915	0.375382	0.641008	0.863029	0.236117	0.556509	0.264548	0.436933	0.228742	0.199830	0.507117	0.663064	0.288072	0.288560	0.305854	0.463768	0.575367	0.476156	0.409479	0.686734	0.150695	0.413748	0.252684	0.455420	0.262398	0.194333	0.607109	0.396553	0.192063	0.439650	0.293294	0.238685	0.086180	0.572099	0.674585	0.808300	0.227646	0.333392	0.342355	0.277837	0.172922	0.508548	0.242953	0.637338	0.158978	0.246624	0.250623	0.443207	0.199737	0.654818	0.772863	0.630224	0.372800	0.350496	0.219625	0.454851	0.115513	0.486588	0.473521	0.763539	0.419338	0.154080	0.120329	0.344804	0.353475	0.552420	0.467717	0.731189	0.246548	0.300432	0.236506	0.322694	0.087054
86	0.312517	0.365065	0.373001	0.084862	0.213644	0.252406	0.246953	0.193704	0.393004	0.631338	0.877276	0.215245	0.333110	0.252192	0.388505	0.284878	0.201023	0.542842	0.619339	0.218356	0.287631	0.289029	0.471890	0.431677	0.500505	0.404140	0.688356	0.150198	0.414984	0.246951	0.455631	0.237285	0.196829	0.568913	0.430780	0.217772	0.442711	0.264427	0.222647	0.094581	0.573544	0.681898	0.720690	0.221824	0.331982	0.343299	0.274386	0.169549	0.454159	0.245998	0.642222	0.167549	0.253873	0.268211	0.438371	0.196352	0.669796	0.817878	0.683190	0.376448	0.345403	0.214896	0.445901	0.112556	0.480388	0.458376	0.701292	0.361133	0.096905	0.142013	0.337612	0.351298	0.555403	0.482495	0.698868	0.238957	0.309745	0.249938	0.315643	0.080582
87	0.308111	0.293398	0.378373	0.084558	0.254549	0.210986	0.227891	0.195538	0.421256	0.626993	0.879149	0.207051	0.232324	0.245753	0.344896	0.330689	0.225657	0.548116	0.629994	0.200165	0.288071	0.261196	0.465569	0.362348	0.485102	0.400083	0.687281	0.153697	0.423471	0.222941	0.449648	0.207097	0.209906	0.537039	0.452732	0.243623	0.482458	0.259922	0.179868	0.092968	0.567063	0.680279	0.708397	0.223921	0.296863	0.308055	0.223797	0.169794	0.442148	0.241607	0.608203	0.178763	0.248214	0.313368	0.445600	0.185802	0.679041	0.820923	0.691933	0.359594	0.342890	0.201365	0.440017	0.103508	0.407432	0.429364	0.665058	0.326335	0.117249	0.157457	0.338721	0.337399	0.535101	0.480413	0.667491	0.239335	0.293143	0.288368	0.304601	0.074529
88	0.283165	0.275346	0.359250	0.080663	0.266040	0.232873	0.237152	0.202336	0.425309	0.585789	0.859660	0.197790	0.250334	0.191993	0.239602	0.321615	0.228127	0.547841	0.583078	0.196412	0.311586	0.227016	0.404040	0.325817	0.449849	0.399580	0.685114	0.155111	0.412644	0.260842	0.447860	0.183406	0.208559	0.530691	0.447877	0.249882	0.481713	0.228893	0.119790	0.113718	0.528468	0.668852	0.744163	0.209147	0.261688	0.273085	0.187305	0.173884	0.354012	0.232159	0.562773	0.182800	0.250669	0.338953	0.476068	0.190209	0.681331	0.821704	0.699514	0.321958	0.338717	0.194709	0.428184	0.101659	0.309469	0.432888	0.628713	0.312805	0.129172	0.220325	0.311175	0.289898	0.507842	0.477715	0.660429	0.241319	0.278481	0.316302	0.300769	0.067628
89	0.201551	0.260477	0.351695	0.081095	0.263472	0.248725	0.202892	0.187810	0.430351	0.492570	0.751333	0.186917	0.304054	0.182685	0.228291	0.312550	0.244554	0.554958	0.552087	0.189158	0.318239	0.219262	0.406669	0.295244	0.431238	0.400739	0.685898	0.155478	0.386340	0.274223	0.445234	0.177270	0.205114	0.523970	0.421285	0.247761	0.496931	0.224975	0.134270	0.122863	0.471489	0.637727	0.785011	0.189450	0.237701	0.286949	0.181293	0.171616	0.261262	0.205182	0.546790	0.193888	0.247666	0.335331	0.490027	0.232002	0.638435	0.808524	0.703704	0.288006	0.322619	0.197936	0.427269	0.102624	0.259854	0.482866	0.624209	0.304814	0.169842	0.262933	0.294248	0.226170	0.501978	0.456592	0.545967	0.239322	0.277935	0.320398	0.301988	0.067479
90	0.196449	0.277959	0.336387	0.079707	0.262974	0.243360	0.182823	0.173282	0.439985	0.483456	0.606487	0.179563	0.303857	0.290104	0.233202	0.311108	0.254712	0.564673	0.552245	0.164550	0.320390	0.223946	0.404995	0.288378	0.414203	0.381522	0.654957	0.160507	0.385615	0.276929	0.425668	0.156063	0.205051	0.499478	0.406839	0.264305	0.508953	0.258551	0.140475	0.121258	0.453476	0.637938	0.768241	0.187699	0.238173	0.338915	0.183225	0.135699	0.241040	0.199574	0.541118	0.233454	0.246577	0.321671	0.512253	0.341406	0.601585	0.767375	0.667417	0.284497	0.297077	0.196962	0.412157	0.103277	0.242718	0.483954	0.631291	0.304170	0.224615	0.263633	0.271995	0.209385	0.487642	0.408239	0.402800	0.240243	0.277765	0.320055	0.302290	0.066620
91	0.197921	0.270822	0.308653	0.083416	0.258886	0.244765	0.179176	0.234510	0.386826	0.402770	0.436301	0.174495	0.326138	0.320631	0.265168	0.311410	0.347062	0.583597	0.501314	0.119450	0.312030	0.228375	0.402422	0.288546	0.352746	0.362944	0.689031	0.148602	0.357801	0.291249	0.313912	0.083900	0.197544	0.459223	0.404938	0.286404	0.557990	0.266372	0.139489	0.130116	0.425533	0.638222	0.714301	0.167892	0.218286	0.349816	0.204763	0.096340	0.242479	0.200572	0.531680	0.246118	0.224042	0.318692	0.522597	0.396578	0.598352	0.751639	0.624752	0.276135	0.287813	0.179247	0.377998	0.100660	0.241914	0.485372	0.621797	0.279622	0.230888	0.284175	0.303201	0.201724	0.391220	0.378661	0.353887	0.236718	0.268586	0.316881	0.289803	0.060833
92	0.224930	0.280552	0.340027	0.095585	0.254041	0.243946	0.178835	0.300807	0.367447	0.395714	0.444593	0.175832	0.355862	0.318399	0.328938	0.302482	0.386763	0.575742	0.466492	0.089919	0.300907	0.228882	0.403740	0.292617	0.372175	0.415745	0.696198	0.145590	0.263404	0.325128	0.298767	0.087740	0.187379	0.431471	0.410962	0.319576	0.562077	0.245419	0.136809	0.156825	0.320668	0.635801	0.730826	0.161590	0.209649	0.348681	0.204777	0.073716	0.246219	0.220689	0.525344	0.241847	0.192709	0.313930	0.508519	0.398632	0.602157	0.707418	0.591850	0.216274	0.252015	0.258091	0.275807	0.084110	0.246028	0.501049	0.610403	0.239368	0.236694	0.298357	0.333434	0.165573	0.246830	0.344700	0.363948	0.223898	0.243186	0.312142	0.277343	0.054543
93	0.263523	0.353742	0.371104	0.106484	0.255886	0.242974	0.180143	0.323203	0.369802	0.422092	0.408443	0.146957	0.351735	0.320439	0.334869	0.256076	0.380876	0.563529	0.499320	0.082633	0.291563	0.219353	0.395059	0.300474	0.377648	0.415239	0.582977	0.123830	0.252488	0.324883	0.297285	0.089869	0.191327	0.457045	0.412191	0.318868	0.597426	0.249709	0.148740	0.157240	0.278321	0.609819	0.755975	0.169864	0.199800	0.341411	0.243754	0.076031	0.227456	0.230577	0.551058	0.234590	0.191851	0.296451	0.485611	0.414559	0.556691	0.679351	0.574884	0.173216	0.184578	0.304643	0.220851	0.073226	0.241571	0.522986	0.623668	0.207649	0.246137	0.306630	0.332581	0.107879	0.224610	0.347621	0.335874	0.221017	0.227788	0.312071	0.270800	0.050505
94	0.290312	0.363295	0.366774	0.110456	0.256118	0.219593	0.181865	0.324403	0.368790	0.418618	0.382028	0.125840	0.359917	0.320219	0.334226	0.251853	0.439957	0.562157	0.499414	0.088132	0.244752	0.229403	0.396678	0.299781	0.336975	0.410408	0.423708	0.106769	0.253884	0.311237	0.280914	0.083512	0.184064	0.340890	0.398223	0.308763	0.600076	0.266163	0.193923	0.158798	0.273454	0.517746	0.772556	0.175329	0.192016	0.385521	0.270753	0.076713	0.203868	0.262700	0.572383	0.251979	0.181367	0.326455	0.411962	0.474171	0.437762	0.647681	0.576608	0.152244	0.146847	0.312721	0.205828	0.065630	0.241100	0.525321	0.633606	0.172675	0.263968	0.324983	0.329597	0.077718	0.220121	0.315126	0.301068	0.207861	0.228852	0.343666	0.266483	0.056294
95	0.286820	0.377980	0.360035	0.110818	0.255176	0.216757	0.174709	0.350100	0.370897	0.406797	0.393020	0.125186	0.322955	0.319366	0.328542	0.165449	0.498776	0.477997	0.431230	0.083724	0.234512	0.246154	0.374529	0.285839	0.344213	0.317829	0.397382	0.112972	0.266390	0.309399	0.298612	0.085637	0.175934	0.295162	0.400073	0.303803	0.572289	0.296729	0.207601	0.156854	0.230161	0.408996	0.793672	0.190041	0.160522	0.413751	0.272906	0.080653	0.215873	0.293319	0.585690	0.309150	0.185749	0.440501	0.385343	0.522187	0.322571	0.630914	0.579048	0.140890	0.163871	0.306207	0.212218	0.064804	0.244858	0.516396	0.601102	0.157573	0.298426	0.341775	0.327824	0.072151	0.202168	0.289076	0.290270	0.182758	0.230773	0.379032	0.291937	0.068695
96	0.275493	0.388182	0.372915	0.111466	0.235244	0.218267	0.165182	0.413084	0.381736	0.398719	0.394784	0.125788	0.307356	0.318008	0.313323	0.139407	0.502319	0.462172	0.450661	0.084097	0.230544	0.273721	0.275859	0.245127	0.351348	0.311750	0.379554	0.113768	0.291047	0.319642	0.333101	0.092339	0.177828	0.323586	0.436301	0.304809	0.571121	0.403102	0.240518	0.157849	0.195622	0.367258	0.818677	0.199087	0.109970	0.413487	0.270553	0.087246	0.249360	0.334535	0.568670	0.354270	0.173429	0.512447	0.435930	0.536641	0.297022	0.605125	0.571087	0.143035	0.166654	0.305719	0.215275	0.066809	0.237049	0.523803	0.562409	0.157552	0.302188	0.352630	0.322006	0.067190	0.187857	0.272976	0.287527	0.136303	0.163591	0.370879	0.307134	0.078134
97	0.256222	0.391021	0.390039	0.113412	0.189475	0.195795	0.174884	0.425449	0.416824	0.398500	0.400471	0.118709	0.286230	0.315492	0.303104	0.159383	0.500048	0.390076	0.480841	0.089468	0.238099	0.295251	0.226294	0.196113	0.340864	0.297328	0.370515	0.114435	0.291053	0.386896	0.335410	0.096444	0.194000	0.377869	0.441627	0.303307	0.570053	0.427439	0.309376	0.152067	0.194911	0.358978	0.819737	0.203343	0.102799	0.404553	0.267898	0.092422	0.284275	0.361590	0.532765	0.379241	0.142570	0.546819	0.434721	0.537630	0.297525	0.569531	0.500501	0.153416	0.202589	0.346387	0.216133	0.073324	0.220489	0.544020	0.589746	0.148709	0.303310	0.342810	0.326456	0.075318	0.189204	0.270138	0.299777	0.117609	0.111807	0.363596	0.307143	0.082378
98	0.252549	0.396948	0.411211	0.124845	0.175633	0.206240	0.202417	0.422948	0.437006	0.396768	0.380921	0.102699	0.256911	0.270376	0.329355	0.159853	0.500762	0.342565	0.468544	0.090202	0.250882	0.296356	0.302417	0.159233	0.313282	0.312836	0.367639	0.109144	0.292927	0.443143	0.337838	0.108247	0.200883	0.386496	0.439016	0.304437	0.555925	0.439554	0.322399	0.189169	0.183248	0.325356	0.793889	0.205881	0.115923	0.401313	0.266279	0.094331	0.291354	0.383870	0.484831	0.389961	0.123078	0.564239	0.437428	0.538006	0.278141	0.471589	0.405831	0.155739	0.245342	0.401528	0.180333	0.073132	0.215433	0.523801	0.622680	0.136862	0.294779	0.339803	0.319071	0.082536	0.191868	0.282491	0.349270	0.115235	0.104635	0.347086	0.279558	0.083485
99	0.259493	0.402635	0.425411	0.147615	0.105608	0.208517	0.227279	0.420419	0.418085	0.389439	0.373180	0.102116	0.256492	0.191614	0.345197	0.161561	0.511640	0.319657	0.407145	0.088462	0.236840	0.324590	0.341894	0.147662	0.309038	0.328651	0.364376	0.104715	0.280958	0.442829	0.336053	0.109944	0.237213	0.412491	0.427846	0.310684	0.564511	0.488233	0.321998	0.236492	0.198970	0.308062	0.755843	0.205159	0.120074	0.404393	0.264242	0.099662	0.371252	0.386720	0.520942	0.398760	0.125755	0.558273	0.425640	0.537652	0.238537	0.383620	0.370169	0.163143	0.245326	0.434432	0.169127	0.073104	0.238778	0.493189	0.640661	0.134945	0.289068	0.319216	0.294968	0.083780	0.194919	0.317393	0.367395	0.113601	0.101583	0.319496	0.264834	0.077831
100	0.263936	0.404081	0.471286	0.168756	0.124481	0.175903	0.226296	0.418363	0.413701	0.381915	0.362036	0.102237	0.210832	0.152811	0.298469	0.160747	0.517578	0.332555	0.400371	0.089661	0.258351	0.330922	0.350313	0.147876	0.305116	0.331917	0.380921	0.099713	0.282482	0.419766	0.337788	0.111435	0.244948	0.421082	0.398503	0.304401	0.548935	0.536468	0.314092	0.250232	0.237635	0.293711	0.755777	0.205322	0.131179	0.409381	0.260395	0.101559	0.460092	0.372589	0.522862	0.394433	0.132261	0.570273	0.374787	0.530930	0.209293	0.380546	0.372899	0.165624	0.241854	0.440305	0.165306	0.064788	0.269160	0.468907	0.634284	0.125435	0.265772	0.280366	0.264097	0.080553	0.197296	0.369211	0.384289	0.105430	0.104734	0.320528	0.266782	0.079842
101	0.295039	0.403257	0.534445	0.178910	0.133722	0.198513	0.242551	0.418331	0.394124	0.371294	0.347233	0.103927	0.201102	0.152585	0.252717	0.161576	0.514458	0.317091	0.396825	0.087634	0.311993	0.347054	0.377501	0.150170	0.294754	0.330803	0.405720	0.097113	0.275295	0.410251	0.340353	0.112227	0.293339	0.440929	0.353679	0.282379	0.541289	0.524684	0.316585	0.254392	0.246942	0.285296	0.764073	0.203331	0.169422	0.399078	0.252375	0.099625	0.462267	0.374312	0.559034	0.386427	0.134963	0.574017	0.344775	0.510274	0.198488	0.378422	0.359131	0.158427	0.237997	0.447736	0.165912	0.053418	0.280423	0.468867	0.627876	0.113140	0.231095	0.278943	0.268560	0.082553	0.184637	0.346876	0.391219	0.095612	0.108670	0.322494	0.272898	0.081866
