	120_F_P_sh_L_ND_A_01.c3d	120_F_P_sh_L_ND_A_01.c3d	120_F_P_sh_L_ND_A_01.c3d	120_F_P_sh_L_ND_A_01.c3d	120_F_P_sh_L_ND_A_01.c3d	120_F_P_sh_L_ND_A_01.c3d	120_F_P_sh_L_ND_A_01.c3d	120_F_P_sh_L_ND_A_01.c3d	120_F_P_sh_L_ND_A_04.c3d	120_F_P_sh_L_ND_A_04.c3d	120_F_P_sh_L_ND_A_04.c3d	120_F_P_sh_L_ND_A_04.c3d	120_F_P_sh_L_ND_A_04.c3d	120_F_P_sh_L_ND_A_04.c3d	120_F_P_sh_L_ND_A_04.c3d	120_F_P_sh_L_ND_A_04.c3d	120_F_P_sh_L_ND_A_06.c3d	120_F_P_sh_L_ND_A_06.c3d	120_F_P_sh_L_ND_A_06.c3d	120_F_P_sh_L_ND_A_06.c3d	120_F_P_sh_L_ND_A_06.c3d	120_F_P_sh_L_ND_A_06.c3d	120_F_P_sh_L_ND_A_06.c3d	120_F_P_sh_L_ND_A_06.c3d	120_F_P_sh_L_ND_A_07.c3d	120_F_P_sh_L_ND_A_07.c3d	120_F_P_sh_L_ND_A_07.c3d	120_F_P_sh_L_ND_A_07.c3d	120_F_P_sh_L_ND_A_07.c3d	120_F_P_sh_L_ND_A_07.c3d	120_F_P_sh_L_ND_A_07.c3d	120_F_P_sh_L_ND_A_07.c3d	120_F_P_sh_L_ND_A_08.c3d	120_F_P_sh_L_ND_A_08.c3d	120_F_P_sh_L_ND_A_08.c3d	120_F_P_sh_L_ND_A_08.c3d	120_F_P_sh_L_ND_A_08.c3d	120_F_P_sh_L_ND_A_08.c3d	120_F_P_sh_L_ND_A_08.c3d	120_F_P_sh_L_ND_A_08.c3d	120_F_P_sh_L_ND_A_09.c3d	120_F_P_sh_L_ND_A_09.c3d	120_F_P_sh_L_ND_A_09.c3d	120_F_P_sh_L_ND_A_09.c3d	120_F_P_sh_L_ND_A_09.c3d	120_F_P_sh_L_ND_A_09.c3d	120_F_P_sh_L_ND_A_09.c3d	120_F_P_sh_L_ND_A_09.c3d	120_F_P_sh_L_ND_A_10.c3d	120_F_P_sh_L_ND_A_10.c3d	120_F_P_sh_L_ND_A_10.c3d	120_F_P_sh_L_ND_A_10.c3d	120_F_P_sh_L_ND_A_10.c3d	120_F_P_sh_L_ND_A_10.c3d	120_F_P_sh_L_ND_A_10.c3d	120_F_P_sh_L_ND_A_10.c3d	120_F_P_sh_L_ND_A_11.c3d	120_F_P_sh_L_ND_A_11.c3d	120_F_P_sh_L_ND_A_11.c3d	120_F_P_sh_L_ND_A_11.c3d	120_F_P_sh_L_ND_A_11.c3d	120_F_P_sh_L_ND_A_11.c3d	120_F_P_sh_L_ND_A_11.c3d	120_F_P_sh_L_ND_A_11.c3d	120_F_P_sh_L_ND_A_13.c3d	120_F_P_sh_L_ND_A_13.c3d	120_F_P_sh_L_ND_A_13.c3d	120_F_P_sh_L_ND_A_13.c3d	120_F_P_sh_L_ND_A_13.c3d	120_F_P_sh_L_ND_A_13.c3d	120_F_P_sh_L_ND_A_13.c3d	120_F_P_sh_L_ND_A_13.c3d
	Biceps femoris_lat	Semitendinosus_lat	Vastus lateralis_lat	Vastus medialis_lat	Biceps femoris_med	Semitendinosus_med	Vastus lateralis_med	Vastus medialis_med	Biceps femoris_lat	Semitendinosus_lat	Vastus lateralis_lat	Vastus medialis_lat	Biceps femoris_med	Semitendinosus_med	Vastus lateralis_med	Vastus medialis_med	Biceps femoris_lat	Semitendinosus_lat	Vastus lateralis_lat	Vastus medialis_lat	Biceps femoris_med	Semitendinosus_med	Vastus lateralis_med	Vastus medialis_med	Biceps femoris_lat	Semitendinosus_lat	Vastus lateralis_lat	Vastus medialis_lat	Biceps femoris_med	Semitendinosus_med	Vastus lateralis_med	Vastus medialis_med	Biceps femoris_lat	Semitendinosus_lat	Vastus lateralis_lat	Vastus medialis_lat	Biceps femoris_med	Semitendinosus_med	Vastus lateralis_med	Vastus medialis_med	Biceps femoris_lat	Semitendinosus_lat	Vastus lateralis_lat	Vastus medialis_lat	Biceps femoris_med	Semitendinosus_med	Vastus lateralis_med	Vastus medialis_med	Biceps femoris_lat	Semitendinosus_lat	Vastus lateralis_lat	Vastus medialis_lat	Biceps femoris_med	Semitendinosus_med	Vastus lateralis_med	Vastus medialis_med	Biceps femoris_lat	Semitendinosus_lat	Vastus lateralis_lat	Vastus medialis_lat	Biceps femoris_med	Semitendinosus_med	Vastus lateralis_med	Vastus medialis_med	Biceps femoris_lat	Semitendinosus_lat	Vastus lateralis_lat	Vastus medialis_lat	Biceps femoris_med	Semitendinosus_med	Vastus lateralis_med	Vastus medialis_med
	P2D	P2D	P2D	P2D	P2D	P2D	P2D	P2D	P2D	P2D	P2D	P2D	P2D	P2D	P2D	P2D	P2D	P2D	P2D	P2D	P2D	P2D	P2D	P2D	P2D	P2D	P2D	P2D	P2D	P2D	P2D	P2D	P2D	P2D	P2D	P2D	P2D	P2D	P2D	P2D	P2D	P2D	P2D	P2D	P2D	P2D	P2D	P2D	P2D	P2D	P2D	P2D	P2D	P2D	P2D	P2D	P2D	P2D	P2D	P2D	P2D	P2D	P2D	P2D	P2D	P2D	P2D	P2D	P2D	P2D	P2D	P2D
	EMG_lat	EMG_lat	EMG_lat	EMG_lat	EMG_med	EMG_med	EMG_med	EMG_med	EMG_lat	EMG_lat	EMG_lat	EMG_lat	EMG_med	EMG_med	EMG_med	EMG_med	EMG_lat	EMG_lat	EMG_lat	EMG_lat	EMG_med	EMG_med	EMG_med	EMG_med	EMG_lat	EMG_lat	EMG_lat	EMG_lat	EMG_med	EMG_med	EMG_med	EMG_med	EMG_lat	EMG_lat	EMG_lat	EMG_lat	EMG_med	EMG_med	EMG_med	EMG_med	EMG_lat	EMG_lat	EMG_lat	EMG_lat	EMG_med	EMG_med	EMG_med	EMG_med	EMG_lat	EMG_lat	EMG_lat	EMG_lat	EMG_med	EMG_med	EMG_med	EMG_med	EMG_lat	EMG_lat	EMG_lat	EMG_lat	EMG_med	EMG_med	EMG_med	EMG_med	EMG_lat	EMG_lat	EMG_lat	EMG_lat	EMG_med	EMG_med	EMG_med	EMG_med
ITEM	Y	Y	Y	Y	Y	Y	Y	Y	Y	Y	Y	Y	Y	Y	Y	Y	Y	Y	Y	Y	Y	Y	Y	Y	Y	Y	Y	Y	Y	Y	Y	Y	Y	Y	Y	Y	Y	Y	Y	Y	Y	Y	Y	Y	Y	Y	Y	Y	Y	Y	Y	Y	Y	Y	Y	Y	Y	Y	Y	Y	Y	Y	Y	Y	Y	Y	Y	Y	Y	Y	Y	Y
1	0.284722	0.473834	0.246794	0.206160	0.058400	0.082134	0.211480	0.159146	0.305748	0.455414	0.116812	0.164749	0.176062	0.210081	0.178994	0.095719	0.173966	0.274812	0.200637	0.174269	0.147450	0.163286	0.096253	0.087788	0.079354	0.183214	0.085501	0.039290	0.188150	0.257626	0.112240	0.105729	0.204163	0.252326	0.108315	0.109824	0.072174	0.075948	0.216097	0.170465	0.328510	0.589507	0.294208	0.311806	0.198053	0.074974	0.298479	0.240666	0.265266	0.371245	0.385421	0.315034	0.084856	0.109767	0.317569	0.170936	0.231219	0.393303	0.156925	0.177447	0.146633	0.263369	0.125012	0.145611	0.353602	0.853830	0.303897	0.192520	0.064994	0.130890	0.073556	0.058371
2	0.284875	0.472016	0.248525	0.218629	0.063789	0.095023	0.207112	0.165563	0.305821	0.457308	0.118409	0.165137	0.171780	0.211870	0.180146	0.093945	0.196113	0.287482	0.200311	0.174234	0.147151	0.161680	0.101637	0.098529	0.081714	0.176947	0.093598	0.061080	0.219053	0.275457	0.109254	0.116297	0.227107	0.279810	0.106654	0.111212	0.074003	0.076668	0.214579	0.171069	0.336629	0.638397	0.310206	0.312431	0.198622	0.074630	0.304534	0.244110	0.267159	0.377433	0.432513	0.333496	0.095107	0.104319	0.339710	0.171552	0.203826	0.381273	0.197730	0.186348	0.193541	0.298176	0.124754	0.139884	0.360127	0.853543	0.301914	0.179872	0.056601	0.121222	0.069429	0.064057
3	0.290235	0.469434	0.248505	0.231022	0.063107	0.100906	0.200672	0.171942	0.305652	0.456964	0.120316	0.165738	0.153501	0.192055	0.181872	0.093732	0.207345	0.300920	0.200797	0.174068	0.143697	0.160260	0.104503	0.107938	0.082593	0.169279	0.127612	0.098888	0.252569	0.281232	0.118765	0.133314	0.228201	0.305279	0.106535	0.120440	0.079866	0.082162	0.214298	0.172972	0.329277	0.646259	0.331972	0.317216	0.198473	0.074012	0.299004	0.238393	0.269092	0.395122	0.468709	0.363732	0.115785	0.108864	0.346846	0.170793	0.172095	0.353286	0.225169	0.202810	0.228528	0.350265	0.123487	0.136736	0.386454	0.864410	0.312099	0.164371	0.062997	0.103357	0.069825	0.071457
4	0.302594	0.509097	0.249033	0.236089	0.063183	0.101590	0.199365	0.176715	0.306729	0.457144	0.123553	0.166741	0.133400	0.167035	0.185092	0.093687	0.205148	0.314281	0.196911	0.174647	0.142210	0.161082	0.106467	0.108572	0.084908	0.169784	0.153667	0.135277	0.262688	0.281797	0.117218	0.138982	0.220223	0.294313	0.109905	0.130313	0.086464	0.086184	0.212796	0.172979	0.328351	0.641363	0.356319	0.337772	0.198526	0.072443	0.290071	0.227836	0.266889	0.408614	0.495972	0.392620	0.136517	0.124941	0.350141	0.172355	0.163864	0.304927	0.237320	0.221521	0.247903	0.381319	0.125888	0.138903	0.423142	0.891895	0.341117	0.159951	0.069701	0.088213	0.077988	0.077448
5	0.319424	0.529472	0.254135	0.235058	0.062582	0.099590	0.199474	0.175744	0.302173	0.455124	0.123798	0.164597	0.133439	0.171081	0.188740	0.091897	0.203352	0.300022	0.185828	0.168659	0.153375	0.174705	0.105188	0.107338	0.081003	0.174507	0.164454	0.163683	0.264011	0.281588	0.116952	0.139417	0.223904	0.279961	0.108777	0.130186	0.089645	0.091558	0.207776	0.170483	0.347292	0.643272	0.369867	0.362545	0.198061	0.071713	0.280498	0.224032	0.259796	0.410924	0.518012	0.404203	0.144418	0.142485	0.348450	0.171733	0.160164	0.289892	0.239679	0.233620	0.251704	0.387388	0.123826	0.131376	0.454640	0.927336	0.362334	0.161678	0.076802	0.080799	0.078468	0.078601
6	0.330973	0.522882	0.246180	0.237019	0.064215	0.102165	0.199384	0.169178	0.294492	0.451333	0.123510	0.157441	0.153438	0.199684	0.189801	0.093103	0.206833	0.297752	0.161723	0.151372	0.169575	0.223330	0.100792	0.103636	0.079815	0.177781	0.168755	0.179075	0.263670	0.278562	0.117534	0.139334	0.236137	0.308482	0.111438	0.129059	0.087141	0.094195	0.196237	0.159567	0.378807	0.678449	0.374991	0.377532	0.195144	0.072747	0.264431	0.222520	0.242702	0.408774	0.524243	0.403605	0.145510	0.150532	0.338431	0.165544	0.135680	0.288537	0.235326	0.231657	0.251682	0.388853	0.111781	0.108773	0.473946	0.947985	0.372387	0.167750	0.078646	0.074433	0.075197	0.077425
7	0.323482	0.530125	0.234642	0.228031	0.070377	0.116737	0.195296	0.158294	0.277191	0.439708	0.126381	0.150012	0.167952	0.211896	0.189772	0.094544	0.225942	0.318861	0.118939	0.114629	0.188055	0.301044	0.101082	0.105193	0.121767	0.242445	0.168978	0.183603	0.259140	0.269077	0.115834	0.137906	0.240919	0.361131	0.112208	0.133918	0.109311	0.126658	0.181071	0.143224	0.404068	0.730193	0.363444	0.379848	0.186394	0.072631	0.249187	0.220485	0.224325	0.394522	0.520331	0.396528	0.155135	0.155016	0.335472	0.155632	0.118108	0.272697	0.236775	0.223862	0.253928	0.388398	0.107741	0.095007	0.484407	0.964334	0.372838	0.167787	0.078918	0.073841	0.074258	0.086912
8	0.311229	0.522385	0.228991	0.207780	0.076306	0.137936	0.188778	0.149779	0.263560	0.428590	0.145854	0.141220	0.172482	0.214332	0.190775	0.098450	0.251236	0.355460	0.109323	0.088897	0.202054	0.388603	0.106405	0.114406	0.228217	0.366372	0.175258	0.192156	0.245187	0.250287	0.117255	0.134268	0.246686	0.363593	0.109503	0.133012	0.117151	0.144679	0.161396	0.124818	0.408944	0.769624	0.311114	0.352981	0.181992	0.071890	0.233451	0.217317	0.218156	0.365303	0.504416	0.377949	0.175054	0.170807	0.347894	0.145265	0.121298	0.273448	0.267204	0.230389	0.257398	0.388131	0.107259	0.090866	0.483994	0.971629	0.373457	0.169148	0.078884	0.076990	0.074534	0.099573
9	0.288390	0.495732	0.221241	0.188172	0.087145	0.162245	0.181615	0.142707	0.260306	0.415169	0.180462	0.143326	0.172674	0.215580	0.187783	0.102735	0.247649	0.375315	0.124334	0.104796	0.203585	0.424282	0.119424	0.140971	0.299334	0.486704	0.186637	0.211960	0.231575	0.231949	0.120745	0.130887	0.266524	0.381075	0.107604	0.129018	0.121055	0.147642	0.151111	0.128032	0.407841	0.776021	0.291841	0.320526	0.184417	0.074656	0.217624	0.209367	0.213862	0.359108	0.473236	0.359977	0.187610	0.173565	0.363230	0.138130	0.117924	0.283667	0.295026	0.248061	0.257961	0.387594	0.108172	0.088667	0.482754	0.954121	0.372631	0.168465	0.087287	0.078529	0.080962	0.105099
10	0.291409	0.480043	0.238964	0.179976	0.089826	0.172465	0.175072	0.140492	0.259445	0.407916	0.210810	0.154097	0.172716	0.216006	0.172580	0.101754	0.243267	0.369412	0.159097	0.160218	0.201956	0.433763	0.133627	0.164376	0.330740	0.513249	0.188761	0.223822	0.227024	0.215142	0.123700	0.127331	0.279302	0.424773	0.106999	0.126271	0.117343	0.146243	0.152714	0.132813	0.415998	0.773126	0.294585	0.303274	0.195818	0.106180	0.208253	0.196872	0.176677	0.331347	0.446291	0.345747	0.196115	0.172096	0.376020	0.135042	0.120598	0.286604	0.303996	0.252377	0.260377	0.383765	0.113206	0.089715	0.482442	0.945746	0.369062	0.165682	0.114119	0.097831	0.095695	0.104439
11	0.312353	0.497786	0.249766	0.187373	0.089729	0.174335	0.166606	0.139952	0.237736	0.394703	0.212208	0.161050	0.173105	0.216124	0.153511	0.095431	0.245579	0.380919	0.184282	0.197185	0.200492	0.469010	0.141166	0.180964	0.339350	0.509115	0.186581	0.227425	0.227568	0.213815	0.124480	0.127106	0.270071	0.470295	0.107778	0.123717	0.114485	0.143465	0.139986	0.122135	0.448465	0.799325	0.302171	0.301026	0.206866	0.149236	0.198024	0.179862	0.120952	0.286669	0.425708	0.338268	0.197450	0.173600	0.383591	0.134650	0.153662	0.308239	0.303929	0.245224	0.258020	0.370685	0.104553	0.084586	0.469690	0.939494	0.362872	0.157855	0.135677	0.125602	0.101547	0.115214
12	0.306131	0.517812	0.236140	0.194808	0.090579	0.175249	0.145243	0.137045	0.192886	0.322588	0.212712	0.163628	0.172696	0.220013	0.135886	0.086617	0.253287	0.408370	0.210506	0.234159	0.201668	0.486075	0.137359	0.182549	0.339098	0.506988	0.196764	0.232851	0.228786	0.212966	0.124737	0.126714	0.270208	0.478883	0.138475	0.133920	0.114269	0.140395	0.101304	0.104045	0.490323	0.844718	0.305448	0.308416	0.190405	0.184382	0.181049	0.158654	0.098704	0.276421	0.423544	0.339300	0.201347	0.177047	0.387659	0.133049	0.207774	0.380927	0.299583	0.235785	0.248764	0.347943	0.088079	0.074253	0.437062	0.875276	0.353501	0.143393	0.163000	0.140610	0.110225	0.132197
13	0.308857	0.509320	0.218224	0.188625	0.092804	0.175206	0.123882	0.132014	0.158375	0.271847	0.228886	0.163601	0.168634	0.217728	0.125134	0.084077	0.251481	0.410897	0.229045	0.255477	0.193204	0.484953	0.141611	0.185357	0.356345	0.506008	0.196966	0.234663	0.227757	0.208172	0.121990	0.125390	0.304175	0.524064	0.165778	0.157702	0.116609	0.139323	0.070835	0.091616	0.511664	0.866142	0.304424	0.315837	0.158430	0.198887	0.182305	0.170963	0.103127	0.275758	0.431901	0.344962	0.215730	0.186921	0.389397	0.129042	0.250254	0.443616	0.294471	0.227912	0.242578	0.321289	0.077117	0.062008	0.420294	0.842152	0.331698	0.117407	0.172515	0.140374	0.117874	0.146734
14	0.310205	0.483813	0.219826	0.183199	0.094554	0.173961	0.119299	0.130917	0.146639	0.260612	0.256009	0.159403	0.156531	0.215878	0.125925	0.083150	0.232980	0.400719	0.231243	0.259645	0.178229	0.478836	0.155649	0.193016	0.413434	0.534656	0.195961	0.235062	0.223368	0.188228	0.116273	0.125108	0.330045	0.597664	0.188924	0.192982	0.130603	0.182458	0.061486	0.090788	0.519813	0.871710	0.306626	0.317278	0.155756	0.200605	0.181041	0.198949	0.131904	0.308164	0.415924	0.368414	0.242018	0.207785	0.386566	0.123512	0.281726	0.503464	0.293408	0.221131	0.241101	0.308056	0.074072	0.055821	0.411644	0.851520	0.312595	0.112825	0.172519	0.151825	0.113635	0.154392
15	0.336073	0.468080	0.233208	0.179315	0.099186	0.172882	0.122613	0.132312	0.146161	0.254383	0.272811	0.164245	0.148612	0.202504	0.117981	0.084497	0.206120	0.381970	0.249150	0.269841	0.191663	0.485209	0.170242	0.198970	0.475404	0.629606	0.193912	0.233151	0.219042	0.175202	0.098310	0.123349	0.328549	0.629947	0.207507	0.216320	0.137918	0.202043	0.059719	0.089663	0.518914	0.874512	0.319150	0.317660	0.156058	0.221253	0.160271	0.213672	0.144727	0.321850	0.377631	0.401489	0.266301	0.228742	0.369883	0.112937	0.304028	0.554994	0.289170	0.220303	0.240494	0.308719	0.073650	0.055183	0.417983	0.832745	0.300473	0.134406	0.187489	0.181382	0.117689	0.153368
16	0.370425	0.508563	0.256654	0.186452	0.101376	0.172479	0.121847	0.132696	0.146353	0.250763	0.280242	0.178103	0.144409	0.199934	0.118190	0.086293	0.193269	0.383989	0.263669	0.287884	0.224147	0.525679	0.181608	0.200046	0.527602	0.753292	0.181347	0.226547	0.208730	0.152890	0.097933	0.120539	0.312342	0.628236	0.209480	0.228589	0.136607	0.204450	0.061564	0.084748	0.508907	0.852812	0.332912	0.318324	0.166913	0.247743	0.143126	0.208233	0.140040	0.304312	0.350836	0.421399	0.273949	0.230872	0.339443	0.107040	0.306821	0.565837	0.264499	0.213905	0.218983	0.293042	0.071225	0.054858	0.476114	0.818751	0.294018	0.152167	0.204253	0.186992	0.128465	0.154343
17	0.386586	0.566254	0.264466	0.209786	0.102324	0.172191	0.115859	0.131949	0.146322	0.249699	0.280767	0.182234	0.147555	0.207269	0.126224	0.086795	0.189523	0.363234	0.296143	0.318342	0.228525	0.530351	0.182227	0.195535	0.546081	0.803321	0.188918	0.209861	0.185613	0.117554	0.095935	0.110303	0.298900	0.612049	0.217346	0.227047	0.136063	0.202788	0.069045	0.086196	0.504673	0.795848	0.347267	0.323168	0.189904	0.265494	0.147646	0.201379	0.144297	0.281335	0.318818	0.417454	0.274394	0.228482	0.310699	0.105523	0.350608	0.604154	0.241518	0.199455	0.174705	0.235943	0.069673	0.053921	0.576226	0.920347	0.293095	0.158693	0.205622	0.187467	0.131806	0.154114
18	0.380184	0.614829	0.264541	0.211207	0.104006	0.171636	0.109528	0.129444	0.144280	0.254575	0.284193	0.182317	0.153761	0.221008	0.129285	0.085601	0.199321	0.354039	0.314948	0.343761	0.232865	0.531374	0.187709	0.191270	0.550218	0.813585	0.212543	0.199889	0.143236	0.097890	0.081268	0.082372	0.298430	0.604961	0.280126	0.258448	0.136710	0.204334	0.081965	0.102718	0.513731	0.766879	0.337195	0.326098	0.213015	0.275318	0.169393	0.210612	0.165505	0.270991	0.275544	0.396624	0.273581	0.228029	0.280504	0.099896	0.411543	0.673407	0.229132	0.178058	0.137199	0.156252	0.070400	0.053161	0.639995	1.093934	0.292276	0.163070	0.210977	0.187015	0.128363	0.154953
19	0.371990	0.634452	0.285356	0.211067	0.107228	0.170265	0.105959	0.126887	0.149211	0.255123	0.300561	0.180970	0.149939	0.223099	0.127321	0.084243	0.198220	0.354109	0.315580	0.349343	0.231988	0.531010	0.187316	0.190570	0.550491	0.811192	0.225474	0.209894	0.114022	0.096243	0.107811	0.065049	0.293517	0.604722	0.341587	0.300899	0.142811	0.211432	0.088892	0.116132	0.525185	0.775851	0.333621	0.325773	0.238725	0.281142	0.175761	0.231686	0.186434	0.278233	0.250357	0.381627	0.267431	0.227867	0.257734	0.098931	0.469749	0.749785	0.234755	0.160226	0.120739	0.120112	0.066822	0.049258	0.661197	1.207708	0.274464	0.162655	0.216222	0.187135	0.127813	0.159704
20	0.383984	0.635677	0.306261	0.224720	0.111374	0.163223	0.098263	0.123031	0.146456	0.271355	0.311924	0.182795	0.128877	0.200430	0.121413	0.079847	0.184779	0.348696	0.320718	0.348281	0.230702	0.532672	0.187834	0.190561	0.552749	0.801959	0.231156	0.230113	0.128602	0.106992	0.152311	0.088803	0.287809	0.593956	0.384809	0.325776	0.148582	0.252299	0.098056	0.127990	0.530089	0.806979	0.363796	0.327386	0.249017	0.284953	0.174727	0.250193	0.211334	0.284668	0.243010	0.368767	0.265841	0.233954	0.251878	0.099745	0.511813	0.830459	0.241571	0.152041	0.123819	0.128576	0.071350	0.048106	0.645263	1.233648	0.234943	0.155198	0.219347	0.187772	0.127718	0.165606
21	0.406440	0.669636	0.311593	0.248759	0.119892	0.158050	0.095252	0.118424	0.123705	0.283887	0.316693	0.192816	0.107461	0.185322	0.121373	0.080207	0.145456	0.317106	0.324709	0.350968	0.220520	0.527689	0.188887	0.190200	0.543582	0.770739	0.232552	0.244125	0.179236	0.172045	0.188859	0.137155	0.282902	0.561954	0.393551	0.333690	0.138844	0.280487	0.097100	0.134386	0.518752	0.838030	0.408596	0.331799	0.249363	0.284740	0.177633	0.257187	0.217872	0.306148	0.246933	0.368876	0.275665	0.240096	0.253858	0.108226	0.526837	0.862869	0.238640	0.152677	0.124329	0.134185	0.070259	0.047928	0.620413	1.218792	0.205422	0.145977	0.225283	0.189607	0.128125	0.164377
22	0.436932	0.702315	0.307416	0.259621	0.127967	0.156870	0.094380	0.114544	0.127247	0.263234	0.306519	0.196725	0.098748	0.182777	0.130522	0.079523	0.121559	0.273065	0.320719	0.348684	0.212234	0.490908	0.187258	0.186889	0.520079	0.701717	0.249437	0.231896	0.220982	0.227359	0.203547	0.166013	0.280282	0.558201	0.402633	0.333865	0.130378	0.277060	0.096617	0.133905	0.493907	0.827128	0.449596	0.338729	0.249246	0.284791	0.185262	0.257669	0.222673	0.328176	0.258823	0.375656	0.286012	0.239733	0.260378	0.116992	0.525974	0.863766	0.212836	0.144095	0.116111	0.137156	0.070149	0.046774	0.606535	1.196385	0.193736	0.142136	0.229965	0.192275	0.128013	0.157930
23	0.466184	0.736272	0.293246	0.254372	0.137654	0.158603	0.100878	0.115313	0.198526	0.279102	0.284270	0.189577	0.097604	0.191425	0.152756	0.079760	0.137900	0.245293	0.307740	0.331527	0.217439	0.498521	0.183337	0.178716	0.506524	0.657892	0.296789	0.239536	0.238143	0.259291	0.206127	0.180246	0.262811	0.552244	0.410448	0.333466	0.124021	0.281381	0.099619	0.123616	0.472014	0.778941	0.473132	0.350844	0.249546	0.285707	0.194305	0.257558	0.231592	0.339104	0.271212	0.382616	0.287906	0.239351	0.258636	0.119497	0.526163	0.861975	0.177063	0.127076	0.117989	0.146642	0.065173	0.045469	0.618448	1.178347	0.193534	0.140051	0.228216	0.213439	0.125174	0.153042
24	0.479027	0.736258	0.353636	0.280372	0.143639	0.159348	0.121157	0.118976	0.249620	0.355653	0.254618	0.175602	0.106219	0.192001	0.171658	0.081757	0.162981	0.239022	0.294670	0.307440	0.218140	0.515474	0.175513	0.158152	0.495910	0.651593	0.365926	0.303709	0.239290	0.266364	0.204855	0.183809	0.253895	0.531103	0.411391	0.333672	0.124398	0.290676	0.109569	0.129027	0.471879	0.760385	0.481929	0.357180	0.248455	0.298364	0.195965	0.258256	0.233261	0.340770	0.274301	0.388909	0.279178	0.232592	0.245689	0.119571	0.534527	0.871115	0.176847	0.136216	0.123465	0.148219	0.059784	0.043528	0.643763	1.172396	0.192749	0.137611	0.220063	0.245607	0.112884	0.153146
25	0.490943	0.729770	0.444719	0.324386	0.144907	0.152297	0.138523	0.121390	0.276978	0.418944	0.245715	0.162775	0.123125	0.197082	0.189037	0.087598	0.179982	0.179543	0.277493	0.280677	0.237286	0.513484	0.169374	0.132957	0.496373	0.651380	0.408489	0.362796	0.251319	0.272174	0.201803	0.183091	0.280283	0.522090	0.413087	0.334128	0.124380	0.298439	0.113650	0.133969	0.483630	0.798726	0.478568	0.363678	0.254019	0.355011	0.200491	0.266567	0.259292	0.332910	0.266076	0.388893	0.268428	0.222875	0.217061	0.119221	0.537956	0.872418	0.188234	0.142758	0.117464	0.147984	0.051101	0.040860	0.666037	1.183320	0.192329	0.137509	0.216365	0.236181	0.106277	0.147227
26	0.485212	0.721223	0.488058	0.342613	0.141659	0.141368	0.143409	0.121051	0.291494	0.449564	0.246357	0.158077	0.165316	0.294533	0.191912	0.089704	0.193333	0.149326	0.280444	0.262521	0.246643	0.492970	0.163630	0.111258	0.497262	0.653184	0.424924	0.404235	0.257747	0.304471	0.203207	0.185329	0.303834	0.559986	0.414669	0.331035	0.124358	0.305586	0.111743	0.132881	0.467465	0.828169	0.472189	0.367663	0.265159	0.407490	0.204233	0.288026	0.340891	0.321577	0.252474	0.387441	0.261123	0.226949	0.186575	0.118015	0.521271	0.835479	0.195292	0.149102	0.114469	0.143662	0.055079	0.050194	0.674393	1.191866	0.192324	0.138827	0.199084	0.229009	0.097514	0.133238
27	0.487335	0.724731	0.493243	0.344004	0.136374	0.115082	0.144345	0.119925	0.296463	0.460979	0.235056	0.164673	0.207146	0.408110	0.189859	0.085199	0.213632	0.145854	0.313859	0.273647	0.247226	0.479889	0.163228	0.109272	0.472920	0.647519	0.426298	0.419765	0.261921	0.327707	0.220250	0.193991	0.274781	0.552723	0.418640	0.316126	0.124994	0.301717	0.111570	0.132522	0.434375	0.787868	0.466787	0.367601	0.259785	0.397085	0.203795	0.304338	0.411300	0.349770	0.237688	0.370898	0.256158	0.228708	0.162161	0.117265	0.503032	0.785349	0.195743	0.147402	0.107613	0.133551	0.064400	0.058433	0.681654	1.192755	0.190215	0.143463	0.190539	0.228113	0.088626	0.115985
28	0.470760	0.724047	0.486527	0.337262	0.132892	0.090130	0.145697	0.118766	0.294243	0.458851	0.214464	0.161938	0.215205	0.412108	0.199302	0.094397	0.219292	0.160017	0.328480	0.285034	0.247868	0.490608	0.159789	0.104231	0.409463	0.597764	0.434245	0.420762	0.260840	0.333758	0.236053	0.205734	0.240750	0.491411	0.409918	0.292245	0.110125	0.279605	0.111175	0.132418	0.440458	0.727767	0.467994	0.366503	0.261712	0.401503	0.200374	0.300796	0.430810	0.443066	0.230597	0.329050	0.257907	0.233984	0.145308	0.117057	0.494313	0.751671	0.205996	0.148255	0.105479	0.133155	0.069824	0.058632	0.681661	1.179939	0.198755	0.149099	0.194941	0.221127	0.098806	0.106312
29	0.500097	0.739863	0.480863	0.323706	0.132339	0.088280	0.142542	0.114130	0.307476	0.458194	0.202715	0.150243	0.314647	0.426150	0.234381	0.132712	0.221436	0.163127	0.331120	0.272128	0.243710	0.499292	0.150390	0.087518	0.334302	0.429166	0.457327	0.422659	0.265731	0.404412	0.244280	0.213825	0.246953	0.445623	0.405332	0.280974	0.106073	0.273106	0.110941	0.132623	0.507931	0.769394	0.482989	0.376672	0.260689	0.441587	0.194934	0.282799	0.437291	0.485852	0.201898	0.267557	0.253114	0.231990	0.133401	0.114624	0.492594	0.726214	0.227670	0.178335	0.101397	0.131382	0.071441	0.062896	0.672012	1.114021	0.206214	0.150999	0.184139	0.201718	0.096265	0.108870
30	0.570154	0.799510	0.486638	0.310233	0.139568	0.101147	0.144603	0.112294	0.353965	0.468450	0.197532	0.145502	0.392037	0.460608	0.260776	0.163938	0.239587	0.177128	0.321562	0.245676	0.221780	0.479887	0.139694	0.072271	0.280662	0.264185	0.486077	0.442875	0.268786	0.420907	0.256408	0.220700	0.266884	0.437501	0.411100	0.296412	0.108782	0.280837	0.109136	0.135398	0.556624	0.824336	0.502491	0.400799	0.272633	0.444583	0.193757	0.267638	0.502525	0.499332	0.167175	0.215429	0.243736	0.231951	0.126202	0.109081	0.501990	0.721469	0.255248	0.220958	0.087562	0.117719	0.078126	0.064159	0.670296	1.054585	0.179243	0.145106	0.163068	0.196196	0.085786	0.106258
31	0.666654	0.864603	0.487844	0.310080	0.164775	0.100124	0.144294	0.109616	0.423524	0.492760	0.199774	0.155989	0.393599	0.458712	0.264491	0.186852	0.295209	0.181541	0.319003	0.203725	0.190252	0.442484	0.126667	0.062352	0.263115	0.179014	0.506439	0.479806	0.270559	0.451049	0.262205	0.225902	0.270861	0.477136	0.419752	0.335288	0.116650	0.307702	0.107170	0.133173	0.568743	0.851542	0.507829	0.427102	0.270039	0.435061	0.193257	0.265518	0.539133	0.543694	0.156935	0.211475	0.215040	0.220460	0.117672	0.102535	0.481316	0.696277	0.286198	0.260277	0.088546	0.116449	0.114083	0.089298	0.658402	1.040728	0.135914	0.120564	0.167244	0.204955	0.092285	0.103702
32	0.743497	0.893899	0.480076	0.303870	0.194627	0.103736	0.142623	0.107313	0.475935	0.510094	0.198475	0.162541	0.395741	0.492797	0.260190	0.190293	0.379735	0.221803	0.332963	0.205624	0.194879	0.438007	0.116664	0.058531	0.261835	0.167697	0.542904	0.524740	0.271188	0.467224	0.266419	0.231175	0.272763	0.492093	0.391523	0.331581	0.113473	0.315666	0.104797	0.129631	0.567828	0.855630	0.499268	0.442556	0.257053	0.428479	0.179669	0.271141	0.555241	0.592870	0.155058	0.218259	0.191269	0.207624	0.114041	0.096406	0.431976	0.632298	0.297293	0.273445	0.094643	0.117384	0.140237	0.134514	0.602690	1.027622	0.131228	0.105926	0.175118	0.238894	0.093891	0.099156
33	0.747357	0.891930	0.521935	0.308736	0.215691	0.113706	0.139923	0.105311	0.482502	0.513722	0.174700	0.163453	0.395811	0.511717	0.256438	0.191172	0.433474	0.263622	0.334492	0.240784	0.195663	0.437423	0.104752	0.064444	0.263065	0.171235	0.567569	0.555332	0.278472	0.467010	0.267272	0.234390	0.283945	0.491993	0.338011	0.297183	0.104416	0.308008	0.117393	0.127763	0.562191	0.854065	0.485419	0.440563	0.261487	0.426739	0.166001	0.284175	0.553092	0.612009	0.161963	0.217507	0.190483	0.215532	0.116989	0.089840	0.369590	0.540552	0.290219	0.274348	0.103196	0.116541	0.160197	0.166159	0.513869	0.915066	0.143400	0.100661	0.179712	0.255018	0.096396	0.092143
34	0.747533	0.867199	0.600372	0.357765	0.224313	0.122277	0.137523	0.104963	0.485711	0.513124	0.151695	0.160873	0.399090	0.513058	0.256135	0.191126	0.451291	0.279592	0.328873	0.261033	0.194857	0.438856	0.110514	0.067376	0.256741	0.180030	0.570600	0.557245	0.282079	0.466935	0.261168	0.233767	0.286440	0.490705	0.286883	0.268743	0.101788	0.264544	0.123765	0.127160	0.573087	0.848110	0.484631	0.438833	0.292720	0.427370	0.186449	0.298256	0.550832	0.603689	0.165591	0.211538	0.201060	0.231434	0.125815	0.086926	0.322270	0.404719	0.284452	0.276806	0.100914	0.103165	0.179904	0.184914	0.450045	0.686560	0.143045	0.094196	0.175879	0.258088	0.097081	0.080780
35	0.771199	0.838215	0.640702	0.406667	0.231264	0.132387	0.136596	0.105288	0.512941	0.511474	0.138123	0.153156	0.404217	0.512780	0.255720	0.190848	0.452582	0.278939	0.351531	0.260109	0.186894	0.427107	0.113772	0.067826	0.222371	0.193497	0.576835	0.555682	0.279313	0.467754	0.241097	0.227559	0.285753	0.493170	0.287770	0.269550	0.108198	0.232382	0.126892	0.135203	0.613604	0.838564	0.476690	0.439565	0.301601	0.424323	0.196913	0.298020	0.574533	0.592618	0.152962	0.194972	0.200863	0.231518	0.131392	0.091657	0.326918	0.320138	0.283567	0.288704	0.104639	0.087170	0.186662	0.195034	0.427888	0.482844	0.166424	0.108553	0.169711	0.256192	0.102911	0.070297
36	0.792122	0.810088	0.637846	0.420656	0.263423	0.161596	0.147245	0.109783	0.564024	0.518465	0.142594	0.149424	0.407370	0.512828	0.250820	0.189767	0.455401	0.279282	0.394895	0.283149	0.185704	0.416112	0.114286	0.067846	0.184604	0.198171	0.588490	0.569392	0.299103	0.462532	0.217317	0.218991	0.291303	0.504339	0.297382	0.301789	0.111267	0.231193	0.126671	0.138909	0.673452	0.824066	0.440499	0.427712	0.301946	0.425069	0.194013	0.295627	0.600108	0.601853	0.153838	0.175284	0.194068	0.228998	0.137140	0.098095	0.356030	0.317568	0.279659	0.296738	0.128972	0.078631	0.186776	0.196306	0.452187	0.395498	0.211516	0.147188	0.166382	0.253004	0.104833	0.065072
37	0.791710	0.805365	0.610822	0.392654	0.308144	0.206253	0.163231	0.122655	0.624977	0.503233	0.168746	0.153868	0.414813	0.511456	0.240009	0.190473	0.478131	0.281510	0.440815	0.362429	0.174305	0.400863	0.113407	0.067770	0.170233	0.198674	0.599604	0.575063	0.307638	0.459984	0.207690	0.213632	0.315171	0.515770	0.306759	0.337013	0.111915	0.220111	0.120020	0.136646	0.718548	0.803818	0.397116	0.401218	0.305238	0.426629	0.188075	0.294695	0.619647	0.626619	0.151574	0.153184	0.173095	0.213499	0.138413	0.097152	0.371401	0.318553	0.273129	0.292665	0.143667	0.072783	0.187045	0.196151	0.474835	0.385161	0.275055	0.229319	0.168999	0.238028	0.106989	0.068239
38	0.783881	0.798864	0.578085	0.358353	0.343076	0.226539	0.181114	0.136190	0.645600	0.444436	0.171713	0.161562	0.418838	0.512004	0.231024	0.199939	0.534024	0.283775	0.500304	0.472271	0.151562	0.301524	0.114904	0.066794	0.225119	0.196166	0.617405	0.570347	0.299047	0.455426	0.206973	0.227839	0.333850	0.526901	0.330149	0.360262	0.111830	0.212986	0.110356	0.127638	0.729249	0.795588	0.398053	0.385976	0.308843	0.426781	0.177527	0.294390	0.623278	0.641795	0.155727	0.152823	0.142156	0.199343	0.131216	0.086055	0.361942	0.293633	0.266728	0.282150	0.142516	0.054146	0.189334	0.196943	0.465792	0.398552	0.380171	0.340923	0.172507	0.197150	0.114351	0.086660
39	0.794525	0.787026	0.577205	0.351479	0.358348	0.229548	0.192565	0.159214	0.637137	0.387984	0.197245	0.173312	0.418208	0.511481	0.220974	0.211925	0.584386	0.284332	0.535891	0.564373	0.148603	0.243083	0.124361	0.065694	0.292480	0.192133	0.618318	0.553953	0.300841	0.452816	0.205713	0.236346	0.324402	0.511297	0.340744	0.371235	0.111803	0.196926	0.111669	0.123930	0.730395	0.817548	0.464998	0.406468	0.311371	0.424116	0.172092	0.293932	0.602896	0.642573	0.156513	0.148333	0.123087	0.217079	0.121267	0.076361	0.344661	0.265263	0.257887	0.280185	0.142913	0.056263	0.192642	0.197877	0.443537	0.389289	0.433374	0.404391	0.168212	0.190194	0.121721	0.101716
40	0.805651	0.775487	0.587710	0.362335	0.361797	0.229368	0.199565	0.166991	0.636064	0.357020	0.249312	0.214241	0.406544	0.467741	0.218139	0.219289	0.595075	0.284394	0.539347	0.604901	0.113173	0.230620	0.121221	0.062685	0.296021	0.183442	0.618500	0.535808	0.289151	0.451869	0.208309	0.238276	0.299250	0.455396	0.331928	0.375226	0.112285	0.190522	0.114713	0.125827	0.728410	0.826062	0.545074	0.458911	0.313701	0.381098	0.167046	0.290468	0.599597	0.637191	0.158241	0.147373	0.121193	0.234159	0.115511	0.074656	0.337717	0.254428	0.253991	0.279474	0.147481	0.072420	0.195071	0.197421	0.423482	0.362477	0.445977	0.419984	0.165160	0.188866	0.128674	0.105243
41	0.805589	0.771171	0.587959	0.365680	0.359041	0.228442	0.198694	0.167681	0.647614	0.345634	0.265131	0.229466	0.385044	0.364312	0.217997	0.226140	0.592512	0.288326	0.541449	0.615175	0.098809	0.200176	0.123510	0.074814	0.330013	0.188678	0.643916	0.544387	0.283803	0.435015	0.217047	0.237862	0.322600	0.421635	0.312379	0.379700	0.103882	0.184725	0.121112	0.130572	0.722201	0.803651	0.588411	0.504069	0.305620	0.308621	0.161505	0.269371	0.608564	0.612687	0.165451	0.147225	0.123174	0.238725	0.114430	0.074678	0.355026	0.255180	0.284360	0.279212	0.166889	0.099499	0.193466	0.194444	0.403762	0.327892	0.449311	0.421889	0.163038	0.198348	0.143761	0.112074
42	0.778122	0.691625	0.583678	0.365308	0.356785	0.226825	0.191722	0.165593	0.666176	0.355867	0.263659	0.239133	0.378898	0.345348	0.208721	0.224699	0.601406	0.301783	0.536385	0.613535	0.094272	0.198644	0.147558	0.099428	0.465264	0.255306	0.666492	0.565026	0.283737	0.410592	0.215864	0.236688	0.384359	0.418213	0.307301	0.379891	0.103937	0.178742	0.123556	0.134828	0.722776	0.779427	0.594907	0.522030	0.301226	0.278664	0.160604	0.244222	0.618011	0.560320	0.192474	0.151662	0.123805	0.243253	0.114291	0.074920	0.376781	0.264994	0.298937	0.281514	0.180786	0.123784	0.190135	0.193597	0.386710	0.307935	0.473899	0.450808	0.158996	0.213531	0.155877	0.116144
43	0.719049	0.520471	0.594977	0.365640	0.354495	0.229841	0.180825	0.163566	0.675266	0.366636	0.268027	0.263833	0.316500	0.333847	0.171317	0.205087	0.654031	0.309128	0.532128	0.621968	0.093312	0.160785	0.176765	0.118556	0.558993	0.307755	0.650324	0.563903	0.288405	0.408545	0.200902	0.235014	0.411687	0.432699	0.301731	0.376216	0.105485	0.176375	0.129325	0.136202	0.719044	0.779765	0.596042	0.523618	0.299191	0.272163	0.169212	0.228333	0.586150	0.559152	0.259468	0.219567	0.123638	0.238265	0.113849	0.076087	0.410340	0.307633	0.285293	0.273137	0.183058	0.130588	0.189311	0.193970	0.374802	0.308313	0.517797	0.509374	0.161865	0.218507	0.159198	0.114198
44	0.658630	0.363703	0.611582	0.376357	0.354554	0.228750	0.175699	0.163183	0.658882	0.360561	0.275152	0.277512	0.191511	0.273691	0.119499	0.180456	0.690977	0.308458	0.542091	0.637011	0.098267	0.137730	0.184502	0.133614	0.588051	0.351852	0.628643	0.539153	0.286645	0.359028	0.191695	0.234386	0.412077	0.438673	0.293096	0.358171	0.104369	0.147144	0.131915	0.139637	0.690463	0.771291	0.621330	0.528918	0.299715	0.192123	0.170254	0.226138	0.552634	0.533820	0.307383	0.301555	0.123848	0.239146	0.113886	0.077173	0.431385	0.384199	0.265056	0.249134	0.184011	0.131099	0.190354	0.196720	0.370854	0.312094	0.554300	0.568632	0.163550	0.223046	0.159458	0.113060
45	0.702175	0.370291	0.629403	0.399162	0.354567	0.227448	0.175429	0.163050	0.618166	0.329274	0.281688	0.277132	0.190591	0.274138	0.103953	0.154302	0.671765	0.294431	0.539165	0.638886	0.110199	0.133163	0.180085	0.137282	0.591537	0.365871	0.599691	0.493942	0.284382	0.308020	0.175455	0.230349	0.409597	0.395391	0.278000	0.323439	0.099777	0.085406	0.134077	0.145456	0.635959	0.693566	0.696279	0.587953	0.291115	0.154126	0.180106	0.226063	0.561016	0.485295	0.330288	0.335253	0.118511	0.240238	0.114082	0.077846	0.432675	0.434816	0.234991	0.210340	0.186962	0.132289	0.183076	0.195969	0.372202	0.315079	0.572238	0.598546	0.158002	0.220945	0.175511	0.117992
46	0.768661	0.473126	0.582754	0.394472	0.356612	0.233907	0.173599	0.161860	0.577242	0.306418	0.281840	0.276269	0.198633	0.201306	0.107544	0.149235	0.631179	0.276286	0.537064	0.629021	0.120042	0.121194	0.186259	0.137218	0.605531	0.373888	0.568369	0.438207	0.286952	0.277170	0.167468	0.227432	0.408848	0.371802	0.266721	0.310389	0.101345	0.054841	0.133484	0.155346	0.593148	0.604055	0.792661	0.692015	0.291939	0.137673	0.192414	0.221913	0.563467	0.448763	0.331684	0.339550	0.113541	0.236271	0.112581	0.077145	0.434586	0.448261	0.249539	0.189992	0.189310	0.142505	0.160123	0.174533	0.370880	0.314008	0.600245	0.611611	0.191009	0.187763	0.192418	0.125430
47	0.761395	0.555121	0.490804	0.326908	0.360079	0.293542	0.174447	0.162376	0.571197	0.312981	0.283383	0.275499	0.214237	0.113309	0.106767	0.147163	0.620848	0.284535	0.540573	0.619797	0.131411	0.119991	0.201711	0.140366	0.637297	0.380167	0.563777	0.408868	0.286408	0.229050	0.158214	0.225045	0.410360	0.371970	0.267845	0.326323	0.100009	0.052176	0.126783	0.178130	0.583553	0.551859	0.876309	0.776943	0.299054	0.120556	0.194054	0.214069	0.565535	0.440891	0.326240	0.340672	0.105177	0.224295	0.109257	0.075949	0.455758	0.448039	0.292448	0.205700	0.184712	0.169949	0.143052	0.141247	0.368515	0.300371	0.617704	0.614593	0.327504	0.171070	0.195032	0.124502
48	0.730050	0.568363	0.480358	0.279028	0.369825	0.439396	0.174926	0.163730	0.574286	0.318604	0.356078	0.279181	0.232832	0.094449	0.104223	0.147088	0.643764	0.318046	0.532704	0.619467	0.134064	0.121474	0.240955	0.161454	0.662290	0.372444	0.560981	0.410352	0.276939	0.228385	0.161325	0.228612	0.452273	0.372947	0.266014	0.334627	0.086476	0.038952	0.125149	0.197977	0.587213	0.542334	0.928764	0.824226	0.294349	0.100670	0.189751	0.196052	0.551429	0.453105	0.337729	0.360037	0.107565	0.211498	0.107868	0.073473	0.526293	0.502436	0.307225	0.234308	0.183299	0.197308	0.118903	0.108209	0.367868	0.272382	0.617755	0.614245	0.468607	0.275012	0.195043	0.130440
49	0.790411	0.586879	0.662640	0.363394	0.377892	0.627465	0.176525	0.167163	0.562863	0.302947	0.457981	0.308635	0.261990	0.094401	0.109876	0.150343	0.665660	0.355443	0.503290	0.615563	0.136301	0.127988	0.277640	0.210491	0.664411	0.362760	0.559814	0.420294	0.275839	0.234377	0.190705	0.245976	0.520936	0.374715	0.273271	0.328291	0.081660	0.045863	0.127978	0.195734	0.586935	0.541974	0.950192	0.851052	0.250814	0.091021	0.160408	0.151064	0.522603	0.477937	0.346568	0.389152	0.110965	0.208903	0.111310	0.071198	0.637034	0.581119	0.307934	0.240323	0.183701	0.199536	0.095635	0.083294	0.352683	0.240099	0.618043	0.623463	0.532957	0.451544	0.191795	0.148975
50	0.909044	0.644352	0.782777	0.496075	0.367668	0.660998	0.178695	0.169846	0.535607	0.280670	0.510786	0.356971	0.267238	0.092650	0.121769	0.157563	0.653953	0.365364	0.477685	0.596729	0.135874	0.127472	0.298710	0.269660	0.673141	0.362222	0.582297	0.422160	0.285954	0.242865	0.215624	0.266610	0.552627	0.367406	0.255286	0.302646	0.098135	0.064058	0.136047	0.193165	0.598180	0.545068	0.949236	0.855313	0.210627	0.118771	0.168632	0.133861	0.492016	0.488105	0.360546	0.412214	0.100074	0.192617	0.118742	0.074616	0.692691	0.643228	0.347478	0.228731	0.170099	0.199861	0.097738	0.080734	0.326594	0.234134	0.628516	0.638995	0.547852	0.574437	0.194162	0.173952
51	0.927011	0.671631	0.804932	0.573605	0.400393	0.673831	0.179741	0.170235	0.447243	0.276632	0.531687	0.396922	0.255681	0.084342	0.118832	0.154822	0.620560	0.362832	0.502471	0.562615	0.136943	0.117525	0.307628	0.302941	0.672921	0.374830	0.576790	0.409535	0.268959	0.238704	0.220060	0.276833	0.557750	0.351697	0.236152	0.262319	0.119141	0.071327	0.150306	0.194214	0.614679	0.567598	0.949998	0.854270	0.213808	0.122918	0.211703	0.171941	0.479752	0.482230	0.388817	0.436854	0.085704	0.180346	0.140416	0.077475	0.700661	0.682097	0.409154	0.233301	0.155833	0.201420	0.104842	0.098861	0.294335	0.230332	0.629825	0.647373	0.566587	0.593587	0.193452	0.182046
52	0.926070	0.675681	0.792561	0.609866	0.415576	0.716187	0.183354	0.172062	0.398498	0.276820	0.548661	0.434347	0.246834	0.091937	0.120105	0.150105	0.559350	0.364562	0.507056	0.512238	0.140611	0.120522	0.308344	0.319078	0.645828	0.384245	0.570709	0.389005	0.226656	0.209693	0.224980	0.277429	0.551104	0.314426	0.249906	0.228898	0.159356	0.086243	0.164045	0.194901	0.619986	0.616598	0.953598	0.857854	0.232195	0.131568	0.239625	0.227062	0.509946	0.477297	0.416336	0.459663	0.084637	0.180322	0.168531	0.084572	0.701065	0.694603	0.459127	0.270731	0.152274	0.219701	0.110393	0.115124	0.250302	0.208274	0.618635	0.639561	0.622675	0.600101	0.191949	0.175400
53	0.952176	0.688903	0.781368	0.628121	0.415976	0.736502	0.183765	0.171685	0.432244	0.265761	0.546584	0.450729	0.242150	0.099508	0.120117	0.147587	0.526517	0.379840	0.487496	0.453485	0.151328	0.127217	0.307915	0.322859	0.648750	0.386525	0.584030	0.387006	0.205154	0.155936	0.224679	0.268337	0.545885	0.284544	0.319116	0.232701	0.204539	0.095621	0.165465	0.195118	0.601430	0.651414	0.957060	0.867131	0.250303	0.134081	0.254092	0.261587	0.509521	0.521674	0.438486	0.479515	0.083077	0.179981	0.188958	0.100824	0.702025	0.695007	0.517014	0.340250	0.148988	0.218870	0.114780	0.123081	0.236810	0.193745	0.588410	0.607936	0.658987	0.638554	0.188000	0.165107
54	0.956306	0.705508	0.781474	0.638311	0.402438	0.744752	0.181551	0.171750	0.441656	0.253875	0.525669	0.434551	0.236807	0.101190	0.115245	0.146393	0.519531	0.397042	0.463406	0.416258	0.163443	0.131754	0.302544	0.325292	0.723982	0.423515	0.572778	0.385906	0.199255	0.139605	0.224573	0.256295	0.571812	0.280709	0.366785	0.253381	0.247993	0.102001	0.163392	0.193621	0.601878	0.662759	0.947693	0.875162	0.253796	0.133860	0.258232	0.276757	0.465376	0.552951	0.445573	0.485364	0.082199	0.178846	0.196424	0.120332	0.713261	0.697687	0.567002	0.433636	0.148147	0.237192	0.107824	0.127043	0.237007	0.198504	0.525856	0.550697	0.673664	0.642057	0.183485	0.162166
55	0.940186	0.707045	0.784639	0.639912	0.372962	0.739972	0.163332	0.161724	0.431033	0.253634	0.515439	0.424086	0.235726	0.097080	0.116933	0.136471	0.517112	0.395662	0.451545	0.406305	0.189371	0.133399	0.301733	0.324990	0.761821	0.454609	0.585610	0.395113	0.197914	0.136232	0.224228	0.252503	0.596850	0.289493	0.368530	0.249316	0.285095	0.167141	0.159683	0.190747	0.600655	0.640882	0.905596	0.864482	0.248112	0.139413	0.258474	0.281544	0.444642	0.582967	0.437221	0.489251	0.079963	0.167763	0.201756	0.139146	0.732254	0.706878	0.596102	0.523326	0.132600	0.263656	0.107054	0.127491	0.240492	0.209551	0.499375	0.518940	0.692898	0.640769	0.173363	0.157833
56	0.938029	0.724892	0.777246	0.638716	0.336255	0.732811	0.142206	0.147436	0.412444	0.238166	0.514901	0.419929	0.235202	0.094220	0.149909	0.144339	0.474360	0.379011	0.450483	0.399795	0.217781	0.145480	0.300435	0.321250	0.714017	0.469967	0.653484	0.492398	0.196663	0.136755	0.215573	0.252491	0.598539	0.291373	0.391138	0.273163	0.301893	0.296723	0.156725	0.187936	0.601501	0.605558	0.853415	0.834839	0.250968	0.153308	0.263141	0.281791	0.448390	0.611650	0.414053	0.476184	0.083372	0.133738	0.202904	0.148143	0.739928	0.706213	0.609302	0.568485	0.109950	0.258295	0.106989	0.127416	0.310456	0.242279	0.506673	0.516320	0.709502	0.650073	0.159692	0.161202
57	0.897600	0.721445	0.766631	0.631077	0.310997	0.731514	0.121934	0.118932	0.392421	0.219315	0.510009	0.409483	0.235369	0.093958	0.189661	0.172137	0.388005	0.394628	0.433583	0.376511	0.246537	0.163942	0.294262	0.316415	0.679200	0.473180	0.704794	0.613324	0.195022	0.137483	0.206069	0.249822	0.589458	0.309301	0.429821	0.313057	0.302606	0.348105	0.153306	0.186168	0.599571	0.571328	0.822394	0.801834	0.287121	0.178252	0.270967	0.284429	0.449820	0.624296	0.380477	0.429984	0.090765	0.103931	0.210005	0.148512	0.720654	0.677331	0.610966	0.571468	0.094412	0.253792	0.107160	0.126493	0.445540	0.387744	0.505249	0.512657	0.715226	0.660605	0.153770	0.181675
58	0.808867	0.682193	0.747760	0.620122	0.302953	0.731463	0.108191	0.092648	0.383504	0.208753	0.503425	0.399481	0.235673	0.097041	0.233323	0.205271	0.330710	0.441897	0.410331	0.358348	0.273023	0.172947	0.286675	0.313044	0.670653	0.464245	0.709806	0.669116	0.202299	0.137524	0.197111	0.244876	0.578575	0.313867	0.488490	0.373546	0.310001	0.353950	0.153888	0.180648	0.598576	0.552020	0.819182	0.784642	0.314163	0.188973	0.267493	0.286045	0.409997	0.618978	0.350642	0.384606	0.088319	0.095726	0.218850	0.152018	0.703330	0.629298	0.624698	0.572653	0.094554	0.254466	0.104082	0.125029	0.550170	0.561428	0.479688	0.475891	0.719278	0.660662	0.151561	0.209070
59	0.756108	0.611492	0.747701	0.628689	0.300882	0.731553	0.107703	0.086526	0.386487	0.207332	0.499839	0.394431	0.234590	0.099252	0.243981	0.224956	0.321685	0.479781	0.402848	0.353616	0.276036	0.174089	0.294737	0.314257	0.672718	0.462010	0.704605	0.681775	0.214900	0.137544	0.196045	0.238519	0.599802	0.311997	0.578427	0.449027	0.326408	0.382365	0.155453	0.172309	0.603828	0.542875	0.818519	0.782712	0.336578	0.195101	0.267296	0.285518	0.396842	0.609478	0.343467	0.372495	0.087692	0.093281	0.253453	0.170384	0.713993	0.597323	0.667915	0.603144	0.090524	0.256005	0.102761	0.120301	0.566852	0.626571	0.428541	0.401447	0.723865	0.671303	0.128539	0.229886
60	0.752763	0.550129	0.753861	0.649364	0.302553	0.731949	0.115879	0.089676	0.404040	0.207237	0.498418	0.391531	0.230828	0.103411	0.242513	0.226282	0.314307	0.475660	0.401146	0.349541	0.272158	0.174839	0.311593	0.325326	0.663644	0.454519	0.699562	0.684045	0.218043	0.137669	0.195834	0.236203	0.620075	0.311803	0.626784	0.504216	0.345724	0.389647	0.149087	0.157763	0.613045	0.540173	0.804938	0.780501	0.345292	0.196787	0.284555	0.287628	0.449359	0.611131	0.345200	0.376245	0.092535	0.103296	0.289865	0.197102	0.731348	0.594574	0.707775	0.660191	0.081580	0.253664	0.105113	0.118997	0.577422	0.629969	0.379221	0.321565	0.716098	0.687240	0.097219	0.239552
61	0.725374	0.547217	0.721393	0.663397	0.310540	0.731619	0.122325	0.098842	0.434923	0.220031	0.506173	0.397688	0.227870	0.106583	0.242123	0.226580	0.284345	0.452625	0.398475	0.343547	0.287617	0.180377	0.331142	0.347978	0.656403	0.457755	0.698863	0.699667	0.212879	0.138392	0.195487	0.237588	0.617661	0.311003	0.639451	0.520536	0.371966	0.402737	0.139813	0.122898	0.601424	0.540033	0.751909	0.741717	0.341703	0.196708	0.304652	0.297424	0.515380	0.634968	0.355148	0.374306	0.099980	0.088178	0.316473	0.227454	0.720530	0.600098	0.732898	0.715535	0.080249	0.246273	0.113862	0.120508	0.603571	0.643350	0.346753	0.280949	0.666783	0.690115	0.085425	0.245028
62	0.611873	0.524284	0.530858	0.638178	0.328194	0.731977	0.125301	0.110378	0.447277	0.234315	0.474898	0.404164	0.217989	0.106506	0.242826	0.227078	0.222357	0.423940	0.402348	0.348599	0.311308	0.187334	0.329446	0.370247	0.692094	0.467076	0.700771	0.725066	0.211256	0.138747	0.200949	0.248590	0.588770	0.325993	0.641478	0.523953	0.419392	0.441124	0.136727	0.093599	0.587900	0.539780	0.663033	0.639388	0.336330	0.197417	0.339895	0.312907	0.546168	0.663569	0.369174	0.374419	0.110129	0.075524	0.320482	0.243813	0.675649	0.561167	0.764281	0.743929	0.102397	0.271043	0.109685	0.124106	0.646495	0.701413	0.293159	0.272823	0.575204	0.660891	0.085463	0.244624
63	0.462478	0.471566	0.345534	0.582314	0.350893	0.732601	0.128809	0.118760	0.440638	0.233252	0.380568	0.388991	0.178109	0.108297	0.241464	0.225902	0.211384	0.405599	0.405202	0.373952	0.334100	0.186303	0.304776	0.372543	0.739825	0.481252	0.672403	0.735345	0.211161	0.136430	0.204881	0.259782	0.528324	0.354673	0.633190	0.523076	0.424612	0.459035	0.130307	0.097427	0.576670	0.540893	0.555477	0.508720	0.334760	0.199161	0.350872	0.321789	0.560296	0.675543	0.396104	0.377804	0.110166	0.077403	0.320273	0.249963	0.572799	0.490382	0.780715	0.756830	0.142127	0.376666	0.115298	0.127493	0.740242	0.786483	0.276573	0.292244	0.510208	0.562200	0.085477	0.235098
64	0.459749	0.448524	0.265341	0.524211	0.367589	0.734045	0.131350	0.122489	0.416875	0.239593	0.313536	0.350496	0.156651	0.133357	0.235004	0.220524	0.223791	0.409078	0.355156	0.382524	0.359000	0.296445	0.270626	0.352362	0.757491	0.486416	0.623573	0.730954	0.204761	0.126668	0.185014	0.252040	0.490946	0.357126	0.629560	0.520195	0.420535	0.500980	0.119340	0.096865	0.571774	0.549188	0.459143	0.398864	0.334635	0.196336	0.351925	0.321323	0.575919	0.673175	0.398200	0.388600	0.106693	0.077989	0.319712	0.251102	0.491620	0.425641	0.771312	0.761126	0.157908	0.414004	0.114646	0.125437	0.813560	0.838311	0.293251	0.314029	0.488967	0.425734	0.077375	0.217642
65	0.422472	0.444312	0.255474	0.482022	0.379491	0.725725	0.132913	0.123667	0.420512	0.252591	0.290578	0.308780	0.159212	0.156736	0.234352	0.219914	0.231883	0.411010	0.227772	0.347914	0.382384	0.370364	0.248570	0.316866	0.762414	0.478231	0.585940	0.720766	0.189729	0.108406	0.147562	0.231294	0.470968	0.348215	0.628191	0.520957	0.430349	0.515757	0.099580	0.092700	0.569662	0.562813	0.399721	0.326779	0.336974	0.181752	0.344555	0.319282	0.562658	0.666924	0.366381	0.379380	0.101314	0.078752	0.320513	0.251421	0.471206	0.382357	0.743439	0.760503	0.159073	0.420979	0.123583	0.121279	0.850717	0.853087	0.287501	0.303776	0.472810	0.388240	0.075187	0.208987
66	0.348149	0.418089	0.255077	0.452987	0.382674	0.674273	0.127792	0.120514	0.417122	0.284521	0.299321	0.279743	0.172743	0.198566	0.230143	0.214641	0.243222	0.401537	0.189442	0.327398	0.383223	0.375875	0.238743	0.291248	0.755103	0.476922	0.560367	0.717892	0.170167	0.082020	0.132797	0.210444	0.461333	0.346459	0.613983	0.522866	0.441489	0.571288	0.081953	0.092101	0.542453	0.552309	0.400029	0.335458	0.337742	0.175785	0.339890	0.313890	0.527434	0.648356	0.338990	0.364829	0.095062	0.086572	0.319381	0.250865	0.466677	0.357936	0.714400	0.749400	0.169893	0.441746	0.148656	0.133815	0.863674	0.859975	0.262096	0.270917	0.395167	0.382207	0.068686	0.208186
67	0.355703	0.436231	0.271769	0.444419	0.367761	0.523538	0.122152	0.114503	0.383595	0.310792	0.334989	0.278054	0.170905	0.199967	0.224866	0.203332	0.244156	0.384723	0.244032	0.363739	0.381585	0.376482	0.240564	0.275992	0.721418	0.471081	0.586325	0.740375	0.148406	0.054791	0.110944	0.191256	0.458613	0.349065	0.578011	0.516199	0.423943	0.587070	0.075781	0.095915	0.475845	0.518463	0.406650	0.382496	0.327986	0.169111	0.355199	0.320355	0.525533	0.619803	0.317783	0.346880	0.098861	0.093738	0.315871	0.250949	0.472965	0.371349	0.675876	0.722546	0.194871	0.444795	0.170816	0.154472	0.865102	0.862706	0.255977	0.248074	0.323855	0.310500	0.065793	0.208772
68	0.389039	0.471073	0.310972	0.444936	0.365055	0.406105	0.116541	0.109431	0.386485	0.330094	0.353864	0.309938	0.169165	0.200426	0.224216	0.193636	0.267078	0.365927	0.293570	0.411647	0.378406	0.379855	0.247494	0.274681	0.643617	0.423473	0.594854	0.761447	0.140668	0.052218	0.111666	0.175740	0.427572	0.351801	0.544711	0.502634	0.401897	0.589743	0.079919	0.101988	0.390219	0.439219	0.404843	0.423998	0.310909	0.161501	0.378173	0.334329	0.582399	0.608660	0.318737	0.339328	0.108138	0.102574	0.303326	0.249814	0.470807	0.401326	0.633681	0.674449	0.227108	0.456904	0.183453	0.173368	0.860766	0.862104	0.261479	0.243255	0.288752	0.299996	0.078435	0.209905
69	0.408610	0.463057	0.400409	0.458846	0.340672	0.413422	0.120457	0.114426	0.403041	0.336658	0.359239	0.340760	0.171281	0.201299	0.223060	0.192076	0.317811	0.366385	0.327235	0.453605	0.372059	0.375893	0.256465	0.276981	0.581862	0.392068	0.521286	0.734714	0.139362	0.050857	0.153361	0.175841	0.379182	0.340814	0.541050	0.500659	0.378415	0.570188	0.084082	0.103927	0.348633	0.344069	0.391508	0.427816	0.301967	0.161758	0.408893	0.357874	0.643890	0.606643	0.360267	0.335728	0.108709	0.111227	0.287339	0.246030	0.434321	0.393772	0.595341	0.612331	0.262479	0.456496	0.193395	0.189163	0.859425	0.856985	0.275680	0.245618	0.240624	0.297627	0.130426	0.212259
70	0.415515	0.451451	0.582229	0.539411	0.307598	0.395685	0.119110	0.120677	0.410148	0.341794	0.361309	0.368048	0.179567	0.204071	0.205782	0.184956	0.377896	0.351003	0.336500	0.469640	0.360804	0.373328	0.259881	0.280217	0.580067	0.460167	0.426131	0.636710	0.139295	0.044140	0.179701	0.185014	0.317640	0.310522	0.525886	0.489424	0.370175	0.517315	0.084828	0.104071	0.391568	0.305539	0.391827	0.411429	0.301943	0.157371	0.425120	0.374728	0.662012	0.602021	0.501368	0.343910	0.123603	0.134522	0.276504	0.237964	0.397268	0.376378	0.568281	0.571375	0.275748	0.461393	0.194938	0.197025	0.862315	0.851191	0.288781	0.259019	0.185738	0.271508	0.169303	0.210592
71	0.418010	0.435454	0.728254	0.713226	0.308997	0.371472	0.124815	0.131592	0.407115	0.350554	0.358374	0.369586	0.184786	0.205497	0.172884	0.160209	0.401655	0.305508	0.336211	0.471177	0.358044	0.369148	0.261646	0.280048	0.595018	0.509312	0.385397	0.553328	0.136127	0.041919	0.198419	0.192235	0.281492	0.264940	0.497572	0.465581	0.367764	0.502531	0.086655	0.104389	0.453441	0.363707	0.469146	0.473345	0.295147	0.147512	0.433667	0.386050	0.667612	0.601024	0.573473	0.362731	0.169514	0.140981	0.271226	0.229825	0.383279	0.369910	0.564446	0.565674	0.281155	0.466572	0.195923	0.201111	0.858552	0.851006	0.292561	0.285845	0.151202	0.233223	0.192574	0.198519
72	0.445421	0.425789	0.772712	0.832788	0.323669	0.362415	0.129160	0.138960	0.409409	0.354938	0.358281	0.364573	0.184883	0.204535	0.132547	0.116247	0.401572	0.241087	0.337728	0.489176	0.358306	0.373124	0.256651	0.277330	0.592591	0.514305	0.385823	0.517312	0.132055	0.039267	0.205913	0.196217	0.305333	0.237015	0.450159	0.425062	0.360282	0.494196	0.077462	0.104420	0.488248	0.422508	0.593924	0.630212	0.258017	0.117323	0.431442	0.389890	0.658555	0.600397	0.577424	0.372821	0.182190	0.145603	0.268286	0.222298	0.382694	0.374670	0.551723	0.562671	0.282717	0.468027	0.195654	0.201878	0.838040	0.832409	0.283611	0.323300	0.144554	0.328988	0.202356	0.176205
73	0.467540	0.425298	0.773930	0.874048	0.343423	0.358153	0.138541	0.151970	0.415390	0.357434	0.356951	0.361275	0.181817	0.202782	0.136406	0.082891	0.403185	0.208518	0.350814	0.520412	0.343352	0.379214	0.245967	0.274276	0.582839	0.515890	0.392734	0.521597	0.121714	0.075112	0.207268	0.194315	0.332450	0.233670	0.339214	0.356630	0.342350	0.474682	0.068088	0.099947	0.492623	0.450490	0.758496	0.834443	0.215986	0.092420	0.430485	0.389392	0.638367	0.601557	0.578819	0.388324	0.179608	0.145792	0.267913	0.219348	0.419712	0.407044	0.504778	0.538933	0.282534	0.466719	0.195798	0.200676	0.811661	0.754602	0.288673	0.359644	0.128134	0.459302	0.201113	0.155340
74	0.467357	0.419553	0.790191	0.862701	0.349974	0.356672	0.141428	0.159349	0.415376	0.351089	0.361865	0.364258	0.170710	0.217901	0.169170	0.106285	0.400944	0.214246	0.364152	0.550481	0.342579	0.379684	0.229318	0.266577	0.579706	0.528351	0.399554	0.518173	0.114214	0.120049	0.207571	0.191188	0.318287	0.252219	0.241744	0.290516	0.323967	0.471124	0.066494	0.092496	0.492371	0.452530	0.891924	1.010583	0.170337	0.077926	0.430116	0.389003	0.605577	0.587327	0.593231	0.389969	0.177485	0.146448	0.261960	0.219654	0.514434	0.504011	0.435140	0.496631	0.284276	0.467120	0.195943	0.200736	0.792295	0.640131	0.287605	0.379947	0.142470	0.453468	0.201059	0.138407
75	0.439437	0.433974	0.886533	0.921465	0.350375	0.355452	0.141551	0.160963	0.423311	0.335664	0.358869	0.371193	0.154633	0.241893	0.203501	0.139324	0.394159	0.218439	0.366645	0.572313	0.351517	0.385905	0.203469	0.250404	0.576984	0.559922	0.390950	0.492377	0.125511	0.137849	0.211362	0.189943	0.322952	0.297638	0.212590	0.281181	0.283555	0.445081	0.065344	0.084115	0.499050	0.447408	0.944422	1.092592	0.140821	0.070960	0.419134	0.388045	0.593527	0.546214	0.654572	0.392665	0.180346	0.170676	0.248952	0.214046	0.592326	0.611812	0.362940	0.433917	0.287104	0.468252	0.192509	0.202249	0.800151	0.604044	0.290310	0.382383	0.156874	0.501042	0.214861	0.129825
76	0.398169	0.471272	1.049307	1.091242	0.348639	0.354955	0.142024	0.160877	0.438273	0.331862	0.387083	0.404189	0.139359	0.247254	0.227567	0.171512	0.391417	0.226350	0.371655	0.576881	0.332235	0.384215	0.162553	0.216334	0.549255	0.594136	0.381741	0.458984	0.135333	0.140496	0.211803	0.187541	0.322236	0.287837	0.207367	0.305621	0.226720	0.423515	0.061625	0.069644	0.496865	0.445613	0.947170	1.101458	0.135713	0.071402	0.400792	0.382792	0.580477	0.485290	0.715789	0.430054	0.187461	0.230824	0.209198	0.196972	0.593607	0.639961	0.270025	0.384946	0.288120	0.463914	0.190135	0.201670	0.787740	0.604103	0.308628	0.384893	0.242260	0.512077	0.236195	0.125509
77	0.411887	0.493968	1.185384	1.259154	0.351344	0.355209	0.140546	0.161108	0.438971	0.359049	0.466611	0.454693	0.129085	0.254123	0.233533	0.183511	0.383802	0.223499	0.384786	0.555058	0.302537	0.385684	0.145599	0.171989	0.505999	0.604667	0.425218	0.463029	0.141071	0.139504	0.207577	0.173161	0.324813	0.249062	0.205529	0.330927	0.221419	0.388925	0.060434	0.059989	0.504441	0.445992	0.965981	1.118703	0.134215	0.071486	0.370019	0.372710	0.591886	0.445418	0.744440	0.474317	0.189854	0.243484	0.150710	0.164195	0.589527	0.635863	0.223798	0.351761	0.282199	0.402812	0.189536	0.202919	0.773939	0.577871	0.357941	0.410465	0.291739	0.511884	0.270497	0.124042
78	0.438402	0.497220	1.280784	1.375160	0.352767	0.354709	0.133169	0.159393	0.439396	0.386836	0.489959	0.474391	0.136977	0.246470	0.233842	0.187529	0.370070	0.233004	0.382831	0.526995	0.276198	0.387824	0.135615	0.143377	0.491913	0.603781	0.509176	0.511229	0.142876	0.140461	0.201971	0.146193	0.330818	0.290992	0.209868	0.357884	0.237613	0.341388	0.062056	0.061646	0.506642	0.448527	1.055330	1.203385	0.126322	0.067429	0.360135	0.368018	0.625806	0.449457	0.760650	0.512023	0.186851	0.250856	0.111664	0.125228	0.609701	0.669599	0.227858	0.340563	0.272689	0.331137	0.185512	0.204511	0.780037	0.484512	0.412463	0.462395	0.295888	0.511926	0.289318	0.124388
79	0.430276	0.492172	1.313660	1.410718	0.350081	0.354383	0.124251	0.154966	0.427091	0.388214	0.473420	0.469443	0.144256	0.233811	0.233906	0.189652	0.358666	0.250956	0.383173	0.510975	0.240035	0.288735	0.135039	0.124436	0.506829	0.603581	0.570056	0.563546	0.143038	0.142935	0.202635	0.131187	0.333855	0.370338	0.231327	0.377088	0.219766	0.297840	0.064474	0.067339	0.506088	0.449239	1.181007	1.331906	0.110747	0.062082	0.366087	0.374612	0.640709	0.456338	0.764145	0.539987	0.185689	0.251277	0.111487	0.099504	0.680907	0.756725	0.215893	0.337149	0.277890	0.316553	0.181931	0.205770	0.725810	0.336985	0.409106	0.476018	0.303236	0.514702	0.297926	0.126432
80	0.407845	0.453724	1.322270	1.420663	0.337814	0.352851	0.123150	0.147787	0.415925	0.368324	0.452350	0.464732	0.127549	0.195747	0.233860	0.191072	0.358709	0.252010	0.371381	0.495278	0.206201	0.209326	0.133247	0.105405	0.506429	0.600612	0.575477	0.575853	0.146939	0.144397	0.202568	0.127447	0.345188	0.411529	0.256772	0.390489	0.208122	0.225002	0.072488	0.077448	0.506359	0.449246	1.288162	1.451024	0.102192	0.055917	0.380348	0.384785	0.631370	0.449312	0.765275	0.560638	0.185969	0.251065	0.132565	0.089802	0.723483	0.827827	0.209739	0.336648	0.277390	0.284913	0.163789	0.197017	0.660019	0.224742	0.420924	0.461709	0.359301	0.523318	0.305163	0.130625
81	0.380804	0.424437	1.309477	1.420465	0.315410	0.350143	0.135116	0.140708	0.408693	0.343808	0.461523	0.476943	0.125711	0.194703	0.238624	0.190307	0.351951	0.252755	0.334925	0.465627	0.205698	0.200147	0.132251	0.100296	0.473160	0.597890	0.539397	0.536931	0.152166	0.144943	0.202664	0.125910	0.409424	0.415671	0.315118	0.405213	0.251555	0.285229	0.080733	0.080955	0.506923	0.447463	1.346835	1.509176	0.089976	0.049963	0.391070	0.388585	0.604530	0.414747	0.765127	0.570850	0.188886	0.254558	0.164763	0.087116	0.723548	0.838008	0.221619	0.344243	0.263231	0.264306	0.130363	0.175786	0.628469	0.195020	0.498499	0.485508	0.463674	0.640928	0.315749	0.137531
82	0.398989	0.418596	1.278179	1.417831	0.293677	0.347407	0.146748	0.136774	0.415221	0.333917	0.518496	0.488039	0.125622	0.194177	0.250086	0.197103	0.320480	0.267749	0.302993	0.439173	0.206946	0.194856	0.127534	0.102818	0.460117	0.593275	0.528501	0.505743	0.170227	0.145018	0.202243	0.130402	0.462043	0.412823	0.366511	0.430719	0.342900	0.321079	0.078744	0.077427	0.506578	0.457606	1.372135	1.523828	0.085172	0.049827	0.383403	0.368852	0.578805	0.376347	0.757754	0.572567	0.192837	0.264441	0.179140	0.086821	0.720718	0.822633	0.265747	0.373262	0.238118	0.252644	0.101376	0.150764	0.627164	0.183532	0.596580	0.562853	0.550660	0.857844	0.316814	0.144371
83	0.409460	0.423406	1.208085	1.386471	0.273309	0.341894	0.157706	0.135002	0.470188	0.373921	0.556968	0.481498	0.125731	0.192633	0.258962	0.203429	0.260504	0.310353	0.281754	0.419317	0.208670	0.184863	0.111619	0.100489	0.464823	0.534727	0.572957	0.522546	0.172867	0.146753	0.203995	0.145212	0.478354	0.412713	0.395760	0.450793	0.379933	0.347208	0.075268	0.078827	0.505328	0.458285	1.378063	1.517188	0.078405	0.052211	0.363927	0.332384	0.608522	0.373812	0.702036	0.571247	0.202279	0.273232	0.190220	0.086837	0.724714	0.820246	0.305549	0.391106	0.198927	0.215314	0.071729	0.123985	0.633921	0.180999	0.683120	0.656109	0.570306	0.915158	0.300183	0.144374
84	0.415132	0.434444	1.145478	1.304381	0.255878	0.331215	0.162030	0.135027	0.544578	0.418160	0.559132	0.460110	0.117560	0.191115	0.269867	0.210123	0.184235	0.357559	0.280341	0.422515	0.213612	0.185673	0.089312	0.093689	0.455926	0.427995	0.640394	0.572251	0.174015	0.149048	0.187532	0.155848	0.483228	0.412708	0.397622	0.453701	0.386319	0.344919	0.080068	0.080166	0.493383	0.458188	1.376102	1.504659	0.072072	0.051694	0.331063	0.293134	0.658485	0.377619	0.605923	0.564546	0.197243	0.272835	0.187723	0.082353	0.724158	0.820375	0.355078	0.406076	0.171528	0.180131	0.058449	0.103563	0.633565	0.182868	0.729427	0.728757	0.757630	0.937791	0.278652	0.140657
85	0.428009	0.488173	1.122704	1.230972	0.250168	0.321835	0.162746	0.134768	0.562806	0.429974	0.559297	0.468015	0.111894	0.190090	0.279669	0.215869	0.196653	0.393155	0.280069	0.412970	0.217784	0.185600	0.083479	0.090332	0.452729	0.401702	0.666740	0.598512	0.176708	0.150976	0.168808	0.164011	0.482049	0.410592	0.410721	0.471694	0.407531	0.347723	0.079124	0.080939	0.476593	0.462854	1.381088	1.500648	0.068579	0.054829	0.304016	0.258353	0.693200	0.389242	0.591400	0.563055	0.218260	0.279703	0.186579	0.085559	0.727891	0.820741	0.383289	0.411886	0.161657	0.153661	0.053554	0.093358	0.632607	0.182149	0.751684	0.774019	0.809209	1.000903	0.266550	0.148986
86	0.545834	0.549576	1.122380	1.201593	0.247630	0.321317	0.164488	0.133475	0.563265	0.429814	0.568165	0.482669	0.111592	0.191271	0.277977	0.220199	0.226173	0.382259	0.272265	0.385325	0.199933	0.180921	0.078196	0.092412	0.454154	0.402753	0.667054	0.601114	0.177475	0.157394	0.148504	0.162713	0.469973	0.412276	0.438376	0.540077	0.473257	0.359675	0.079860	0.080885	0.447182	0.444477	1.388308	1.509438	0.063423	0.059194	0.289886	0.241622	0.693451	0.394858	0.592433	0.556727	0.334122	0.315330	0.194625	0.096776	0.736270	0.820541	0.386806	0.412394	0.156107	0.141114	0.053162	0.087176	0.634489	0.185840	0.750011	0.786889	0.832261	1.053585	0.269907	0.164316
87	0.588633	0.563368	1.101327	1.196651	0.235346	0.311249	0.166132	0.129602	0.577876	0.448119	0.593764	0.497314	0.116985	0.217847	0.264822	0.219251	0.242602	0.369233	0.254845	0.344769	0.167857	0.154498	0.074468	0.092676	0.448230	0.389675	0.661362	0.594360	0.194906	0.165503	0.136556	0.157765	0.427445	0.423177	0.500128	0.643850	0.537978	0.365472	0.080898	0.080794	0.425860	0.388092	1.377867	1.502374	0.060722	0.069032	0.279987	0.233860	0.683417	0.386391	0.585997	0.546429	0.481218	0.450113	0.209740	0.120370	0.719964	0.808402	0.380586	0.407355	0.155430	0.138454	0.054951	0.086556	0.632181	0.200998	0.747196	0.775276	0.873493	1.011180	0.273556	0.160700
88	0.591528	0.526627	1.006911	1.104799	0.217250	0.260590	0.172774	0.122084	0.635604	0.489387	0.619539	0.513146	0.122995	0.216030	0.246578	0.209681	0.259674	0.362284	0.239251	0.301185	0.164381	0.135981	0.066736	0.087692	0.429378	0.345371	0.659481	0.586780	0.229044	0.178474	0.137849	0.154858	0.408916	0.432100	0.531859	0.713328	0.554964	0.376168	0.081301	0.080421	0.433351	0.335532	1.340914	1.459480	0.056046	0.077847	0.278724	0.230730	0.687921	0.384056	0.530206	0.542716	0.660335	0.687435	0.231897	0.139034	0.650844	0.751889	0.377359	0.380336	0.153859	0.138289	0.051598	0.086467	0.600338	0.208337	0.765155	0.774126	0.878903	1.005946	0.276651	0.155491
89	0.592192	0.460089	0.835673	0.905272	0.202402	0.185217	0.187140	0.110246	0.696298	0.541194	0.643035	0.518911	0.121531	0.185400	0.222031	0.191354	0.260973	0.368178	0.232364	0.265342	0.159831	0.134630	0.067243	0.086242	0.423380	0.297362	0.657679	0.586541	0.236679	0.159901	0.152477	0.157487	0.420403	0.413992	0.530185	0.726444	0.559132	0.391193	0.081344	0.080703	0.448879	0.338932	1.258106	1.363970	0.054568	0.079962	0.284123	0.230550	0.716006	0.437793	0.406420	0.502761	0.805356	0.873899	0.244818	0.153637	0.585543	0.664354	0.377683	0.361285	0.151240	0.133827	0.047786	0.083492	0.539429	0.207805	0.796604	0.804844	0.887138	0.987379	0.268957	0.152589
90	0.579634	0.436076	0.643289	0.658970	0.182964	0.132532	0.200073	0.099070	0.740743	0.563275	0.641220	0.494904	0.139240	0.181062	0.199580	0.165029	0.319370	0.421384	0.199787	0.254302	0.142405	0.119102	0.074587	0.090904	0.461837	0.307416	0.642254	0.576890	0.226491	0.139647	0.195838	0.179774	0.437522	0.412309	0.531385	0.716560	0.560499	0.392829	0.081302	0.081955	0.453557	0.362044	1.162309	1.235004	0.066170	0.079947	0.290159	0.230575	0.733420	0.515473	0.271956	0.438117	0.836260	0.920407	0.253044	0.158897	0.579727	0.628521	0.381676	0.357451	0.144819	0.122798	0.043652	0.079401	0.505010	0.210369	0.824448	0.841654	0.871350	0.994489	0.253327	0.154565
91	0.578491	0.447867	0.475765	0.437526	0.138039	0.092393	0.203318	0.079308	0.762784	0.561327	0.591769	0.448619	0.143397	0.174843	0.191760	0.149050	0.415334	0.501912	0.196709	0.268571	0.142976	0.153592	0.076004	0.097154	0.492571	0.373005	0.603000	0.542389	0.216598	0.137990	0.278890	0.236808	0.440539	0.410754	0.545631	0.707742	0.559220	0.395100	0.080892	0.081148	0.495179	0.367116	1.116456	1.152258	0.082154	0.080145	0.303511	0.231065	0.700831	0.533153	0.151931	0.354232	0.837235	0.922392	0.258813	0.159072	0.570269	0.630344	0.374674	0.356765	0.139373	0.107659	0.043292	0.073606	0.533925	0.265443	0.856263	0.875376	0.853992	0.995650	0.216444	0.154809
92	0.588927	0.468504	0.394280	0.357594	0.106131	0.086249	0.205269	0.057293	0.763963	0.542219	0.563639	0.426397	0.136561	0.173371	0.191022	0.143173	0.513107	0.554697	0.219320	0.284469	0.138586	0.155261	0.075667	0.098964	0.479973	0.398714	0.569279	0.504483	0.213673	0.139761	0.373837	0.318463	0.435061	0.377086	0.560336	0.695571	0.551575	0.396169	0.078428	0.078374	0.550983	0.366998	1.124381	1.147082	0.089201	0.079775	0.321552	0.237250	0.680699	0.526737	0.115765	0.289261	0.839082	0.915428	0.262537	0.162581	0.548232	0.592365	0.359494	0.357382	0.144497	0.098050	0.041623	0.062196	0.600869	0.376511	0.897798	0.896363	0.853232	0.995653	0.188786	0.153885
93	0.590881	0.471142	0.363095	0.350250	0.100733	0.110775	0.207132	0.047376	0.784315	0.540986	0.579021	0.442882	0.125140	0.184173	0.193602	0.139985	0.575688	0.574905	0.203122	0.277849	0.146075	0.192190	0.082718	0.097418	0.479145	0.396767	0.582741	0.474866	0.212326	0.143751	0.449115	0.386709	0.433164	0.296885	0.561178	0.684973	0.539636	0.389725	0.075171	0.072100	0.598616	0.370079	1.119173	1.149889	0.092767	0.080043	0.333587	0.252494	0.679470	0.539443	0.118782	0.239997	0.837267	0.909907	0.263228	0.168466	0.485699	0.465049	0.359060	0.357910	0.150565	0.102316	0.046600	0.056723	0.634739	0.462452	0.908376	0.884981	0.851538	0.994614	0.173985	0.151814
94	0.578226	0.457741	0.377680	0.362389	0.101784	0.118950	0.209024	0.047482	0.852873	0.575753	0.601195	0.451931	0.122815	0.189239	0.195768	0.137534	0.580088	0.576487	0.308869	0.317517	0.162777	0.196128	0.103853	0.098063	0.502082	0.399121	0.592248	0.468150	0.212662	0.141352	0.489906	0.425603	0.423832	0.226167	0.550743	0.675173	0.529583	0.363184	0.068389	0.059652	0.618003	0.368774	1.036887	1.083843	0.126573	0.084274	0.336219	0.269997	0.676106	0.544182	0.131542	0.212881	0.843666	0.914191	0.273169	0.179341	0.479898	0.313621	0.358649	0.364931	0.152242	0.112047	0.048002	0.050508	0.609399	0.505116	0.905828	0.857299	0.834330	0.992374	0.161579	0.148612
95	0.555100	0.443513	0.364895	0.345822	0.100268	0.131596	0.208378	0.045966	0.894046	0.603252	0.576949	0.425104	0.127790	0.184463	0.192619	0.136958	0.595538	0.577287	0.557502	0.517504	0.169732	0.214197	0.131541	0.098687	0.543464	0.406126	0.592861	0.469341	0.213639	0.139825	0.495529	0.432492	0.366591	0.206993	0.517703	0.665152	0.494953	0.289314	0.055131	0.043082	0.618476	0.365913	0.881165	0.932318	0.196260	0.088924	0.340419	0.286504	0.645657	0.522581	0.183541	0.200832	0.932951	0.940365	0.286318	0.193446	0.548297	0.286342	0.351471	0.363030	0.152953	0.134260	0.053973	0.041722	0.581002	0.508775	0.911047	0.848267	0.782324	0.931175	0.138993	0.142669
96	0.548243	0.435489	0.322706	0.306977	0.095667	0.136867	0.210545	0.048531	0.895989	0.618858	0.517116	0.385891	0.163805	0.205971	0.185728	0.129728	0.617199	0.566756	0.765647	0.740900	0.172843	0.218898	0.151834	0.097854	0.553832	0.411643	0.560661	0.450064	0.217156	0.141277	0.503209	0.438987	0.294960	0.208239	0.480695	0.649196	0.446105	0.255429	0.055050	0.037188	0.628307	0.364112	0.711287	0.722213	0.222869	0.089277	0.320612	0.285277	0.577742	0.493729	0.236114	0.201576	1.043169	0.976786	0.294748	0.212115	0.611908	0.319402	0.332740	0.329907	0.153491	0.137731	0.065254	0.038128	0.584564	0.547846	0.897481	0.847306	0.721919	0.743674	0.130492	0.133906
97	0.536521	0.416819	0.293585	0.290238	0.086634	0.138497	0.211802	0.047986	0.864299	0.600292	0.476155	0.365394	0.239484	0.278667	0.187752	0.129676	0.636811	0.538186	0.894242	0.874970	0.177676	0.244410	0.153556	0.094438	0.551866	0.432718	0.507218	0.397795	0.208143	0.143117	0.551834	0.490855	0.264546	0.213425	0.453273	0.633788	0.419095	0.206780	0.051264	0.033822	0.647208	0.352769	0.602722	0.572676	0.225806	0.090088	0.292518	0.273345	0.496547	0.475658	0.262271	0.206175	1.077398	1.018197	0.286841	0.221908	0.613665	0.343252	0.354398	0.304141	0.161451	0.135999	0.068787	0.036412	0.598451	0.608640	0.848233	0.825231	0.706969	0.645204	0.129021	0.129185
98	0.474122	0.340305	0.338227	0.340672	0.080382	0.139125	0.210399	0.049191	0.808467	0.567173	0.495351	0.366525	0.288845	0.340681	0.178292	0.125833	0.650207	0.504872	0.918505	0.919864	0.175515	0.247341	0.153163	0.087824	0.543889	0.442599	0.462565	0.340762	0.204057	0.145283	0.607313	0.558157	0.261570	0.213864	0.451572	0.631165	0.417419	0.204227	0.042026	0.030213	0.676037	0.345851	0.556775	0.520104	0.225665	0.092847	0.273269	0.263281	0.425669	0.467136	0.283465	0.250804	1.096300	1.064180	0.272273	0.227501	0.614281	0.359779	0.390335	0.322310	0.169081	0.153506	0.069973	0.037207	0.641435	0.675404	0.778219	0.776299	0.519934	0.618290	0.127375	0.128446
99	0.303640	0.242553	0.426012	0.439076	0.080647	0.138408	0.200728	0.047439	0.798295	0.550661	0.525752	0.369126	0.315121	0.404512	0.162552	0.117258	0.642374	0.492005	0.933378	0.922268	0.178592	0.246777	0.158248	0.083175	0.543086	0.442662	0.464647	0.331069	0.205501	0.145731	0.667192	0.603013	0.268917	0.215143	0.444851	0.622435	0.376146	0.190837	0.039174	0.027592	0.694410	0.344567	0.540668	0.518965	0.238373	0.108236	0.271674	0.261571	0.408523	0.456226	0.320803	0.344818	1.138547	1.092072	0.263558	0.232047	0.622700	0.369024	0.424490	0.394143	0.173100	0.168925	0.074192	0.037262	0.747657	0.731290	0.710601	0.719489	0.405329	0.520568	0.116380	0.112348
100	0.236693	0.204951	0.515347	0.555841	0.078541	0.137494	0.191308	0.046255	0.817519	0.551718	0.539423	0.424395	0.320283	0.409752	0.147643	0.109002	0.635765	0.491998	0.983807	0.969966	0.172522	0.245924	0.169083	0.077136	0.536174	0.442662	0.488097	0.376621	0.203617	0.147071	0.709983	0.631966	0.274759	0.208400	0.417412	0.569828	0.292880	0.167066	0.040416	0.028079	0.697276	0.355516	0.541726	0.533824	0.272425	0.135451	0.276128	0.263485	0.418688	0.453302	0.377959	0.477517	1.154925	1.103722	0.255328	0.237410	0.636461	0.376757	0.435180	0.443884	0.180110	0.177710	0.082638	0.036972	0.810278	0.753612	0.667433	0.668582	0.359905	0.326041	0.085223	0.072754
101	0.229916	0.197432	0.543937	0.624198	0.080216	0.146964	0.178535	0.046044	0.830325	0.541228	0.525766	0.512791	0.377265	0.444421	0.140719	0.099990	0.640610	0.494107	1.037937	1.037713	0.197898	0.247897	0.182945	0.073258	0.518164	0.443005	0.530632	0.468351	0.203679	0.142723	0.740575	0.657298	0.285693	0.184418	0.340170	0.448375	0.143183	0.154828	0.043416	0.028841	0.692738	0.365360	0.530810	0.532193	0.310110	0.175817	0.279199	0.267032	0.412658	0.451220	0.424421	0.575723	1.164558	1.106614	0.254239	0.237586	0.640325	0.373356	0.436776	0.448217	0.182626	0.178836	0.091477	0.039299	0.819831	0.760314	0.648929	0.623761	0.229772	0.254310	0.069491	0.053783
