	122_F_P_sh_R_D_A_02.c3d	122_F_P_sh_R_D_A_02.c3d	122_F_P_sh_R_D_A_02.c3d	122_F_P_sh_R_D_A_02.c3d	122_F_P_sh_R_D_A_02.c3d	122_F_P_sh_R_D_A_02.c3d	122_F_P_sh_R_D_A_02.c3d	122_F_P_sh_R_D_A_02.c3d	122_F_P_sh_R_D_A_04.c3d	122_F_P_sh_R_D_A_04.c3d	122_F_P_sh_R_D_A_04.c3d	122_F_P_sh_R_D_A_04.c3d	122_F_P_sh_R_D_A_04.c3d	122_F_P_sh_R_D_A_04.c3d	122_F_P_sh_R_D_A_04.c3d	122_F_P_sh_R_D_A_04.c3d	122_F_P_sh_R_D_A_05.c3d	122_F_P_sh_R_D_A_05.c3d	122_F_P_sh_R_D_A_05.c3d	122_F_P_sh_R_D_A_05.c3d	122_F_P_sh_R_D_A_05.c3d	122_F_P_sh_R_D_A_05.c3d	122_F_P_sh_R_D_A_05.c3d	122_F_P_sh_R_D_A_05.c3d	122_F_P_sh_R_D_A_06.c3d	122_F_P_sh_R_D_A_06.c3d	122_F_P_sh_R_D_A_06.c3d	122_F_P_sh_R_D_A_06.c3d	122_F_P_sh_R_D_A_06.c3d	122_F_P_sh_R_D_A_06.c3d	122_F_P_sh_R_D_A_06.c3d	122_F_P_sh_R_D_A_06.c3d	122_F_P_sh_R_D_A_07.c3d	122_F_P_sh_R_D_A_07.c3d	122_F_P_sh_R_D_A_07.c3d	122_F_P_sh_R_D_A_07.c3d	122_F_P_sh_R_D_A_07.c3d	122_F_P_sh_R_D_A_07.c3d	122_F_P_sh_R_D_A_07.c3d	122_F_P_sh_R_D_A_07.c3d	122_F_P_sh_R_D_A_08.c3d	122_F_P_sh_R_D_A_08.c3d	122_F_P_sh_R_D_A_08.c3d	122_F_P_sh_R_D_A_08.c3d	122_F_P_sh_R_D_A_08.c3d	122_F_P_sh_R_D_A_08.c3d	122_F_P_sh_R_D_A_08.c3d	122_F_P_sh_R_D_A_08.c3d	122_F_P_sh_R_D_A_09.c3d	122_F_P_sh_R_D_A_09.c3d	122_F_P_sh_R_D_A_09.c3d	122_F_P_sh_R_D_A_09.c3d	122_F_P_sh_R_D_A_09.c3d	122_F_P_sh_R_D_A_09.c3d	122_F_P_sh_R_D_A_09.c3d	122_F_P_sh_R_D_A_09.c3d	122_F_P_sh_R_D_A_10.c3d	122_F_P_sh_R_D_A_10.c3d	122_F_P_sh_R_D_A_10.c3d	122_F_P_sh_R_D_A_10.c3d	122_F_P_sh_R_D_A_10.c3d	122_F_P_sh_R_D_A_10.c3d	122_F_P_sh_R_D_A_10.c3d	122_F_P_sh_R_D_A_10.c3d
	Biceps femoris_lat	Semitendinosus_lat	Vastus lateralis_lat	Vastus medialis_lat	Biceps femoris_med	Semitendinosus_med	Vastus lateralis_med	Vastus medialis_med	Biceps femoris_lat	Semitendinosus_lat	Vastus lateralis_lat	Vastus medialis_lat	Biceps femoris_med	Semitendinosus_med	Vastus lateralis_med	Vastus medialis_med	Biceps femoris_lat	Semitendinosus_lat	Vastus lateralis_lat	Vastus medialis_lat	Biceps femoris_med	Semitendinosus_med	Vastus lateralis_med	Vastus medialis_med	Biceps femoris_lat	Semitendinosus_lat	Vastus lateralis_lat	Vastus medialis_lat	Biceps femoris_med	Semitendinosus_med	Vastus lateralis_med	Vastus medialis_med	Biceps femoris_lat	Semitendinosus_lat	Vastus lateralis_lat	Vastus medialis_lat	Biceps femoris_med	Semitendinosus_med	Vastus lateralis_med	Vastus medialis_med	Biceps femoris_lat	Semitendinosus_lat	Vastus lateralis_lat	Vastus medialis_lat	Biceps femoris_med	Semitendinosus_med	Vastus lateralis_med	Vastus medialis_med	Biceps femoris_lat	Semitendinosus_lat	Vastus lateralis_lat	Vastus medialis_lat	Biceps femoris_med	Semitendinosus_med	Vastus lateralis_med	Vastus medialis_med	Biceps femoris_lat	Semitendinosus_lat	Vastus lateralis_lat	Vastus medialis_lat	Biceps femoris_med	Semitendinosus_med	Vastus lateralis_med	Vastus medialis_med
	P2D	P2D	P2D	P2D	P2D	P2D	P2D	P2D	P2D	P2D	P2D	P2D	P2D	P2D	P2D	P2D	P2D	P2D	P2D	P2D	P2D	P2D	P2D	P2D	P2D	P2D	P2D	P2D	P2D	P2D	P2D	P2D	P2D	P2D	P2D	P2D	P2D	P2D	P2D	P2D	P2D	P2D	P2D	P2D	P2D	P2D	P2D	P2D	P2D	P2D	P2D	P2D	P2D	P2D	P2D	P2D	P2D	P2D	P2D	P2D	P2D	P2D	P2D	P2D
	EMG_lat	EMG_lat	EMG_lat	EMG_lat	EMG_med	EMG_med	EMG_med	EMG_med	EMG_lat	EMG_lat	EMG_lat	EMG_lat	EMG_med	EMG_med	EMG_med	EMG_med	EMG_lat	EMG_lat	EMG_lat	EMG_lat	EMG_med	EMG_med	EMG_med	EMG_med	EMG_lat	EMG_lat	EMG_lat	EMG_lat	EMG_med	EMG_med	EMG_med	EMG_med	EMG_lat	EMG_lat	EMG_lat	EMG_lat	EMG_med	EMG_med	EMG_med	EMG_med	EMG_lat	EMG_lat	EMG_lat	EMG_lat	EMG_med	EMG_med	EMG_med	EMG_med	EMG_lat	EMG_lat	EMG_lat	EMG_lat	EMG_med	EMG_med	EMG_med	EMG_med	EMG_lat	EMG_lat	EMG_lat	EMG_lat	EMG_med	EMG_med	EMG_med	EMG_med
ITEM	Y	Y	Y	Y	Y	Y	Y	Y	Y	Y	Y	Y	Y	Y	Y	Y	Y	Y	Y	Y	Y	Y	Y	Y	Y	Y	Y	Y	Y	Y	Y	Y	Y	Y	Y	Y	Y	Y	Y	Y	Y	Y	Y	Y	Y	Y	Y	Y	Y	Y	Y	Y	Y	Y	Y	Y	Y	Y	Y	Y	Y	Y	Y	Y
1	0.148535	0.316864	0.494938	0.252096	0.111642	0.271458	0.241035	0.233049	0.178090	0.365924	0.274458	0.220221	0.150429	0.214633	0.135585	0.294063	0.141564	0.254172	0.317575	0.377739	0.132272	0.114021	0.582433	0.458374	0.183983	0.103652	0.270045	0.320254	0.128658	0.330142	0.231267	0.248455	0.113924	0.371593	0.412982	0.342022	0.128280	0.150252	0.271609	0.327244	0.149068	0.395755	0.271024	0.393165	0.135321	0.288535	0.369026	0.223966	0.175462	0.272298	0.634211	0.293767	0.200254	0.190345	0.303350	0.307437	0.395664	0.202345	0.272670	0.287054	0.183022	0.247586	0.208361	0.233486
2	0.163247	0.304591	0.500088	0.249873	0.121376	0.275774	0.260303	0.218346	0.196656	0.344765	0.281746	0.220003	0.154966	0.210067	0.136290	0.297327	0.133063	0.243773	0.318088	0.389817	0.102813	0.124092	0.573559	0.512404	0.178573	0.100584	0.198635	0.314932	0.106928	0.241352	0.222567	0.256033	0.136865	0.357586	0.443355	0.344061	0.133368	0.141667	0.268181	0.363541	0.148720	0.399132	0.307392	0.393303	0.138753	0.264535	0.372992	0.225565	0.199208	0.275343	0.633936	0.261194	0.201389	0.190592	0.333466	0.287892	0.403248	0.186122	0.275419	0.290212	0.185867	0.257444	0.204754	0.231916
3	0.164460	0.294248	0.497260	0.256313	0.122890	0.263794	0.235194	0.215590	0.235275	0.271610	0.288940	0.218532	0.150389	0.189445	0.144196	0.286202	0.122640	0.230271	0.317317	0.393212	0.090851	0.113639	0.541434	0.532540	0.177667	0.088202	0.193908	0.310239	0.103678	0.174873	0.220841	0.252840	0.157857	0.346424	0.475710	0.336737	0.153418	0.142422	0.259319	0.367768	0.151502	0.406594	0.327292	0.377893	0.143692	0.249281	0.379525	0.226980	0.229192	0.275262	0.634459	0.220741	0.201832	0.185222	0.328191	0.357398	0.420628	0.166687	0.292141	0.290303	0.184293	0.256024	0.261832	0.202588
4	0.159077	0.298075	0.487377	0.258428	0.125103	0.266703	0.198887	0.216713	0.241519	0.244057	0.287440	0.161132	0.136394	0.161840	0.178316	0.261955	0.123618	0.229200	0.312191	0.386312	0.089972	0.136327	0.521120	0.530193	0.175246	0.076375	0.173689	0.250192	0.103444	0.141195	0.217909	0.248493	0.156695	0.341262	0.484818	0.327343	0.267787	0.143802	0.230269	0.368233	0.137794	0.413472	0.349929	0.377995	0.144755	0.196601	0.433374	0.223946	0.270011	0.268792	0.627283	0.217667	0.202994	0.164263	0.340360	0.376375	0.429172	0.164854	0.281522	0.301702	0.183017	0.246603	0.268091	0.215820
5	0.186124	0.299069	0.474726	0.246261	0.125156	0.279305	0.198038	0.245800	0.251945	0.235259	0.303660	0.121862	0.127635	0.158564	0.219044	0.249720	0.134682	0.229563	0.313944	0.385510	0.094116	0.153536	0.539345	0.518671	0.174284	0.075956	0.171448	0.232552	0.105178	0.140383	0.201078	0.240706	0.159782	0.349509	0.487999	0.320871	0.351284	0.140397	0.211725	0.371335	0.138692	0.419928	0.364349	0.379983	0.146095	0.197707	0.478143	0.216943	0.307472	0.265183	0.604155	0.203421	0.203780	0.146290	0.342992	0.380472	0.394520	0.167076	0.275566	0.305017	0.181278	0.246490	0.284917	0.233842
6	0.208017	0.290087	0.478782	0.244095	0.128629	0.278143	0.199385	0.255463	0.269234	0.232090	0.330546	0.120313	0.125229	0.165586	0.243674	0.269310	0.150627	0.224213	0.313010	0.388173	0.112776	0.157454	0.540753	0.522218	0.171415	0.073091	0.173688	0.235246	0.109282	0.140283	0.216644	0.243060	0.159367	0.363801	0.487969	0.322793	0.358390	0.129429	0.205795	0.380377	0.145106	0.412702	0.366696	0.374101	0.138663	0.202672	0.501573	0.215936	0.321852	0.277468	0.600208	0.185455	0.204694	0.138051	0.338781	0.363642	0.395330	0.168850	0.277735	0.334361	0.180960	0.265432	0.308819	0.232912
7	0.208108	0.262485	0.452226	0.234209	0.127211	0.244252	0.182814	0.237901	0.293918	0.239069	0.359841	0.119576	0.125701	0.174785	0.237629	0.274472	0.151571	0.217338	0.324732	0.393464	0.134651	0.157582	0.503907	0.533829	0.163566	0.073593	0.201776	0.239925	0.105502	0.151787	0.201724	0.255698	0.159036	0.379759	0.488420	0.314836	0.359076	0.126106	0.201320	0.411637	0.147777	0.377337	0.362828	0.350810	0.130919	0.238315	0.493859	0.210037	0.322722	0.298947	0.538562	0.177362	0.204671	0.133822	0.329852	0.356513	0.496609	0.170115	0.277865	0.343753	0.178019	0.272335	0.306814	0.238524
8	0.217265	0.249722	0.405237	0.243026	0.120498	0.214176	0.174631	0.309484	0.306732	0.251366	0.369050	0.117581	0.121809	0.185884	0.254439	0.275646	0.151886	0.207564	0.359246	0.392425	0.164517	0.156423	0.425196	0.496608	0.159116	0.098397	0.223106	0.259895	0.098764	0.164881	0.207003	0.255545	0.160240	0.392568	0.489745	0.317266	0.371940	0.118724	0.217020	0.488572	0.169437	0.296460	0.354265	0.298039	0.135645	0.269576	0.505566	0.219096	0.323394	0.309195	0.462908	0.149670	0.204028	0.138208	0.328233	0.355973	0.584030	0.157918	0.254065	0.344813	0.183025	0.268109	0.299961	0.276822
9	0.233512	0.256144	0.376006	0.258789	0.117685	0.229301	0.183460	0.409356	0.308668	0.257410	0.346615	0.124409	0.149692	0.195437	0.286915	0.289363	0.153367	0.199946	0.362936	0.361915	0.180707	0.153679	0.428350	0.456636	0.158488	0.161678	0.224713	0.247370	0.100058	0.158239	0.200477	0.253052	0.168044	0.399314	0.469237	0.322176	0.392358	0.119024	0.248306	0.543637	0.180513	0.205139	0.343912	0.279770	0.136032	0.290031	0.530737	0.216956	0.331891	0.312676	0.419112	0.147674	0.200021	0.154906	0.325544	0.353247	0.597354	0.124698	0.236895	0.361571	0.191813	0.269374	0.300992	0.350934
10	0.242859	0.257545	0.364069	0.246587	0.117540	0.230992	0.233189	0.412728	0.305164	0.246071	0.335914	0.138959	0.173707	0.198138	0.292146	0.298003	0.148500	0.201021	0.364100	0.327675	0.182279	0.153071	0.453805	0.502881	0.153525	0.217515	0.226052	0.255311	0.099925	0.142830	0.177722	0.288528	0.170042	0.403603	0.449132	0.324284	0.402955	0.118306	0.281490	0.565628	0.173858	0.204991	0.313991	0.268851	0.123841	0.298534	0.572011	0.221814	0.343255	0.305674	0.390901	0.144880	0.193838	0.160673	0.313619	0.353055	0.595783	0.099029	0.230674	0.376175	0.188146	0.270666	0.301284	0.390029
11	0.243752	0.250953	0.355143	0.231834	0.112754	0.233793	0.239875	0.416604	0.304756	0.233396	0.337126	0.140621	0.175804	0.184966	0.296689	0.292239	0.144110	0.215482	0.372397	0.319047	0.235230	0.158078	0.466106	0.508168	0.140872	0.280455	0.223698	0.265939	0.101450	0.142177	0.172816	0.304434	0.178242	0.404597	0.437366	0.319887	0.407200	0.117685	0.334425	0.568220	0.173864	0.195601	0.308926	0.261673	0.120217	0.299038	0.579880	0.222102	0.338613	0.299643	0.391291	0.151045	0.184148	0.158154	0.308142	0.375432	0.606539	0.092477	0.221856	0.376763	0.185438	0.270603	0.303128	0.404509
12	0.250232	0.250043	0.323926	0.265515	0.104056	0.255769	0.235726	0.431614	0.305769	0.242302	0.336680	0.141994	0.172026	0.181626	0.299268	0.290658	0.140034	0.219865	0.364346	0.313378	0.337649	0.167336	0.388562	0.505407	0.121904	0.294903	0.221011	0.258734	0.106363	0.142835	0.182880	0.288842	0.233857	0.395327	0.459779	0.325576	0.408325	0.119615	0.351588	0.584618	0.180105	0.200662	0.307571	0.221435	0.121134	0.295653	0.577594	0.231162	0.328797	0.293656	0.371488	0.188732	0.178728	0.154569	0.308921	0.390629	0.608921	0.093796	0.219959	0.372142	0.185761	0.278862	0.300563	0.408346
13	0.252507	0.234678	0.297577	0.271388	0.102741	0.256234	0.209944	0.435215	0.312084	0.246253	0.332872	0.147031	0.175225	0.177830	0.300049	0.296802	0.128916	0.203366	0.348337	0.284180	0.360481	0.183371	0.358099	0.479008	0.117486	0.296432	0.217542	0.247649	0.105105	0.151897	0.189057	0.274530	0.279504	0.392167	0.461196	0.325057	0.406359	0.120079	0.354283	0.629584	0.179498	0.215647	0.306454	0.161205	0.124983	0.299686	0.573746	0.249790	0.319372	0.274038	0.364125	0.246624	0.177828	0.152822	0.311440	0.394633	0.619700	0.095831	0.245403	0.370023	0.176423	0.294621	0.307347	0.407121
14	0.247509	0.241533	0.258908	0.271442	0.105319	0.252951	0.209174	0.446876	0.304837	0.252039	0.328624	0.180763	0.219272	0.181158	0.295562	0.298448	0.124938	0.183470	0.348510	0.271487	0.358289	0.276356	0.396167	0.415154	0.140217	0.308198	0.222405	0.239785	0.089424	0.172720	0.185993	0.261909	0.337367	0.383615	0.457755	0.327536	0.400695	0.123289	0.344950	0.680662	0.179836	0.213758	0.304110	0.142394	0.134385	0.321332	0.576711	0.249138	0.321190	0.244066	0.366430	0.284201	0.177862	0.143847	0.318297	0.392672	0.636691	0.091384	0.249563	0.363303	0.164585	0.304635	0.309822	0.416730
15	0.236162	0.239116	0.241897	0.260274	0.104584	0.235090	0.211384	0.460257	0.295331	0.256130	0.324339	0.207289	0.264287	0.186037	0.294647	0.291382	0.124002	0.172170	0.345841	0.220655	0.363588	0.362469	0.424925	0.449757	0.178146	0.326220	0.238202	0.240997	0.104857	0.179344	0.183864	0.274907	0.357533	0.364686	0.449451	0.318984	0.400057	0.124502	0.415076	0.654983	0.180407	0.207924	0.280622	0.135406	0.147255	0.342357	0.589839	0.243776	0.322357	0.225603	0.367718	0.308778	0.170563	0.137899	0.319019	0.394032	0.659596	0.091878	0.243344	0.369746	0.148999	0.301884	0.318752	0.438031
16	0.233409	0.198746	0.245822	0.249027	0.152016	0.214713	0.226000	0.490145	0.287390	0.255753	0.322216	0.207866	0.272487	0.203777	0.296265	0.292457	0.118541	0.171474	0.346806	0.178786	0.370153	0.378966	0.428612	0.563744	0.200742	0.342645	0.225122	0.235643	0.110904	0.174663	0.189342	0.285089	0.362518	0.356632	0.408198	0.292364	0.401530	0.132676	0.497156	0.642655	0.184349	0.199490	0.253444	0.135469	0.155074	0.343907	0.590268	0.221123	0.330141	0.229816	0.403460	0.316960	0.144910	0.135742	0.320044	0.395442	0.672992	0.088860	0.234301	0.370507	0.149861	0.293631	0.350087	0.476940
17	0.231800	0.186837	0.263463	0.237826	0.181065	0.198615	0.232657	0.483685	0.257474	0.255727	0.314881	0.205115	0.272048	0.249399	0.295415	0.288521	0.152146	0.175905	0.339415	0.159310	0.371123	0.372699	0.409861	0.573218	0.201433	0.375786	0.244584	0.220292	0.118158	0.177543	0.194845	0.286227	0.419775	0.363109	0.372037	0.288242	0.400030	0.153779	0.500382	0.640528	0.235907	0.194348	0.230684	0.122962	0.153519	0.346901	0.586528	0.223884	0.348676	0.244821	0.441830	0.325525	0.114015	0.134203	0.309653	0.432181	0.667043	0.096148	0.219855	0.379897	0.146112	0.294696	0.339454	0.491313
18	0.232082	0.183286	0.261728	0.234266	0.183428	0.187708	0.262437	0.488154	0.252308	0.260233	0.316986	0.209028	0.286909	0.279891	0.301999	0.270123	0.217230	0.178024	0.339077	0.156722	0.369126	0.374327	0.401923	0.570827	0.201137	0.416263	0.254009	0.216367	0.136326	0.188186	0.197851	0.280252	0.502480	0.363335	0.310525	0.282376	0.316884	0.165311	0.498215	0.640691	0.246867	0.186558	0.193607	0.099967	0.148243	0.355362	0.576057	0.220692	0.395691	0.257723	0.504391	0.336043	0.116499	0.137685	0.236980	0.443740	0.665528	0.107189	0.223745	0.380879	0.139428	0.294283	0.295596	0.491265
19	0.216721	0.183988	0.253468	0.226344	0.184069	0.234166	0.284368	0.461157	0.245796	0.262246	0.308405	0.208605	0.340898	0.293345	0.311223	0.266839	0.224462	0.176012	0.339872	0.168998	0.363107	0.390835	0.395892	0.561213	0.200283	0.438982	0.253839	0.208918	0.140084	0.203275	0.171862	0.261485	0.553493	0.350409	0.270950	0.276565	0.252864	0.183943	0.498433	0.638323	0.254933	0.177444	0.182199	0.098324	0.145310	0.362705	0.554291	0.220187	0.429857	0.275839	0.556345	0.354090	0.152671	0.138891	0.221968	0.420226	0.722285	0.114568	0.252928	0.376397	0.135675	0.284989	0.296487	0.486813
20	0.214606	0.184209	0.202440	0.222302	0.203395	0.320499	0.282707	0.378942	0.233120	0.275017	0.262524	0.209251	0.359841	0.294901	0.306436	0.268088	0.214143	0.180677	0.326973	0.173232	0.351928	0.421494	0.391520	0.536986	0.201547	0.453931	0.247626	0.207362	0.151165	0.206136	0.166137	0.260770	0.564728	0.333822	0.257216	0.274654	0.250110	0.227110	0.495333	0.635733	0.368266	0.180498	0.184451	0.099855	0.146955	0.366220	0.503910	0.220340	0.419440	0.277913	0.568616	0.382543	0.174731	0.135379	0.211774	0.379911	0.764872	0.116729	0.265316	0.339340	0.136384	0.261528	0.276845	0.482789
21	0.218368	0.175006	0.196629	0.225113	0.204130	0.321848	0.233624	0.360354	0.195858	0.284006	0.210321	0.218158	0.375799	0.291121	0.283618	0.271041	0.209606	0.187728	0.292658	0.160655	0.341362	0.451087	0.380972	0.531007	0.212110	0.460680	0.212762	0.200950	0.220065	0.208808	0.157871	0.258836	0.563273	0.312508	0.250138	0.269077	0.247907	0.255560	0.499704	0.605721	0.428679	0.190264	0.182747	0.099976	0.167668	0.364661	0.472315	0.221540	0.430289	0.260409	0.566919	0.408055	0.185909	0.147698	0.234095	0.390548	0.711958	0.122551	0.266584	0.325774	0.142302	0.229395	0.261075	0.484626
22	0.207072	0.167911	0.193612	0.213722	0.203578	0.330566	0.216221	0.360162	0.231276	0.281248	0.196337	0.232951	0.377581	0.288161	0.253286	0.261509	0.211395	0.188803	0.237278	0.151691	0.339573	0.477959	0.342592	0.477684	0.215606	0.453378	0.204103	0.202207	0.261419	0.208276	0.160296	0.225447	0.575172	0.290606	0.250730	0.265557	0.222911	0.259187	0.496297	0.556044	0.438789	0.190552	0.175088	0.099191	0.201566	0.349935	0.463590	0.220347	0.514846	0.240447	0.569751	0.416840	0.185607	0.175546	0.280044	0.407323	0.664422	0.123882	0.263416	0.279771	0.140759	0.213590	0.265323	0.481136
23	0.187256	0.169737	0.193455	0.202285	0.203490	0.327905	0.217134	0.346480	0.263811	0.289425	0.217355	0.232054	0.378660	0.285057	0.236041	0.245233	0.251338	0.186626	0.230806	0.145570	0.323026	0.492540	0.281832	0.466909	0.251547	0.435925	0.206664	0.233139	0.262438	0.208514	0.157971	0.197805	0.597693	0.267399	0.250541	0.248641	0.189281	0.253495	0.478922	0.520150	0.437644	0.205874	0.161491	0.101610	0.224034	0.318195	0.459159	0.185534	0.604922	0.241832	0.569398	0.409908	0.192677	0.187483	0.279129	0.424343	0.668900	0.126958	0.263429	0.243183	0.132187	0.213325	0.274361	0.455293
24	0.200354	0.185508	0.198590	0.224038	0.200565	0.340349	0.227171	0.345190	0.265750	0.292949	0.232775	0.222145	0.379169	0.279735	0.232650	0.239529	0.318658	0.177474	0.240947	0.134676	0.219740	0.493598	0.317809	0.467365	0.335950	0.413199	0.205222	0.226675	0.271410	0.221254	0.130775	0.179191	0.604152	0.251028	0.271990	0.214748	0.165497	0.254182	0.451269	0.498442	0.454929	0.231009	0.162621	0.129005	0.227707	0.292933	0.416957	0.177040	0.632327	0.245578	0.565645	0.409521	0.209800	0.188729	0.270573	0.435421	0.685477	0.144594	0.279165	0.242470	0.118302	0.212984	0.273221	0.398964
25	0.259257	0.209440	0.197536	0.185506	0.198088	0.346317	0.227420	0.338122	0.286220	0.293026	0.224926	0.224901	0.376991	0.276512	0.196557	0.238645	0.371630	0.150665	0.231036	0.135074	0.212507	0.489933	0.353921	0.465300	0.370083	0.387628	0.208672	0.224153	0.288285	0.227305	0.132077	0.176843	0.602283	0.240583	0.302159	0.200867	0.150885	0.263561	0.410879	0.494189	0.453070	0.232317	0.153568	0.127965	0.228503	0.276015	0.391482	0.161897	0.632590	0.250362	0.575094	0.410933	0.227861	0.179997	0.269951	0.443303	0.709524	0.169142	0.298989	0.249173	0.114668	0.216380	0.271851	0.366565
26	0.307756	0.206566	0.189695	0.165794	0.200196	0.349425	0.227132	0.349606	0.331741	0.284724	0.196685	0.231943	0.361687	0.275856	0.157463	0.206723	0.390172	0.119069	0.206746	0.138368	0.215701	0.459535	0.323433	0.470318	0.378985	0.396631	0.206176	0.251213	0.294033	0.214656	0.122943	0.189817	0.602141	0.235389	0.303070	0.230662	0.144222	0.269010	0.402028	0.464101	0.453306	0.219101	0.155840	0.129196	0.236803	0.268553	0.360754	0.182832	0.636929	0.266993	0.576330	0.406469	0.249313	0.167589	0.269780	0.441776	0.724645	0.196733	0.297742	0.259665	0.113906	0.219965	0.264832	0.350937
27	0.316634	0.196336	0.188157	0.158705	0.188003	0.358034	0.223943	0.303193	0.349759	0.279962	0.192891	0.234349	0.366148	0.287686	0.161154	0.173349	0.405113	0.122191	0.192527	0.140852	0.222711	0.390252	0.312765	0.428016	0.381888	0.414894	0.206097	0.329611	0.291065	0.209633	0.126759	0.233149	0.596200	0.233292	0.265960	0.239936	0.143544	0.270723	0.397563	0.374212	0.476714	0.214632	0.152270	0.129867	0.240280	0.268279	0.363366	0.222023	0.707197	0.282508	0.568088	0.387655	0.266352	0.175401	0.271385	0.429207	0.711000	0.256730	0.273094	0.274341	0.113539	0.207967	0.261262	0.340124
28	0.414990	0.203393	0.165421	0.163288	0.164837	0.367573	0.244764	0.273035	0.346608	0.278202	0.192439	0.224843	0.378994	0.305634	0.152440	0.175266	0.438087	0.140963	0.193874	0.151177	0.322787	0.355306	0.451511	0.206226	0.391148	0.422755	0.194572	0.382800	0.284183	0.209920	0.180526	0.248092	0.574170	0.239627	0.219811	0.241659	0.141268	0.278684	0.395033	0.278640	0.569945	0.232442	0.155900	0.139992	0.248193	0.275686	0.369320	0.218458	0.752726	0.288286	0.531195	0.355837	0.272882	0.193115	0.271677	0.412622	0.692903	0.339038	0.260496	0.283010	0.108701	0.183368	0.253165	0.320469
29	0.481603	0.204152	0.164744	0.172690	0.177249	0.373692	0.231126	0.259999	0.346530	0.284231	0.193006	0.209393	0.378521	0.324916	0.148525	0.158449	0.451773	0.185093	0.187772	0.194380	0.365093	0.358737	0.613493	0.188845	0.398979	0.413760	0.168104	0.394473	0.287264	0.207920	0.230330	0.257160	0.561762	0.237964	0.219319	0.250264	0.142536	0.279564	0.283993	0.272606	0.660329	0.245610	0.232133	0.141836	0.246429	0.277113	0.370383	0.211326	0.755075	0.288377	0.509308	0.326525	0.271954	0.215120	0.270036	0.405312	0.675396	0.376825	0.270130	0.290930	0.081691	0.161588	0.254824	0.295198
30	0.486879	0.203377	0.146754	0.172376	0.175709	0.371982	0.213946	0.255678	0.355576	0.294627	0.197418	0.220721	0.373412	0.338567	0.147130	0.135854	0.465107	0.227059	0.189171	0.200372	0.370011	0.383688	0.628284	0.204626	0.400486	0.397924	0.165367	0.396695	0.280643	0.200666	0.233162	0.257018	0.534478	0.234396	0.224956	0.250002	0.113973	0.284154	0.162211	0.310777	0.688392	0.237971	0.257307	0.157860	0.252968	0.246007	0.370458	0.226637	0.769299	0.287947	0.502500	0.316913	0.273271	0.225061	0.263673	0.404937	0.699392	0.376784	0.316809	0.287161	0.081841	0.169275	0.238637	0.265705
31	0.552368	0.215927	0.197590	0.184418	0.177102	0.327800	0.214694	0.235926	0.357127	0.314149	0.211397	0.219178	0.342384	0.341493	0.147601	0.129292	0.481548	0.251572	0.194727	0.203960	0.370930	0.370144	0.659136	0.199217	0.419076	0.360568	0.140780	0.394833	0.273863	0.186389	0.252004	0.262063	0.527217	0.226702	0.224238	0.227848	0.080919	0.280171	0.174038	0.395881	0.679259	0.232958	0.297025	0.153494	0.278654	0.227495	0.344498	0.229378	0.772994	0.279243	0.475106	0.350593	0.281946	0.230935	0.254547	0.407519	0.730199	0.379055	0.369065	0.278044	0.085918	0.172681	0.181929	0.185223
32	0.719540	0.233235	0.201908	0.269763	0.303172	0.333825	0.221588	0.210149	0.357680	0.319432	0.221046	0.213872	0.331806	0.336574	0.146931	0.129380	0.467127	0.280868	0.211551	0.273573	0.381893	0.339095	0.666503	0.196430	0.440881	0.315933	0.134197	0.395022	0.273588	0.164581	0.406067	0.265556	0.516279	0.214837	0.225839	0.213140	0.078532	0.271205	0.173802	0.402028	0.680543	0.233675	0.333955	0.158851	0.294595	0.231933	0.342143	0.231428	0.756805	0.264150	0.475505	0.361936	0.299622	0.229851	0.258143	0.405885	0.734335	0.383340	0.381850	0.291022	0.090004	0.158279	0.175402	0.181016
33	0.778756	0.231826	0.203367	0.368181	0.353173	0.349416	0.239615	0.199704	0.360405	0.307005	0.214457	0.209687	0.329298	0.316560	0.149324	0.115149	0.452590	0.292347	0.218373	0.283021	0.396732	0.297677	0.718414	0.195036	0.442500	0.290880	0.139150	0.396270	0.246814	0.156320	0.506507	0.269720	0.468450	0.206500	0.233692	0.215720	0.094128	0.267890	0.179603	0.402614	0.661690	0.250675	0.336843	0.189433	0.296507	0.235548	0.346639	0.233492	0.728020	0.253980	0.434763	0.371885	0.321519	0.229416	0.261811	0.375487	0.667286	0.417459	0.376934	0.295794	0.090800	0.142476	0.180461	0.187219
34	0.780632	0.236197	0.216555	0.382385	0.356048	0.348182	0.285573	0.188491	0.382188	0.298795	0.214800	0.209803	0.351897	0.283167	0.177414	0.150698	0.461255	0.293996	0.235234	0.279491	0.407078	0.267467	0.739214	0.197270	0.445563	0.272392	0.158565	0.397775	0.175887	0.194052	0.522636	0.271922	0.389156	0.211278	0.242485	0.221682	0.093899	0.234850	0.179792	0.425613	0.635570	0.250214	0.337063	0.206272	0.325240	0.222328	0.350445	0.244039	0.709239	0.240662	0.363086	0.355637	0.328133	0.229665	0.265864	0.323940	0.586609	0.434513	0.369827	0.301672	0.090685	0.141208	0.175570	0.169450
35	0.790692	0.263412	0.254627	0.385308	0.359390	0.338394	0.323151	0.211180	0.406926	0.295934	0.217881	0.216452	0.347913	0.267359	0.156806	0.202330	0.502688	0.290306	0.256681	0.297755	0.406964	0.244801	0.741935	0.196599	0.462092	0.274973	0.171673	0.400243	0.159826	0.242507	0.537332	0.276587	0.327687	0.222991	0.245278	0.252025	0.096176	0.220902	0.180622	0.452984	0.645377	0.248076	0.346172	0.208545	0.364409	0.207350	0.340825	0.245454	0.723466	0.237470	0.348299	0.343844	0.321712	0.228663	0.267335	0.326166	0.562382	0.439690	0.448223	0.300650	0.091837	0.142073	0.180740	0.165485
36	0.812251	0.264453	0.270167	0.427449	0.368743	0.319809	0.325769	0.205443	0.382913	0.292905	0.219002	0.203693	0.345172	0.265669	0.159664	0.224260	0.527507	0.290306	0.256347	0.313526	0.404948	0.247304	0.732626	0.196953	0.483735	0.289630	0.165925	0.385188	0.153293	0.275589	0.591962	0.274071	0.344577	0.245464	0.261092	0.271623	0.145418	0.260269	0.251215	0.495080	0.675697	0.244144	0.388300	0.210042	0.380254	0.191059	0.330770	0.244980	0.749714	0.245198	0.350336	0.319298	0.306733	0.261762	0.265863	0.323879	0.563815	0.450761	0.506671	0.302932	0.109578	0.142518	0.177850	0.161116
37	0.829101	0.254059	0.278333	0.439002	0.390376	0.318008	0.334454	0.182220	0.358705	0.283131	0.204395	0.199442	0.346724	0.270465	0.206901	0.232139	0.525347	0.295851	0.239109	0.317163	0.377642	0.254710	0.707301	0.197429	0.458875	0.290660	0.178105	0.373522	0.128540	0.269051	0.656259	0.274073	0.453410	0.257896	0.278171	0.271086	0.176203	0.331702	0.267927	0.509022	0.685753	0.221024	0.392593	0.200199	0.372127	0.172783	0.317911	0.242573	0.710911	0.272284	0.345597	0.310834	0.294663	0.346690	0.300433	0.299519	0.552640	0.456362	0.511596	0.309343	0.118818	0.141954	0.200458	0.230900
38	0.825695	0.236603	0.292807	0.437642	0.400953	0.350567	0.336289	0.146821	0.379940	0.275109	0.185278	0.200472	0.340550	0.275285	0.244772	0.231189	0.490955	0.308999	0.234098	0.316806	0.372889	0.252897	0.705533	0.188766	0.419228	0.282521	0.177486	0.371016	0.086626	0.274812	0.665732	0.285471	0.510239	0.278978	0.289721	0.269568	0.178245	0.366673	0.328082	0.507625	0.689694	0.209261	0.404013	0.186032	0.351638	0.164226	0.305330	0.241880	0.647142	0.290295	0.410963	0.329490	0.293027	0.356982	0.309867	0.265058	0.522795	0.458778	0.501704	0.305402	0.121049	0.150445	0.215109	0.318434
39	0.810335	0.226710	0.291461	0.437768	0.396949	0.365166	0.330190	0.152744	0.373382	0.272020	0.181556	0.195667	0.370071	0.287450	0.257721	0.229020	0.482916	0.326505	0.257560	0.314755	0.373666	0.243185	0.695175	0.203072	0.394128	0.267847	0.173266	0.362542	0.093573	0.291611	0.665204	0.272852	0.490728	0.307470	0.287150	0.268625	0.181964	0.369717	0.365089	0.506629	0.689116	0.207756	0.404078	0.200320	0.341784	0.164734	0.298909	0.240133	0.620270	0.289510	0.497894	0.332621	0.295235	0.349915	0.354097	0.234562	0.463809	0.450903	0.491339	0.299752	0.121549	0.151821	0.280060	0.340860
40	0.805907	0.227082	0.291604	0.438573	0.401600	0.378869	0.339939	0.209394	0.336872	0.273933	0.182822	0.196476	0.442793	0.303472	0.260688	0.229496	0.471689	0.334884	0.272620	0.311333	0.313205	0.251472	0.641592	0.218129	0.388009	0.251017	0.172544	0.347398	0.105160	0.295504	0.665254	0.229257	0.521457	0.323212	0.262042	0.274714	0.186942	0.368760	0.376285	0.507365	0.687016	0.205329	0.405081	0.235115	0.355476	0.169042	0.294287	0.237882	0.641831	0.278264	0.526192	0.339860	0.290575	0.350505	0.407814	0.204387	0.431384	0.439401	0.490758	0.291262	0.122860	0.145055	0.306699	0.346804
41	0.792474	0.219972	0.296914	0.439267	0.408142	0.379536	0.348989	0.289582	0.309324	0.272146	0.189654	0.195024	0.467882	0.310766	0.275060	0.231033	0.467777	0.338553	0.271751	0.310126	0.226955	0.326303	0.470609	0.186432	0.379887	0.213983	0.198095	0.278664	0.095771	0.296599	0.647061	0.224752	0.668844	0.318114	0.242576	0.285474	0.196389	0.366200	0.396051	0.506331	0.651041	0.189956	0.402794	0.244855	0.362861	0.173675	0.276849	0.242511	0.688246	0.261959	0.534189	0.340774	0.279684	0.352959	0.421305	0.181256	0.432883	0.397869	0.490548	0.283145	0.138297	0.140108	0.307405	0.349164
42	0.747765	0.220174	0.301767	0.433589	0.404189	0.354119	0.358401	0.295792	0.302913	0.264289	0.211930	0.184470	0.470728	0.308855	0.304962	0.246699	0.435959	0.336556	0.271925	0.308802	0.211141	0.376635	0.439867	0.156408	0.359346	0.186105	0.212758	0.272348	0.100501	0.297277	0.639540	0.228802	0.759005	0.303709	0.297097	0.268086	0.206677	0.369069	0.400596	0.502345	0.556940	0.161130	0.375605	0.246425	0.363758	0.173807	0.271144	0.225645	0.628489	0.253606	0.536670	0.340572	0.264932	0.355771	0.426660	0.178126	0.438374	0.329436	0.482782	0.280117	0.144817	0.136718	0.308667	0.371591
43	0.735169	0.219570	0.303617	0.433565	0.335047	0.326035	0.362612	0.328605	0.303092	0.249934	0.210354	0.181107	0.467412	0.302962	0.330741	0.254259	0.415727	0.322054	0.276846	0.290471	0.210035	0.410546	0.402927	0.160726	0.348842	0.178312	0.279556	0.262542	0.112866	0.297952	0.650555	0.253080	0.797975	0.294738	0.390640	0.261049	0.232717	0.376206	0.399705	0.494142	0.497360	0.156279	0.329605	0.239218	0.360832	0.182576	0.251308	0.222361	0.582009	0.255233	0.536453	0.338709	0.244853	0.355182	0.459147	0.182611	0.424660	0.304612	0.477514	0.272319	0.146390	0.138974	0.312149	0.429412
44	0.734341	0.214294	0.287268	0.437277	0.255982	0.305495	0.359414	0.352508	0.293247	0.235180	0.196945	0.171232	0.462400	0.287685	0.335435	0.260741	0.402152	0.294826	0.275854	0.278152	0.192144	0.443680	0.450588	0.173711	0.348682	0.178250	0.300340	0.275721	0.115220	0.300006	0.627788	0.247675	0.800047	0.288772	0.401671	0.259540	0.235717	0.366068	0.398635	0.454734	0.493575	0.153298	0.312084	0.261185	0.359277	0.182141	0.243530	0.220210	0.572776	0.264895	0.540050	0.342025	0.228265	0.356346	0.492857	0.179187	0.349702	0.304815	0.445130	0.272750	0.159220	0.143624	0.323045	0.481322
45	0.594739	0.194055	0.275827	0.423978	0.247115	0.302381	0.374128	0.400748	0.326575	0.208620	0.178076	0.171304	0.465885	0.267205	0.335358	0.260673	0.384593	0.270055	0.269503	0.277695	0.169668	0.464434	0.387030	0.173921	0.372995	0.205962	0.302838	0.321900	0.130766	0.300730	0.529706	0.266536	0.793598	0.280320	0.398990	0.284865	0.242996	0.364032	0.395972	0.405322	0.498567	0.148594	0.264264	0.304387	0.368377	0.173133	0.238586	0.211382	0.556616	0.273197	0.541195	0.322225	0.226147	0.357920	0.505207	0.175211	0.302801	0.297602	0.417335	0.263989	0.168913	0.144704	0.321524	0.481944
46	0.442782	0.214630	0.277584	0.380647	0.245162	0.299014	0.359680	0.445564	0.398917	0.193058	0.172230	0.174707	0.475310	0.243486	0.336596	0.261999	0.388270	0.238267	0.278598	0.251674	0.135218	0.470575	0.323234	0.172308	0.392153	0.249448	0.320966	0.348137	0.203015	0.289374	0.482590	0.303151	0.810198	0.272515	0.396431	0.330495	0.283892	0.364793	0.396721	0.403761	0.505103	0.125867	0.244825	0.310212	0.358381	0.172494	0.218748	0.210791	0.558726	0.285630	0.542743	0.306135	0.231417	0.360357	0.519287	0.172288	0.279941	0.289484	0.495856	0.244480	0.166156	0.167474	0.321459	0.494854
47	0.455805	0.256248	0.275312	0.371998	0.239989	0.302811	0.351347	0.465350	0.477741	0.192904	0.179929	0.179252	0.477625	0.232814	0.339687	0.270266	0.396241	0.208731	0.279674	0.188757	0.133954	0.463138	0.312190	0.171804	0.446220	0.315605	0.428802	0.392338	0.240326	0.256827	0.497706	0.304386	0.862308	0.272905	0.397545	0.341122	0.307790	0.354831	0.393900	0.395943	0.508827	0.071996	0.246585	0.301220	0.334745	0.171920	0.213958	0.225840	0.568877	0.306760	0.536714	0.356762	0.231150	0.368818	0.536593	0.173156	0.275784	0.232016	0.538639	0.240827	0.173749	0.187633	0.335024	0.498332
48	0.529250	0.254327	0.262679	0.382142	0.208612	0.304635	0.350379	0.466077	0.487863	0.175790	0.195801	0.177168	0.475993	0.239102	0.341606	0.279362	0.404586	0.200236	0.309870	0.235918	0.133465	0.461011	0.391327	0.174675	0.457144	0.373148	0.432223	0.429986	0.246117	0.221118	0.547405	0.311136	0.948420	0.278387	0.474191	0.342328	0.312306	0.352317	0.392653	0.374142	0.476001	0.082169	0.243804	0.308721	0.323769	0.159901	0.216909	0.227884	0.600358	0.319359	0.531987	0.373226	0.226394	0.369619	0.545299	0.171804	0.277330	0.227299	0.557581	0.239056	0.181975	0.204218	0.333640	0.498936
49	0.519928	0.265902	0.248781	0.358886	0.174994	0.271901	0.365343	0.471384	0.480887	0.144978	0.234430	0.163184	0.484196	0.254213	0.347813	0.280730	0.376281	0.205636	0.299009	0.255082	0.131722	0.474819	0.460578	0.229123	0.432306	0.392939	0.437334	0.503366	0.281545	0.189367	0.517570	0.313632	1.040879	0.297827	0.558649	0.338139	0.309095	0.344258	0.373222	0.313790	0.468510	0.084564	0.245480	0.315990	0.318854	0.144470	0.219427	0.223319	0.616567	0.320545	0.531226	0.373126	0.213751	0.369403	0.541988	0.212185	0.321732	0.240371	0.489179	0.236678	0.185458	0.210593	0.335625	0.512300
50	0.492814	0.280708	0.246068	0.311165	0.171871	0.224484	0.360747	0.495870	0.512066	0.126704	0.238417	0.191504	0.483776	0.268513	0.352492	0.280932	0.324309	0.218371	0.302207	0.250841	0.117823	0.499849	0.469070	0.249587	0.470097	0.414986	0.465866	0.586477	0.326624	0.193129	0.481308	0.339624	1.090130	0.308098	0.569004	0.339808	0.288632	0.318574	0.331699	0.237009	0.479125	0.089750	0.340824	0.328414	0.277963	0.137388	0.224476	0.240857	0.601995	0.327477	0.542337	0.368273	0.192809	0.369620	0.540162	0.240428	0.451100	0.248793	0.468983	0.212224	0.190121	0.210735	0.329346	0.524597
51	0.481679	0.276682	0.254217	0.303277	0.163271	0.187249	0.337791	0.510920	0.547389	0.113456	0.260452	0.197000	0.467423	0.278807	0.348004	0.247934	0.341933	0.221452	0.353428	0.237394	0.117306	0.541095	0.469989	0.254811	0.644786	0.425661	0.534683	0.659355	0.343675	0.170430	0.479506	0.332584	1.104148	0.295114	0.597697	0.314096	0.286406	0.279064	0.360631	0.273463	0.513346	0.107039	0.340256	0.356355	0.233234	0.134843	0.229950	0.276318	0.549374	0.324195	0.550628	0.374758	0.186497	0.372987	0.542574	0.253276	0.482490	0.261475	0.544540	0.198558	0.177879	0.211499	0.321832	0.526107
52	0.469594	0.283451	0.259262	0.302831	0.131802	0.164317	0.333475	0.486444	0.606966	0.110554	0.274332	0.208017	0.440781	0.281208	0.353207	0.237918	0.399568	0.209403	0.382493	0.247637	0.101557	0.574954	0.464413	0.261035	0.748788	0.425622	0.582915	0.786002	0.343051	0.151622	0.475123	0.358200	1.195010	0.281311	0.647844	0.328206	0.290961	0.255582	0.358671	0.304727	0.515539	0.126296	0.334401	0.409005	0.217598	0.134558	0.231780	0.327160	0.618153	0.302334	0.579709	0.373727	0.206255	0.379117	0.542581	0.245747	0.491576	0.261319	0.603348	0.236543	0.171483	0.212788	0.312616	0.492456
53	0.465556	0.298199	0.282191	0.302610	0.131403	0.174084	0.307024	0.499287	0.646092	0.110314	0.278229	0.209005	0.417673	0.276411	0.349124	0.226954	0.388706	0.185905	0.377834	0.246666	0.106218	0.552721	0.455175	0.270057	0.762594	0.437552	0.601241	0.823856	0.341686	0.168747	0.483134	0.355732	1.275419	0.272219	0.654088	0.366542	0.287824	0.245686	0.343424	0.310912	0.561742	0.156797	0.348492	0.449114	0.222453	0.136502	0.228486	0.376389	0.743493	0.322248	0.574916	0.357918	0.239263	0.344546	0.540565	0.247135	0.519002	0.257518	0.612786	0.262869	0.170890	0.205731	0.306472	0.449180
54	0.476960	0.309882	0.286192	0.298518	0.136653	0.209811	0.294353	0.486253	0.670531	0.123486	0.291197	0.210217	0.403000	0.273829	0.320589	0.220047	0.455548	0.165041	0.371271	0.275054	0.103139	0.496119	0.455666	0.272736	0.767178	0.460463	0.601676	0.825699	0.341715	0.176977	0.510655	0.349371	1.302381	0.247002	0.658325	0.442561	0.284778	0.245583	0.327277	0.312494	0.647743	0.176246	0.405726	0.459965	0.225741	0.147585	0.229289	0.388580	0.763640	0.355020	0.525344	0.352354	0.305102	0.303202	0.532547	0.255988	0.521626	0.260732	0.614075	0.259110	0.173823	0.205085	0.269733	0.438162
55	0.473253	0.315658	0.281117	0.299235	0.139490	0.305996	0.290750	0.469519	0.673805	0.211900	0.290643	0.207420	0.401225	0.269191	0.319570	0.221700	0.668538	0.171447	0.368267	0.300105	0.098339	0.475440	0.444060	0.286089	0.792937	0.478735	0.594012	0.817300	0.337249	0.192914	0.504596	0.339946	1.303735	0.224687	0.660178	0.469007	0.281670	0.246411	0.306076	0.316183	0.684919	0.176319	0.436186	0.456950	0.214888	0.159258	0.229887	0.398319	0.738189	0.376043	0.506174	0.347293	0.344388	0.327222	0.505496	0.282914	0.557306	0.267803	0.613582	0.256441	0.173339	0.224096	0.264988	0.436894
56	0.470313	0.319534	0.276172	0.299370	0.139480	0.324902	0.248281	0.444035	0.678026	0.254020	0.318663	0.204672	0.342569	0.269322	0.320220	0.233303	0.817382	0.183953	0.368332	0.304315	0.098681	0.473230	0.393110	0.331105	0.829601	0.495305	0.592003	0.808546	0.334310	0.191902	0.487236	0.334664	1.294410	0.227574	0.678667	0.476583	0.279166	0.235137	0.322944	0.351623	0.699845	0.180997	0.442104	0.460379	0.187794	0.155776	0.217819	0.400153	0.693789	0.383928	0.504162	0.369115	0.346823	0.333053	0.449263	0.329930	0.577669	0.273972	0.613313	0.235781	0.162430	0.238582	0.277048	0.438975
57	0.469654	0.325318	0.268469	0.300030	0.139093	0.341435	0.186686	0.385316	0.697159	0.262696	0.320502	0.214801	0.264884	0.268363	0.322276	0.248083	0.854367	0.198635	0.364866	0.304236	0.092873	0.455124	0.394967	0.367384	0.846357	0.514964	0.556588	0.813901	0.335204	0.190313	0.487211	0.378812	1.227269	0.230328	0.709537	0.514376	0.264228	0.224056	0.387928	0.372437	0.684127	0.195669	0.442059	0.473879	0.182704	0.153215	0.177148	0.425490	0.691983	0.399772	0.501434	0.374464	0.344858	0.334040	0.427140	0.353171	0.575047	0.274259	0.611901	0.235826	0.156990	0.237700	0.296650	0.418635
58	0.463442	0.328068	0.257339	0.287156	0.130222	0.348310	0.185106	0.342607	0.746137	0.266139	0.320010	0.211906	0.233970	0.261300	0.327369	0.314180	0.857325	0.199606	0.365864	0.305664	0.095000	0.441143	0.400449	0.384062	0.852679	0.535727	0.550391	0.804980	0.314627	0.187465	0.493801	0.372597	1.186628	0.233326	0.682425	0.534288	0.263378	0.231862	0.417156	0.372357	0.705272	0.198286	0.444093	0.453579	0.177673	0.154854	0.154910	0.441345	0.698487	0.413117	0.507224	0.409709	0.344287	0.332299	0.426783	0.359703	0.592779	0.273590	0.609582	0.232972	0.156177	0.237999	0.319459	0.361738
59	0.480385	0.318349	0.266666	0.251285	0.121165	0.347764	0.176588	0.343439	0.761768	0.266624	0.323602	0.248687	0.232441	0.258152	0.386694	0.325634	0.915077	0.199484	0.373729	0.341455	0.128629	0.449265	0.400613	0.383555	0.832989	0.541888	0.549630	0.798043	0.274788	0.184311	0.484663	0.375205	1.187119	0.234984	0.645513	0.538648	0.253044	0.236149	0.415636	0.383498	0.786948	0.209109	0.445979	0.430598	0.176568	0.132988	0.157691	0.449801	0.703291	0.413541	0.506152	0.421638	0.348491	0.342449	0.414999	0.359443	0.610108	0.275467	0.594202	0.248347	0.140470	0.250705	0.311850	0.306266
60	0.531099	0.289484	0.291487	0.173349	0.123204	0.348343	0.128048	0.339691	0.748941	0.278829	0.322432	0.309854	0.228220	0.260126	0.454752	0.320862	1.004871	0.203711	0.372832	0.355936	0.146247	0.473777	0.360614	0.386323	0.824608	0.542705	0.523922	0.790198	0.265032	0.169399	0.438345	0.381512	1.190011	0.234072	0.645669	0.542844	0.193159	0.234136	0.425296	0.419143	0.854199	0.214638	0.445338	0.426317	0.165532	0.130855	0.161636	0.456332	0.714931	0.409333	0.508912	0.421998	0.355534	0.348165	0.368756	0.360009	0.606450	0.269516	0.524191	0.248841	0.140647	0.247698	0.333984	0.314779
61	0.560637	0.258138	0.284939	0.133280	0.121564	0.348966	0.102051	0.307986	0.702102	0.310244	0.316746	0.315598	0.209830	0.261443	0.488646	0.317063	1.051018	0.206968	0.374044	0.355440	0.147029	0.464336	0.259321	0.362225	0.810916	0.513088	0.470323	0.771558	0.293953	0.163161	0.308010	0.374687	1.195683	0.237226	0.645693	0.517211	0.163663	0.233146	0.440434	0.432848	0.861536	0.235605	0.467780	0.467676	0.152168	0.129557	0.181630	0.456886	0.714492	0.398990	0.503517	0.402309	0.360422	0.343519	0.341566	0.359440	0.618404	0.260342	0.485660	0.248845	0.154975	0.241458	0.359105	0.305253
62	0.595342	0.238442	0.272278	0.124769	0.100995	0.349524	0.100937	0.255638	0.696859	0.336412	0.316553	0.360694	0.188447	0.261358	0.510229	0.314671	1.058115	0.211356	0.362309	0.342856	0.146919	0.437774	0.236619	0.349670	0.811491	0.481137	0.470949	0.746760	0.275532	0.164340	0.292043	0.359717	1.187435	0.239588	0.645930	0.493062	0.158256	0.231974	0.484541	0.433727	0.851067	0.238914	0.485985	0.474547	0.145929	0.130662	0.206982	0.452679	0.714379	0.382891	0.468114	0.359262	0.361047	0.341253	0.323307	0.362437	0.646664	0.245742	0.458156	0.256940	0.152510	0.232562	0.373435	0.285646
63	0.599224	0.213346	0.268691	0.140094	0.098537	0.356500	0.084566	0.216372	0.703004	0.359488	0.289677	0.445270	0.164834	0.259968	0.519021	0.314308	1.105326	0.215106	0.347907	0.325819	0.146295	0.394326	0.273015	0.345480	0.811330	0.457646	0.465643	0.700348	0.253873	0.165314	0.290653	0.349275	1.146901	0.236322	0.640920	0.490616	0.154406	0.231373	0.525953	0.448582	0.830921	0.237843	0.410200	0.473379	0.144078	0.134791	0.221898	0.444988	0.719627	0.369757	0.448880	0.331776	0.359784	0.350646	0.296207	0.368348	0.624979	0.213173	0.450429	0.300150	0.147235	0.222298	0.411459	0.281832
64	0.601700	0.211603	0.250199	0.178296	0.097980	0.381085	0.089024	0.162891	0.676432	0.378494	0.282176	0.473998	0.160909	0.252766	0.523814	0.328096	1.183835	0.204647	0.392771	0.376007	0.140445	0.343676	0.347935	0.329701	0.753101	0.432143	0.426473	0.643739	0.255029	0.173502	0.291838	0.321620	1.068140	0.226538	0.565303	0.490961	0.142616	0.206287	0.545286	0.443175	0.795192	0.236284	0.427939	0.459815	0.144142	0.148290	0.223574	0.445020	0.776404	0.362639	0.450479	0.324171	0.357735	0.344194	0.261618	0.375883	0.532672	0.178705	0.451253	0.306201	0.164148	0.223591	0.417425	0.257517
65	0.638536	0.211432	0.224154	0.176038	0.094059	0.364878	0.103828	0.168026	0.651400	0.406564	0.259870	0.490338	0.144933	0.243501	0.586110	0.336884	1.202827	0.193425	0.387001	0.373822	0.136820	0.326061	0.359849	0.317306	0.603141	0.434647	0.339237	0.520998	0.320325	0.176874	0.288206	0.307062	0.982457	0.185540	0.517247	0.493875	0.125189	0.153752	0.514055	0.399229	0.786929	0.230644	0.547782	0.434204	0.144194	0.168819	0.217574	0.440077	0.803287	0.355529	0.468336	0.311031	0.349891	0.344013	0.258017	0.374708	0.522619	0.148178	0.493524	0.305079	0.188669	0.247854	0.417261	0.246913
66	0.665333	0.192005	0.240243	0.173729	0.101517	0.328584	0.109392	0.166177	0.610965	0.439109	0.243591	0.496968	0.088613	0.230265	0.679528	0.335584	1.187786	0.191747	0.364558	0.372496	0.136963	0.337425	0.360460	0.317715	0.494510	0.441609	0.265383	0.344318	0.366357	0.176945	0.233383	0.304429	0.955431	0.170820	0.535547	0.492734	0.112891	0.141664	0.485003	0.381430	0.774240	0.221864	0.716064	0.398218	0.143845	0.218948	0.207959	0.423201	0.804223	0.360866	0.543360	0.307340	0.339640	0.344924	0.271978	0.351000	0.527826	0.140603	0.741436	0.269489	0.187469	0.266228	0.415824	0.244335
67	0.669310	0.179465	0.223825	0.192395	0.121411	0.288479	0.115455	0.161944	0.583053	0.445533	0.262770	0.500248	0.081489	0.211551	0.702025	0.341221	1.188787	0.193869	0.403575	0.373854	0.137740	0.351096	0.367156	0.316243	0.490406	0.430223	0.256458	0.290789	0.371025	0.164879	0.210922	0.299835	0.914012	0.181660	0.505196	0.541599	0.112765	0.145969	0.494413	0.378088	0.729500	0.266469	0.753323	0.381226	0.144283	0.276724	0.201886	0.400303	0.722312	0.365068	0.573531	0.389132	0.338230	0.343961	0.281106	0.337659	0.510427	0.150614	0.825124	0.285754	0.192497	0.265386	0.408687	0.244505
68	0.708454	0.161518	0.255681	0.269594	0.161657	0.265697	0.136186	0.154209	0.556410	0.443411	0.278837	0.510409	0.085924	0.191257	0.706445	0.348065	1.219442	0.193315	0.419758	0.392106	0.137567	0.322075	0.391741	0.269802	0.474331	0.417339	0.338547	0.282583	0.376478	0.161102	0.209087	0.297956	0.795534	0.193835	0.511415	0.572428	0.111701	0.142329	0.533150	0.373556	0.719222	0.311412	0.742347	0.380857	0.139213	0.343111	0.207118	0.351069	0.634656	0.339882	0.536051	0.389836	0.328598	0.338051	0.279910	0.334075	0.504445	0.143220	0.843398	0.311899	0.199331	0.265476	0.397863	0.236821
69	0.735321	0.152137	0.254875	0.358598	0.175920	0.261469	0.140400	0.151501	0.596031	0.411347	0.278111	0.516890	0.077020	0.183794	0.708583	0.333566	1.194320	0.183672	0.443378	0.474200	0.138566	0.309346	0.401515	0.213472	0.422199	0.417711	0.438484	0.300050	0.377368	0.162007	0.217262	0.273802	0.702412	0.196590	0.602436	0.543619	0.099593	0.135678	0.541328	0.353525	0.732149	0.325589	0.770771	0.406946	0.131602	0.355685	0.215971	0.311274	0.667421	0.322380	0.511140	0.413113	0.313808	0.323611	0.279535	0.333735	0.454804	0.133926	0.849025	0.314776	0.202805	0.267003	0.389274	0.232282
70	0.745337	0.140508	0.256874	0.407913	0.176866	0.295370	0.139826	0.143658	0.659093	0.381959	0.274781	0.556252	0.083251	0.187425	0.712348	0.343756	1.101235	0.171685	0.582003	0.469870	0.134803	0.314441	0.397139	0.170562	0.348169	0.427912	0.442458	0.304646	0.376228	0.178259	0.224509	0.183646	0.762122	0.196445	0.612546	0.490002	0.062227	0.133694	0.522683	0.313330	0.741029	0.318047	0.833400	0.417091	0.140060	0.366717	0.222142	0.296596	0.707600	0.331448	0.513453	0.434309	0.278446	0.311003	0.284128	0.334947	0.441443	0.133275	0.958071	0.318189	0.207871	0.258632	0.396314	0.224173
71	0.744827	0.131357	0.261190	0.432285	0.201216	0.306880	0.145062	0.164296	0.679138	0.373531	0.418723	0.576748	0.094016	0.189415	0.711572	0.360817	1.037672	0.158700	0.602543	0.472781	0.109482	0.340434	0.399361	0.166393	0.302124	0.421190	0.454469	0.306693	0.377304	0.193177	0.216806	0.171693	0.784342	0.176780	0.635365	0.486324	0.059939	0.129972	0.474430	0.292172	0.736477	0.318699	0.865272	0.421160	0.153277	0.434049	0.222431	0.291651	0.731640	0.372145	0.632739	0.445502	0.196236	0.295125	0.279829	0.321781	0.435035	0.132753	1.126865	0.325826	0.236546	0.266220	0.414354	0.245651
72	0.754895	0.132435	0.286325	0.533966	0.254551	0.310521	0.145458	0.177852	0.632423	0.378911	0.545600	0.576920	0.098135	0.181015	0.703030	0.420088	1.102954	0.166858	0.602048	0.553493	0.072486	0.311738	0.396020	0.160467	0.288436	0.398538	0.476108	0.350246	0.378743	0.195924	0.217839	0.101573	0.821798	0.156452	0.710293	0.501644	0.078757	0.114930	0.484393	0.285955	0.704175	0.316011	0.870622	0.432930	0.175540	0.446411	0.222251	0.285637	0.729937	0.362682	0.888092	0.477695	0.146201	0.283748	0.276966	0.282860	0.397790	0.130332	1.169011	0.326231	0.255751	0.278013	0.411588	0.280231
73	0.743798	0.132223	0.323745	0.644145	0.268351	0.312640	0.150629	0.183251	0.603156	0.392099	0.567799	0.564631	0.099577	0.142361	0.708090	0.465407	1.193557	0.198153	0.598716	0.597604	0.070279	0.312479	0.382350	0.161926	0.285267	0.372903	0.494699	0.343655	0.372208	0.200031	0.234633	0.095586	0.950172	0.157595	0.836670	0.514228	0.113328	0.114997	0.513981	0.271911	0.640919	0.318888	0.873405	0.438736	0.173422	0.452873	0.220992	0.235029	0.736884	0.358631	0.941639	0.450975	0.142628	0.311047	0.270088	0.241182	0.371811	0.124941	1.173186	0.371069	0.261472	0.275937	0.390703	0.278381
74	0.696531	0.132849	0.332485	0.697833	0.265986	0.311878	0.152733	0.183305	0.601807	0.403933	0.585692	0.536785	0.097083	0.120698	0.715906	0.478268	1.161862	0.220081	0.596346	0.591496	0.073710	0.358689	0.374651	0.151818	0.256785	0.342454	0.536869	0.352716	0.330314	0.200732	0.240866	0.100773	1.056046	0.159538	0.920625	0.555689	0.135463	0.123510	0.510703	0.215743	0.606221	0.327076	0.868967	0.420007	0.170670	0.458426	0.221284	0.205468	0.762469	0.397877	0.940376	0.465105	0.149812	0.342283	0.256831	0.220479	0.370527	0.122306	1.169680	0.447846	0.260670	0.269339	0.391441	0.279310
75	0.619153	0.137691	0.332204	0.709372	0.273316	0.281383	0.148553	0.179220	0.648694	0.392536	0.605511	0.533146	0.096707	0.120461	0.709944	0.445674	1.097516	0.225497	0.600799	0.605285	0.079410	0.367384	0.357846	0.140664	0.212955	0.328428	0.582330	0.381343	0.320168	0.194686	0.242596	0.105248	1.073091	0.166848	0.930863	0.570888	0.176400	0.133169	0.494674	0.221725	0.603424	0.330323	0.856199	0.373449	0.177202	0.457213	0.225621	0.180850	0.766767	0.447183	0.945657	0.483585	0.153709	0.337675	0.252836	0.210344	0.334542	0.133990	1.167996	0.481445	0.254545	0.299843	0.394936	0.264361
76	0.610643	0.149819	0.406978	0.710259	0.283149	0.285012	0.160039	0.178312	0.642190	0.388716	0.628702	0.511723	0.096539	0.127400	0.684142	0.436314	1.081780	0.238201	0.606147	0.614616	0.080413	0.368600	0.287594	0.136698	0.236395	0.343889	0.583121	0.381922	0.332704	0.189190	0.252067	0.096343	1.073725	0.179468	0.931195	0.572556	0.229924	0.140701	0.449217	0.204800	0.603398	0.331735	0.854080	0.376751	0.189174	0.455523	0.220526	0.172201	0.770890	0.477003	0.998546	0.474336	0.142090	0.326352	0.252349	0.203289	0.279530	0.137629	1.179866	0.488664	0.246377	0.329878	0.411757	0.252324
77	0.638840	0.144571	0.558034	0.745865	0.282849	0.255277	0.198202	0.195116	0.628857	0.382496	0.662724	0.461598	0.100040	0.141837	0.646959	0.437673	1.096398	0.235267	0.638517	0.623914	0.077236	0.369949	0.258869	0.136739	0.318543	0.384035	0.586260	0.393602	0.307438	0.168066	0.255596	0.092533	1.061663	0.183400	0.935048	0.574133	0.276321	0.147171	0.438101	0.190023	0.606335	0.329859	0.845952	0.377612	0.201853	0.457021	0.204960	0.188349	0.760393	0.481376	1.051741	0.471959	0.126052	0.324346	0.246468	0.201503	0.314761	0.176626	1.187341	0.468971	0.241757	0.324721	0.431092	0.258173
78	0.647399	0.145032	0.632424	0.814994	0.275255	0.254601	0.211944	0.201292	0.716946	0.370777	0.668665	0.422293	0.103283	0.147451	0.627071	0.437680	1.049625	0.236827	0.632700	0.608136	0.075526	0.365958	0.277069	0.130019	0.353211	0.427139	0.607576	0.419680	0.301017	0.153312	0.257450	0.090262	1.059075	0.180848	0.948531	0.592811	0.286685	0.161258	0.428397	0.205504	0.611648	0.325406	0.790717	0.370239	0.210823	0.459085	0.185614	0.214989	0.715137	0.482500	1.065583	0.497395	0.111932	0.322925	0.241079	0.206743	0.377296	0.253866	1.172259	0.475631	0.242050	0.328563	0.423249	0.305996
79	0.634441	0.144023	0.625108	0.819011	0.263972	0.251807	0.198458	0.233280	0.798325	0.344227	0.688032	0.418264	0.105680	0.147174	0.610834	0.442371	1.028343	0.253492	0.604461	0.612362	0.074409	0.327287	0.274441	0.116009	0.350987	0.445752	0.664315	0.440722	0.293802	0.138923	0.257665	0.088319	1.078395	0.196013	0.971152	0.650190	0.300684	0.162125	0.422152	0.299233	0.620374	0.325043	0.671337	0.364736	0.210793	0.458141	0.168630	0.226608	0.634465	0.488567	1.069576	0.515515	0.103223	0.308135	0.238681	0.196814	0.425193	0.311436	1.089453	0.480472	0.223384	0.323712	0.432631	0.339032
80	0.614003	0.140957	0.617870	0.825189	0.250107	0.246689	0.194811	0.277433	0.787909	0.300679	0.695349	0.453231	0.106013	0.147958	0.608649	0.443970	1.036397	0.272103	0.599332	0.621634	0.072332	0.351065	0.235021	0.101439	0.365588	0.442233	0.678500	0.441847	0.307005	0.130397	0.259538	0.086187	1.118395	0.255878	0.976892	0.730972	0.303114	0.160968	0.424358	0.360723	0.614278	0.297106	0.521872	0.312042	0.213886	0.461147	0.161113	0.228104	0.604878	0.505847	1.062401	0.591316	0.101654	0.290933	0.246651	0.193915	0.409533	0.313787	0.929647	0.487609	0.202457	0.308724	0.434999	0.338083
81	0.592304	0.127950	0.620439	0.840751	0.249305	0.203355	0.260350	0.294605	0.779490	0.287849	0.692698	0.559959	0.110706	0.149532	0.592523	0.429056	1.031984	0.281278	0.571643	0.626266	0.067402	0.354620	0.174383	0.105418	0.416746	0.433809	0.670224	0.440850	0.306741	0.131329	0.255121	0.094588	1.139792	0.324582	0.969483	0.758572	0.325655	0.164607	0.396862	0.365861	0.573401	0.231441	0.511072	0.304468	0.221755	0.456066	0.172364	0.251251	0.601610	0.523637	1.039582	0.790299	0.108034	0.294481	0.250079	0.181719	0.475403	0.321520	0.895277	0.466461	0.201324	0.305207	0.436368	0.338188
82	0.577786	0.143695	0.640830	0.818862	0.238950	0.190581	0.302244	0.297180	0.806786	0.287204	0.683811	0.549484	0.118841	0.144578	0.503307	0.429435	1.026053	0.283390	0.558452	0.617571	0.069154	0.348575	0.156168	0.105398	0.460903	0.421811	0.643729	0.455313	0.309031	0.121354	0.227679	0.100908	1.142560	0.376465	0.957534	0.752473	0.360041	0.179672	0.356300	0.368019	0.515428	0.194315	0.460715	0.293907	0.230970	0.429269	0.222211	0.279418	0.591303	0.525942	1.009265	0.873125	0.114345	0.297614	0.238569	0.200567	0.694631	0.324702	0.887092	0.455038	0.196146	0.305035	0.436779	0.338591
83	0.618955	0.194203	0.670186	0.792921	0.176494	0.166307	0.302860	0.287185	0.809229	0.287348	0.683979	0.543906	0.118188	0.140844	0.413102	0.429364	0.964137	0.287784	0.626533	0.574582	0.076157	0.314891	0.149566	0.141125	0.463321	0.408329	0.601609	0.479487	0.311978	0.100809	0.213969	0.101278	1.141145	0.402937	0.942936	0.709248	0.383189	0.188126	0.359425	0.437597	0.480017	0.191623	0.376723	0.234665	0.228488	0.408025	0.226895	0.291328	0.556463	0.515140	1.009683	0.884415	0.116731	0.300567	0.222995	0.229124	0.841681	0.330362	0.878959	0.460362	0.186473	0.305625	0.440847	0.338664
84	0.667335	0.218085	0.690608	0.783508	0.141246	0.173497	0.339490	0.293395	0.766432	0.307799	0.671885	0.515427	0.113039	0.143328	0.407615	0.423249	0.936996	0.297812	0.554347	0.555944	0.080071	0.310516	0.154632	0.181348	0.477293	0.394129	0.612774	0.474800	0.331496	0.085148	0.213145	0.103583	1.120912	0.411041	0.899554	0.694025	0.389051	0.197097	0.362436	0.547328	0.476444	0.199043	0.253632	0.218110	0.225274	0.362859	0.222568	0.304280	0.503896	0.503613	1.013413	0.889043	0.118031	0.307586	0.206086	0.241231	0.865028	0.345850	0.711308	0.489869	0.181303	0.302334	0.444495	0.341332
85	0.670461	0.226792	0.702864	0.736648	0.139056	0.175475	0.373498	0.311763	0.734884	0.333265	0.611933	0.481580	0.115215	0.146213	0.404124	0.418014	0.947401	0.303745	0.471697	0.559124	0.080574	0.301121	0.166618	0.173911	0.531859	0.399314	0.605766	0.463340	0.358719	0.081992	0.204062	0.109391	1.073775	0.409092	0.844558	0.691260	0.389267	0.198691	0.360657	0.628000	0.471397	0.206292	0.227359	0.184646	0.223890	0.353063	0.223023	0.308863	0.445950	0.481166	1.042405	0.944781	0.118134	0.319477	0.228956	0.239685	0.868020	0.386324	0.486430	0.496852	0.169621	0.291879	0.464675	0.345064
86	0.650517	0.230223	0.680132	0.647954	0.125592	0.186819	0.375033	0.327284	0.729422	0.323156	0.494729	0.482676	0.145476	0.139476	0.390760	0.418302	0.927941	0.309633	0.476357	0.547387	0.102638	0.242343	0.168997	0.170102	0.570106	0.405828	0.598041	0.441528	0.360379	0.072532	0.184375	0.102316	1.009599	0.407924	0.847703	0.713149	0.386498	0.198421	0.311546	0.665958	0.410551	0.202796	0.279498	0.272201	0.213402	0.304625	0.221403	0.307791	0.407135	0.453711	1.080958	1.024951	0.123106	0.322586	0.291928	0.240541	0.885157	0.405165	0.531833	0.499424	0.124127	0.276034	0.475183	0.320723
87	0.636016	0.238794	0.673340	0.568265	0.098368	0.191450	0.371437	0.316832	0.730027	0.310463	0.482642	0.482456	0.169380	0.130736	0.386771	0.407455	0.846742	0.316015	0.512670	0.473955	0.109277	0.223107	0.180269	0.170032	0.565895	0.408339	0.592114	0.426742	0.357081	0.085182	0.163031	0.104660	0.997926	0.409875	0.817163	0.731546	0.384835	0.195896	0.276816	0.668429	0.394986	0.178858	0.365810	0.355632	0.204597	0.254862	0.224418	0.315126	0.405903	0.496553	0.941024	1.109172	0.137767	0.316529	0.291126	0.243109	0.897690	0.405293	0.578262	0.487405	0.081393	0.267836	0.482289	0.288940
88	0.629499	0.273488	0.671772	0.549001	0.086391	0.214372	0.360123	0.312850	0.711525	0.285994	0.469383	0.480264	0.192927	0.127298	0.402262	0.386207	0.839585	0.314134	0.625073	0.430940	0.105694	0.234151	0.218337	0.184116	0.576047	0.409407	0.538210	0.415315	0.348724	0.111909	0.148956	0.107043	0.915993	0.411434	0.702730	0.705384	0.383779	0.191243	0.268674	0.665369	0.400537	0.135300	0.361424	0.360918	0.186860	0.238124	0.252976	0.328879	0.391483	0.515265	0.933027	1.150222	0.146181	0.304455	0.283179	0.247634	0.905245	0.407467	0.577792	0.538023	0.063181	0.270912	0.483939	0.281775
89	0.622473	0.303673	0.665424	0.549894	0.085796	0.238054	0.374049	0.305845	0.664735	0.284363	0.471902	0.490817	0.213034	0.138561	0.411854	0.311610	0.871516	0.329182	0.686786	0.425073	0.105258	0.277120	0.235032	0.272839	0.610295	0.405542	0.502633	0.394658	0.336789	0.117080	0.161424	0.128498	0.767169	0.411002	0.513946	0.661426	0.373166	0.185309	0.267775	0.662988	0.400935	0.123055	0.361512	0.367304	0.185382	0.225358	0.264910	0.329304	0.331959	0.504875	0.955838	1.141983	0.150284	0.277676	0.282621	0.243822	0.917653	0.411760	0.584397	0.546835	0.061635	0.265273	0.479716	0.278396
90	0.596182	0.324531	0.562420	0.539563	0.070308	0.239365	0.376962	0.296063	0.650297	0.321644	0.501021	0.500237	0.216935	0.203808	0.404437	0.231151	0.868279	0.351619	0.695536	0.413876	0.105409	0.304357	0.233336	0.308220	0.618290	0.387934	0.505899	0.397917	0.323833	0.134118	0.176158	0.152632	0.633685	0.408685	0.405405	0.626968	0.339987	0.181165	0.241016	0.662140	0.423097	0.142321	0.375294	0.364254	0.184260	0.217169	0.261161	0.324556	0.284982	0.478280	0.957252	1.140789	0.148551	0.229943	0.283782	0.242831	0.943346	0.413066	0.609508	0.546310	0.058712	0.214408	0.457998	0.277330
91	0.554897	0.352953	0.426507	0.441436	0.058236	0.240454	0.375016	0.247507	0.649047	0.356599	0.512723	0.485989	0.223315	0.231151	0.392302	0.180051	0.849779	0.351263	0.698406	0.419877	0.107386	0.342196	0.232540	0.310241	0.581424	0.345051	0.500687	0.367677	0.274779	0.134636	0.175805	0.154835	0.607124	0.406274	0.400744	0.614461	0.308045	0.169214	0.175672	0.665920	0.462235	0.146707	0.409591	0.387437	0.175118	0.217177	0.261367	0.319082	0.288414	0.455873	0.917233	1.145656	0.139287	0.212030	0.287033	0.241514	0.943404	0.389432	0.643018	0.550285	0.050668	0.154880	0.417175	0.274186
92	0.534256	0.364407	0.419805	0.432970	0.060037	0.234512	0.348729	0.222117	0.572675	0.352586	0.521529	0.471748	0.238263	0.246553	0.352567	0.176992	0.822184	0.351139	0.683269	0.514854	0.110139	0.320192	0.236291	0.316474	0.570620	0.290566	0.458538	0.394885	0.248258	0.137827	0.174945	0.155506	0.612823	0.400469	0.394168	0.614088	0.345919	0.149483	0.159225	0.661378	0.480915	0.148078	0.427992	0.402579	0.156279	0.215866	0.266304	0.316580	0.312769	0.458191	0.889775	1.145362	0.132346	0.221706	0.293803	0.241361	0.920375	0.337403	0.640477	0.550414	0.042879	0.156083	0.369651	0.261250
93	0.539574	0.366390	0.459852	0.433133	0.053558	0.234980	0.296314	0.207252	0.441041	0.358221	0.531483	0.461565	0.289863	0.288602	0.308269	0.170988	0.775393	0.351461	0.683874	0.543764	0.113097	0.309704	0.256700	0.316913	0.580880	0.267665	0.392949	0.467970	0.240200	0.139384	0.168302	0.155838	0.611361	0.397986	0.384246	0.609241	0.421057	0.145345	0.154938	0.627805	0.475826	0.150402	0.462884	0.404417	0.135086	0.216050	0.264123	0.301683	0.315225	0.480947	0.882028	1.146070	0.129259	0.217401	0.305216	0.242515	0.930177	0.296685	0.643796	0.580782	0.039429	0.150436	0.340682	0.194197
94	0.547992	0.371128	0.462573	0.402319	0.045254	0.249207	0.294886	0.201941	0.422149	0.363799	0.565390	0.418430	0.332447	0.288457	0.312486	0.170580	0.757126	0.355796	0.700244	0.532513	0.115311	0.308178	0.279543	0.321646	0.582706	0.288570	0.383931	0.533695	0.233452	0.149785	0.160832	0.150709	0.594655	0.397312	0.334060	0.586612	0.480768	0.143945	0.147316	0.606781	0.503297	0.163790	0.507645	0.406312	0.125369	0.212653	0.263543	0.283490	0.304887	0.491257	0.883544	1.148091	0.128860	0.216903	0.312134	0.246217	1.006138	0.293717	0.694145	0.598203	0.040210	0.151372	0.325650	0.128391
95	0.629804	0.370619	0.427654	0.359297	0.043038	0.251145	0.268743	0.189924	0.408855	0.368491	0.570054	0.242822	0.348621	0.294454	0.315640	0.166684	0.766560	0.374515	0.742735	0.564223	0.111306	0.354647	0.294087	0.358698	0.550282	0.307410	0.370317	0.543122	0.231001	0.177959	0.156761	0.147583	0.541591	0.383399	0.269250	0.520156	0.562849	0.143567	0.149475	0.607570	0.531158	0.166146	0.514665	0.414790	0.125073	0.223898	0.263011	0.277361	0.353885	0.479541	0.888921	1.102479	0.128826	0.203844	0.312069	0.251891	0.986487	0.281921	0.706469	0.618776	0.039493	0.134382	0.325035	0.109021
96	0.700903	0.354911	0.401641	0.365381	0.055132	0.240447	0.216091	0.172621	0.348541	0.369086	0.566185	0.231493	0.349940	0.303214	0.312858	0.154773	0.766034	0.381558	0.786213	0.610250	0.108310	0.390848	0.297836	0.362945	0.526342	0.311757	0.366707	0.518169	0.229230	0.196876	0.169879	0.151500	0.462340	0.339137	0.246308	0.432723	0.651635	0.126792	0.136243	0.602439	0.532478	0.168955	0.536701	0.414037	0.115587	0.202354	0.260479	0.274646	0.405844	0.461838	0.871376	0.961180	0.126243	0.198257	0.314284	0.256912	0.823205	0.291219	0.729376	0.648424	0.041370	0.122406	0.324153	0.108034
97	0.663378	0.334361	0.370778	0.393643	0.085656	0.240882	0.218070	0.145017	0.287109	0.368466	0.564311	0.229504	0.350506	0.307423	0.311940	0.140098	0.745109	0.382287	0.757477	0.634242	0.109931	0.389737	0.291050	0.364835	0.537897	0.305045	0.360084	0.493346	0.159205	0.203314	0.173517	0.152734	0.405305	0.272693	0.239645	0.407412	0.690193	0.113833	0.101090	0.532315	0.535906	0.158605	0.551314	0.426941	0.097879	0.221058	0.233234	0.244266	0.418508	0.461100	0.868050	0.877486	0.122084	0.214013	0.307332	0.250080	0.713202	0.316727	0.726825	0.649743	0.043940	0.151380	0.322269	0.104241
98	0.726372	0.328502	0.354640	0.456361	0.099820	0.219785	0.214300	0.143356	0.262682	0.354835	0.563563	0.212518	0.348485	0.320739	0.310254	0.128228	0.753097	0.426177	0.732135	0.608083	0.096981	0.399090	0.287906	0.366333	0.571204	0.282804	0.377436	0.497196	0.135772	0.204512	0.177659	0.162254	0.416377	0.203183	0.237875	0.411194	0.701663	0.121458	0.096915	0.413182	0.539903	0.151761	0.563231	0.446987	0.078707	0.218738	0.192999	0.219746	0.417724	0.468384	0.863862	0.869744	0.111553	0.208695	0.307068	0.246912	0.709014	0.308765	0.745835	0.629687	0.053334	0.160785	0.312194	0.103516
99	0.953899	0.326316	0.397784	0.551383	0.103957	0.205300	0.204500	0.130384	0.298487	0.326084	0.551241	0.207152	0.345632	0.325417	0.295918	0.111924	0.770204	0.489513	0.778912	0.611972	0.080958	0.405138	0.284699	0.365981	0.551899	0.259103	0.418312	0.505714	0.125664	0.203127	0.174675	0.159158	0.420212	0.136533	0.262967	0.428926	0.700976	0.131812	0.095136	0.289837	0.524190	0.164413	0.582750	0.465804	0.071160	0.202338	0.190108	0.202441	0.430014	0.468218	0.858253	0.844594	0.106077	0.204322	0.307072	0.215554	0.716000	0.285141	0.763972	0.621228	0.063669	0.167682	0.292980	0.092344
100	1.051705	0.327867	0.440953	0.627270	0.160280	0.197972	0.159658	0.125746	0.315538	0.326464	0.549797	0.204605	0.345916	0.339429	0.258412	0.117661	0.778895	0.524749	0.820992	0.605842	0.076063	0.398493	0.255795	0.361809	0.525748	0.245117	0.525712	0.625951	0.125898	0.191151	0.171950	0.153957	0.398017	0.109652	0.273021	0.427315	0.698917	0.131473	0.087808	0.216135	0.483682	0.167545	0.523106	0.401871	0.064647	0.201559	0.185133	0.183095	0.446222	0.468939	0.798637	0.766870	0.103312	0.204892	0.307029	0.187070	0.695872	0.272451	0.737131	0.613199	0.064457	0.168763	0.227469	0.078985
101	1.053936	0.310338	0.490091	0.623162	0.236458	0.198639	0.154396	0.121001	0.308131	0.323259	0.531496	0.221823	0.346076	0.338160	0.233094	0.127259	0.745065	0.537227	0.832771	0.590534	0.074500	0.370603	0.233540	0.316376	0.557380	0.240680	0.629761	0.731460	0.121710	0.184758	0.176265	0.145343	0.402856	0.112491	0.287062	0.428710	0.695892	0.134477	0.076624	0.201488	0.457839	0.190203	0.575557	0.401232	0.065287	0.201581	0.173122	0.179772	0.441491	0.456527	0.622153	0.636321	0.102898	0.192568	0.305942	0.171735	0.687444	0.283266	0.759703	0.567193	0.073983	0.191634	0.147998	0.108814
