	124_M_P_sh_R_D_A_01.c3d	124_M_P_sh_R_D_A_01.c3d	124_M_P_sh_R_D_A_01.c3d	124_M_P_sh_R_D_A_01.c3d	124_M_P_sh_R_D_A_01.c3d	124_M_P_sh_R_D_A_01.c3d	124_M_P_sh_R_D_A_01.c3d	124_M_P_sh_R_D_A_01.c3d	124_M_P_sh_R_D_A_02.c3d	124_M_P_sh_R_D_A_02.c3d	124_M_P_sh_R_D_A_02.c3d	124_M_P_sh_R_D_A_02.c3d	124_M_P_sh_R_D_A_02.c3d	124_M_P_sh_R_D_A_02.c3d	124_M_P_sh_R_D_A_02.c3d	124_M_P_sh_R_D_A_02.c3d	124_M_P_sh_R_D_A_03.c3d	124_M_P_sh_R_D_A_03.c3d	124_M_P_sh_R_D_A_03.c3d	124_M_P_sh_R_D_A_03.c3d	124_M_P_sh_R_D_A_03.c3d	124_M_P_sh_R_D_A_03.c3d	124_M_P_sh_R_D_A_03.c3d	124_M_P_sh_R_D_A_03.c3d	124_M_P_sh_R_D_A_04.c3d	124_M_P_sh_R_D_A_04.c3d	124_M_P_sh_R_D_A_04.c3d	124_M_P_sh_R_D_A_04.c3d	124_M_P_sh_R_D_A_04.c3d	124_M_P_sh_R_D_A_04.c3d	124_M_P_sh_R_D_A_04.c3d	124_M_P_sh_R_D_A_04.c3d	124_M_P_sh_R_D_A_05.c3d	124_M_P_sh_R_D_A_05.c3d	124_M_P_sh_R_D_A_05.c3d	124_M_P_sh_R_D_A_05.c3d	124_M_P_sh_R_D_A_05.c3d	124_M_P_sh_R_D_A_05.c3d	124_M_P_sh_R_D_A_05.c3d	124_M_P_sh_R_D_A_05.c3d	124_M_P_sh_R_D_A_06.c3d	124_M_P_sh_R_D_A_06.c3d	124_M_P_sh_R_D_A_06.c3d	124_M_P_sh_R_D_A_06.c3d	124_M_P_sh_R_D_A_06.c3d	124_M_P_sh_R_D_A_06.c3d	124_M_P_sh_R_D_A_06.c3d	124_M_P_sh_R_D_A_06.c3d	124_M_P_sh_R_D_A_07.c3d	124_M_P_sh_R_D_A_07.c3d	124_M_P_sh_R_D_A_07.c3d	124_M_P_sh_R_D_A_07.c3d	124_M_P_sh_R_D_A_07.c3d	124_M_P_sh_R_D_A_07.c3d	124_M_P_sh_R_D_A_07.c3d	124_M_P_sh_R_D_A_07.c3d	124_M_P_sh_R_D_A_08.c3d	124_M_P_sh_R_D_A_08.c3d	124_M_P_sh_R_D_A_08.c3d	124_M_P_sh_R_D_A_08.c3d	124_M_P_sh_R_D_A_08.c3d	124_M_P_sh_R_D_A_08.c3d	124_M_P_sh_R_D_A_08.c3d	124_M_P_sh_R_D_A_08.c3d	124_M_P_sh_R_D_A_09.c3d	124_M_P_sh_R_D_A_09.c3d	124_M_P_sh_R_D_A_09.c3d	124_M_P_sh_R_D_A_09.c3d	124_M_P_sh_R_D_A_09.c3d	124_M_P_sh_R_D_A_09.c3d	124_M_P_sh_R_D_A_09.c3d	124_M_P_sh_R_D_A_09.c3d	124_M_P_sh_R_D_A_10.c3d	124_M_P_sh_R_D_A_10.c3d	124_M_P_sh_R_D_A_10.c3d	124_M_P_sh_R_D_A_10.c3d	124_M_P_sh_R_D_A_10.c3d	124_M_P_sh_R_D_A_10.c3d	124_M_P_sh_R_D_A_10.c3d	124_M_P_sh_R_D_A_10.c3d
	Biceps femoris_lat	Semitendinosus_lat	Vastus lateralis_lat	Vastus medialis_lat	Biceps femoris_med	Semitendinosus_med	Vastus lateralis_med	Vastus medialis_med	Biceps femoris_lat	Semitendinosus_lat	Vastus lateralis_lat	Vastus medialis_lat	Biceps femoris_med	Semitendinosus_med	Vastus lateralis_med	Vastus medialis_med	Biceps femoris_lat	Semitendinosus_lat	Vastus lateralis_lat	Vastus medialis_lat	Biceps femoris_med	Semitendinosus_med	Vastus lateralis_med	Vastus medialis_med	Biceps femoris_lat	Semitendinosus_lat	Vastus lateralis_lat	Vastus medialis_lat	Biceps femoris_med	Semitendinosus_med	Vastus lateralis_med	Vastus medialis_med	Biceps femoris_lat	Semitendinosus_lat	Vastus lateralis_lat	Vastus medialis_lat	Biceps femoris_med	Semitendinosus_med	Vastus lateralis_med	Vastus medialis_med	Biceps femoris_lat	Semitendinosus_lat	Vastus lateralis_lat	Vastus medialis_lat	Biceps femoris_med	Semitendinosus_med	Vastus lateralis_med	Vastus medialis_med	Biceps femoris_lat	Semitendinosus_lat	Vastus lateralis_lat	Vastus medialis_lat	Biceps femoris_med	Semitendinosus_med	Vastus lateralis_med	Vastus medialis_med	Biceps femoris_lat	Semitendinosus_lat	Vastus lateralis_lat	Vastus medialis_lat	Biceps femoris_med	Semitendinosus_med	Vastus lateralis_med	Vastus medialis_med	Biceps femoris_lat	Semitendinosus_lat	Vastus lateralis_lat	Vastus medialis_lat	Biceps femoris_med	Semitendinosus_med	Vastus lateralis_med	Vastus medialis_med	Biceps femoris_lat	Semitendinosus_lat	Vastus lateralis_lat	Vastus medialis_lat	Biceps femoris_med	Semitendinosus_med	Vastus lateralis_med	Vastus medialis_med
	P2D	P2D	P2D	P2D	P2D	P2D	P2D	P2D	P2D	P2D	P2D	P2D	P2D	P2D	P2D	P2D	P2D	P2D	P2D	P2D	P2D	P2D	P2D	P2D	P2D	P2D	P2D	P2D	P2D	P2D	P2D	P2D	P2D	P2D	P2D	P2D	P2D	P2D	P2D	P2D	P2D	P2D	P2D	P2D	P2D	P2D	P2D	P2D	P2D	P2D	P2D	P2D	P2D	P2D	P2D	P2D	P2D	P2D	P2D	P2D	P2D	P2D	P2D	P2D	P2D	P2D	P2D	P2D	P2D	P2D	P2D	P2D	P2D	P2D	P2D	P2D	P2D	P2D	P2D	P2D
	EMG_lat	EMG_lat	EMG_lat	EMG_lat	EMG_med	EMG_med	EMG_med	EMG_med	EMG_lat	EMG_lat	EMG_lat	EMG_lat	EMG_med	EMG_med	EMG_med	EMG_med	EMG_lat	EMG_lat	EMG_lat	EMG_lat	EMG_med	EMG_med	EMG_med	EMG_med	EMG_lat	EMG_lat	EMG_lat	EMG_lat	EMG_med	EMG_med	EMG_med	EMG_med	EMG_lat	EMG_lat	EMG_lat	EMG_lat	EMG_med	EMG_med	EMG_med	EMG_med	EMG_lat	EMG_lat	EMG_lat	EMG_lat	EMG_med	EMG_med	EMG_med	EMG_med	EMG_lat	EMG_lat	EMG_lat	EMG_lat	EMG_med	EMG_med	EMG_med	EMG_med	EMG_lat	EMG_lat	EMG_lat	EMG_lat	EMG_med	EMG_med	EMG_med	EMG_med	EMG_lat	EMG_lat	EMG_lat	EMG_lat	EMG_med	EMG_med	EMG_med	EMG_med	EMG_lat	EMG_lat	EMG_lat	EMG_lat	EMG_med	EMG_med	EMG_med	EMG_med
ITEM	Y	Y	Y	Y	Y	Y	Y	Y	Y	Y	Y	Y	Y	Y	Y	Y	Y	Y	Y	Y	Y	Y	Y	Y	Y	Y	Y	Y	Y	Y	Y	Y	Y	Y	Y	Y	Y	Y	Y	Y	Y	Y	Y	Y	Y	Y	Y	Y	Y	Y	Y	Y	Y	Y	Y	Y	Y	Y	Y	Y	Y	Y	Y	Y	Y	Y	Y	Y	Y	Y	Y	Y	Y	Y	Y	Y	Y	Y	Y	Y
1	0.229611	0.420263	0.351761	0.560181	0.229968	0.161750	0.229248	0.373274	0.410552	0.260137	0.190610	0.099696	0.291978	0.370193	0.300140	0.301828	0.126440	0.049607	0.184255	0.150317	0.267286	0.356838	0.094340	0.240240	0.040666	0.065873	0.265604	0.278728	0.113579	0.086992	0.281025	0.184458	0.046229	0.159752	0.204991	0.175701	0.073453	0.143652	0.183905	0.450723	0.096652	0.103393	0.239941	0.094808	0.165863	0.062452	0.158355	0.138157	0.167395	0.119559	0.256877	0.145319	0.124465	0.152671	0.215961	0.199753	0.118261	0.283017	0.165285	0.331098	0.189264	0.059538	0.325266	0.193386	0.249134	0.157788	0.261954	0.203767	0.307399	0.121920	0.277753	0.315122	0.215451	0.121477	0.252243	0.206497	0.141874	0.212841	0.349102	0.132756
2	0.226114	0.424069	0.352736	0.561178	0.263165	0.175562	0.232483	0.330992	0.404283	0.336375	0.192012	0.108067	0.289793	0.313897	0.299980	0.288916	0.116430	0.036499	0.194940	0.149722	0.254945	0.213161	0.120459	0.243432	0.050459	0.059031	0.277606	0.279076	0.117207	0.091052	0.281632	0.190054	0.043967	0.151181	0.224407	0.206086	0.072065	0.140247	0.183561	0.385819	0.087241	0.100342	0.239186	0.100889	0.167740	0.060979	0.153118	0.134283	0.211038	0.125381	0.281703	0.133295	0.132387	0.159176	0.219403	0.191290	0.100987	0.279934	0.183521	0.386787	0.197806	0.057631	0.315064	0.207643	0.141361	0.126061	0.231961	0.202838	0.306497	0.122642	0.303664	0.310562	0.215941	0.122145	0.257369	0.212233	0.143325	0.202508	0.362341	0.143365
3	0.223164	0.416297	0.353779	0.560048	0.252593	0.189081	0.241347	0.284797	0.366408	0.373322	0.164946	0.108127	0.298250	0.272682	0.294868	0.258530	0.105165	0.042688	0.201549	0.143955	0.150240	0.156923	0.172834	0.242377	0.054162	0.055770	0.286240	0.300475	0.122155	0.138533	0.245637	0.194036	0.043337	0.131527	0.252085	0.213702	0.076226	0.141259	0.185779	0.323521	0.087639	0.100546	0.235314	0.111442	0.168167	0.067821	0.152515	0.120083	0.262836	0.124859	0.384888	0.153184	0.130675	0.160132	0.224717	0.191206	0.090149	0.264074	0.168503	0.386151	0.202417	0.051051	0.317329	0.209977	0.091996	0.093528	0.227001	0.201838	0.303868	0.115914	0.301455	0.297325	0.220030	0.127707	0.266311	0.234795	0.140668	0.203097	0.363825	0.162520
4	0.198746	0.380925	0.348984	0.556513	0.249923	0.189113	0.240701	0.249089	0.277534	0.375437	0.150094	0.126270	0.299904	0.274644	0.266363	0.255761	0.059025	0.060849	0.210384	0.286740	0.151893	0.129029	0.177601	0.244310	0.051126	0.054253	0.295824	0.302359	0.110685	0.166484	0.230451	0.201874	0.054178	0.114765	0.261287	0.203871	0.078104	0.142530	0.199150	0.321554	0.091360	0.091677	0.206354	0.119949	0.162033	0.071147	0.153160	0.126622	0.264446	0.123886	0.403448	0.159644	0.112286	0.149617	0.223329	0.192510	0.088253	0.247540	0.168519	0.387255	0.206533	0.049318	0.316863	0.237162	0.099070	0.054168	0.212475	0.205474	0.302037	0.098447	0.304197	0.278449	0.260567	0.124529	0.270537	0.241129	0.136908	0.219621	0.360815	0.172899
5	0.199785	0.335290	0.348656	0.554973	0.252576	0.200974	0.237992	0.177910	0.250109	0.358932	0.202553	0.120494	0.332484	0.285715	0.256264	0.261147	0.078663	0.077841	0.216647	0.331872	0.147364	0.149068	0.189831	0.244320	0.054918	0.053640	0.294595	0.308499	0.102433	0.170955	0.252592	0.205642	0.056997	0.111056	0.296204	0.223790	0.079379	0.144549	0.219087	0.298398	0.086947	0.079735	0.209472	0.134178	0.161972	0.074583	0.151287	0.131562	0.263641	0.121143	0.401797	0.161256	0.108198	0.134991	0.220034	0.205110	0.070633	0.245453	0.180628	0.382441	0.196213	0.049340	0.304768	0.263141	0.125576	0.067119	0.153063	0.177971	0.285995	0.088687	0.314812	0.275646	0.262271	0.125993	0.270369	0.237008	0.116198	0.230186	0.349653	0.200317
6	0.174705	0.328750	0.346937	0.556419	0.267378	0.205011	0.246166	0.165132	0.196644	0.347663	0.209201	0.126989	0.289078	0.382128	0.259536	0.263025	0.105756	0.079839	0.206009	0.334674	0.152606	0.152068	0.192293	0.246187	0.065348	0.054486	0.373741	0.309813	0.099041	0.180643	0.255395	0.207844	0.062956	0.124858	0.294338	0.229979	0.065379	0.145378	0.220507	0.261584	0.063712	0.071001	0.217542	0.134894	0.159011	0.075915	0.153533	0.133876	0.263691	0.111239	0.423344	0.172879	0.104759	0.132052	0.205914	0.209940	0.070406	0.197914	0.245440	0.390713	0.186941	0.049262	0.299886	0.283963	0.144147	0.071948	0.151305	0.208538	0.264972	0.089677	0.308213	0.278225	0.252555	0.124800	0.272755	0.238385	0.105229	0.223318	0.343203	0.216348
7	0.129662	0.259480	0.391212	0.552643	0.264431	0.191301	0.252324	0.174910	0.177728	0.347410	0.213870	0.148405	0.237469	0.428421	0.262214	0.262092	0.112055	0.083535	0.205753	0.347484	0.236300	0.152737	0.191819	0.250289	0.069358	0.061857	0.384668	0.315356	0.094653	0.216238	0.263875	0.222837	0.071687	0.133356	0.292308	0.243420	0.065893	0.147388	0.221225	0.224860	0.051710	0.078669	0.198340	0.145748	0.153531	0.084888	0.180563	0.132845	0.264029	0.094044	0.422525	0.185093	0.097497	0.130874	0.204537	0.211919	0.070100	0.164887	0.298355	0.414666	0.200323	0.049299	0.297476	0.286775	0.146799	0.071135	0.134499	0.214281	0.237774	0.090585	0.310477	0.271115	0.244805	0.118739	0.333122	0.298746	0.103887	0.228196	0.339210	0.221249
8	0.115978	0.218639	0.478400	0.486536	0.268216	0.187117	0.256100	0.190438	0.148552	0.347998	0.215493	0.147918	0.234174	0.410778	0.264161	0.255296	0.116298	0.106859	0.216703	0.367935	0.234777	0.153543	0.190959	0.249765	0.074594	0.065786	0.412215	0.313514	0.089507	0.222526	0.267110	0.220121	0.074776	0.133592	0.287102	0.273424	0.067918	0.143890	0.212393	0.200955	0.050406	0.081834	0.172473	0.162387	0.152241	0.109592	0.161590	0.135906	0.269940	0.082065	0.423808	0.187822	0.080266	0.115554	0.204215	0.195465	0.062322	0.160241	0.318873	0.426579	0.175201	0.048710	0.298457	0.280159	0.148639	0.071484	0.135999	0.205746	0.227360	0.090997	0.314972	0.194879	0.243937	0.114831	0.357613	0.297292	0.099250	0.223435	0.334102	0.257986
9	0.091280	0.209174	0.493312	0.378692	0.359755	0.218565	0.245256	0.192165	0.144561	0.347782	0.226780	0.148159	0.236248	0.393216	0.257128	0.256463	0.132970	0.143990	0.247190	0.365919	0.237602	0.156020	0.195444	0.259867	0.089169	0.064478	0.418803	0.288120	0.097458	0.228689	0.271623	0.228833	0.073214	0.133797	0.300242	0.278708	0.067667	0.134396	0.211054	0.191142	0.050265	0.082919	0.162744	0.171200	0.122891	0.115381	0.172470	0.137549	0.276974	0.078524	0.423853	0.235130	0.077691	0.106804	0.199602	0.162879	0.064457	0.158170	0.364674	0.425407	0.162437	0.059924	0.276027	0.273957	0.148664	0.071401	0.138118	0.222198	0.107017	0.088822	0.315060	0.161041	0.243632	0.116110	0.363300	0.285004	0.094215	0.265426	0.334669	0.411203
10	0.088184	0.190852	0.543770	0.369988	0.400011	0.275564	0.247404	0.192724	0.146212	0.341321	0.269516	0.334914	0.239074	0.424552	0.223427	0.255207	0.145830	0.164544	0.248402	0.365314	0.258327	0.157676	0.205222	0.268531	0.093269	0.063399	0.438325	0.287742	0.101932	0.229391	0.271286	0.257907	0.071353	0.134175	0.308698	0.276858	0.060434	0.130666	0.206100	0.192850	0.053157	0.081984	0.166196	0.185761	0.089653	0.129991	0.171861	0.136289	0.281097	0.080536	0.422052	0.315758	0.075939	0.110988	0.176837	0.197760	0.069288	0.149475	0.392179	0.424297	0.186000	0.074705	0.237893	0.273590	0.148651	0.071576	0.157668	0.220534	0.066727	0.088745	0.322290	0.227230	0.251261	0.120736	0.413377	0.281707	0.099725	0.331979	0.346419	0.445016
11	0.088890	0.184076	0.523974	0.329984	0.434908	0.275063	0.252188	0.331646	0.149460	0.305490	0.313735	0.612150	0.240382	0.427135	0.220387	0.280237	0.146843	0.169139	0.250415	0.370908	0.273208	0.153330	0.204780	0.264661	0.093735	0.065860	0.444575	0.287983	0.099358	0.228565	0.260284	0.255217	0.070981	0.133811	0.308987	0.277658	0.055382	0.139105	0.189822	0.201161	0.069681	0.096672	0.181437	0.484286	0.088410	0.141831	0.168474	0.137144	0.282531	0.084220	0.421806	0.320178	0.075520	0.119671	0.172848	0.301973	0.090965	0.140457	0.391839	0.422064	0.237596	0.095139	0.222371	0.289175	0.144961	0.071472	0.162628	0.221509	0.065890	0.097275	0.323262	0.255194	0.256533	0.117982	0.461347	0.279107	0.104274	0.364000	0.345595	0.460837
12	0.091539	0.182546	0.511216	0.285664	0.443502	0.304853	0.244956	0.344162	0.159456	0.293087	0.342405	0.626776	0.240407	0.445100	0.215462	0.301494	0.145399	0.169866	0.250384	0.388793	0.274010	0.145712	0.201231	0.259629	0.093853	0.063296	0.449508	0.289870	0.099059	0.226979	0.251405	0.280765	0.070928	0.133057	0.304180	0.279440	0.057312	0.152417	0.189219	0.197510	0.070264	0.138080	0.187428	0.538730	0.089758	0.171967	0.184905	0.146713	0.309694	0.086151	0.420778	0.326922	0.075521	0.134449	0.147739	0.362062	0.094506	0.125331	0.391945	0.475379	0.272698	0.113906	0.223461	0.290326	0.142030	0.073058	0.185132	0.221573	0.071096	0.102515	0.313725	0.248466	0.258102	0.117539	0.467503	0.282015	0.102970	0.427527	0.292958	0.517073
13	0.098991	0.181078	0.520446	0.254942	0.451363	0.316938	0.212599	0.360083	0.134454	0.201720	0.342562	0.648440	0.239626	0.467613	0.210164	0.318830	0.144539	0.169898	0.258781	0.390121	0.295656	0.141790	0.202171	0.237945	0.093262	0.061369	0.454753	0.290182	0.097895	0.225535	0.273599	0.290929	0.070260	0.133075	0.304024	0.256660	0.059210	0.154537	0.217103	0.177955	0.069847	0.171335	0.189232	0.545753	0.078064	0.220768	0.191998	0.157310	0.324838	0.096841	0.411626	0.332003	0.076102	0.148780	0.186281	0.372142	0.095193	0.111430	0.400539	0.495564	0.287036	0.113809	0.230606	0.293337	0.140617	0.073842	0.203567	0.252771	0.075311	0.119266	0.299920	0.241731	0.258203	0.121404	0.467561	0.316030	0.108282	0.480613	0.276727	0.565618
14	0.097522	0.179140	0.496043	0.222699	0.434972	0.310990	0.211984	0.387806	0.132149	0.115953	0.342711	0.688333	0.241053	0.476196	0.206088	0.314424	0.143939	0.169676	0.273921	0.389085	0.300663	0.148032	0.231654	0.229940	0.095720	0.062553	0.476889	0.294183	0.098105	0.224519	0.292579	0.316988	0.070080	0.131624	0.309753	0.257047	0.060447	0.147987	0.226564	0.189203	0.162508	0.201050	0.195518	0.562804	0.108816	0.222258	0.189478	0.305229	0.311001	0.127493	0.411901	0.331671	0.075402	0.151484	0.277029	0.372734	0.093845	0.105923	0.411337	0.503266	0.288176	0.113790	0.259789	0.286967	0.141939	0.076088	0.205902	0.289356	0.076816	0.153864	0.273040	0.250286	0.255188	0.119061	0.443400	0.336870	0.107473	0.495409	0.272575	0.595087
15	0.098111	0.167472	0.480880	0.211493	0.422815	0.303682	0.281564	0.423083	0.131702	0.127320	0.347439	0.727133	0.240894	0.503982	0.183988	0.271263	0.144217	0.169133	0.274228	0.390150	0.303589	0.152259	0.239566	0.226568	0.096060	0.062979	0.492964	0.293750	0.101918	0.225605	0.356287	0.314389	0.069931	0.130836	0.308695	0.250978	0.059168	0.134638	0.239533	0.221053	0.254327	0.206181	0.243233	0.596778	0.133157	0.228766	0.197987	0.364724	0.287848	0.154874	0.417033	0.333066	0.104159	0.139510	0.279514	0.372862	0.093487	0.105025	0.451700	0.510914	0.288500	0.112193	0.270600	0.281170	0.138682	0.077488	0.209164	0.293336	0.098802	0.166355	0.245354	0.275081	0.239921	0.114855	0.416036	0.345965	0.121912	0.537342	0.263184	0.602464
16	0.096955	0.160334	0.492516	0.241508	0.423783	0.300243	0.303731	0.429932	0.121416	0.168247	0.319789	0.737241	0.226530	0.536429	0.173054	0.259634	0.144686	0.165291	0.252856	0.399578	0.297925	0.150862	0.227603	0.227499	0.098924	0.059349	0.495994	0.297487	0.102667	0.226315	0.386738	0.333775	0.070051	0.130930	0.282585	0.242332	0.062287	0.138366	0.239312	0.213317	0.263385	0.261697	0.265005	0.656060	0.139306	0.241118	0.252094	0.367105	0.232982	0.166084	0.390413	0.331619	0.100699	0.130538	0.298217	0.389008	0.094430	0.102598	0.450449	0.477343	0.279310	0.108545	0.270448	0.277322	0.133829	0.079914	0.209563	0.294016	0.114084	0.165070	0.249865	0.282539	0.230004	0.120897	0.422650	0.345551	0.131372	0.544997	0.273925	0.603279
17	0.092639	0.153276	0.508489	0.271665	0.423593	0.290314	0.303154	0.426071	0.114094	0.195350	0.309951	0.741997	0.211460	0.558050	0.175060	0.278924	0.142691	0.159728	0.235852	0.329610	0.305617	0.135426	0.236453	0.231202	0.097031	0.079268	0.534590	0.300241	0.095426	0.225770	0.490113	0.336791	0.065422	0.131094	0.273785	0.249414	0.066376	0.144319	0.239588	0.199578	0.286700	0.305145	0.285508	0.668454	0.141822	0.242704	0.285415	0.363233	0.227741	0.168534	0.368458	0.338018	0.100090	0.123614	0.319597	0.398806	0.091625	0.103648	0.506597	0.465394	0.275212	0.119861	0.264805	0.268835	0.129078	0.077088	0.221024	0.290899	0.132015	0.164657	0.254734	0.284871	0.218056	0.122011	0.428486	0.345212	0.129862	0.553031	0.257628	0.603582
18	0.090091	0.131405	0.513370	0.293235	0.407888	0.283990	0.300162	0.428575	0.129960	0.219704	0.310147	0.747793	0.205346	0.574426	0.179902	0.289341	0.122673	0.157333	0.236121	0.321146	0.316873	0.105118	0.235236	0.265916	0.101866	0.113846	0.549931	0.301924	0.092736	0.210305	0.502340	0.341853	0.064353	0.119515	0.225031	0.232633	0.069658	0.144384	0.239915	0.197024	0.290924	0.314572	0.278399	0.667854	0.141873	0.243156	0.301075	0.378387	0.230326	0.169017	0.372725	0.343422	0.101195	0.122197	0.324494	0.406350	0.089524	0.114765	0.521742	0.464965	0.275686	0.141010	0.263166	0.266892	0.089023	0.064585	0.219198	0.323174	0.134832	0.171213	0.249368	0.334404	0.211836	0.114643	0.434482	0.330993	0.124996	0.563109	0.241658	0.600270
19	0.086041	0.123081	0.513603	0.298993	0.407339	0.289450	0.314201	0.430903	0.137890	0.221762	0.322409	0.749075	0.205150	0.580512	0.203188	0.299866	0.112227	0.166136	0.249616	0.313580	0.299884	0.093844	0.232959	0.278228	0.105002	0.131083	0.553313	0.318632	0.084635	0.180427	0.572967	0.336929	0.060033	0.078694	0.216756	0.214325	0.066179	0.138722	0.239468	0.199030	0.293392	0.312319	0.260841	0.665859	0.159318	0.259707	0.338245	0.408219	0.237169	0.169216	0.342509	0.338385	0.102097	0.121813	0.337281	0.428676	0.090266	0.124427	0.535126	0.466686	0.271400	0.146683	0.257202	0.244604	0.070433	0.072427	0.209670	0.316030	0.131749	0.179764	0.250353	0.364070	0.144877	0.112866	0.449827	0.322691	0.123127	0.564209	0.231976	0.599587
20	0.082215	0.121323	0.513205	0.296962	0.406446	0.296420	0.300693	0.425154	0.137995	0.229346	0.366566	0.757512	0.162743	0.582265	0.228834	0.301247	0.111000	0.169258	0.252143	0.296950	0.250495	0.094685	0.232672	0.271567	0.103596	0.140174	0.527153	0.322095	0.086973	0.199613	0.632136	0.331933	0.051626	0.045783	0.221583	0.209317	0.068035	0.135342	0.224397	0.198403	0.293946	0.311939	0.258794	0.662417	0.165366	0.271283	0.339174	0.427895	0.241158	0.172403	0.338196	0.342516	0.101711	0.122639	0.353526	0.440376	0.089022	0.120179	0.532231	0.477935	0.271147	0.146953	0.251425	0.221127	0.062308	0.076829	0.213903	0.303426	0.129675	0.182612	0.242426	0.365624	0.121156	0.101297	0.450921	0.321156	0.125361	0.553487	0.221885	0.593794
21	0.079169	0.121026	0.489466	0.294462	0.327565	0.286616	0.301236	0.423594	0.137960	0.254446	0.335734	0.712628	0.129314	0.537931	0.229953	0.297630	0.100656	0.149662	0.244434	0.296776	0.257015	0.094792	0.296786	0.269077	0.102163	0.140026	0.497026	0.324096	0.093248	0.206546	0.638579	0.325811	0.044235	0.044798	0.258539	0.173036	0.067925	0.133623	0.213630	0.198433	0.295135	0.312760	0.260695	0.659454	0.170026	0.269604	0.337444	0.437252	0.235299	0.177253	0.337540	0.348254	0.103716	0.125655	0.362567	0.441620	0.089420	0.119643	0.496523	0.475788	0.267081	0.146935	0.230941	0.198435	0.061414	0.084267	0.223806	0.294760	0.128747	0.181643	0.220872	0.366607	0.121052	0.095068	0.458625	0.320990	0.125738	0.550386	0.227654	0.585186
22	0.073485	0.117459	0.390138	0.291964	0.293508	0.220998	0.301595	0.423227	0.140351	0.287977	0.296192	0.501339	0.126999	0.480144	0.227494	0.297624	0.070893	0.118465	0.245076	0.298060	0.258433	0.095839	0.362104	0.225152	0.098452	0.136039	0.470584	0.321511	0.096221	0.163279	0.639123	0.317933	0.042278	0.055133	0.254299	0.150991	0.068201	0.132828	0.214305	0.218596	0.298585	0.315142	0.266682	0.659351	0.171678	0.265777	0.342200	0.442472	0.225805	0.182846	0.338601	0.326115	0.104092	0.127313	0.362211	0.441251	0.089116	0.118101	0.491731	0.460710	0.254518	0.146910	0.248497	0.197284	0.061532	0.092740	0.222670	0.285937	0.128241	0.177238	0.217811	0.379127	0.123754	0.096672	0.434407	0.273071	0.125714	0.560220	0.221752	0.583237
23	0.072638	0.112511	0.377202	0.286265	0.235133	0.218419	0.298962	0.339066	0.128795	0.305692	0.260380	0.491425	0.124201	0.445003	0.238780	0.297233	0.058061	0.110009	0.252954	0.302297	0.237183	0.093334	0.371765	0.201879	0.094341	0.135704	0.449661	0.318604	0.094108	0.150752	0.636785	0.313220	0.041340	0.055323	0.235159	0.184630	0.067430	0.130390	0.205886	0.217806	0.310992	0.314694	0.266970	0.597694	0.171343	0.260486	0.339368	0.444367	0.221809	0.187390	0.338811	0.241181	0.104357	0.125232	0.359286	0.427380	0.091124	0.121262	0.479417	0.454855	0.254268	0.148487	0.272098	0.210258	0.061366	0.093996	0.207300	0.284739	0.126843	0.177994	0.207354	0.367847	0.128310	0.094415	0.404388	0.252634	0.125048	0.565559	0.209924	0.581068
24	0.072913	0.101199	0.282298	0.281787	0.240823	0.185192	0.296655	0.307181	0.127546	0.311822	0.257266	0.483798	0.121614	0.445402	0.229877	0.294883	0.054988	0.109291	0.265149	0.279268	0.222672	0.095054	0.370880	0.201252	0.079788	0.137974	0.432532	0.313976	0.090379	0.135899	0.634941	0.310369	0.040896	0.055103	0.236092	0.225987	0.065183	0.129976	0.200416	0.219176	0.309771	0.304709	0.284924	0.434979	0.170682	0.253807	0.339435	0.445074	0.219554	0.187573	0.336690	0.236672	0.105969	0.116176	0.358519	0.357393	0.090838	0.129976	0.466964	0.458985	0.253029	0.147113	0.286900	0.216276	0.061266	0.094210	0.206369	0.286876	0.126609	0.173687	0.199520	0.339543	0.128786	0.089693	0.403346	0.261033	0.125319	0.566087	0.217205	0.545012
25	0.074661	0.094417	0.278673	0.276391	0.188983	0.143943	0.295764	0.286655	0.126164	0.311971	0.264498	0.426354	0.114922	0.423471	0.230402	0.294417	0.057648	0.109855	0.295656	0.261354	0.217166	0.100735	0.370670	0.201264	0.079956	0.145045	0.429061	0.313884	0.074710	0.132701	0.630103	0.276203	0.041292	0.055132	0.240036	0.231643	0.067050	0.130431	0.204965	0.218043	0.309825	0.287002	0.305486	0.425387	0.167991	0.249916	0.337797	0.442929	0.172768	0.192173	0.326371	0.237755	0.107944	0.098756	0.359205	0.288254	0.078120	0.133451	0.453178	0.459725	0.233370	0.145281	0.291767	0.204587	0.061802	0.096783	0.180518	0.310477	0.122511	0.170884	0.198167	0.339033	0.116226	0.084878	0.367868	0.266766	0.125329	0.530416	0.213438	0.448154
26	0.073901	0.109034	0.287504	0.271349	0.232295	0.148469	0.287399	0.277181	0.123506	0.297515	0.267691	0.353203	0.111019	0.413062	0.220123	0.284096	0.058168	0.111867	0.269225	0.261019	0.186510	0.101724	0.370301	0.192998	0.079487	0.148951	0.416423	0.290213	0.074929	0.132346	0.628074	0.266059	0.042741	0.054838	0.249825	0.239348	0.066207	0.127782	0.205412	0.219535	0.305463	0.268787	0.302521	0.407524	0.167823	0.182235	0.319958	0.441133	0.108355	0.198700	0.328659	0.309307	0.109769	0.075966	0.345549	0.268439	0.060989	0.130513	0.456741	0.431773	0.166648	0.131364	0.290585	0.185513	0.070928	0.107543	0.175275	0.287942	0.119289	0.159100	0.191861	0.336673	0.091018	0.087580	0.302240	0.274591	0.118194	0.494975	0.194126	0.435596
27	0.056603	0.118834	0.277106	0.288982	0.276768	0.157917	0.212779	0.222056	0.117062	0.277097	0.275533	0.344775	0.110492	0.403675	0.217195	0.257435	0.058795	0.112334	0.258113	0.262624	0.188357	0.088984	0.352269	0.185745	0.079798	0.153016	0.420320	0.304947	0.075200	0.132335	0.629029	0.250130	0.044724	0.055950	0.243308	0.245714	0.067326	0.114229	0.204282	0.237435	0.224608	0.255436	0.290881	0.372964	0.156693	0.180002	0.317829	0.396284	0.098952	0.197945	0.392983	0.320376	0.107392	0.067802	0.273090	0.276355	0.063430	0.130099	0.466426	0.388184	0.123932	0.118546	0.289578	0.177383	0.068994	0.117722	0.173680	0.260520	0.117638	0.145624	0.189935	0.329589	0.089099	0.096343	0.289387	0.267190	0.115519	0.480301	0.195984	0.397922
28	0.054025	0.124291	0.286070	0.431077	0.273747	0.231180	0.159623	0.190214	0.126557	0.262741	0.277631	0.337322	0.109651	0.376524	0.217082	0.239394	0.059657	0.119003	0.255823	0.244539	0.189520	0.085178	0.339540	0.186355	0.078900	0.155690	0.399908	0.290664	0.075857	0.132941	0.625191	0.227258	0.045292	0.058120	0.232784	0.232300	0.064900	0.099733	0.195255	0.260252	0.191158	0.238161	0.264684	0.277211	0.129305	0.177457	0.315698	0.290221	0.100923	0.175539	0.386987	0.334413	0.064597	0.073963	0.263908	0.281374	0.066301	0.135068	0.473405	0.386401	0.084712	0.118356	0.277256	0.175283	0.069884	0.120842	0.172137	0.264553	0.100230	0.126785	0.177252	0.309300	0.094263	0.102052	0.298362	0.222351	0.113665	0.406774	0.200966	0.315819
29	0.057299	0.130860	0.288503	0.443841	0.273018	0.342569	0.155207	0.187462	0.111494	0.252552	0.286220	0.316223	0.102038	0.359230	0.211024	0.200572	0.058707	0.134430	0.251763	0.168383	0.195132	0.088195	0.329451	0.185014	0.077030	0.155477	0.357362	0.306422	0.077413	0.133504	0.618852	0.200893	0.051335	0.059314	0.231524	0.233651	0.064789	0.097963	0.153100	0.269183	0.152802	0.173910	0.273961	0.146664	0.112504	0.156743	0.292969	0.275875	0.101758	0.162513	0.372170	0.329814	0.062519	0.071578	0.237634	0.260636	0.069507	0.147171	0.444935	0.349192	0.081023	0.117944	0.243720	0.179727	0.072710	0.118055	0.187925	0.274301	0.078879	0.127885	0.163710	0.303223	0.099085	0.106812	0.299383	0.189866	0.107176	0.440363	0.207459	0.224819
30	0.060210	0.129018	0.310179	0.430167	0.303189	0.400947	0.153925	0.189131	0.102255	0.258251	0.281147	0.317934	0.091027	0.339655	0.209809	0.194512	0.052257	0.146552	0.258512	0.164198	0.176583	0.090277	0.321944	0.172300	0.073477	0.155103	0.357385	0.310818	0.072375	0.131470	0.571939	0.195641	0.061278	0.058538	0.231802	0.218359	0.064252	0.097866	0.131624	0.250014	0.134609	0.136860	0.254269	0.135312	0.104957	0.148445	0.234406	0.277137	0.104788	0.167714	0.366541	0.318574	0.061996	0.106849	0.206127	0.241239	0.070978	0.160568	0.413301	0.274160	0.080587	0.118553	0.237620	0.199724	0.088500	0.127211	0.179211	0.278614	0.048650	0.131174	0.152077	0.303894	0.097550	0.104689	0.298367	0.171325	0.102292	0.469249	0.213858	0.157717
31	0.059952	0.198481	0.301456	0.429053	0.308362	0.410221	0.119906	0.189728	0.102070	0.264367	0.203224	0.304149	0.086380	0.276616	0.207423	0.190486	0.050995	0.167679	0.251975	0.170936	0.165727	0.088871	0.315499	0.122477	0.070898	0.153404	0.320854	0.318394	0.069339	0.129630	0.561505	0.169349	0.061547	0.058244	0.232954	0.218607	0.062946	0.095553	0.108757	0.231503	0.130404	0.132920	0.251484	0.135529	0.103989	0.148184	0.225794	0.269886	0.103378	0.214325	0.368556	0.310969	0.062172	0.119689	0.192743	0.218977	0.071184	0.170135	0.380544	0.251598	0.083797	0.120538	0.249313	0.218035	0.095982	0.131057	0.175845	0.227036	0.023054	0.121456	0.138117	0.255475	0.091212	0.098618	0.290164	0.189053	0.072477	0.474567	0.215613	0.129794
32	0.062641	0.255641	0.298430	0.436412	0.325438	0.446050	0.079615	0.184129	0.100448	0.242427	0.205080	0.270936	0.084907	0.226671	0.207168	0.164865	0.056123	0.180069	0.245690	0.201216	0.167137	0.101436	0.315790	0.110362	0.064299	0.137415	0.233957	0.305615	0.067803	0.128883	0.472131	0.134865	0.066332	0.057392	0.226571	0.220458	0.057357	0.081956	0.107012	0.230116	0.128463	0.132209	0.251464	0.137252	0.092721	0.138057	0.169849	0.223265	0.098842	0.260200	0.366565	0.340003	0.062251	0.148382	0.163868	0.164136	0.070425	0.170289	0.311933	0.250214	0.075645	0.109179	0.256237	0.219769	0.140577	0.127999	0.168581	0.208823	0.023875	0.158690	0.129440	0.199378	0.090238	0.094958	0.271138	0.206318	0.062375	0.479551	0.191130	0.165032
33	0.069330	0.256211	0.303242	0.459396	0.328917	0.556340	0.067109	0.184523	0.092724	0.217972	0.203144	0.259850	0.073268	0.183418	0.202393	0.140125	0.056112	0.184093	0.239486	0.304994	0.165713	0.136179	0.314090	0.108935	0.059031	0.123565	0.226940	0.283745	0.064840	0.129296	0.436633	0.145552	0.074746	0.064825	0.228919	0.222538	0.049385	0.076378	0.104885	0.229730	0.127967	0.134472	0.252443	0.134582	0.064709	0.151624	0.114562	0.185302	0.089725	0.269199	0.367880	0.336265	0.066194	0.160388	0.121871	0.119758	0.068559	0.160502	0.302713	0.250379	0.063738	0.081648	0.251607	0.221218	0.198423	0.124430	0.160046	0.208809	0.025698	0.200437	0.122252	0.194366	0.090052	0.101763	0.267506	0.229325	0.070203	0.492362	0.171296	0.201954
34	0.072778	0.264945	0.309652	0.475864	0.325555	0.638207	0.064368	0.188724	0.086322	0.197226	0.202708	0.255787	0.041258	0.143755	0.191398	0.117742	0.054876	0.212442	0.216075	0.451856	0.174891	0.162532	0.226689	0.110265	0.047251	0.111452	0.211598	0.269695	0.064601	0.127368	0.383274	0.155787	0.081286	0.066304	0.232006	0.240635	0.044273	0.127340	0.104352	0.229496	0.120504	0.142434	0.254216	0.146175	0.053098	0.207917	0.106897	0.175889	0.087617	0.264859	0.368462	0.329824	0.071657	0.202389	0.083244	0.114560	0.063311	0.154121	0.268640	0.252933	0.059072	0.075050	0.251352	0.222043	0.265994	0.120474	0.142651	0.209606	0.024685	0.258579	0.103831	0.192281	0.094033	0.118581	0.228976	0.235552	0.069538	0.494634	0.167031	0.207461
35	0.072070	0.268384	0.309662	0.476013	0.318562	0.641500	0.059961	0.191516	0.081483	0.240836	0.208035	0.214766	0.041367	0.150617	0.153336	0.110926	0.053619	0.237524	0.249148	0.464668	0.205008	0.169057	0.121788	0.109433	0.054233	0.106311	0.234309	0.264287	0.064408	0.102572	0.211735	0.162047	0.086416	0.056583	0.224782	0.277623	0.042119	0.136331	0.094120	0.229159	0.089583	0.150705	0.252687	0.188147	0.049334	0.291964	0.088908	0.159591	0.087049	0.262218	0.367684	0.331226	0.076651	0.329731	0.085541	0.113396	0.059317	0.155231	0.261000	0.229018	0.114459	0.114531	0.247530	0.227417	0.287854	0.122474	0.160923	0.220526	0.033075	0.325825	0.100088	0.168049	0.094131	0.134157	0.221970	0.236952	0.069082	0.592345	0.165700	0.201010
36	0.075231	0.274034	0.310108	0.475224	0.302993	0.641285	0.052736	0.192185	0.089228	0.258631	0.233363	0.213228	0.036870	0.173887	0.144406	0.111296	0.056414	0.258741	0.412436	0.487202	0.211348	0.205517	0.094659	0.110945	0.073718	0.117358	0.247174	0.261009	0.054916	0.091762	0.148931	0.164296	0.112385	0.052142	0.231547	0.276622	0.033182	0.142614	0.092175	0.229492	0.064408	0.162157	0.232516	0.206678	0.047344	0.299071	0.072678	0.148085	0.079078	0.259170	0.369614	0.334106	0.082050	0.376096	0.087709	0.113537	0.063324	0.200276	0.272372	0.213055	0.118114	0.167277	0.251125	0.232141	0.320258	0.124693	0.164761	0.245124	0.036458	0.337387	0.103476	0.116941	0.097009	0.138443	0.210320	0.270827	0.064311	0.635812	0.162804	0.201158
37	0.072883	0.296122	0.312655	0.475821	0.296790	0.641058	0.055963	0.200866	0.088843	0.272958	0.265820	0.214693	0.043635	0.208590	0.146078	0.111696	0.057136	0.271679	0.457282	0.494070	0.210595	0.230318	0.095044	0.111409	0.082600	0.125033	0.247093	0.262193	0.048502	0.095884	0.140121	0.163786	0.178119	0.052931	0.246585	0.232682	0.031154	0.172677	0.081929	0.227569	0.064177	0.169032	0.196635	0.207891	0.054250	0.303776	0.070920	0.159409	0.077615	0.257211	0.367543	0.331348	0.081101	0.399587	0.098374	0.113059	0.067146	0.238063	0.260492	0.211675	0.129842	0.212720	0.220483	0.230627	0.330815	0.123425	0.169777	0.237635	0.047325	0.356365	0.112869	0.085082	0.097473	0.137870	0.194231	0.386211	0.078929	0.646338	0.140022	0.199198
38	0.072590	0.312103	0.350318	0.481477	0.274555	0.640200	0.059472	0.175207	0.084302	0.285362	0.258402	0.192659	0.049314	0.270370	0.140138	0.109125	0.079210	0.274468	0.494150	0.504746	0.210448	0.233816	0.098257	0.111350	0.083506	0.124654	0.251100	0.262519	0.051530	0.099730	0.134554	0.164330	0.182692	0.054073	0.289521	0.220897	0.029110	0.256796	0.080017	0.210049	0.062759	0.170621	0.188952	0.216150	0.074442	0.304202	0.070823	0.168912	0.078426	0.254102	0.369152	0.313585	0.078546	0.402480	0.098584	0.111212	0.076347	0.267871	0.245578	0.202883	0.172078	0.211735	0.189575	0.217509	0.344864	0.120054	0.193651	0.209688	0.057734	0.372215	0.117201	0.077707	0.092403	0.137987	0.251376	0.441212	0.086804	0.639981	0.138618	0.191584
39	0.073833	0.335103	0.372292	0.505694	0.210849	0.638744	0.061048	0.158673	0.069153	0.283231	0.285467	0.181836	0.051028	0.280229	0.137824	0.104100	0.080488	0.276981	0.582602	0.531590	0.204349	0.235850	0.101744	0.111899	0.088050	0.127981	0.254263	0.267308	0.052839	0.186648	0.136533	0.165403	0.182673	0.059017	0.401429	0.211845	0.027264	0.298427	0.081560	0.209955	0.058243	0.171308	0.229091	0.233800	0.074660	0.309400	0.070677	0.176272	0.080612	0.247649	0.366017	0.231815	0.075378	0.402971	0.097424	0.109695	0.080668	0.362180	0.445621	0.206846	0.239780	0.242565	0.166757	0.202530	0.346375	0.107985	0.217741	0.241435	0.060734	0.373478	0.115420	0.113874	0.091149	0.143392	0.258301	0.435337	0.086293	0.649939	0.131238	0.191747
40	0.080097	0.347309	0.364098	0.524396	0.215757	0.620620	0.073833	0.167287	0.067140	0.282681	0.312180	0.179837	0.054326	0.296496	0.122609	0.104401	0.083200	0.278926	0.603945	0.535454	0.194121	0.236407	0.089014	0.111558	0.140012	0.127917	0.286727	0.260130	0.132777	0.273920	0.134337	0.167049	0.184782	0.074550	0.416700	0.205833	0.026466	0.300926	0.083277	0.210406	0.058251	0.170875	0.236146	0.243140	0.075525	0.330486	0.072981	0.177709	0.079559	0.235575	0.291715	0.208269	0.074608	0.402521	0.094973	0.088593	0.081904	0.373374	0.462571	0.255724	0.273319	0.280944	0.158541	0.192293	0.350217	0.096897	0.248841	0.243265	0.061555	0.372037	0.114601	0.127859	0.091857	0.154768	0.331805	0.430952	0.086874	0.650250	0.134371	0.192370
41	0.089062	0.360278	0.358840	0.511679	0.253492	0.574637	0.078226	0.170214	0.068191	0.278339	0.314700	0.170521	0.059649	0.292566	0.103478	0.098256	0.094348	0.274439	0.606475	0.535164	0.182776	0.236318	0.088481	0.115829	0.154809	0.165008	0.287744	0.287249	0.272070	0.364822	0.129940	0.169178	0.186784	0.087772	0.421993	0.202961	0.022950	0.301719	0.097566	0.225172	0.058428	0.161070	0.202062	0.247276	0.073915	0.347104	0.073728	0.179603	0.075195	0.232804	0.280430	0.186764	0.073676	0.402677	0.113957	0.065674	0.088287	0.388009	0.535833	0.251673	0.289531	0.282245	0.164465	0.191129	0.351684	0.092172	0.251627	0.263878	0.061547	0.376642	0.116074	0.130072	0.093277	0.167787	0.352383	0.426669	0.097001	0.663248	0.188799	0.240322
42	0.092079	0.379951	0.323849	0.404770	0.251284	0.521339	0.086457	0.162419	0.073183	0.270265	0.314744	0.159236	0.061206	0.289164	0.100343	0.090877	0.095903	0.272167	0.602259	0.536409	0.174996	0.235439	0.095034	0.119991	0.160133	0.194798	0.279323	0.310854	0.375500	0.368393	0.127857	0.170821	0.186056	0.086440	0.423003	0.206298	0.023246	0.309089	0.119436	0.228047	0.049792	0.147921	0.198152	0.251940	0.073337	0.360072	0.074270	0.179074	0.073337	0.233330	0.207644	0.197149	0.072456	0.404644	0.115317	0.062236	0.095528	0.400398	0.559966	0.247758	0.324185	0.285633	0.169113	0.192459	0.351123	0.089240	0.235675	0.274068	0.061623	0.377165	0.116740	0.135207	0.101447	0.174750	0.398313	0.425633	0.098508	0.669277	0.281302	0.299026
43	0.088314	0.378020	0.352468	0.378101	0.266866	0.519012	0.087702	0.151120	0.071551	0.352522	0.315669	0.141996	0.061192	0.288705	0.102597	0.098833	0.106008	0.268047	0.601273	0.536354	0.173070	0.235168	0.094420	0.121548	0.160453	0.195238	0.280873	0.314426	0.457810	0.368272	0.123527	0.169566	0.184596	0.085738	0.424491	0.208941	0.028533	0.316604	0.123210	0.203546	0.041850	0.142509	0.198804	0.264642	0.073866	0.363382	0.074972	0.191527	0.066313	0.228870	0.202184	0.228397	0.071271	0.400933	0.116508	0.064392	0.099762	0.406657	0.589659	0.278376	0.354313	0.302130	0.170001	0.190794	0.348842	0.084797	0.243765	0.276727	0.062025	0.376443	0.131931	0.144325	0.098090	0.169584	0.402442	0.428058	0.098491	0.667693	0.320768	0.311964
44	0.087740	0.383389	0.448965	0.376878	0.325054	0.499361	0.089937	0.138735	0.071469	0.366306	0.314514	0.138231	0.061398	0.290523	0.120334	0.106499	0.115836	0.339593	0.600182	0.526961	0.169874	0.234740	0.093739	0.097120	0.160019	0.196753	0.290666	0.295851	0.488988	0.369262	0.117122	0.169537	0.183317	0.085403	0.430055	0.208843	0.028102	0.318142	0.126423	0.188153	0.032289	0.141616	0.200340	0.312627	0.074090	0.363018	0.079684	0.195198	0.063010	0.191593	0.166890	0.232377	0.067388	0.436108	0.115435	0.064062	0.098399	0.409909	0.636112	0.304374	0.513285	0.307270	0.179241	0.186278	0.346365	0.117132	0.254179	0.286913	0.063675	0.377773	0.147120	0.147433	0.092472	0.166692	0.418037	0.448801	0.099235	0.652820	0.321787	0.322888
45	0.087599	0.366040	0.509766	0.378824	0.349133	0.390598	0.127762	0.133240	0.071958	0.384966	0.315395	0.108571	0.062110	0.293019	0.132599	0.108555	0.133075	0.386243	0.598358	0.516714	0.168176	0.226097	0.093016	0.085206	0.160182	0.197638	0.291249	0.290417	0.605994	0.371972	0.117074	0.177864	0.182360	0.091406	0.431268	0.210791	0.033243	0.318405	0.156182	0.182362	0.029163	0.141033	0.211802	0.315058	0.074590	0.363585	0.084825	0.193720	0.042535	0.120044	0.183612	0.207507	0.064372	0.487229	0.112660	0.063699	0.098826	0.406187	0.666831	0.368845	0.606340	0.325706	0.209994	0.156118	0.333478	0.137357	0.254633	0.289600	0.065213	0.359078	0.146627	0.148344	0.086688	0.164754	0.467693	0.482220	0.098940	0.613959	0.317656	0.324626
46	0.087298	0.321979	0.512949	0.399570	0.351936	0.207048	0.191088	0.140289	0.066904	0.384973	0.325405	0.117698	0.065246	0.304206	0.131610	0.108640	0.135884	0.398646	0.598980	0.360846	0.164769	0.205008	0.091908	0.084738	0.160672	0.196993	0.368502	0.288375	0.761299	0.379379	0.123049	0.217469	0.180481	0.089760	0.441968	0.231803	0.034649	0.318477	0.220675	0.188784	0.029748	0.131183	0.337227	0.318538	0.075290	0.411595	0.091070	0.193915	0.037638	0.087642	0.224623	0.199204	0.061782	0.491107	0.113210	0.067178	0.099485	0.403348	0.675578	0.393769	0.606581	0.356308	0.213259	0.130850	0.293526	0.138833	0.255300	0.289528	0.065122	0.346220	0.147183	0.146842	0.086636	0.164587	0.473666	0.508861	0.101353	0.619013	0.324739	0.340627
47	0.087789	0.346043	0.512534	0.415880	0.366964	0.164226	0.215518	0.152465	0.060737	0.412851	0.313799	0.168986	0.065714	0.311266	0.132189	0.108299	0.146887	0.433653	0.599913	0.344608	0.123248	0.202824	0.105396	0.085494	0.180664	0.215095	0.424860	0.344680	0.778800	0.385714	0.133935	0.244961	0.175318	0.085186	0.442848	0.254840	0.034720	0.319078	0.242920	0.244240	0.029352	0.119738	0.373192	0.355530	0.073623	0.474276	0.103307	0.190939	0.049832	0.092061	0.324021	0.233646	0.056632	0.483435	0.118695	0.060483	0.101191	0.401713	0.705585	0.411306	0.608811	0.373229	0.198394	0.137134	0.239255	0.137049	0.258220	0.287168	0.066156	0.299204	0.147395	0.146165	0.086613	0.169673	0.486053	0.519161	0.102216	0.604695	0.361479	0.353901
48	0.085228	0.460100	0.515566	0.397560	0.381435	0.163812	0.235393	0.155802	0.061906	0.446431	0.281607	0.166333	0.064067	0.318081	0.132432	0.105624	0.179199	0.430165	0.548642	0.309229	0.078394	0.192177	0.105914	0.137013	0.193606	0.236377	0.433595	0.391655	0.781176	0.387448	0.139098	0.235238	0.173517	0.086024	0.430866	0.227871	0.034714	0.320768	0.242903	0.279804	0.054610	0.111101	0.487216	0.348810	0.071375	0.455395	0.105956	0.192894	0.072059	0.089472	0.474328	0.238009	0.059761	0.434049	0.120695	0.094822	0.103542	0.404333	0.733428	0.440311	0.609968	0.374635	0.203657	0.136759	0.211640	0.134872	0.256084	0.276793	0.071081	0.225144	0.138627	0.146635	0.089957	0.172216	0.490168	0.521785	0.106447	0.618735	0.403287	0.344147
49	0.088637	0.558637	0.536937	0.421153	0.383648	0.167287	0.238322	0.148102	0.057888	0.437218	0.328759	0.191596	0.063896	0.359805	0.133781	0.104168	0.177790	0.425574	0.446268	0.281393	0.076542	0.166673	0.110438	0.162861	0.201514	0.241148	0.427284	0.419882	0.784011	0.387680	0.161152	0.222492	0.170326	0.086629	0.429538	0.207849	0.034990	0.320365	0.244448	0.290791	0.073695	0.094806	0.502845	0.403317	0.069262	0.464173	0.106923	0.193440	0.078556	0.093489	0.482492	0.232205	0.050649	0.436449	0.127391	0.114598	0.119965	0.411969	0.741410	0.428700	0.610320	0.374639	0.208149	0.123930	0.172868	0.140449	0.272683	0.277120	0.076865	0.213718	0.140320	0.148793	0.089897	0.168360	0.495855	0.524290	0.109048	0.616508	0.425112	0.340751
50	0.084890	0.591605	0.553175	0.426461	0.384036	0.172570	0.269023	0.153096	0.060409	0.435266	0.415886	0.211569	0.064386	0.383933	0.146290	0.088114	0.174398	0.421462	0.448558	0.285180	0.092190	0.156299	0.113280	0.164066	0.201885	0.247207	0.415857	0.434928	0.785278	0.387832	0.185177	0.217418	0.104936	0.086556	0.423165	0.228039	0.038637	0.307365	0.247597	0.291104	0.081799	0.090205	0.558289	0.455089	0.070011	0.481112	0.113004	0.193363	0.079303	0.096426	0.574357	0.233437	0.048078	0.420228	0.121377	0.121452	0.144473	0.419954	0.739746	0.422149	0.603713	0.363184	0.205864	0.110634	0.147636	0.149312	0.290231	0.377615	0.075913	0.287058	0.128466	0.152779	0.097171	0.160776	0.509864	0.524244	0.109839	0.602379	0.436736	0.351066
51	0.089532	0.602834	0.577640	0.457225	0.387415	0.181457	0.322166	0.175398	0.062639	0.430881	0.392602	0.258853	0.065676	0.391402	0.152424	0.081402	0.168057	0.421255	0.338443	0.257463	0.116585	0.178499	0.121163	0.173685	0.200787	0.349486	0.425081	0.435304	0.785076	0.385211	0.184816	0.225375	0.068895	0.092942	0.417264	0.365357	0.047052	0.308858	0.250483	0.292692	0.089063	0.088681	0.558986	0.495948	0.051709	0.499614	0.126054	0.202531	0.083578	0.126632	0.609294	0.251587	0.054577	0.416598	0.128476	0.121885	0.162390	0.400870	0.735009	0.421266	0.603727	0.363986	0.200130	0.106202	0.117858	0.154218	0.305536	0.389969	0.069626	0.282851	0.119468	0.151800	0.095966	0.156204	0.526212	0.523794	0.113374	0.508085	0.439168	0.354488
52	0.104074	0.595298	0.697807	0.456910	0.382546	0.187226	0.333789	0.168466	0.060201	0.432745	0.414145	0.262563	0.060115	0.415227	0.151621	0.085296	0.167263	0.419709	0.267537	0.232040	0.128996	0.217670	0.174924	0.233173	0.202847	0.427496	0.439032	0.459766	0.784941	0.390152	0.181320	0.254472	0.069657	0.098255	0.318521	0.404710	0.048649	0.303550	0.254760	0.306075	0.108959	0.137161	0.559021	0.532727	0.045101	0.531350	0.141556	0.204110	0.081855	0.133980	0.608954	0.269350	0.069627	0.417392	0.126359	0.124253	0.168935	0.407946	0.732044	0.424926	0.600177	0.451511	0.197789	0.100444	0.109232	0.160816	0.296453	0.385660	0.067263	0.284977	0.126287	0.130410	0.092660	0.155573	0.536135	0.459827	0.120734	0.483927	0.438506	0.354503
53	0.109304	0.581707	0.766913	0.443352	0.364696	0.188528	0.333180	0.164554	0.056796	0.432952	0.431521	0.274442	0.057486	0.413396	0.141715	0.095830	0.162522	0.418560	0.251464	0.224272	0.131493	0.220091	0.271894	0.241140	0.204586	0.466646	0.441483	0.603665	0.784849	0.394066	0.196779	0.282517	0.067297	0.103797	0.275307	0.409746	0.050596	0.293654	0.262649	0.306929	0.122198	0.168745	0.561593	0.536405	0.056012	0.524575	0.147228	0.220482	0.081751	0.132046	0.688276	0.336454	0.072105	0.421024	0.128450	0.127564	0.169642	0.331627	0.671575	0.425000	0.587691	0.490941	0.202157	0.114356	0.089851	0.163649	0.277667	0.389378	0.069466	0.284525	0.134511	0.127035	0.091362	0.155420	0.518196	0.382712	0.114355	0.495457	0.437739	0.353928
54	0.109293	0.570696	0.791167	0.415920	0.341608	0.183854	0.330353	0.164319	0.068312	0.378911	0.445264	0.281727	0.054866	0.413318	0.134669	0.098774	0.159261	0.416657	0.248398	0.234965	0.132621	0.221661	0.281357	0.283440	0.224616	0.514700	0.569266	0.715963	0.784801	0.382678	0.197769	0.288424	0.062317	0.107447	0.338743	0.411459	0.053702	0.249849	0.265236	0.306433	0.127362	0.182164	0.561031	0.534632	0.066290	0.518989	0.160626	0.231683	0.081850	0.129984	0.791523	0.337456	0.079277	0.421887	0.126027	0.138802	0.166826	0.289594	0.630075	0.483107	0.563096	0.490344	0.208272	0.164693	0.083032	0.165033	0.299372	0.378261	0.071523	0.276237	0.138584	0.129883	0.092159	0.152003	0.512793	0.375879	0.114002	0.654993	0.437909	0.353242
55	0.107664	0.561553	0.805957	0.423037	0.325692	0.168947	0.333357	0.169114	0.069379	0.362652	0.444897	0.280033	0.051492	0.395821	0.154945	0.133430	0.160174	0.413891	0.251927	0.247315	0.133147	0.223523	0.281964	0.331019	0.235432	0.518506	0.688131	0.717744	0.781123	0.303309	0.207260	0.288656	0.075166	0.111961	0.355984	0.417441	0.054145	0.271432	0.265810	0.306446	0.136042	0.186193	0.560905	0.534477	0.071113	0.513623	0.192373	0.239166	0.082938	0.129557	0.804922	0.341207	0.080614	0.419742	0.121877	0.161653	0.164791	0.273448	0.595087	0.552101	0.550243	0.475969	0.208880	0.237196	0.098061	0.165245	0.307153	0.372909	0.072297	0.275124	0.166456	0.131646	0.091498	0.142574	0.479029	0.375291	0.114929	0.682607	0.438260	0.352952
56	0.104648	0.547149	0.811944	0.461240	0.263947	0.146314	0.340325	0.170268	0.068403	0.339639	0.443761	0.279167	0.049340	0.396902	0.188267	0.246481	0.147096	0.392771	0.251841	0.249052	0.141692	0.229878	0.285093	0.337580	0.246844	0.513579	0.732875	0.705227	0.750882	0.248693	0.218734	0.287996	0.076289	0.112470	0.354580	0.433803	0.054317	0.280531	0.263062	0.298657	0.138096	0.186443	0.560901	0.512410	0.073465	0.513836	0.195714	0.265591	0.083018	0.133322	0.881968	0.323432	0.080662	0.417777	0.124830	0.168255	0.161989	0.251239	0.537649	0.562826	0.539760	0.476688	0.206909	0.247150	0.100276	0.158236	0.358397	0.390014	0.072176	0.274991	0.157406	0.123460	0.092178	0.128871	0.505996	0.544146	0.128224	0.762920	0.431367	0.354118
57	0.110708	0.548666	0.826979	0.586327	0.201321	0.132151	0.334703	0.180101	0.068492	0.331635	0.433977	0.277321	0.049127	0.409143	0.220504	0.274969	0.136120	0.304862	0.261589	0.254784	0.150951	0.238036	0.307163	0.368514	0.249697	0.515491	0.841381	0.711601	0.703873	0.395033	0.217934	0.286587	0.068909	0.113771	0.372230	0.449480	0.055657	0.309809	0.258013	0.287792	0.138065	0.187754	0.560264	0.501870	0.073732	0.512472	0.201216	0.303927	0.083018	0.132798	0.919904	0.319359	0.080673	0.380842	0.126221	0.168513	0.155840	0.240099	0.541474	0.548586	0.522782	0.481108	0.207049	0.248335	0.097244	0.128341	0.395181	0.396075	0.070935	0.274111	0.140711	0.119598	0.080529	0.112064	0.618527	0.837835	0.133127	0.772163	0.406066	0.303838
58	0.109967	0.546082	0.781629	0.631239	0.198982	0.127194	0.308494	0.181829	0.064978	0.282334	0.429587	0.336425	0.049179	0.416362	0.273408	0.274479	0.127021	0.271889	0.263518	0.251945	0.152061	0.241005	0.360600	0.371278	0.250996	0.515753	0.887388	0.709091	0.658012	0.436949	0.215933	0.285930	0.068439	0.111086	0.374125	0.455520	0.055588	0.298963	0.272093	0.284429	0.137745	0.194798	0.530761	0.510117	0.077013	0.512813	0.199020	0.332881	0.085094	0.131751	0.917611	0.321261	0.080720	0.300750	0.134698	0.173931	0.157591	0.229387	0.584210	0.561164	0.491968	0.489178	0.219024	0.249879	0.090639	0.115609	0.397588	0.407017	0.077553	0.278311	0.140142	0.117476	0.077004	0.117927	0.636071	0.920256	0.140472	0.770835	0.379544	0.272848
59	0.109290	0.541004	0.728464	0.624756	0.177980	0.122348	0.283585	0.164472	0.063656	0.211677	0.438777	0.473001	0.050938	0.494301	0.299600	0.273877	0.124029	0.219880	0.262776	0.237506	0.151864	0.242460	0.383780	0.386485	0.252392	0.518587	0.916550	0.708863	0.619781	0.456011	0.218840	0.285950	0.082695	0.117328	0.416965	0.449602	0.052682	0.321040	0.280617	0.287765	0.137920	0.203090	0.481549	0.507653	0.082290	0.497960	0.197307	0.337814	0.097829	0.134674	0.911324	0.322273	0.082919	0.279019	0.144897	0.174234	0.163943	0.225633	0.602473	0.560972	0.296038	0.488599	0.211177	0.269091	0.109743	0.130357	0.405531	0.411468	0.078093	0.276205	0.146585	0.118458	0.079059	0.122044	0.651712	0.914634	0.144951	0.780015	0.396514	0.327678
60	0.108468	0.540902	0.724351	0.646116	0.126382	0.123606	0.271356	0.160389	0.067111	0.234773	0.404596	0.471027	0.060733	0.531608	0.294835	0.272252	0.069740	0.158003	0.259545	0.307093	0.150415	0.237410	0.387339	0.407280	0.257611	0.529642	0.930130	0.714514	0.577898	0.478888	0.259961	0.291608	0.084808	0.117251	0.466599	0.447803	0.051801	0.333671	0.280957	0.284869	0.136478	0.202399	0.385723	0.494709	0.089128	0.432223	0.193362	0.330715	0.093125	0.131172	0.888273	0.320819	0.078969	0.272145	0.188023	0.174508	0.164927	0.225364	0.589392	0.530099	0.098022	0.476294	0.175666	0.307688	0.120089	0.136199	0.401293	0.411723	0.078682	0.287242	0.161666	0.121039	0.083354	0.124256	0.653057	0.896877	0.147484	0.777137	0.396292	0.336645
61	0.104031	0.530209	0.804569	0.695083	0.136159	0.121295	0.267503	0.154593	0.066749	0.243663	0.303825	0.481122	0.063680	0.556615	0.320096	0.274176	0.044310	0.153209	0.244473	0.355568	0.146401	0.253997	0.421032	0.410633	0.259609	0.537484	0.911574	0.726581	0.269191	0.482803	0.290842	0.388763	0.085008	0.116705	0.469037	0.445950	0.052334	0.406506	0.259403	0.285971	0.124812	0.200666	0.333752	0.490950	0.089616	0.351352	0.184202	0.328616	0.078212	0.130337	0.812303	0.384137	0.071781	0.242881	0.214024	0.161215	0.167852	0.225322	0.608500	0.530524	0.094843	0.453696	0.165833	0.332419	0.123189	0.132861	0.400387	0.425628	0.072113	0.292046	0.162531	0.129318	0.117334	0.123943	0.644554	0.916036	0.151729	0.760800	0.396672	0.354201
62	0.104439	0.442345	0.943167	0.748459	0.148372	0.113967	0.247339	0.160504	0.066742	0.257548	0.302561	0.496589	0.069641	0.562892	0.356193	0.282538	0.048742	0.148078	0.232580	0.363023	0.145459	0.252914	0.427219	0.407891	0.249402	0.537381	0.907078	0.716938	0.150974	0.476310	0.283680	0.394583	0.087373	0.117230	0.475762	0.445356	0.072096	0.429981	0.211777	0.272997	0.121887	0.200209	0.250768	0.454493	0.089423	0.321600	0.186152	0.326582	0.070301	0.125943	0.808132	0.389207	0.071749	0.110106	0.212191	0.146220	0.181828	0.227010	0.613042	0.535555	0.082519	0.446962	0.170723	0.344637	0.122944	0.124526	0.434623	0.424301	0.062148	0.295786	0.155866	0.129792	0.117775	0.127890	0.640493	1.008276	0.151039	0.726099	0.393847	0.367918
63	0.103120	0.288064	0.941881	0.761168	0.147880	0.095326	0.171398	0.137927	0.069244	0.321675	0.266225	0.523581	0.076319	0.561016	0.376712	0.296486	0.052087	0.149274	0.199945	0.369669	0.129579	0.246682	0.428762	0.407625	0.246958	0.542928	0.919929	0.700204	0.141363	0.475161	0.281194	0.408197	0.084761	0.116790	0.486654	0.445611	0.077572	0.429746	0.238686	0.237090	0.118320	0.199663	0.196612	0.443437	0.088885	0.297752	0.183036	0.326781	0.070581	0.128763	0.752063	0.389990	0.071768	0.087546	0.212159	0.139367	0.197443	0.217321	0.598415	0.539428	0.093399	0.457815	0.193076	0.355139	0.123012	0.115357	0.495720	0.348889	0.056967	0.213177	0.154756	0.125156	0.116443	0.133694	0.632627	1.092813	0.150505	0.728506	0.354829	0.367386
64	0.113207	0.231214	0.973269	0.768113	0.160442	0.082299	0.122555	0.132575	0.078420	0.331465	0.240238	0.528238	0.079296	0.540459	0.401657	0.297791	0.052048	0.148792	0.171736	0.359709	0.107431	0.224721	0.426018	0.400667	0.242674	0.546769	0.971879	0.689721	0.127491	0.478271	0.280243	0.427504	0.079782	0.114771	0.504011	0.402249	0.081043	0.427652	0.322947	0.204253	0.114750	0.192726	0.200667	0.378910	0.086032	0.281083	0.176197	0.317162	0.069656	0.154996	0.714638	0.387950	0.067801	0.085999	0.213900	0.146838	0.193188	0.199133	0.617785	0.578395	0.111925	0.468563	0.193142	0.354770	0.124218	0.113600	0.482921	0.340802	0.054149	0.180257	0.154526	0.126541	0.114900	0.131336	0.634781	1.130647	0.143065	0.711190	0.336898	0.360939
65	0.112553	0.151537	0.987573	0.759860	0.179625	0.095827	0.122354	0.152348	0.070065	0.454997	0.209387	0.523763	0.080299	0.518780	0.431954	0.304145	0.062668	0.150009	0.165064	0.375214	0.096583	0.208299	0.389414	0.370882	0.238086	0.538716	0.990826	0.690509	0.124371	0.481807	0.265404	0.430326	0.082228	0.108491	0.513031	0.351084	0.085685	0.441900	0.330134	0.203871	0.087572	0.171220	0.180066	0.371220	0.086942	0.180119	0.165936	0.307253	0.069258	0.154517	0.717784	0.387395	0.051639	0.081113	0.216337	0.152065	0.178926	0.174036	0.618725	0.585368	0.113811	0.471273	0.197139	0.364042	0.125787	0.111381	0.521977	0.325396	0.053462	0.176294	0.149039	0.126050	0.109568	0.125367	0.626208	1.139369	0.163295	0.701129	0.351935	0.349617
66	0.099308	0.153073	0.923239	0.794056	0.205276	0.110310	0.120797	0.172092	0.068100	0.613150	0.207759	0.523851	0.079820	0.498501	0.432167	0.309547	0.081562	0.150078	0.168787	0.405774	0.094068	0.216369	0.340981	0.366055	0.238105	0.426788	0.991612	0.688590	0.129720	0.480106	0.291419	0.429748	0.081412	0.101296	0.504074	0.358936	0.083195	0.485057	0.327075	0.209631	0.081033	0.164173	0.253469	0.397235	0.082103	0.163599	0.155700	0.300701	0.073982	0.167043	0.657273	0.333678	0.048656	0.060032	0.215679	0.149889	0.165042	0.163687	0.626559	0.584404	0.115822	0.439304	0.199668	0.371834	0.125699	0.111729	0.529702	0.316717	0.050180	0.165683	0.142943	0.113053	0.121017	0.123882	0.658450	1.137675	0.183836	0.690066	0.350749	0.339258
67	0.093421	0.153520	0.849585	0.868708	0.203348	0.273579	0.117360	0.172428	0.068969	0.662589	0.215454	0.559684	0.081971	0.519485	0.464637	0.318811	0.082558	0.152516	0.194036	0.416261	0.093412	0.231823	0.335933	0.326541	0.237214	0.419002	0.996304	0.633593	0.137968	0.479247	0.308666	0.416535	0.080172	0.081869	0.466189	0.397208	0.079362	0.500197	0.327219	0.205030	0.072201	0.162993	0.256945	0.429284	0.074095	0.159811	0.151910	0.283042	0.075575	0.178552	0.515897	0.327677	0.032495	0.037962	0.205852	0.139470	0.182728	0.195606	0.630212	0.589723	0.116230	0.347881	0.206660	0.371420	0.122390	0.110642	0.547180	0.310779	0.046577	0.165885	0.139338	0.107173	0.133217	0.123575	0.683395	1.136418	0.187144	0.687237	0.349693	0.340067
68	0.096412	0.162771	0.860851	0.929733	0.205766	0.311104	0.103429	0.172018	0.084273	0.696423	0.217617	0.591982	0.108479	0.546692	0.525031	0.328502	0.079796	0.157162	0.208429	0.418731	0.092285	0.235362	0.332517	0.287756	0.225964	0.343299	0.971946	0.484738	0.138676	0.475961	0.307544	0.396505	0.069309	0.060655	0.437972	0.406556	0.079636	0.508300	0.324182	0.194819	0.073062	0.164744	0.259375	0.440377	0.064379	0.138997	0.107252	0.280598	0.076311	0.191652	0.524490	0.331041	0.028060	0.031395	0.204868	0.112810	0.197839	0.222388	0.636169	0.659802	0.116473	0.273020	0.202607	0.366892	0.108577	0.108117	0.546307	0.294031	0.045574	0.167168	0.104051	0.095034	0.137949	0.125655	0.678572	1.145267	0.184197	0.692564	0.349367	0.343966
69	0.105968	0.185478	0.870146	0.942026	0.219970	0.324925	0.099615	0.163342	0.088387	0.700187	0.225991	0.550432	0.119796	0.561184	0.540969	0.329295	0.079135	0.160076	0.208340	0.418533	0.072648	0.232475	0.330679	0.279132	0.186083	0.317599	0.849192	0.429298	0.139133	0.478282	0.307956	0.390280	0.063463	0.059609	0.442154	0.425781	0.079036	0.501972	0.319547	0.200230	0.073125	0.165158	0.280487	0.444701	0.061788	0.120614	0.080299	0.259021	0.076364	0.226033	0.409113	0.430741	0.028833	0.031388	0.201899	0.100581	0.200439	0.231746	0.634994	0.713040	0.116583	0.251456	0.200300	0.342969	0.106265	0.107516	0.534236	0.270098	0.047099	0.167088	0.117282	0.099528	0.136818	0.133987	0.676400	1.167582	0.181176	0.646538	0.349388	0.347314
70	0.111446	0.197825	0.865797	0.951841	0.217954	0.337474	0.114252	0.155472	0.090907	0.699926	0.285129	0.444019	0.123357	0.562974	0.539764	0.326165	0.079381	0.146576	0.214819	0.416047	0.056261	0.227259	0.310201	0.290928	0.158470	0.309206	0.828167	0.457679	0.159044	0.479355	0.303957	0.389547	0.068301	0.056708	0.436939	0.476406	0.082711	0.487510	0.317275	0.198304	0.074318	0.172227	0.282680	0.441620	0.062067	0.119191	0.098303	0.209709	0.076598	0.237925	0.298657	0.480720	0.030480	0.032901	0.201284	0.101271	0.199854	0.232449	0.644400	0.726851	0.115482	0.244851	0.197791	0.302637	0.100800	0.109246	0.525042	0.268185	0.052883	0.164134	0.141117	0.147606	0.148563	0.145412	0.674905	1.172836	0.180296	0.506657	0.348970	0.348942
71	0.106627	0.197964	0.847614	0.914826	0.217657	0.348904	0.124401	0.153869	0.096443	0.696215	0.296542	0.465609	0.125452	0.571018	0.528156	0.271935	0.082186	0.133355	0.231620	0.427085	0.054789	0.224750	0.258189	0.293798	0.146293	0.305235	0.718516	0.466909	0.177516	0.471954	0.292330	0.390415	0.071897	0.059531	0.428115	0.498987	0.083128	0.470285	0.315835	0.217867	0.075138	0.181600	0.295751	0.431442	0.058397	0.120156	0.099071	0.141975	0.074945	0.243097	0.350318	0.479894	0.033989	0.033293	0.198612	0.109350	0.200210	0.231538	0.640420	0.725841	0.114988	0.242993	0.193727	0.303449	0.096189	0.103724	0.525453	0.254252	0.041614	0.157910	0.152503	0.155258	0.167627	0.149857	0.666217	1.144882	0.177860	0.413277	0.347444	0.348097
72	0.106592	0.193895	0.835963	0.879119	0.218039	0.349825	0.118723	0.154871	0.095709	0.695283	0.301328	0.461827	0.124555	0.583001	0.517949	0.213596	0.085555	0.176510	0.271315	0.473412	0.055986	0.220141	0.241837	0.271323	0.141073	0.305536	0.671612	0.460206	0.185040	0.370477	0.288580	0.390913	0.076815	0.065348	0.404664	0.498273	0.083049	0.458012	0.317677	0.279113	0.074752	0.195464	0.299240	0.412011	0.051496	0.114438	0.124440	0.121125	0.058129	0.243082	0.439263	0.510027	0.035055	0.058684	0.192193	0.136241	0.201521	0.225192	0.596442	0.749224	0.114997	0.221360	0.192146	0.305017	0.068629	0.085600	0.521149	0.252619	0.041325	0.153816	0.164868	0.154833	0.187198	0.158136	0.569107	0.958397	0.163271	0.297820	0.347396	0.345503
73	0.107051	0.193140	0.855658	0.879171	0.207365	0.375778	0.121613	0.185436	0.102285	0.703366	0.298831	0.424557	0.124285	0.583757	0.495493	0.211589	0.085573	0.190251	0.283585	0.413597	0.056894	0.219484	0.219120	0.240454	0.140225	0.308308	0.656773	0.460454	0.185675	0.262499	0.288493	0.390768	0.075670	0.062322	0.335508	0.507750	0.082071	0.478643	0.313972	0.296993	0.073379	0.219713	0.356181	0.416315	0.035160	0.108433	0.165183	0.145105	0.063178	0.243961	0.458611	0.540678	0.035504	0.077751	0.153840	0.141604	0.204075	0.222801	0.512625	0.798409	0.115374	0.184487	0.180415	0.303402	0.049478	0.080915	0.526417	0.253504	0.038769	0.161777	0.188339	0.153826	0.192213	0.155290	0.647527	0.859808	0.155066	0.285902	0.339306	0.344797
74	0.106632	0.191149	0.869601	0.855251	0.197739	0.394697	0.131218	0.192047	0.112365	0.677581	0.288154	0.392678	0.123602	0.552218	0.471496	0.207204	0.085887	0.236029	0.309220	0.444180	0.043268	0.291099	0.172439	0.226501	0.135087	0.299182	0.636942	0.463186	0.188323	0.248282	0.288865	0.390526	0.077749	0.062574	0.302781	0.544318	0.082675	0.553948	0.309978	0.288065	0.076348	0.226133	0.377356	0.439459	0.033260	0.120893	0.192943	0.149352	0.068513	0.245121	0.548829	0.497675	0.036984	0.099517	0.126843	0.140244	0.201870	0.231146	0.544369	0.855138	0.115786	0.178436	0.175925	0.288115	0.052413	0.089865	0.561034	0.222636	0.076120	0.182348	0.216035	0.146690	0.197718	0.157365	0.776350	0.941886	0.148919	0.303600	0.279958	0.329416
75	0.106099	0.190833	0.903488	0.812201	0.195080	0.412172	0.130524	0.207892	0.109770	0.674151	0.293422	0.378518	0.121093	0.499341	0.468326	0.207561	0.109225	0.319910	0.394635	0.447255	0.041589	0.307346	0.199277	0.228339	0.125401	0.276294	0.673564	0.431631	0.191605	0.173292	0.269036	0.389394	0.077264	0.072297	0.297819	0.586944	0.084019	0.561964	0.313851	0.290435	0.079219	0.226104	0.566509	0.426634	0.036777	0.137525	0.199026	0.147569	0.075977	0.248039	0.785629	0.496744	0.035896	0.100049	0.147046	0.143065	0.200647	0.247363	0.524551	0.861708	0.117773	0.176377	0.174227	0.250514	0.062044	0.097982	0.538119	0.191197	0.094543	0.197833	0.222330	0.145785	0.198845	0.164489	0.751780	0.979013	0.146080	0.291947	0.253949	0.255499
76	0.105355	0.189047	0.818785	0.763849	0.188516	0.427161	0.138334	0.251987	0.114271	0.591536	0.295009	0.388441	0.116313	0.470367	0.459202	0.205379	0.158254	0.335345	0.473029	0.448213	0.042828	0.320041	0.208461	0.228014	0.116731	0.256780	0.661630	0.396075	0.191789	0.145358	0.227095	0.298863	0.086599	0.087364	0.353515	0.601931	0.085640	0.546419	0.311743	0.294228	0.089902	0.225221	0.620130	0.456824	0.036413	0.134800	0.198311	0.147185	0.075677	0.246812	0.816626	0.499762	0.042176	0.104266	0.173708	0.143663	0.194633	0.265160	0.472655	0.848324	0.120977	0.172954	0.167132	0.219495	0.063574	0.096229	0.504773	0.186579	0.105537	0.205907	0.237858	0.152515	0.183629	0.168911	0.766104	0.964347	0.143182	0.305635	0.250106	0.246348
77	0.104981	0.180839	0.825980	0.748299	0.160985	0.427257	0.158872	0.246890	0.114975	0.426906	0.297211	0.394619	0.116631	0.532720	0.439482	0.220366	0.165474	0.335695	0.666707	0.448524	0.045075	0.383294	0.209048	0.228652	0.108121	0.232810	0.664175	0.376387	0.191455	0.140580	0.231966	0.208374	0.096875	0.096229	0.344991	0.623501	0.080718	0.505249	0.315646	0.297302	0.093441	0.217282	0.667374	0.489529	0.036338	0.142821	0.203503	0.148080	0.072355	0.217739	0.819772	0.518128	0.046585	0.114480	0.169678	0.148272	0.177198	0.286205	0.456457	0.852265	0.116442	0.156249	0.156443	0.192477	0.060942	0.089687	0.521615	0.236821	0.106253	0.206082	0.238780	0.154458	0.185659	0.177821	0.813952	0.885176	0.139890	0.317340	0.241721	0.199727
78	0.095361	0.173428	0.826662	0.772255	0.111084	0.437692	0.168370	0.232588	0.114552	0.367793	0.344176	0.348189	0.112947	0.602982	0.528442	0.262339	0.159238	0.335938	0.745772	0.435173	0.044944	0.390792	0.210910	0.231117	0.115423	0.206230	0.606198	0.377202	0.185340	0.139810	0.260080	0.191914	0.096729	0.099849	0.467833	0.644830	0.062812	0.500911	0.338249	0.289043	0.094786	0.207427	0.759035	0.489971	0.039032	0.171670	0.206727	0.156029	0.074770	0.210633	0.825315	0.563718	0.047144	0.117448	0.176276	0.145048	0.163649	0.295520	0.441905	0.857660	0.099733	0.118514	0.117870	0.180189	0.057428	0.081298	0.667363	0.445228	0.106539	0.204510	0.239489	0.156246	0.190748	0.186876	0.858437	0.804156	0.139104	0.327810	0.228670	0.152582
79	0.093182	0.166316	0.793520	0.769272	0.109381	0.384607	0.167851	0.236231	0.109048	0.323348	0.468533	0.295748	0.117605	0.643522	0.567917	0.297673	0.162725	0.351339	0.746862	0.503912	0.061649	0.384665	0.211050	0.229203	0.118208	0.195547	0.555289	0.409599	0.181299	0.134230	0.252781	0.132176	0.100967	0.101802	0.539775	0.642996	0.072712	0.516503	0.305427	0.286585	0.095884	0.201492	0.817585	0.465566	0.041872	0.184654	0.211912	0.156588	0.070285	0.212830	0.827366	0.563748	0.052638	0.117572	0.183533	0.145399	0.157751	0.293218	0.435438	0.859192	0.080551	0.075157	0.117776	0.202729	0.068828	0.080876	0.693757	0.467596	0.113029	0.207774	0.243667	0.156989	0.195692	0.195475	0.867307	0.774290	0.140394	0.379976	0.225992	0.141945
80	0.093678	0.164127	0.769761	0.777095	0.108448	0.352977	0.171853	0.265226	0.112388	0.386784	0.580572	0.296312	0.128812	0.670087	0.553647	0.294986	0.192428	0.360176	0.748769	0.541606	0.079810	0.386538	0.211229	0.227671	0.116466	0.195691	0.569394	0.504901	0.178879	0.121526	0.253819	0.107362	0.102003	0.101766	0.673222	0.626549	0.081202	0.520662	0.240211	0.285779	0.086765	0.202043	0.821587	0.459384	0.051294	0.186840	0.218384	0.156163	0.068921	0.199898	0.823408	0.571221	0.053201	0.120791	0.184089	0.148535	0.156110	0.286504	0.436977	0.863283	0.087039	0.164615	0.124332	0.211461	0.071935	0.082884	0.740078	0.478938	0.116944	0.208055	0.244630	0.156441	0.204485	0.197635	0.866669	0.771396	0.139424	0.383352	0.164220	0.134530
81	0.092839	0.165985	0.762827	0.743091	0.076927	0.388355	0.167864	0.310119	0.118051	0.410588	0.642000	0.333145	0.141852	0.767982	0.597604	0.289776	0.204481	0.361993	0.758344	0.552487	0.088946	0.390370	0.211621	0.227395	0.113072	0.188314	0.553614	0.749822	0.171117	0.118028	0.222936	0.095593	0.105294	0.102457	0.786447	0.624143	0.090673	0.495317	0.242668	0.277944	0.084123	0.212095	0.821050	0.471385	0.051397	0.187752	0.220849	0.157680	0.082397	0.189532	0.819470	0.577690	0.054057	0.130156	0.185204	0.148690	0.141526	0.261820	0.437788	0.865783	0.104362	0.254590	0.128348	0.203443	0.081576	0.083478	0.806446	0.498545	0.117291	0.234140	0.244304	0.155158	0.229087	0.196886	0.844638	0.793144	0.104939	0.381390	0.100518	0.142640
82	0.100610	0.168279	0.726710	0.688405	0.089005	0.387859	0.156603	0.331717	0.112049	0.434599	0.677375	0.340697	0.147530	0.769311	0.596531	0.283522	0.211424	0.363088	0.769762	0.552558	0.103253	0.395184	0.211113	0.215485	0.111026	0.172961	0.573029	0.818250	0.165585	0.117936	0.203169	0.093599	0.108937	0.105014	0.813878	0.655000	0.092975	0.472428	0.256519	0.275459	0.083259	0.217658	0.822471	0.466186	0.051494	0.187990	0.222608	0.161061	0.097337	0.147080	0.832272	0.577131	0.066152	0.141891	0.186193	0.148838	0.108825	0.235723	0.424724	0.846336	0.117304	0.301417	0.118857	0.203895	0.088472	0.095588	0.789980	0.567343	0.116752	0.239059	0.243542	0.149779	0.268100	0.203619	0.807333	0.806989	0.074675	0.381235	0.084547	0.147222
83	0.084694	0.150333	0.696448	0.663563	0.095107	0.385359	0.152911	0.332314	0.110632	0.432944	0.693444	0.329443	0.133791	0.728708	0.543705	0.278268	0.214395	0.379028	0.765239	0.555697	0.115946	0.408959	0.200962	0.147693	0.105496	0.169735	0.609396	0.847522	0.164775	0.177853	0.214148	0.113026	0.112562	0.120441	0.816349	0.657019	0.097240	0.459380	0.258290	0.272328	0.101846	0.213950	0.830192	0.465706	0.051341	0.209006	0.219626	0.173669	0.097616	0.129700	0.862187	0.595554	0.084115	0.146701	0.185315	0.148526	0.104217	0.221519	0.519729	0.742856	0.138634	0.319720	0.122678	0.204304	0.118052	0.140537	0.785401	0.631011	0.115278	0.244744	0.242487	0.107283	0.350893	0.224850	0.807036	0.803629	0.060839	0.391905	0.085985	0.142921
84	0.072824	0.129563	0.744496	0.668554	0.093431	0.398652	0.162573	0.333957	0.105333	0.416132	0.693053	0.325030	0.124026	0.699362	0.517365	0.285194	0.213789	0.371588	0.763740	0.522229	0.117294	0.448956	0.191382	0.141400	0.094460	0.163991	0.630650	0.964651	0.165998	0.182938	0.210426	0.125723	0.131962	0.142281	0.818523	0.656167	0.102307	0.468904	0.305249	0.267231	0.111511	0.204152	0.854199	0.467275	0.051247	0.210175	0.211065	0.217045	0.099299	0.155605	0.923133	0.613797	0.099202	0.159289	0.181934	0.138779	0.110220	0.222455	0.521869	0.650877	0.152232	0.353477	0.127793	0.205157	0.128423	0.176626	0.785644	0.654066	0.126462	0.244789	0.234740	0.094455	0.414280	0.252144	0.807873	0.768718	0.057244	0.385175	0.096635	0.137934
85	0.074082	0.116464	0.814711	0.617998	0.092895	0.388273	0.162126	0.322506	0.093408	0.426577	0.697527	0.328459	0.125501	0.702582	0.519767	0.295539	0.213237	0.367843	0.758302	0.492671	0.119149	0.454232	0.200243	0.139069	0.094436	0.151729	0.700324	1.030476	0.153119	0.192159	0.216764	0.128313	0.128452	0.142154	0.883444	0.682993	0.133266	0.466143	0.318228	0.264417	0.121296	0.178392	0.853115	0.465845	0.052279	0.237267	0.207813	0.235961	0.131029	0.177259	0.903530	0.590520	0.117820	0.198351	0.182980	0.111048	0.116000	0.227891	0.611450	0.642789	0.166845	0.353456	0.155100	0.203983	0.140526	0.191379	0.789750	0.657493	0.149033	0.249067	0.224578	0.094528	0.442203	0.265599	0.808861	0.760276	0.062935	0.386482	0.102855	0.136804
86	0.076776	0.116780	0.906911	0.658500	0.091957	0.366016	0.158579	0.312574	0.089422	0.426152	0.700740	0.327412	0.125064	0.708204	0.527576	0.294217	0.213303	0.352505	0.785790	0.477313	0.118751	0.467252	0.209300	0.127329	0.100099	0.160054	0.767801	1.074802	0.127345	0.191985	0.217260	0.125863	0.124661	0.138109	0.907769	0.702027	0.143259	0.463563	0.336727	0.262592	0.122021	0.156911	0.851360	0.418074	0.053944	0.255695	0.192026	0.232372	0.142492	0.177638	0.914532	0.575342	0.126582	0.217133	0.203194	0.110508	0.118430	0.228389	0.675454	0.637581	0.171638	0.375925	0.163514	0.193656	0.148309	0.193348	0.782598	0.656727	0.162116	0.235199	0.195077	0.093952	0.467279	0.270166	0.805425	0.762089	0.067967	0.418847	0.103272	0.135007
87	0.088197	0.124001	1.081943	0.823312	0.085655	0.356711	0.157786	0.299321	0.088979	0.426855	0.715416	0.315880	0.128648	0.707231	0.530930	0.293570	0.210599	0.323578	0.876587	0.443003	0.121352	0.411717	0.191076	0.092276	0.119566	0.203020	0.721110	1.079523	0.109530	0.191990	0.223399	0.135922	0.128457	0.139094	0.920095	0.746822	0.150772	0.482922	0.358146	0.234071	0.119012	0.154376	0.803045	0.438027	0.057940	0.257010	0.166737	0.229250	0.141829	0.187718	0.897638	0.616254	0.127624	0.304019	0.195978	0.115526	0.108562	0.246906	0.685317	0.565389	0.173952	0.413828	0.222845	0.193870	0.145391	0.188883	0.749720	0.655067	0.159036	0.208298	0.153044	0.093830	0.527186	0.266898	0.797833	0.766315	0.068734	0.432066	0.103041	0.135052
88	0.099419	0.127447	1.094066	0.865312	0.083026	0.339689	0.158546	0.262603	0.103913	0.429130	0.749134	0.309393	0.131828	0.706070	0.536658	0.297568	0.188630	0.270391	0.879293	0.433883	0.121406	0.404662	0.161363	0.086236	0.130140	0.226388	0.709874	1.083600	0.107586	0.191795	0.227137	0.136748	0.127991	0.138124	0.923797	0.708015	0.155883	0.480542	0.359748	0.175313	0.108350	0.153856	0.689115	0.391808	0.058565	0.312909	0.147051	0.226060	0.136733	0.190301	0.708941	0.613175	0.136029	0.313030	0.181691	0.114833	0.104316	0.259913	0.650146	0.465595	0.175233	0.419947	0.250203	0.200440	0.142185	0.192520	0.747624	0.654170	0.150190	0.186803	0.148391	0.091598	0.714818	0.264509	0.705316	0.755299	0.068671	0.442455	0.103409	0.135172
89	0.101631	0.128418	1.064476	0.850123	0.082471	0.332037	0.145041	0.250893	0.104798	0.469993	0.763412	0.306606	0.132482	0.706743	0.555703	0.315589	0.190991	0.280506	0.801874	0.442551	0.122187	0.387452	0.148860	0.093694	0.131611	0.234228	0.666961	1.084014	0.117396	0.191412	0.234654	0.138230	0.124252	0.129067	0.966548	0.688879	0.164063	0.423156	0.358047	0.199261	0.103375	0.172773	0.705123	0.402093	0.062449	0.320703	0.145818	0.225715	0.136899	0.191093	0.671097	0.612299	0.139650	0.318491	0.152378	0.114137	0.111398	0.262006	0.643322	0.476353	0.174627	0.420725	0.251733	0.207657	0.143545	0.204401	0.737603	0.750394	0.181203	0.166409	0.125081	0.085280	0.735590	0.273955	0.533814	0.643403	0.069924	0.448501	0.114529	0.137874
90	0.102371	0.130419	1.002765	0.845241	0.080590	0.314199	0.146032	0.253962	0.102334	0.455183	0.713489	0.315161	0.134017	0.708628	0.586839	0.327817	0.199097	0.280375	0.665524	0.453918	0.122168	0.340000	0.147890	0.093574	0.138443	0.237309	0.639792	1.094916	0.102720	0.192479	0.234417	0.140161	0.117701	0.122732	0.976368	0.678571	0.175927	0.334203	0.355504	0.214043	0.102107	0.183170	0.620432	0.383005	0.064682	0.320987	0.138984	0.223351	0.138662	0.190328	0.668254	0.609807	0.155341	0.316488	0.150131	0.110039	0.112043	0.249021	0.719950	0.506214	0.173070	0.420897	0.262474	0.216967	0.147099	0.225776	0.718492	0.859668	0.193727	0.178985	0.122618	0.091888	0.736754	0.288029	0.486055	0.556733	0.075170	0.431591	0.132885	0.192985
91	0.113803	0.126866	0.989762	0.838623	0.081009	0.308506	0.179701	0.255150	0.094429	0.399641	0.640731	0.320713	0.139005	0.721699	0.594235	0.328325	0.202630	0.274828	0.666368	0.460679	0.121785	0.336633	0.146474	0.086051	0.141196	0.238349	0.650051	1.104269	0.121555	0.195053	0.231838	0.148275	0.119615	0.119835	0.959638	0.651975	0.179859	0.317402	0.359771	0.204702	0.106089	0.183158	0.478811	0.443371	0.064265	0.311473	0.132843	0.220172	0.137696	0.189969	0.654529	0.608969	0.160935	0.320018	0.140051	0.124643	0.107708	0.224330	0.743781	0.500407	0.173671	0.420812	0.276410	0.220017	0.159081	0.238831	0.569321	0.795871	0.199201	0.204969	0.122304	0.104214	0.736980	0.288538	0.479163	0.550987	0.078039	0.448822	0.138790	0.262834
92	0.121529	0.127049	0.954076	0.824405	0.076978	0.292484	0.177523	0.229968	0.085480	0.466462	0.579687	0.298374	0.139332	0.707269	0.607091	0.324369	0.188364	0.259621	0.668654	0.391470	0.110641	0.349782	0.146839	0.084993	0.136305	0.244528	0.644399	1.123741	0.128929	0.198460	0.223343	0.161867	0.120900	0.130608	0.873349	0.679319	0.180810	0.316159	0.359832	0.191647	0.106725	0.181575	0.463193	0.508083	0.065290	0.306255	0.126625	0.218815	0.138737	0.178121	0.654110	0.614113	0.160793	0.326727	0.127652	0.126176	0.103057	0.201085	0.743766	0.463886	0.177831	0.420919	0.286951	0.220110	0.159353	0.245781	0.586601	0.799870	0.214334	0.212089	0.116117	0.107982	0.758304	0.286503	0.394517	0.543916	0.076401	0.442183	0.143989	0.293316
93	0.123647	0.132895	0.950779	0.855343	0.072544	0.220268	0.178114	0.172634	0.088523	0.447824	0.542166	0.280693	0.138471	0.621607	0.546508	0.290303	0.184255	0.259423	0.685536	0.349658	0.101401	0.354035	0.146782	0.086267	0.125072	0.248989	0.650201	1.160689	0.129646	0.198515	0.193898	0.165134	0.120744	0.132284	0.824219	0.679172	0.180866	0.319990	0.347509	0.190399	0.108974	0.173010	0.479516	0.549026	0.064267	0.319840	0.112268	0.219868	0.139223	0.179595	0.692036	0.628761	0.164241	0.329197	0.130305	0.127722	0.103281	0.199093	0.755080	0.415133	0.179864	0.422463	0.287896	0.213448	0.164528	0.248915	0.475908	0.804023	0.213503	0.233882	0.127372	0.110914	0.781949	0.274834	0.295021	0.491991	0.075968	0.440591	0.165979	0.306659
94	0.125847	0.133260	0.952258	0.872908	0.050959	0.206001	0.180018	0.105086	0.089019	0.447649	0.522734	0.277958	0.136218	0.589169	0.464814	0.274974	0.179543	0.255753	0.690873	0.349246	0.092204	0.390733	0.146581	0.082200	0.124778	0.259604	0.634481	1.146504	0.138327	0.196875	0.188823	0.168280	0.121992	0.132020	0.704712	0.674621	0.194576	0.409714	0.321839	0.188817	0.110926	0.163936	0.475858	0.648542	0.064811	0.321533	0.108685	0.222438	0.132196	0.183778	0.715542	0.655671	0.165533	0.328338	0.132483	0.129261	0.109076	0.199671	0.755111	0.396385	0.177872	0.434337	0.286493	0.188236	0.161019	0.252339	0.376701	0.826008	0.224004	0.264236	0.169139	0.111072	0.799780	0.266264	0.269276	0.404160	0.076687	0.417491	0.180549	0.315417
95	0.135955	0.135787	0.957466	0.857465	0.034747	0.172884	0.180043	0.099596	0.085905	0.443476	0.525656	0.303120	0.139520	0.581649	0.466093	0.300955	0.172376	0.252339	0.681947	0.344049	0.071452	0.391486	0.142261	0.080786	0.125286	0.271985	0.644055	1.063694	0.137484	0.192601	0.185353	0.173363	0.118913	0.131466	0.629647	0.662941	0.199804	0.408764	0.312637	0.184006	0.107383	0.163128	0.517331	0.692648	0.064502	0.331006	0.100773	0.223286	0.129970	0.185964	0.691589	0.620546	0.165278	0.323519	0.132071	0.129365	0.114261	0.200560	0.761721	0.415802	0.168084	0.410177	0.280070	0.153649	0.166010	0.250643	0.434248	0.792778	0.224837	0.264770	0.167369	0.118617	0.802596	0.261632	0.298019	0.350846	0.074869	0.384094	0.184601	0.335513
96	0.174097	0.129485	0.959314	0.838475	0.032273	0.135113	0.195803	0.092056	0.087568	0.428896	0.568453	0.293284	0.132721	0.427781	0.415949	0.317554	0.171152	0.232815	0.681359	0.360881	0.056348	0.368647	0.132716	0.081030	0.125150	0.276369	0.697885	0.984658	0.141200	0.192387	0.185536	0.174459	0.119003	0.124310	0.624404	0.603978	0.194018	0.417124	0.311181	0.183459	0.094612	0.153594	0.497033	0.698831	0.065127	0.333154	0.103799	0.232832	0.180128	0.187014	0.683233	0.604656	0.157032	0.323277	0.132007	0.129207	0.115963	0.202725	0.759874	0.430883	0.164207	0.364352	0.277358	0.153200	0.146320	0.227917	0.447511	0.746656	0.224615	0.260421	0.156352	0.132351	0.809980	0.262106	0.297530	0.307886	0.067231	0.384581	0.203382	0.338966
97	0.312665	0.165477	0.957066	0.833345	0.033458	0.128443	0.217473	0.090548	0.087270	0.426565	0.654392	0.294470	0.123773	0.408550	0.392762	0.319371	0.182504	0.234892	0.709056	0.373043	0.052416	0.330103	0.130835	0.081110	0.127238	0.272450	0.685177	1.029620	0.149840	0.190403	0.183911	0.175737	0.097645	0.099400	0.618705	0.571867	0.190187	0.429573	0.304509	0.187597	0.086939	0.153900	0.506815	0.732024	0.065266	0.332882	0.105862	0.206058	0.191132	0.169186	0.595202	0.602612	0.147483	0.319923	0.132081	0.131774	0.137711	0.203582	0.725894	0.455901	0.155410	0.335660	0.277693	0.162652	0.139984	0.203754	0.489551	0.733851	0.221294	0.283790	0.160708	0.137181	0.807299	0.268575	0.300306	0.275214	0.065123	0.412418	0.200527	0.396736
98	0.411687	0.220288	0.928487	0.811474	0.043025	0.127621	0.217049	0.090930	0.083499	0.427174	0.664839	0.293951	0.123937	0.395231	0.397436	0.312690	0.192179	0.230854	0.792889	0.384034	0.044907	0.313292	0.098675	0.076953	0.133519	0.268769	0.707261	0.954301	0.151414	0.135635	0.150997	0.166203	0.091933	0.089663	0.585058	0.527577	0.196335	0.419840	0.295232	0.223903	0.091205	0.170615	0.746262	0.874167	0.065575	0.330066	0.102662	0.167085	0.192019	0.145198	0.764588	0.600214	0.131162	0.306124	0.131939	0.130894	0.154581	0.200651	0.687499	0.463527	0.137981	0.316712	0.277751	0.169764	0.127369	0.197271	0.510644	0.731639	0.211343	0.293203	0.160746	0.137281	0.792401	0.265553	0.318432	0.272966	0.067293	0.464017	0.199924	0.467816
99	0.521431	0.258005	0.849703	0.808781	0.048408	0.144770	0.220703	0.092250	0.064621	0.416899	0.668737	0.310527	0.120871	0.391983	0.404656	0.302420	0.194145	0.232990	0.710360	0.383487	0.042001	0.295732	0.084307	0.072727	0.143663	0.268711	0.707351	0.838911	0.149824	0.110683	0.151366	0.150990	0.106039	0.099193	0.478513	0.517542	0.207762	0.414264	0.288975	0.250754	0.102169	0.174066	0.771888	0.942362	0.069368	0.303770	0.091074	0.150596	0.220519	0.144995	0.761392	0.592149	0.123160	0.335901	0.097816	0.126811	0.172915	0.191010	0.635244	0.464668	0.125944	0.299297	0.272452	0.168402	0.120220	0.208132	0.512932	0.746668	0.206468	0.314886	0.165242	0.138964	0.777418	0.239777	0.335914	0.272624	0.068280	0.480184	0.198400	0.508558
100	0.598267	0.274605	0.778392	0.787850	0.050894	0.246896	0.224524	0.093868	0.068074	0.354554	0.696605	0.322489	0.113498	0.391953	0.402618	0.290341	0.193039	0.216874	0.741346	0.385013	0.032331	0.296341	0.063570	0.072226	0.153290	0.264369	0.586321	0.752393	0.149127	0.061443	0.145769	0.145290	0.102051	0.113710	0.482180	0.428761	0.203671	0.398097	0.234026	0.252460	0.118199	0.189015	0.802909	0.973553	0.070023	0.302768	0.063786	0.131505	0.270602	0.145033	0.791513	0.541403	0.121037	0.315766	0.082725	0.124300	0.226260	0.186799	0.538777	0.462603	0.106336	0.312879	0.258000	0.167725	0.127142	0.217897	0.699382	0.774733	0.200684	0.331914	0.169813	0.139209	0.762036	0.221962	0.335038	0.265044	0.069019	0.485476	0.202155	0.523217
101	0.620631	0.274967	0.459692	0.626312	0.058274	0.265800	0.236928	0.098394	0.063606	0.335580	0.721664	0.303568	0.110507	0.393342	0.392575	0.288245	0.177156	0.187305	0.764166	0.390750	0.027945	0.297810	0.052715	0.071675	0.163389	0.235534	0.559331	0.733583	0.148145	0.060198	0.145347	0.147368	0.101680	0.129841	0.485668	0.445438	0.186310	0.394372	0.229327	0.254196	0.139031	0.213175	0.791742	1.029641	0.073026	0.247272	0.066909	0.119198	0.293218	0.146958	0.782425	0.621295	0.112483	0.435277	0.090124	0.125762	0.234733	0.176295	0.491392	0.462368	0.102083	0.281805	0.249792	0.165655	0.128625	0.223918	0.922465	0.773546	0.214798	0.342875	0.167870	0.139016	0.760927	0.209461	0.333183	0.249059	0.066577	0.480721	0.212177	0.528068
