	125_F_P_sh_R_D_A_02.c3d	125_F_P_sh_R_D_A_02.c3d	125_F_P_sh_R_D_A_02.c3d	125_F_P_sh_R_D_A_02.c3d	125_F_P_sh_R_D_A_02.c3d	125_F_P_sh_R_D_A_02.c3d	125_F_P_sh_R_D_A_02.c3d	125_F_P_sh_R_D_A_02.c3d	125_F_P_sh_R_D_A_03.c3d	125_F_P_sh_R_D_A_03.c3d	125_F_P_sh_R_D_A_03.c3d	125_F_P_sh_R_D_A_03.c3d	125_F_P_sh_R_D_A_03.c3d	125_F_P_sh_R_D_A_03.c3d	125_F_P_sh_R_D_A_03.c3d	125_F_P_sh_R_D_A_03.c3d	125_F_P_sh_R_D_A_04.c3d	125_F_P_sh_R_D_A_04.c3d	125_F_P_sh_R_D_A_04.c3d	125_F_P_sh_R_D_A_04.c3d	125_F_P_sh_R_D_A_04.c3d	125_F_P_sh_R_D_A_04.c3d	125_F_P_sh_R_D_A_04.c3d	125_F_P_sh_R_D_A_04.c3d	125_F_P_sh_R_D_A_05.c3d	125_F_P_sh_R_D_A_05.c3d	125_F_P_sh_R_D_A_05.c3d	125_F_P_sh_R_D_A_05.c3d	125_F_P_sh_R_D_A_05.c3d	125_F_P_sh_R_D_A_05.c3d	125_F_P_sh_R_D_A_05.c3d	125_F_P_sh_R_D_A_05.c3d	125_F_P_sh_R_D_A_06.c3d	125_F_P_sh_R_D_A_06.c3d	125_F_P_sh_R_D_A_06.c3d	125_F_P_sh_R_D_A_06.c3d	125_F_P_sh_R_D_A_06.c3d	125_F_P_sh_R_D_A_06.c3d	125_F_P_sh_R_D_A_06.c3d	125_F_P_sh_R_D_A_06.c3d	125_F_P_sh_R_D_A_07.c3d	125_F_P_sh_R_D_A_07.c3d	125_F_P_sh_R_D_A_07.c3d	125_F_P_sh_R_D_A_07.c3d	125_F_P_sh_R_D_A_07.c3d	125_F_P_sh_R_D_A_07.c3d	125_F_P_sh_R_D_A_07.c3d	125_F_P_sh_R_D_A_07.c3d	125_F_P_sh_R_D_A_09.c3d	125_F_P_sh_R_D_A_09.c3d	125_F_P_sh_R_D_A_09.c3d	125_F_P_sh_R_D_A_09.c3d	125_F_P_sh_R_D_A_09.c3d	125_F_P_sh_R_D_A_09.c3d	125_F_P_sh_R_D_A_09.c3d	125_F_P_sh_R_D_A_09.c3d	125_F_P_sh_R_D_A_10.c3d	125_F_P_sh_R_D_A_10.c3d	125_F_P_sh_R_D_A_10.c3d	125_F_P_sh_R_D_A_10.c3d	125_F_P_sh_R_D_A_10.c3d	125_F_P_sh_R_D_A_10.c3d	125_F_P_sh_R_D_A_10.c3d	125_F_P_sh_R_D_A_10.c3d
	Biceps femoris_lat	Semitendinosus_lat	Vastus lateralis_lat	Vastus medialis_lat	Biceps femoris_med	Semitendinosus_med	Vastus lateralis_med	Vastus medialis_med	Biceps femoris_lat	Semitendinosus_lat	Vastus lateralis_lat	Vastus medialis_lat	Biceps femoris_med	Semitendinosus_med	Vastus lateralis_med	Vastus medialis_med	Biceps femoris_lat	Semitendinosus_lat	Vastus lateralis_lat	Vastus medialis_lat	Biceps femoris_med	Semitendinosus_med	Vastus lateralis_med	Vastus medialis_med	Biceps femoris_lat	Semitendinosus_lat	Vastus lateralis_lat	Vastus medialis_lat	Biceps femoris_med	Semitendinosus_med	Vastus lateralis_med	Vastus medialis_med	Biceps femoris_lat	Semitendinosus_lat	Vastus lateralis_lat	Vastus medialis_lat	Biceps femoris_med	Semitendinosus_med	Vastus lateralis_med	Vastus medialis_med	Biceps femoris_lat	Semitendinosus_lat	Vastus lateralis_lat	Vastus medialis_lat	Biceps femoris_med	Semitendinosus_med	Vastus lateralis_med	Vastus medialis_med	Biceps femoris_lat	Semitendinosus_lat	Vastus lateralis_lat	Vastus medialis_lat	Biceps femoris_med	Semitendinosus_med	Vastus lateralis_med	Vastus medialis_med	Biceps femoris_lat	Semitendinosus_lat	Vastus lateralis_lat	Vastus medialis_lat	Biceps femoris_med	Semitendinosus_med	Vastus lateralis_med	Vastus medialis_med
	P2D	P2D	P2D	P2D	P2D	P2D	P2D	P2D	P2D	P2D	P2D	P2D	P2D	P2D	P2D	P2D	P2D	P2D	P2D	P2D	P2D	P2D	P2D	P2D	P2D	P2D	P2D	P2D	P2D	P2D	P2D	P2D	P2D	P2D	P2D	P2D	P2D	P2D	P2D	P2D	P2D	P2D	P2D	P2D	P2D	P2D	P2D	P2D	P2D	P2D	P2D	P2D	P2D	P2D	P2D	P2D	P2D	P2D	P2D	P2D	P2D	P2D	P2D	P2D
	EMG_lat	EMG_lat	EMG_lat	EMG_lat	EMG_med	EMG_med	EMG_med	EMG_med	EMG_lat	EMG_lat	EMG_lat	EMG_lat	EMG_med	EMG_med	EMG_med	EMG_med	EMG_lat	EMG_lat	EMG_lat	EMG_lat	EMG_med	EMG_med	EMG_med	EMG_med	EMG_lat	EMG_lat	EMG_lat	EMG_lat	EMG_med	EMG_med	EMG_med	EMG_med	EMG_lat	EMG_lat	EMG_lat	EMG_lat	EMG_med	EMG_med	EMG_med	EMG_med	EMG_lat	EMG_lat	EMG_lat	EMG_lat	EMG_med	EMG_med	EMG_med	EMG_med	EMG_lat	EMG_lat	EMG_lat	EMG_lat	EMG_med	EMG_med	EMG_med	EMG_med	EMG_lat	EMG_lat	EMG_lat	EMG_lat	EMG_med	EMG_med	EMG_med	EMG_med
ITEM	Y	Y	Y	Y	Y	Y	Y	Y	Y	Y	Y	Y	Y	Y	Y	Y	Y	Y	Y	Y	Y	Y	Y	Y	Y	Y	Y	Y	Y	Y	Y	Y	Y	Y	Y	Y	Y	Y	Y	Y	Y	Y	Y	Y	Y	Y	Y	Y	Y	Y	Y	Y	Y	Y	Y	Y	Y	Y	Y	Y	Y	Y	Y	Y
1	0.354806	0.439984	0.275636	0.103226	0.157459	0.402351	0.329197	0.047111	0.276129	0.394382	0.310741	0.102380	0.328116	0.496561	0.302454	0.095766	0.316210	0.287970	0.418888	0.108289	0.142383	0.589846	0.234492	0.056548	0.639823	0.505036	0.223435	0.115901	0.151910	0.543788	0.209915	0.078464	0.507359	0.267314	0.441625	0.079054	0.214964	0.339746	0.354649	0.053154	0.381572	0.344297	0.317750	0.096219	0.138848	0.352002	0.253694	0.044469	1.224542	0.880658	0.420566	2.388495	0.230133	0.430595	0.291885	0.036972	0.817232	0.593170	0.218410	2.004265	0.199302	0.442435	0.197719	0.045478
2	0.298698	0.439235	0.274574	0.117196	0.164932	0.402197	0.327059	0.047131	0.212835	0.410791	0.311777	0.102202	0.302216	0.430035	0.304486	0.094848	0.333630	0.280958	0.421516	0.107161	0.121513	0.565463	0.268918	0.075811	0.585529	0.485161	0.216848	0.118477	0.216563	0.525848	0.226256	0.091241	0.522231	0.269730	0.441581	0.080800	0.247393	0.410047	0.316881	0.053518	0.464173	0.341577	0.323922	0.104672	0.138052	0.312611	0.253342	0.048294	1.217232	0.828604	0.435934	2.316424	0.262366	0.414984	0.305973	0.044896	0.831178	0.595002	0.216798	1.920146	0.193922	0.426184	0.201203	0.045435
3	0.272591	0.442095	0.287382	0.130762	0.168365	0.402587	0.364784	0.047464	0.176956	0.462292	0.294188	0.101158	0.267820	0.443490	0.348529	0.090296	0.352821	0.278213	0.415029	0.108143	0.080401	0.571723	0.266204	0.083463	0.574201	0.440599	0.215019	0.119673	0.231022	0.426181	0.222843	0.097408	0.564346	0.269531	0.441760	0.081021	0.262268	0.392652	0.192832	0.054997	0.539024	0.319685	0.372941	0.113735	0.128697	0.383939	0.257731	0.048365	1.220402	0.788764	0.461812	2.248892	0.279046	0.411696	0.338181	0.050287	0.836528	0.595454	0.217811	1.786318	0.190619	0.291650	0.231331	0.045256
4	0.270354	0.417729	0.311014	0.136233	0.162688	0.409179	0.369073	0.048602	0.180083	0.448121	0.286030	0.100655	0.269323	0.505355	0.361793	0.100448	0.371843	0.274317	0.423777	0.096714	0.075041	0.434649	0.227918	0.084404	0.474151	0.437551	0.217117	0.120579	0.242600	0.341952	0.237366	0.099724	0.581146	0.270672	0.439710	0.080617	0.245601	0.386426	0.217085	0.050732	0.557685	0.297675	0.427783	0.121295	0.131097	0.445979	0.255187	0.044376	1.184570	0.786422	0.461696	2.200545	0.275481	0.401448	0.356040	0.054627	0.841308	0.589048	0.259035	1.575985	0.163540	0.290473	0.227408	0.044089
5	0.241159	0.389441	0.329131	0.138371	0.146621	0.432511	0.415176	0.052779	0.173701	0.448008	0.284927	0.101731	0.276408	0.499142	0.390761	0.104149	0.354260	0.291621	0.426339	0.089964	0.051553	0.413076	0.240978	0.083109	0.342203	0.414375	0.212459	0.121032	0.244261	0.208152	0.238356	0.099602	0.587594	0.273482	0.433615	0.080195	0.223614	0.379901	0.222955	0.043370	0.560265	0.298825	0.446520	0.121171	0.130808	0.441245	0.260735	0.043454	1.098383	0.770848	0.448335	2.061346	0.274662	0.389152	0.359511	0.056249	0.841704	0.581240	0.292846	1.218380	0.169623	0.295260	0.253729	0.043806
6	0.203881	0.332994	0.342173	0.139694	0.133654	0.441871	0.450961	0.053209	0.177634	0.433701	0.301584	0.099534	0.274462	0.480778	0.372244	0.104545	0.367300	0.288105	0.422774	0.087617	0.055798	0.409846	0.278854	0.076691	0.307098	0.398027	0.213165	0.128843	0.241586	0.125035	0.241269	0.100081	0.594945	0.261743	0.419452	0.079848	0.225825	0.375498	0.250347	0.055861	0.565322	0.298520	0.453394	0.120288	0.130137	0.439465	0.269395	0.054080	1.060140	0.760589	0.444430	1.894210	0.271028	0.403949	0.395308	0.056301	0.842466	0.579745	0.302763	1.082314	0.183710	0.279939	0.243160	0.032341
7	0.172263	0.331005	0.349990	0.137173	0.105952	0.438518	0.460227	0.054502	0.176070	0.437923	0.314348	0.088427	0.276138	0.464022	0.364407	0.107036	0.422031	0.287583	0.425590	0.088366	0.049807	0.409184	0.287084	0.075241	0.306283	0.387785	0.224852	0.145558	0.239458	0.129118	0.226873	0.096709	0.589346	0.239488	0.401050	0.079326	0.223426	0.376242	0.267880	0.064944	0.563572	0.287480	0.457621	0.120231	0.113443	0.438919	0.246757	0.069649	1.075473	0.662217	0.457731	1.718243	0.263828	0.415130	0.417782	0.057181	0.845200	0.572908	0.310712	0.898031	0.197790	0.212374	0.213342	0.027159
8	0.171342	0.316154	0.352356	0.131087	0.103534	0.380433	0.462054	0.057176	0.146373	0.424979	0.319828	0.086817	0.218240	0.450782	0.355124	0.106367	0.471722	0.285019	0.410131	0.095341	0.049994	0.361097	0.289558	0.079401	0.311396	0.329632	0.216604	0.160719	0.245333	0.148904	0.191653	0.085440	0.587578	0.219150	0.396641	0.078478	0.222154	0.424926	0.256383	0.064461	0.548737	0.282312	0.458488	0.119764	0.106353	0.439540	0.226201	0.086814	1.082786	0.542452	0.483313	1.555634	0.262625	0.362006	0.407286	0.055542	0.845231	0.565533	0.313897	0.775109	0.178370	0.166768	0.217414	0.035295
9	0.161090	0.312535	0.349153	0.127921	0.104793	0.379336	0.460370	0.059920	0.139153	0.384504	0.318947	0.096922	0.158418	0.453588	0.343204	0.095661	0.537475	0.285379	0.397350	0.114105	0.050409	0.333141	0.292224	0.088720	0.326078	0.317305	0.208408	0.173325	0.239870	0.168854	0.189606	0.079151	0.586751	0.208647	0.393088	0.078177	0.202257	0.470875	0.231251	0.064358	0.541809	0.265157	0.456797	0.119531	0.097314	0.422762	0.223087	0.108509	1.075693	0.543684	0.513826	1.391361	0.262031	0.327636	0.388451	0.054769	0.845271	0.561837	0.307145	0.662136	0.175321	0.145101	0.216383	0.043694
10	0.151155	0.289125	0.347251	0.129450	0.107965	0.387555	0.463401	0.061586	0.139233	0.371232	0.313329	0.097723	0.142747	0.455070	0.326721	0.096049	0.590427	0.285322	0.391866	0.120412	0.049519	0.334227	0.293020	0.108735	0.327554	0.266845	0.208174	0.182586	0.233812	0.190552	0.187515	0.082478	0.574602	0.207183	0.369460	0.078064	0.197284	0.455859	0.229727	0.063782	0.540497	0.178722	0.446699	0.119903	0.113483	0.424359	0.223930	0.118962	0.918941	0.541606	0.529801	1.230028	0.248230	0.325256	0.373259	0.055189	0.829617	0.558267	0.298819	0.559981	0.173852	0.161039	0.217546	0.047916
11	0.141259	0.282528	0.342249	0.131762	0.106868	0.351448	0.423571	0.061775	0.175724	0.412580	0.285457	0.091870	0.148591	0.452976	0.317234	0.090524	0.598456	0.282881	0.399426	0.120446	0.049428	0.350625	0.294929	0.128056	0.319588	0.216120	0.211633	0.188304	0.231696	0.214112	0.187829	0.086027	0.548304	0.192032	0.344341	0.078033	0.195966	0.466170	0.221039	0.063585	0.540550	0.149455	0.449034	0.118403	0.130016	0.429550	0.225019	0.122340	0.659268	0.535197	0.524408	1.065336	0.230294	0.329986	0.362450	0.057133	0.778004	0.546115	0.314544	0.487869	0.178899	0.216099	0.218897	0.046603
12	0.138473	0.266560	0.299515	0.139193	0.107677	0.376905	0.370286	0.066341	0.224023	0.430158	0.266560	0.087151	0.156968	0.439485	0.325574	0.089227	0.620626	0.265019	0.414120	0.122587	0.049496	0.362413	0.268303	0.125266	0.307141	0.179572	0.214207	0.189499	0.208863	0.238145	0.138249	0.081250	0.529899	0.181323	0.332185	0.077221	0.114501	0.395922	0.217147	0.065168	0.539879	0.147677	0.458554	0.116377	0.130342	0.563751	0.219558	0.122070	0.651289	0.489954	0.499349	0.890310	0.219810	0.326462	0.356596	0.063093	0.725939	0.508132	0.337695	0.416634	0.200418	0.214660	0.220074	0.046622
13	0.123377	0.271759	0.330050	0.179484	0.118682	0.386375	0.361616	0.067271	0.239259	0.454315	0.269730	0.087981	0.159258	0.438737	0.324025	0.085892	0.620199	0.220461	0.410369	0.128389	0.050377	0.360547	0.232844	0.116861	0.290198	0.173123	0.205152	0.188874	0.149692	0.273431	0.125483	0.069437	0.523245	0.181660	0.329466	0.074732	0.113357	0.394792	0.226187	0.069687	0.570562	0.149055	0.450877	0.111105	0.162244	0.663934	0.234638	0.176404	0.640979	0.408803	0.505106	0.763267	0.217604	0.345081	0.347817	0.072126	0.677484	0.453308	0.348738	0.375560	0.211222	0.266926	0.213738	0.065915
14	0.123783	0.280001	0.398748	0.238390	0.154410	0.390542	0.362925	0.069683	0.257245	0.465131	0.267079	0.090489	0.159943	0.420199	0.278928	0.083533	0.620130	0.211235	0.358606	0.136847	0.051732	0.380295	0.249535	0.119329	0.271248	0.173395	0.181369	0.188571	0.139072	0.292775	0.122092	0.064250	0.517708	0.179258	0.324087	0.072740	0.116030	0.409021	0.203897	0.072400	0.611780	0.149877	0.410458	0.103035	0.189104	0.680851	0.278287	0.450317	0.637430	0.371564	0.554306	0.683485	0.219493	0.351590	0.334219	0.081603	0.646200	0.458638	0.355316	0.354686	0.203888	0.282721	0.188885	0.073419
15	0.123944	0.253925	0.407804	0.259323	0.175384	0.459504	0.330640	0.068021	0.336542	0.512734	0.265714	0.094541	0.152794	0.332567	0.253546	0.070205	0.615057	0.208589	0.326410	0.143729	0.089025	0.508606	0.264402	0.163867	0.257120	0.185497	0.170346	0.188483	0.117127	0.316183	0.098446	0.067101	0.512231	0.165534	0.331223	0.069836	0.112286	0.457380	0.190757	0.070811	0.664811	0.154559	0.402293	0.101593	0.187854	0.666424	0.283480	0.461712	0.635567	0.370865	0.618364	0.616527	0.208169	0.359532	0.320725	0.088213	0.625598	0.350620	0.354189	0.328178	0.203196	0.305457	0.189071	0.078275
16	0.125837	0.228946	0.409802	0.261638	0.178564	0.512454	0.331581	0.069415	0.354659	0.520597	0.264740	0.094239	0.136742	0.355947	0.223543	0.071960	0.614206	0.200984	0.318805	0.148729	0.106347	0.663123	0.318280	0.179398	0.288300	0.199768	0.169325	0.183675	0.118264	0.328628	0.138491	0.070707	0.491441	0.151293	0.342455	0.062238	0.135177	0.456207	0.157070	0.065703	0.685161	0.165014	0.404851	0.101049	0.187866	0.647281	0.275137	0.484544	0.607362	0.317919	0.646988	0.567466	0.184488	0.358715	0.312340	0.092538	0.633502	0.324620	0.359710	0.306175	0.195331	0.401808	0.147296	0.087734
17	0.130534	0.233783	0.412661	0.257598	0.198566	0.480447	0.268446	0.072163	0.376559	0.518547	0.255410	0.091336	0.141684	0.359970	0.207948	0.108064	0.609349	0.189249	0.313967	0.152453	0.128101	0.672308	0.341480	0.180280	0.379427	0.199157	0.173260	0.170484	0.118417	0.372161	0.138381	0.083549	0.561404	0.128838	0.324664	0.058142	0.134390	0.434521	0.160962	0.057815	0.659304	0.193294	0.406855	0.098546	0.189330	0.648156	0.273867	0.502174	0.556309	0.223730	0.646044	0.543607	0.104253	0.383777	0.283642	0.095265	0.509646	0.332943	0.368888	0.284812	0.184688	0.402863	0.141200	0.104994
18	0.132295	0.228478	0.415218	0.264187	0.200909	0.466481	0.202093	0.072885	0.401840	0.482562	0.234672	0.098650	0.141201	0.384312	0.190863	0.312866	0.602885	0.175706	0.313950	0.152343	0.134741	0.672075	0.350771	0.182769	0.389251	0.197423	0.165569	0.162131	0.117581	0.388029	0.158283	0.089220	0.606331	0.126883	0.308649	0.072063	0.134817	0.395164	0.172118	0.057333	0.651498	0.234835	0.415325	0.105745	0.190957	0.657370	0.336555	0.505983	0.436952	0.215497	0.650803	0.548198	0.094658	0.381430	0.257180	0.094672	0.475621	0.334721	0.372852	0.259048	0.168376	0.448589	0.140816	0.110906
19	0.131623	0.220340	0.417941	0.281446	0.200060	0.475446	0.183928	0.070647	0.429467	0.446969	0.354739	0.194905	0.144842	0.385747	0.228632	0.358123	0.613840	0.166997	0.319144	0.150762	0.134196	0.673200	0.361789	0.193179	0.399487	0.203360	0.153419	0.160114	0.102698	0.434700	0.171927	0.091987	0.627346	0.119048	0.296505	0.086743	0.134993	0.386181	0.171452	0.059464	0.679789	0.231468	0.443476	0.119117	0.190536	0.656607	0.385110	0.512632	0.418320	0.216199	0.707210	0.568230	0.097239	0.379130	0.268373	0.093401	0.420977	0.345657	0.374460	0.238069	0.170020	0.458210	0.122793	0.109411
20	0.120914	0.214841	0.422691	0.303431	0.200849	0.476422	0.190676	0.063722	0.436200	0.445112	0.476031	0.276620	0.139962	0.375576	0.256921	0.362615	0.628176	0.170370	0.388628	0.150758	0.134377	0.674969	0.443147	0.193676	0.402253	0.214843	0.180411	0.160839	0.102266	0.454258	0.175180	0.090529	0.638123	0.116078	0.295398	0.094336	0.134956	0.388158	0.171592	0.060604	0.618251	0.238426	0.447853	0.137446	0.188331	0.697751	0.393166	0.548369	0.418684	0.230563	0.719185	0.582778	0.103269	0.371722	0.242454	0.094753	0.400001	0.343891	0.373793	0.225686	0.172215	0.458813	0.123327	0.106535
21	0.108684	0.235494	0.417509	0.317574	0.200139	0.477026	0.183656	0.060505	0.437281	0.444573	0.482958	0.298172	0.137061	0.371855	0.271565	0.382324	0.736293	0.172582	0.411067	0.149985	0.135439	0.669786	0.467184	0.180934	0.403938	0.216330	0.210252	0.163035	0.104552	0.446013	0.176035	0.086981	0.624997	0.109359	0.295657	0.105334	0.120681	0.318606	0.170836	0.061654	0.587506	0.234159	0.401008	0.147170	0.187361	0.698801	0.415499	0.598898	0.411142	0.255874	0.706936	0.588738	0.107612	0.341553	0.171747	0.112573	0.390619	0.427923	0.362244	0.220614	0.171682	0.450296	0.121707	0.107041
22	0.100032	0.257295	0.408664	0.323191	0.197941	0.466448	0.174390	0.057061	0.445121	0.432645	0.478778	0.298412	0.129319	0.357431	0.266920	0.391788	0.761604	0.165230	0.404644	0.146697	0.136035	0.675381	0.462402	0.172111	0.402322	0.213259	0.229397	0.176401	0.103010	0.442018	0.174064	0.077980	0.679068	0.130441	0.308556	0.117786	0.115701	0.315678	0.161093	0.055092	0.586680	0.246195	0.349807	0.148202	0.176915	0.678948	0.425552	0.683787	0.410020	0.259372	0.719825	0.592680	0.106947	0.335580	0.154526	0.147264	0.383954	0.515530	0.331836	0.219706	0.160899	0.428615	0.126496	0.110508
23	0.095021	0.259837	0.420799	0.326955	0.196232	0.452082	0.151211	0.057462	0.460027	0.424832	0.475291	0.305218	0.117792	0.298186	0.252129	0.394479	0.783857	0.131869	0.400512	0.147581	0.136777	0.680160	0.458009	0.171324	0.399378	0.200663	0.249127	0.188240	0.088326	0.422210	0.173504	0.073528	0.685163	0.164576	0.327706	0.125917	0.100338	0.308169	0.160335	0.051866	0.605079	0.254139	0.331695	0.149250	0.164561	0.641959	0.426297	0.687670	0.452647	0.294173	0.728955	0.595862	0.105478	0.366001	0.153089	0.189369	0.383355	0.533637	0.335512	0.219034	0.132919	0.430581	0.133018	0.116824
24	0.086746	0.266490	0.432605	0.327721	0.195954	0.417332	0.167302	0.055487	0.463607	0.423845	0.472858	0.322678	0.115880	0.287132	0.249200	0.398232	0.784517	0.134210	0.413566	0.167435	0.137939	0.682573	0.457746	0.169050	0.430109	0.188101	0.247218	0.182857	0.085086	0.416600	0.178770	0.078079	0.681090	0.163983	0.329604	0.126891	0.098507	0.248829	0.246922	0.071395	0.618650	0.254882	0.340720	0.150341	0.158873	0.463869	0.426686	0.699895	0.433536	0.296389	0.729481	0.594329	0.106960	0.434479	0.144243	0.226097	0.379450	0.545577	0.339541	0.215938	0.109428	0.403226	0.133219	0.193929
25	0.090037	0.267881	0.435120	0.326880	0.185958	0.387401	0.171047	0.063946	0.464611	0.423576	0.481414	0.349355	0.114946	0.300529	0.267943	0.402167	0.749731	0.157588	0.421047	0.179039	0.135838	0.547067	0.447804	0.155922	0.436746	0.183158	0.245427	0.168719	0.070358	0.406432	0.180769	0.084312	0.672919	0.162279	0.353343	0.132320	0.069659	0.207341	0.264853	0.068593	0.621066	0.259401	0.389899	0.160009	0.095742	0.418218	0.414515	0.628723	0.383905	0.295803	0.724299	0.590660	0.119916	0.438952	0.147919	0.269816	0.374046	0.549305	0.336483	0.210685	0.096698	0.396257	0.134989	0.611579
26	0.105029	0.278939	0.434926	0.325358	0.150777	0.389229	0.164562	0.065319	0.463887	0.412280	0.535475	0.378134	0.105631	0.279317	0.341267	0.402754	0.719806	0.158924	0.487349	0.178055	0.113332	0.439866	0.457505	0.109537	0.429193	0.184219	0.253722	0.157463	0.068845	0.383514	0.175469	0.089066	0.672559	0.177635	0.388830	0.148561	0.043350	0.198283	0.267735	0.069698	0.623852	0.269066	0.426305	0.177641	0.088313	0.317779	0.401104	0.592811	0.325339	0.293989	0.712378	0.584353	0.121597	0.437401	0.205369	0.309046	0.373606	0.550036	0.338002	0.205185	0.091937	0.389169	0.139415	0.806102
27	0.115326	0.314133	0.435466	0.324184	0.122950	0.292864	0.185991	0.066309	0.446974	0.359765	0.561074	0.389313	0.078116	0.286106	0.338758	0.414983	0.678667	0.159730	0.528992	0.169222	0.106219	0.297484	0.409894	0.106692	0.420780	0.185665	0.256772	0.148013	0.063317	0.377603	0.169121	0.088286	0.676756	0.195421	0.399254	0.163089	0.043293	0.194261	0.263900	0.089912	0.625365	0.269616	0.447287	0.194011	0.086463	0.296150	0.400508	0.582437	0.328796	0.290982	0.702146	0.571660	0.118961	0.428732	0.274665	0.337159	0.373074	0.549990	0.337288	0.200614	0.093221	0.289383	0.166744	0.826095
28	0.115552	0.341661	0.425703	0.313378	0.114585	0.184730	0.177201	0.065110	0.426606	0.334282	0.570099	0.390722	0.111164	0.310477	0.347680	0.395800	0.619404	0.160969	0.542422	0.164568	0.065107	0.313884	0.397527	0.106816	0.420043	0.189849	0.266855	0.143678	0.069591	0.321308	0.204732	0.076427	0.697488	0.201437	0.405473	0.172468	0.041863	0.146854	0.343223	0.105415	0.631207	0.270695	0.458127	0.206782	0.099233	0.296272	0.423171	0.566080	0.331411	0.288427	0.683665	0.549789	0.110647	0.408069	0.283201	0.359520	0.371705	0.549808	0.334272	0.196110	0.079194	0.316459	0.220867	0.849160
29	0.126084	0.366141	0.360833	0.273136	0.077570	0.185523	0.185691	0.063221	0.410981	0.284142	0.576718	0.389727	0.112490	0.304381	0.345431	0.278853	0.611166	0.159158	0.539476	0.164726	0.068636	0.338605	0.392152	0.101477	0.423583	0.195195	0.283056	0.142886	0.074537	0.297113	0.218648	0.075692	0.705513	0.203459	0.416703	0.183112	0.039420	0.093512	0.385363	0.106829	0.635312	0.267942	0.463065	0.216191	0.114488	0.281196	0.426173	0.558685	0.317073	0.287360	0.665625	0.522996	0.110847	0.401320	0.284254	0.386779	0.368249	0.548755	0.324034	0.192149	0.078340	0.254410	0.263979	0.863516
30	0.136478	0.428166	0.343436	0.243103	0.072704	0.184508	0.186588	0.062673	0.398589	0.254476	0.578107	0.388622	0.124415	0.307628	0.363864	0.238435	0.585128	0.162659	0.528626	0.164582	0.073033	0.342158	0.529730	0.078597	0.427005	0.197019	0.309311	0.144811	0.076327	0.203591	0.214004	0.078191	0.707609	0.204964	0.430452	0.189209	0.042223	0.104044	0.403419	0.106981	0.637674	0.265395	0.464871	0.221176	0.148306	0.284955	0.426860	0.558609	0.341314	0.285489	0.653369	0.493185	0.108912	0.391579	0.286599	0.415156	0.357469	0.545459	0.303039	0.191190	0.093863	0.252995	0.277466	0.869160
31	0.262213	0.456205	0.374548	0.237522	0.076852	0.156344	0.185191	0.063352	0.329930	0.147515	0.578991	0.387491	0.128759	0.312258	0.376829	0.230904	0.593312	0.180286	0.517822	0.160465	0.075344	0.337328	0.541983	0.073739	0.432220	0.197139	0.328923	0.145896	0.079191	0.173289	0.213379	0.078809	0.707276	0.206036	0.440672	0.190953	0.047458	0.125231	0.454609	0.106601	0.597715	0.265089	0.461270	0.223301	0.154456	0.241957	0.506951	0.543774	0.424332	0.283560	0.640134	0.454032	0.105550	0.373243	0.289884	0.423919	0.348715	0.530111	0.290600	0.192329	0.086222	0.270803	0.281743	0.874435
32	0.277525	0.454021	0.385683	0.236661	0.086422	0.152864	0.167720	0.072900	0.324606	0.105848	0.580095	0.387219	0.130601	0.312650	0.405318	0.194995	0.600741	0.196267	0.525391	0.151785	0.072040	0.329739	0.539254	0.076800	0.433725	0.197759	0.333245	0.146700	0.082488	0.161900	0.228521	0.080706	0.709157	0.208147	0.443657	0.191249	0.049110	0.126980	0.469644	0.106464	0.554366	0.264284	0.455243	0.223560	0.152830	0.138633	0.508799	0.478916	0.446696	0.279109	0.590565	0.403066	0.107142	0.325969	0.302488	0.496748	0.342281	0.491353	0.287026	0.195028	0.095493	0.268365	0.302431	0.880252
33	0.277892	0.461620	0.392344	0.228994	0.085236	0.152373	0.173619	0.078263	0.343502	0.196650	0.577787	0.387524	0.130979	0.318069	0.425956	0.177702	0.603897	0.207509	0.523785	0.143780	0.072873	0.246176	0.546026	0.081059	0.430580	0.183460	0.334196	0.147570	0.087731	0.160891	0.231761	0.081463	0.711103	0.209234	0.442031	0.190677	0.051214	0.139589	0.551769	0.101128	0.472691	0.258660	0.449630	0.223537	0.146836	0.140833	0.509147	0.320630	0.449265	0.270969	0.522890	0.365823	0.107473	0.331972	0.290231	0.711908	0.338321	0.463838	0.285462	0.191529	0.095822	0.293033	0.319048	0.880648
34	0.281812	0.467083	0.365944	0.204672	0.091893	0.157338	0.172595	0.078551	0.314356	0.245433	0.565159	0.380954	0.133328	0.346493	0.438102	0.171934	0.605072	0.213266	0.516758	0.147078	0.071973	0.218740	0.625421	0.081464	0.395636	0.173847	0.332746	0.148455	0.082879	0.159884	0.233783	0.082647	0.711726	0.208620	0.436524	0.189980	0.056711	0.147681	0.553715	0.088989	0.441970	0.248267	0.446280	0.223333	0.146365	0.137641	0.510919	0.306981	0.449586	0.263999	0.469100	0.342848	0.103151	0.362415	0.303109	0.997194	0.225767	0.469543	0.279130	0.179484	0.095512	0.285217	0.315552	0.879808
35	0.281798	0.470093	0.351647	0.171701	0.095134	0.165265	0.175540	0.077777	0.281760	0.278523	0.465884	0.329251	0.133301	0.340811	0.460259	0.171139	0.602882	0.212780	0.511933	0.158139	0.069494	0.204869	0.668811	0.082900	0.354617	0.173751	0.332666	0.147408	0.082373	0.122675	0.230559	0.076879	0.696413	0.208682	0.419274	0.190020	0.057671	0.153390	0.564268	0.104426	0.442943	0.217458	0.434328	0.221969	0.143825	0.141127	0.507812	0.277462	0.455351	0.264257	0.463609	0.330303	0.096922	0.365356	0.304520	1.304516	0.179887	0.485258	0.260354	0.174426	0.099375	0.291339	0.325579	0.864827
36	0.284286	0.462795	0.326864	0.134737	0.099629	0.150597	0.193767	0.073546	0.279200	0.310356	0.380969	0.277154	0.132529	0.330039	0.506135	0.166341	0.595333	0.208186	0.516453	0.164239	0.066587	0.200663	0.667176	0.086077	0.334160	0.176470	0.335930	0.145213	0.079806	0.104843	0.230746	0.071742	0.631003	0.207890	0.413092	0.188922	0.077410	0.157697	0.562807	0.104355	0.424374	0.184473	0.420049	0.217487	0.144346	0.147696	0.503018	0.252007	0.470781	0.261780	0.467965	0.306851	0.090731	0.366887	0.314382	1.613672	0.066416	0.508013	0.261291	0.175232	0.100408	0.288886	0.334860	0.640668
37	0.285489	0.447506	0.327129	0.121703	0.098717	0.147178	0.202030	0.064377	0.279469	0.422704	0.376754	0.267829	0.132517	0.302542	0.490542	0.160291	0.588832	0.206553	0.513304	0.169207	0.058508	0.197154	0.642146	0.076655	0.322011	0.173287	0.333415	0.143247	0.076877	0.107099	0.231177	0.067988	0.536831	0.206508	0.407449	0.183665	0.081252	0.174535	0.580442	0.094591	0.373865	0.176861	0.398208	0.214013	0.144906	0.149742	0.513273	0.188652	0.517289	0.261255	0.401843	0.257104	0.087134	0.367768	0.325374	1.918526	0.073650	0.505180	0.267886	0.174640	0.100287	0.275721	0.342102	0.366125
38	0.286154	0.445189	0.328184	0.125960	0.100837	0.138289	0.257333	0.073287	0.322136	0.465351	0.441363	0.270201	0.124106	0.276007	0.497072	0.118335	0.573904	0.203574	0.466677	0.173963	0.058961	0.195518	0.638922	0.073377	0.319996	0.168233	0.310561	0.143113	0.075299	0.132172	0.239904	0.064680	0.483569	0.204653	0.411943	0.175489	0.085354	0.177910	0.530369	0.086387	0.357364	0.165942	0.392864	0.206678	0.144511	0.168342	0.517004	0.161368	0.521419	0.256007	0.325022	0.204028	0.089383	0.270996	0.424063	2.206058	0.082504	0.514726	0.355269	0.201886	0.098873	0.270367	0.330738	0.316061
39	0.286007	0.443462	0.337242	0.131574	0.101477	0.134115	0.255863	0.073219	0.310104	0.466328	0.484894	0.260163	0.089613	0.249547	0.489032	0.106830	0.454562	0.200603	0.434431	0.174535	0.058082	0.162606	0.639448	0.082099	0.321171	0.178930	0.292879	0.155240	0.070243	0.136877	0.201748	0.062090	0.471215	0.202860	0.418760	0.168949	0.086594	0.179433	0.552465	0.088555	0.324292	0.161615	0.396731	0.199968	0.142152	0.206404	0.515251	0.158079	0.533098	0.230176	0.327338	0.173243	0.075966	0.239259	0.483797	2.331267	0.078840	0.411485	0.408842	0.220075	0.097363	0.234257	0.296990	0.240680
40	0.283601	0.443916	0.341039	0.135891	0.100273	0.135553	0.283557	0.072703	0.316974	0.467509	0.485162	0.231456	0.085460	0.238420	0.477329	0.091963	0.329483	0.201913	0.439345	0.174574	0.057812	0.138078	0.605062	0.092530	0.326211	0.180770	0.281412	0.153378	0.081595	0.198231	0.189736	0.056573	0.472829	0.218099	0.420371	0.161259	0.088160	0.170368	0.520309	0.088128	0.301127	0.136736	0.465310	0.198365	0.132243	0.220494	0.487015	0.168813	0.534460	0.220053	0.300499	0.159475	0.062537	0.229628	0.525517	2.516449	0.073950	0.337605	0.409783	0.221245	0.093609	0.234606	0.256085	0.182307
41	0.278977	0.440178	0.345978	0.136387	0.098376	0.141207	0.300119	0.071994	0.316247	0.469988	0.462705	0.180842	0.073467	0.230571	0.447977	0.084062	0.254883	0.203483	0.451816	0.174578	0.062163	0.169446	0.439217	0.094165	0.319022	0.237855	0.390756	0.180475	0.080533	0.283919	0.226374	0.080512	0.331180	0.238500	0.409573	0.153029	0.086912	0.166593	0.493878	0.093543	0.236533	0.127789	0.529031	0.197954	0.089538	0.212645	0.470546	0.161980	0.486291	0.188457	0.262069	0.144662	0.060775	0.224613	0.495931	2.652190	0.073069	0.322957	0.385019	0.230667	0.072956	0.249044	0.241193	0.156905
42	0.274352	0.415297	0.342706	0.142283	0.095917	0.196651	0.300111	0.072409	0.317519	0.474839	0.398657	0.120447	0.065829	0.228092	0.437081	0.083238	0.217895	0.198446	0.451377	0.161526	0.099535	0.173007	0.436604	0.093737	0.274050	0.264406	0.479049	0.220728	0.083072	0.291817	0.234490	0.084327	0.295179	0.232323	0.445727	0.148144	0.085103	0.248098	0.456730	0.096761	0.206275	0.127921	0.521848	0.196964	0.061228	0.207336	0.350843	0.162861	0.481447	0.134987	0.263635	0.167178	0.061993	0.220030	0.485802	2.739448	0.078070	0.306875	0.380440	0.253911	0.068336	0.229720	0.238647	0.127998
43	0.274212	0.388707	0.356190	0.151769	0.090997	0.294497	0.303433	0.076642	0.321300	0.475873	0.375950	0.094516	0.066332	0.227464	0.411803	0.089410	0.211821	0.181406	0.452259	0.143443	0.100181	0.187095	0.441405	0.089940	0.278368	0.266020	0.506273	0.230074	0.071087	0.312132	0.228718	0.088703	0.290758	0.229859	0.545330	0.148930	0.087727	0.260924	0.345843	0.096980	0.208867	0.113167	0.483287	0.189507	0.051205	0.208286	0.319698	0.168270	0.480150	0.135662	0.264218	0.173671	0.061196	0.219460	0.487046	2.800009	0.077297	0.304156	0.389348	0.287910	0.052121	0.244972	0.215077	0.076354
44	0.271313	0.336045	0.357741	0.154752	0.082935	0.335607	0.317722	0.069990	0.321700	0.476900	0.352805	0.091661	0.084635	0.228425	0.389553	0.095382	0.210637	0.178199	0.397377	0.140808	0.109260	0.201122	0.411893	0.092700	0.291695	0.267599	0.508093	0.229927	0.065307	0.311501	0.248119	0.090015	0.296217	0.238761	0.616290	0.145491	0.090924	0.264847	0.334032	0.096018	0.199369	0.111364	0.455932	0.174321	0.048542	0.211262	0.298302	0.172125	0.537374	0.159479	0.330976	0.166856	0.059420	0.219960	0.512439	2.844853	0.077285	0.304975	0.393745	0.327744	0.050745	0.233198	0.218583	0.065382
45	0.268558	0.287958	0.351209	0.156203	0.079422	0.346742	0.315510	0.066764	0.323169	0.477012	0.346477	0.091605	0.088964	0.241109	0.385361	0.095677	0.206443	0.180578	0.322276	0.138527	0.113983	0.210642	0.276117	0.092957	0.301017	0.267229	0.508775	0.233113	0.065296	0.337236	0.259971	0.089606	0.303474	0.226539	0.652803	0.141959	0.097267	0.265546	0.333206	0.085559	0.199053	0.124446	0.441899	0.156228	0.050375	0.214792	0.268300	0.163612	0.576322	0.173032	0.336420	0.153325	0.070515	0.219687	0.554883	2.875914	0.088581	0.305232	0.497188	0.373597	0.058757	0.388478	0.226650	0.071577
46	0.183797	0.203662	0.329800	0.152481	0.071833	0.365009	0.315662	0.066807	0.338386	0.477467	0.346266	0.105176	0.093372	0.265517	0.337702	0.084158	0.209699	0.183089	0.299518	0.134489	0.112364	0.220468	0.237132	0.089872	0.299741	0.262523	0.523659	0.232920	0.067242	0.346735	0.305900	0.089521	0.291263	0.211624	0.647229	0.139353	0.083140	0.262896	0.330605	0.079639	0.182389	0.132846	0.427147	0.139115	0.060286	0.214083	0.268428	0.166671	0.582404	0.180246	0.323837	0.144878	0.070060	0.217980	0.597668	2.895518	0.102369	0.305525	0.652859	0.388300	0.089272	0.389518	0.247550	0.072777
47	0.095499	0.199212	0.297984	0.150335	0.067967	0.363165	0.334888	0.067228	0.340273	0.477410	0.345558	0.118867	0.094567	0.262186	0.238134	0.079594	0.225326	0.185362	0.304140	0.143036	0.117171	0.263612	0.290829	0.090213	0.293102	0.259473	0.570017	0.233617	0.068706	0.347229	0.333530	0.091088	0.243122	0.208062	0.644415	0.156359	0.084162	0.244548	0.332837	0.074704	0.162918	0.139888	0.410555	0.129472	0.069982	0.214862	0.272755	0.165430	0.586222	0.195490	0.348043	0.146379	0.070176	0.212731	0.618672	2.884261	0.104949	0.305822	0.686750	0.393351	0.092469	0.409430	0.224738	0.076633
48	0.097548	0.187712	0.293518	0.152209	0.060771	0.382195	0.323755	0.070380	0.323339	0.478656	0.356535	0.120204	0.095771	0.255426	0.198358	0.090931	0.237313	0.184244	0.349208	0.146021	0.115101	0.280168	0.301598	0.102788	0.281690	0.264207	0.562371	0.233954	0.069897	0.359266	0.329801	0.110065	0.232230	0.216013	0.636870	0.154148	0.088400	0.244341	0.362147	0.072619	0.206740	0.140463	0.409351	0.124591	0.070415	0.219147	0.243196	0.166292	0.583157	0.197536	0.383092	0.162604	0.070930	0.155794	0.627252	2.826584	0.105196	0.309638	0.686194	0.475823	0.105937	0.437496	0.254573	0.080430
49	0.103668	0.181678	0.288865	0.157795	0.059754	0.510082	0.320796	0.072757	0.290420	0.458428	0.361937	0.119987	0.093463	0.249142	0.187632	0.111862	0.214935	0.170661	0.415450	0.146476	0.116755	0.275828	0.309009	0.115650	0.266423	0.272162	0.586025	0.235999	0.076163	0.358822	0.319080	0.115877	0.235114	0.216155	0.625508	0.146972	0.082245	0.241645	0.372288	0.073418	0.242797	0.140803	0.419057	0.123627	0.072947	0.213154	0.225934	0.152203	0.531458	0.208946	0.403388	0.194394	0.073001	0.111713	0.625048	2.715916	0.104590	0.311447	0.687879	0.682787	0.118735	0.454770	0.318107	0.081652
50	0.138722	0.178887	0.289862	0.165740	0.049569	0.518799	0.278830	0.061228	0.291994	0.499396	0.382707	0.123575	0.092420	0.255364	0.184101	0.107041	0.210136	0.151363	0.530987	0.148584	0.115582	0.267661	0.329667	0.109961	0.262861	0.272285	0.607747	0.237683	0.080086	0.358601	0.321451	0.115885	0.241951	0.215653	0.609878	0.145896	0.083136	0.239948	0.375046	0.077100	0.243811	0.144838	0.422040	0.125289	0.094728	0.169379	0.218824	0.146617	0.493974	0.218970	0.422017	0.223380	0.074682	0.100476	0.630499	2.556854	0.110622	0.315214	0.688572	0.933495	0.121811	0.468543	0.344681	0.082144
51	0.161337	0.183929	0.280009	0.173235	0.048545	0.525322	0.286175	0.067647	0.289211	0.535955	0.395849	0.124507	0.087715	0.265720	0.184759	0.120912	0.259872	0.133449	0.580733	0.148254	0.120405	0.250697	0.341318	0.102173	0.259614	0.272515	0.612067	0.239139	0.075820	0.307410	0.398359	0.117398	0.233228	0.214553	0.601389	0.146512	0.085484	0.217379	0.373225	0.068538	0.245296	0.151478	0.433844	0.125559	0.098330	0.154170	0.220901	0.143347	0.490014	0.236899	0.449943	0.228464	0.075383	0.096658	0.633985	2.360569	0.116566	0.315252	0.691064	1.235182	0.121582	0.510940	0.352726	0.075787
52	0.157636	0.188409	0.285328	0.177724	0.070913	0.540149	0.326484	0.067309	0.291684	0.517949	0.403072	0.124516	0.099638	0.268369	0.181703	0.137098	0.296564	0.126115	0.656701	0.143668	0.103091	0.248792	0.336589	0.118707	0.216111	0.274626	0.621304	0.241255	0.079782	0.249081	0.420304	0.111760	0.223043	0.212514	0.601369	0.149296	0.085055	0.127224	0.368608	0.068386	0.246156	0.156736	0.478628	0.127382	0.098760	0.172283	0.218193	0.138463	0.495477	0.259511	0.456430	0.227954	0.076310	0.088356	0.604851	2.126927	0.117294	0.295152	0.707746	1.558166	0.124315	0.516026	0.393151	0.070926
53	0.157153	0.186163	0.300883	0.170406	0.074256	0.559471	0.313953	0.064735	0.294253	0.427228	0.414382	0.117244	0.106585	0.267243	0.144432	0.149572	0.384151	0.129019	0.762665	0.129507	0.084443	0.257290	0.325395	0.135927	0.197275	0.279188	0.638990	0.244889	0.083571	0.244108	0.427975	0.119123	0.217657	0.212769	0.601536	0.156561	0.078971	0.066293	0.365516	0.067527	0.243200	0.155201	0.516905	0.128143	0.096874	0.165863	0.195975	0.139473	0.506230	0.294871	0.463029	0.227206	0.079408	0.089932	0.559111	1.863356	0.118718	0.255299	0.729076	1.687984	0.124728	0.516060	0.407032	0.063897
54	0.157664	0.186539	0.278109	0.161297	0.080128	0.565331	0.314038	0.068635	0.240639	0.426529	0.366682	0.109618	0.105020	0.266424	0.137479	0.148856	0.402367	0.134674	0.797324	0.124459	0.083369	0.391558	0.334329	0.142780	0.198459	0.277094	0.697117	0.248793	0.098884	0.221678	0.440926	0.115102	0.223569	0.213085	0.606697	0.167909	0.059554	0.052490	0.362650	0.061003	0.254744	0.152142	0.519703	0.119695	0.099839	0.161717	0.154734	0.136089	0.521927	0.334740	0.459062	0.226948	0.079672	0.095908	0.504589	1.626995	0.166242	0.206041	0.731321	1.784600	0.125685	0.505251	0.411235	0.061440
55	0.157531	0.183025	0.267734	0.156242	0.078336	0.524108	0.317675	0.065796	0.241207	0.458994	0.344136	0.111859	0.088031	0.258005	0.131341	0.145297	0.415788	0.166717	0.797978	0.129279	0.069668	0.424037	0.339658	0.141690	0.194116	0.270104	0.756574	0.251370	0.103333	0.217015	0.443485	0.114520	0.236327	0.212996	0.618924	0.183522	0.056211	0.048206	0.326232	0.054264	0.261038	0.150472	0.514077	0.104784	0.110399	0.205736	0.099449	0.126328	0.493123	0.355560	0.455513	0.226335	0.078994	0.098278	0.514995	1.381059	0.296323	0.187043	0.722881	1.837861	0.127385	0.496587	0.401876	0.061368
56	0.155532	0.177967	0.242854	0.157358	0.077806	0.505110	0.321710	0.068118	0.240029	0.480741	0.350609	0.126633	0.081856	0.187119	0.124023	0.143518	0.428393	0.188082	0.828745	0.130868	0.079529	0.423816	0.341610	0.141738	0.202421	0.260978	0.783576	0.248736	0.108662	0.205133	0.449628	0.113990	0.239001	0.212997	0.637571	0.189454	0.054507	0.083632	0.322246	0.048714	0.260986	0.157384	0.516531	0.097225	0.119771	0.226659	0.099317	0.122073	0.499366	0.354547	0.456019	0.225483	0.082845	0.169710	0.539685	1.160688	0.420590	0.170075	0.685895	1.882187	0.124296	0.385799	0.400188	0.054269
57	0.152905	0.175985	0.248499	0.156043	0.078271	0.496757	0.320948	0.082308	0.241742	0.486569	0.357157	0.125810	0.078709	0.185567	0.112636	0.143081	0.456245	0.194118	0.900094	0.129182	0.077188	0.428424	0.318360	0.141760	0.232614	0.253852	0.795384	0.236179	0.107430	0.245397	0.421382	0.113966	0.246993	0.213160	0.637439	0.189771	0.045477	0.106269	0.265104	0.050644	0.259222	0.162449	0.509289	0.093645	0.120101	0.261734	0.097624	0.117322	0.505085	0.356368	0.461676	0.225848	0.095629	0.190253	0.546546	0.967309	0.522405	0.239715	0.664704	1.918376	0.099133	0.375169	0.379125	0.052864
58	0.179625	0.176761	0.281533	0.143849	0.081798	0.483983	0.327674	0.085865	0.235683	0.486327	0.390969	0.124459	0.077310	0.252476	0.119749	0.143260	0.470178	0.192850	0.970972	0.128704	0.082306	0.422219	0.272615	0.136318	0.258020	0.236780	0.789178	0.225348	0.117842	0.332748	0.403339	0.105616	0.273315	0.211074	0.631995	0.189702	0.040164	0.108776	0.167587	0.044172	0.259233	0.169364	0.437325	0.099657	0.114501	0.265053	0.086079	0.106880	0.529767	0.377184	0.476851	0.225265	0.104386	0.216017	0.549880	0.790263	0.558314	0.289434	0.661978	1.941783	0.094917	0.350762	0.377821	0.047436
59	0.317392	0.173582	0.292370	0.136038	0.081258	0.486730	0.319423	0.088068	0.232739	0.486214	0.516714	0.124089	0.078195	0.256198	0.143864	0.133937	0.475411	0.190605	1.011355	0.129006	0.084822	0.499387	0.265428	0.128675	0.318094	0.179641	0.728323	0.186990	0.156663	0.342792	0.401655	0.083093	0.286247	0.196266	0.630687	0.189712	0.044726	0.145468	0.107916	0.041509	0.260343	0.175388	0.380920	0.099863	0.109122	0.278722	0.084561	0.096951	0.544825	0.383189	0.534962	0.226025	0.109205	0.239220	0.516042	0.640185	0.565050	0.304365	0.665396	1.958103	0.096958	0.317553	0.345349	0.039447
60	0.455971	0.186294	0.386975	0.134643	0.082761	0.468661	0.315849	0.091939	0.232714	0.487528	0.608534	0.123231	0.077517	0.265215	0.162384	0.121590	0.485476	0.189461	1.014703	0.129365	0.090899	0.509025	0.240111	0.112292	0.354959	0.162964	0.699071	0.147774	0.161735	0.339072	0.403963	0.078241	0.289242	0.157538	0.630641	0.189735	0.039602	0.152403	0.103727	0.033471	0.256729	0.180557	0.376287	0.097606	0.108634	0.304186	0.077888	0.107774	0.536938	0.391708	0.590084	0.215448	0.123958	0.253761	0.458474	0.514011	0.635321	0.314274	0.680598	1.964702	0.090385	0.317823	0.290561	0.036419
61	0.536141	0.214020	0.645581	0.138560	0.096550	0.326937	0.319042	0.089845	0.233131	0.493479	0.617632	0.122804	0.074366	0.262309	0.175200	0.117957	0.488330	0.190678	1.015731	0.128497	0.089813	0.508251	0.215510	0.109058	0.356972	0.161712	0.706486	0.142285	0.159261	0.362538	0.389352	0.078300	0.298274	0.145436	0.592116	0.188787	0.048377	0.154684	0.103584	0.033336	0.253680	0.175504	0.380520	0.092298	0.094478	0.303031	0.076283	0.103318	0.538631	0.402102	0.603200	0.204638	0.124517	0.340824	0.436715	0.402467	0.714694	0.331834	0.707136	1.970901	0.097048	0.347075	0.260477	0.039832
62	0.589422	0.212744	0.763415	0.139349	0.099072	0.331838	0.323902	0.091979	0.224479	0.493767	0.695314	0.104732	0.076167	0.255087	0.175637	0.100138	0.491699	0.185905	1.019964	0.128209	0.082991	0.505684	0.309110	0.105062	0.365357	0.229007	0.733414	0.136952	0.165730	0.497658	0.295393	0.073617	0.304205	0.144071	0.504675	0.188168	0.075659	0.160191	0.108906	0.031962	0.254074	0.164963	0.383119	0.089635	0.085085	0.305308	0.058661	0.090193	0.546972	0.422988	0.584236	0.211762	0.124185	0.566840	0.428743	0.312365	0.768378	0.384408	0.712878	1.970941	0.103810	0.288702	0.274051	0.042028
63	0.610728	0.240303	0.799094	0.137264	0.096830	0.354908	0.299895	0.090251	0.228126	0.494237	0.777556	0.097754	0.073231	0.262569	0.179991	0.074880	0.527930	0.197351	1.023509	0.129836	0.084027	0.503839	0.386976	0.085941	0.362594	0.379847	0.749627	0.129115	0.171725	0.520119	0.267301	0.050952	0.301992	0.135413	0.391487	0.186898	0.087087	0.161829	0.114450	0.032506	0.251149	0.155698	0.396279	0.090508	0.082970	0.292832	0.059992	0.076228	0.549506	0.429615	0.558324	0.212019	0.129452	0.573614	0.424700	0.273154	0.806329	0.396219	0.616636	1.964736	0.102623	0.316052	0.245612	0.047255
64	0.720575	0.239232	0.819544	0.129394	0.081847	0.328573	0.223068	0.091950	0.230078	0.485988	0.819149	0.103757	0.079825	0.310031	0.184086	0.048513	0.532012	0.199583	1.022794	0.130507	0.084473	0.461564	0.410828	0.082434	0.397547	0.702819	0.725937	0.124598	0.170461	0.517990	0.299101	0.042560	0.310723	0.133509	0.307619	0.176718	0.140041	0.163099	0.123507	0.032785	0.265497	0.148476	0.397752	0.093860	0.090602	0.292700	0.067291	0.070146	0.566829	0.441337	0.557549	0.216294	0.130698	0.609257	0.428655	0.275316	0.831028	0.398492	0.480744	1.964059	0.105639	0.319851	0.222481	0.048208
65	0.841609	0.254121	0.834053	0.118975	0.076670	0.294550	0.216907	0.093818	0.230725	0.457595	0.907747	0.102702	0.083032	0.338928	0.185060	0.040989	0.532133	0.221584	1.018870	0.124845	0.090020	0.480704	0.396810	0.078499	0.454961	0.765304	0.691918	0.120325	0.164637	0.518113	0.290624	0.042586	0.318645	0.152098	0.315638	0.167256	0.219781	0.161547	0.124237	0.033763	0.273343	0.156598	0.402223	0.091437	0.092058	0.295078	0.136197	0.068513	0.571753	0.447390	0.573176	0.222012	0.131206	0.631285	0.420848	0.280471	0.840175	0.396948	0.462921	1.964406	0.107279	0.320848	0.209448	0.051564
66	0.869788	0.250585	0.838592	0.104932	0.073226	0.245065	0.215817	0.090277	0.225007	0.378321	0.952115	0.098359	0.088594	0.359437	0.186109	0.040175	0.526337	0.235845	1.014610	0.116149	0.109149	0.600007	0.406604	0.080607	0.453912	0.966518	0.687993	0.116478	0.161416	0.516686	0.264050	0.042373	0.381591	0.165335	0.417508	0.141261	0.238598	0.135282	0.128633	0.033136	0.225028	0.208461	0.401880	0.093549	0.086920	0.293277	0.143064	0.069034	0.583036	0.452123	0.672325	0.214086	0.130213	0.689957	0.425227	0.286775	0.842051	0.417079	0.467470	1.944280	0.124439	0.331001	0.195368	0.065337
67	0.876872	0.249113	0.886574	0.091348	0.088047	0.259200	0.202299	0.088967	0.225101	0.321124	0.956669	0.097195	0.091237	0.358946	0.194334	0.040316	0.526923	0.244762	1.004537	0.116525	0.126846	0.691654	0.426795	0.090593	0.454580	1.113014	0.653979	0.110667	0.161307	0.501870	0.243499	0.042151	0.384355	0.153715	0.564632	0.130766	0.316642	0.130950	0.130277	0.029001	0.202766	0.233526	0.405742	0.099579	0.075294	0.247859	0.143371	0.069160	0.590577	0.448708	0.774724	0.194229	0.132515	0.701807	0.472288	0.292602	0.841966	0.432361	0.509254	1.871111	0.158236	0.335383	0.210218	0.081325
68	0.880937	0.249098	0.938972	0.085539	0.099544	0.254476	0.174075	0.085705	0.214434	0.320720	1.024561	0.118521	0.093203	0.343058	0.202705	0.039912	0.527225	0.259584	0.955049	0.114737	0.142135	0.698030	0.460203	0.106417	0.478831	1.129203	0.641163	0.106480	0.161944	0.477551	0.259045	0.042939	0.415695	0.170728	0.586025	0.131747	0.346885	0.119009	0.136130	0.026878	0.196477	0.283500	0.407729	0.099836	0.068005	0.220076	0.166137	0.069237	0.591257	0.455529	0.792217	0.167300	0.131531	0.705093	0.473763	0.298927	0.840910	0.431843	0.592489	1.738660	0.204586	0.335475	0.228587	0.090491
69	0.880886	0.250769	0.983812	0.084333	0.103314	0.270124	0.179310	0.073393	0.188052	0.317458	1.058628	0.134619	0.113255	0.304223	0.197702	0.036552	0.507395	0.269030	0.912348	0.113621	0.139687	0.675834	0.494582	0.110747	0.484406	1.133034	0.637589	0.101673	0.151110	0.414386	0.261080	0.045215	0.464679	0.179210	0.585950	0.131332	0.350562	0.079817	0.178835	0.030565	0.193577	0.307875	0.387745	0.099903	0.065512	0.197217	0.212394	0.069305	0.597093	0.459112	0.780181	0.154443	0.131148	0.705053	0.461097	0.300766	0.840485	0.431534	0.623046	1.540148	0.300937	0.336769	0.230428	0.094107
70	0.880942	0.258290	0.993415	0.084762	0.106211	0.291109	0.231406	0.078212	0.180559	0.271688	1.052640	0.137349	0.130285	0.297157	0.177743	0.023554	0.480700	0.269775	0.875981	0.113470	0.135990	0.640261	0.496954	0.110700	0.484948	1.139211	0.627136	0.093830	0.112256	0.405027	0.261093	0.046878	0.482515	0.178612	0.586281	0.131959	0.368259	0.091731	0.207329	0.041693	0.194872	0.394046	0.322406	0.097398	0.067470	0.191254	0.225727	0.070824	0.613048	0.446130	0.782524	0.150616	0.130972	0.697283	0.419819	0.295790	0.840899	0.432339	0.598488	1.170947	0.306866	0.333909	0.229276	0.096776
71	0.882213	0.262963	0.997992	0.084502	0.115980	0.285259	0.255381	0.083741	0.156803	0.215293	1.059072	0.133070	0.147720	0.283010	0.170097	0.020718	0.437571	0.264564	0.806087	0.115641	0.133211	0.638950	0.497348	0.109986	0.487898	1.139690	0.603287	0.081456	0.107302	0.407708	0.256730	0.049204	0.495349	0.179642	0.596147	0.136414	0.419434	0.084909	0.212197	0.042294	0.193805	0.399849	0.289636	0.111217	0.069026	0.132259	0.235049	0.059764	0.620446	0.431735	0.784515	0.148737	0.124096	0.685442	0.403720	0.282749	0.841871	0.435555	0.575430	1.074963	0.315548	0.309220	0.225182	0.098713
72	0.884406	0.288938	1.019449	0.077582	0.117008	0.287908	0.256544	0.077446	0.158471	0.166558	1.083284	0.123749	0.148740	0.273749	0.186624	0.026641	0.412384	0.266590	0.778652	0.114128	0.133441	0.639830	0.486691	0.108801	0.490634	1.139457	0.527660	0.068141	0.103077	0.348704	0.263274	0.050343	0.522404	0.185014	0.625345	0.129628	0.422467	0.104783	0.216448	0.045408	0.171838	0.406215	0.317419	0.147168	0.069449	0.124636	0.235244	0.051141	0.622359	0.419814	0.792572	0.148675	0.113833	0.681889	0.384674	0.261188	0.831675	0.437867	0.578097	0.904621	0.330432	0.253030	0.223247	0.099264
73	0.883390	0.292049	1.031461	0.072898	0.104576	0.300188	0.244155	0.078114	0.176275	0.145602	1.101638	0.126296	0.190816	0.267872	0.194790	0.028638	0.407133	0.253236	0.807818	0.102746	0.133875	0.639933	0.447206	0.104598	0.491349	1.139505	0.447764	0.061203	0.084393	0.150654	0.258929	0.049394	0.543832	0.186355	0.624869	0.116508	0.420556	0.186194	0.257446	0.045554	0.168566	0.407938	0.316849	0.155891	0.068332	0.120178	0.240482	0.050437	0.622190	0.403179	0.808802	0.148485	0.107357	0.671276	0.376463	0.234669	0.788822	0.440249	0.604269	0.780439	0.434026	0.237197	0.199588	0.097194
74	0.858872	0.290472	1.027078	0.070987	0.103077	0.282748	0.235464	0.077690	0.186601	0.139016	1.085210	0.137733	0.222919	0.251501	0.206173	0.029176	0.402686	0.235622	0.807656	0.088462	0.133257	0.636348	0.394607	0.094266	0.494278	1.139590	0.422330	0.065615	0.067655	0.099808	0.231811	0.050367	0.540558	0.191810	0.690356	0.100076	0.399478	0.193889	0.258002	0.045151	0.167142	0.406452	0.311154	0.152179	0.067434	0.107589	0.249473	0.050605	0.615672	0.401521	0.826196	0.147777	0.092532	0.670841	0.378987	0.205132	0.729158	0.430115	0.604663	0.680841	0.509701	0.140585	0.172337	0.091661
75	0.790546	0.286726	1.000271	0.073451	0.104349	0.271425	0.247196	0.074983	0.187194	0.143325	1.029145	0.166942	0.233632	0.206918	0.269345	0.030425	0.416327	0.226929	0.741898	0.085251	0.134029	0.615730	0.389144	0.081405	0.479752	1.139279	0.437194	0.066296	0.058634	0.098574	0.152295	0.044711	0.543173	0.194188	0.781842	0.091682	0.368243	0.220937	0.266584	0.044029	0.166168	0.403658	0.307505	0.151659	0.064575	0.104544	0.248196	0.048739	0.601418	0.401374	0.834737	0.147063	0.080131	0.642229	0.362574	0.184129	0.672038	0.388784	0.605084	0.577242	0.522879	0.128141	0.178486	0.091428
76	0.737669	0.259055	0.897438	0.072464	0.106558	0.327419	0.294406	0.071273	0.188072	0.144915	0.998805	0.204254	0.234134	0.149288	0.317671	0.040734	0.431525	0.228126	0.637307	0.090263	0.126420	0.470826	0.369583	0.081042	0.458644	1.139030	0.472055	0.066350	0.057551	0.092209	0.142507	0.044580	0.538568	0.194374	0.836415	0.090746	0.348019	0.250261	0.270563	0.044428	0.167452	0.400769	0.317153	0.149428	0.052737	0.108398	0.228172	0.043043	0.586981	0.386847	0.826274	0.146155	0.078916	0.531052	0.330844	0.179180	0.652789	0.351709	0.608014	0.499830	0.527749	0.122741	0.238391	0.099610
77	0.689192	0.256295	0.771505	0.074936	0.109983	0.363005	0.310741	0.068450	0.171272	0.164480	0.994888	0.238938	0.234241	0.107951	0.323844	0.054343	0.475957	0.231390	0.542677	0.094987	0.089476	0.376260	0.350740	0.077727	0.416966	1.138985	0.466531	0.070913	0.058288	0.089167	0.143610	0.044174	0.524957	0.192450	0.867467	0.091589	0.289577	0.280016	0.272182	0.043344	0.170902	0.396578	0.332538	0.150315	0.051739	0.131481	0.218601	0.041868	0.609069	0.374339	0.793726	0.145455	0.071573	0.460393	0.315472	0.172968	0.639630	0.339273	0.605228	0.441303	0.524944	0.084478	0.261981	0.135486
78	0.674612	0.232016	0.730953	0.084418	0.110526	0.418476	0.319884	0.068098	0.158236	0.186893	0.948507	0.257382	0.236829	0.126847	0.330629	0.056969	0.541218	0.248399	0.503804	0.099804	0.072878	0.162075	0.318745	0.056744	0.397144	1.138742	0.447573	0.070552	0.052151	0.086669	0.134010	0.044335	0.512619	0.190136	0.885313	0.092540	0.271179	0.287011	0.266899	0.042850	0.169792	0.394973	0.330231	0.157626	0.040899	0.141286	0.220198	0.042664	0.612681	0.366376	0.751787	0.139130	0.060113	0.429958	0.308039	0.159470	0.556713	0.330900	0.579134	0.392159	0.515844	0.063898	0.247206	0.314719
79	0.576708	0.223187	0.703326	0.086361	0.100015	0.530568	0.337214	0.067831	0.150372	0.191510	0.915829	0.261994	0.241432	0.139961	0.347018	0.056806	0.539016	0.258676	0.496045	0.112336	0.055979	0.136496	0.251655	0.028250	0.385181	1.138352	0.432926	0.066924	0.051491	0.086882	0.102606	0.043354	0.506244	0.186438	0.891515	0.091470	0.273178	0.286875	0.231929	0.033860	0.167300	0.395165	0.346158	0.170667	0.036513	0.171032	0.216037	0.044756	0.614404	0.356235	0.737463	0.136765	0.061342	0.405092	0.309999	0.148454	0.454098	0.289971	0.539931	0.333644	0.499698	0.064840	0.239461	0.526345
80	0.370699	0.202174	0.686419	0.082484	0.088046	0.548653	0.339938	0.067704	0.139954	0.190394	0.871724	0.261508	0.234203	0.142845	0.357919	0.056782	0.537743	0.265706	0.489787	0.116875	0.058287	0.221353	0.217283	0.020952	0.371965	1.123199	0.416265	0.066372	0.047130	0.089027	0.107147	0.041120	0.500014	0.176902	0.891928	0.091156	0.199192	0.284625	0.217284	0.027868	0.167026	0.395278	0.389331	0.176683	0.039336	0.213160	0.184805	0.046314	0.612317	0.340787	0.733483	0.120488	0.063203	0.306394	0.315277	0.137248	0.368089	0.236909	0.529752	0.306828	0.450115	0.065927	0.261354	0.551155
81	0.202892	0.197899	0.718044	0.083530	0.088596	0.546143	0.338417	0.064936	0.138925	0.186200	0.787254	0.261234	0.225897	0.142670	0.357863	0.056338	0.516958	0.267263	0.487100	0.116903	0.060821	0.281001	0.217382	0.019168	0.374041	1.058206	0.406757	0.064652	0.043916	0.096951	0.107392	0.038984	0.494893	0.175345	0.891842	0.090131	0.139619	0.284478	0.236012	0.026907	0.165589	0.394950	0.418829	0.176604	0.036058	0.220240	0.148427	0.045146	0.543330	0.312130	0.733106	0.119747	0.061931	0.329795	0.251149	0.123003	0.278287	0.219304	0.542558	0.302662	0.448716	0.079093	0.266329	0.576916
82	0.153290	0.191203	0.775431	0.083961	0.085166	0.537773	0.295460	0.052886	0.173951	0.178169	0.740589	0.262394	0.215736	0.142527	0.349665	0.053521	0.496860	0.261524	0.496868	0.116144	0.077930	0.285686	0.224601	0.019388	0.296180	0.877413	0.406502	0.060583	0.046634	0.091274	0.118095	0.036902	0.492120	0.171997	0.892227	0.090375	0.112990	0.265465	0.217027	0.021465	0.131802	0.397351	0.443762	0.176342	0.035460	0.214805	0.143568	0.039416	0.535370	0.294058	0.734168	0.115900	0.064183	0.389027	0.183091	0.107534	0.205112	0.219321	0.537100	0.298756	0.445548	0.083087	0.279543	0.590042
83	0.118376	0.195381	0.823249	0.085612	0.073144	0.538487	0.270038	0.038641	0.222201	0.174469	0.726701	0.263484	0.215622	0.141402	0.341510	0.051943	0.495816	0.249866	0.524090	0.115171	0.082753	0.283656	0.195772	0.018079	0.243070	0.844478	0.411055	0.058100	0.045601	0.103803	0.131940	0.043019	0.482288	0.175687	0.890761	0.095789	0.109550	0.227990	0.168704	0.023065	0.120405	0.387251	0.464247	0.178902	0.033738	0.211196	0.141844	0.028875	0.563673	0.272357	0.728038	0.101567	0.063606	0.430344	0.189832	0.082422	0.176971	0.218246	0.536690	0.271025	0.434411	0.079829	0.279884	0.594783
84	0.126424	0.205784	0.794535	0.093656	0.072737	0.535636	0.309997	0.038361	0.242980	0.170389	0.602679	0.256534	0.156676	0.141386	0.333555	0.053863	0.488959	0.229948	0.544411	0.114610	0.083561	0.284828	0.096437	0.016873	0.242647	0.519224	0.420560	0.058298	0.051040	0.111266	0.132625	0.042636	0.476315	0.164641	0.893745	0.099689	0.106689	0.215041	0.168425	0.022586	0.106379	0.361976	0.481859	0.181433	0.035831	0.218062	0.152491	0.027485	0.555538	0.256761	0.655808	0.093296	0.071064	0.444925	0.190089	0.065107	0.172053	0.157214	0.526187	0.229291	0.330140	0.077700	0.275846	0.595470
85	0.148737	0.208054	0.771354	0.098135	0.083449	0.530083	0.316152	0.036525	0.252528	0.183420	0.549623	0.254761	0.117398	0.136836	0.319155	0.060909	0.489028	0.221790	0.531557	0.114191	0.084248	0.305657	0.089760	0.018950	0.234689	0.259494	0.423353	0.059403	0.054579	0.173298	0.132037	0.037834	0.424052	0.158504	0.854696	0.101792	0.110436	0.197111	0.155085	0.024460	0.107786	0.345506	0.488665	0.190061	0.036598	0.243537	0.142348	0.029874	0.561392	0.261238	0.495172	0.090689	0.076183	0.447603	0.179081	0.057301	0.174269	0.136451	0.465948	0.220718	0.194786	0.075427	0.275690	0.597473
86	0.159355	0.214425	0.774463	0.097537	0.086021	0.527114	0.322317	0.029514	0.258841	0.194427	0.546202	0.257276	0.089783	0.125415	0.278469	0.072518	0.483552	0.204941	0.518106	0.113774	0.082104	0.326228	0.114754	0.015481	0.172651	0.218206	0.426528	0.059095	0.059072	0.182446	0.131908	0.037620	0.415748	0.166448	0.778091	0.102384	0.114047	0.107292	0.179706	0.023154	0.111114	0.309513	0.488873	0.194653	0.057080	0.347839	0.135970	0.031789	0.563498	0.251589	0.422765	0.070080	0.078589	0.454294	0.175658	0.056279	0.179062	0.138823	0.350129	0.241784	0.153632	0.080919	0.285035	0.599243
87	0.148615	0.191088	0.759275	0.097383	0.085102	0.511293	0.311101	0.026319	0.259737	0.196273	0.511483	0.258373	0.088122	0.135499	0.254997	0.070803	0.480466	0.190520	0.520734	0.113721	0.091207	0.368816	0.126117	0.021828	0.162201	0.192368	0.444014	0.057860	0.061618	0.189352	0.134168	0.037222	0.377152	0.163500	0.779756	0.100882	0.107738	0.083540	0.179796	0.022663	0.120067	0.263447	0.492962	0.194554	0.082334	0.383414	0.131263	0.032109	0.560297	0.223098	0.428144	0.047006	0.081981	0.468510	0.177507	0.060096	0.179236	0.138838	0.324622	0.250321	0.133751	0.088772	0.241898	0.599016
88	0.146728	0.209905	0.725941	0.097913	0.082734	0.477973	0.266670	0.027951	0.265302	0.202376	0.456583	0.259555	0.089702	0.196794	0.254373	0.063510	0.479848	0.186916	0.531580	0.113136	0.094839	0.443254	0.125352	0.028998	0.160369	0.159109	0.463276	0.057580	0.058998	0.189402	0.140099	0.039273	0.310284	0.174473	0.797141	0.101313	0.078545	0.077524	0.183098	0.021831	0.127430	0.160741	0.523147	0.196531	0.084094	0.388359	0.131322	0.033672	0.545720	0.220251	0.412016	0.043502	0.084515	0.469047	0.172924	0.061123	0.175636	0.133853	0.377777	0.248021	0.130358	0.102070	0.214754	0.591011
89	0.144587	0.219506	0.725847	0.096957	0.077862	0.446903	0.250866	0.028902	0.255235	0.213307	0.423166	0.260784	0.091612	0.272608	0.234733	0.069548	0.477808	0.188229	0.522460	0.111461	0.092415	0.455303	0.125917	0.030009	0.146148	0.159638	0.473265	0.057782	0.057390	0.189716	0.183405	0.041174	0.282908	0.190406	0.814161	0.104061	0.097614	0.072943	0.203231	0.022593	0.130360	0.186367	0.546580	0.193150	0.097620	0.434026	0.138271	0.032038	0.521801	0.216021	0.398662	0.044233	0.083831	0.461366	0.173911	0.057522	0.163967	0.122585	0.470482	0.244137	0.131356	0.116961	0.223106	0.516111
90	0.144538	0.241287	0.726550	0.094471	0.075558	0.391062	0.240613	0.030432	0.252921	0.214398	0.418598	0.255261	0.081055	0.342141	0.232173	0.075800	0.469188	0.187992	0.482475	0.104950	0.087253	0.455398	0.127741	0.030021	0.140736	0.164446	0.482655	0.057651	0.057152	0.197481	0.193101	0.041351	0.273266	0.190861	0.812639	0.100859	0.102871	0.076933	0.194893	0.023661	0.130649	0.235585	0.562309	0.181274	0.111216	0.434918	0.158164	0.030127	0.501638	0.192706	0.384508	0.044775	0.085541	0.443611	0.180711	0.054507	0.150548	0.113108	0.524774	0.245432	0.141747	0.122031	0.218401	0.294605
91	0.144875	0.248531	0.725498	0.086932	0.073651	0.206071	0.218132	0.030589	0.258192	0.213236	0.408976	0.238229	0.101813	0.367596	0.253005	0.078984	0.447120	0.204849	0.417936	0.100399	0.088200	0.405381	0.156523	0.036502	0.128783	0.165208	0.485258	0.056051	0.064604	0.203565	0.190399	0.041970	0.243252	0.204906	0.789925	0.104580	0.105826	0.107534	0.175688	0.021898	0.130693	0.275491	0.569509	0.185553	0.112627	0.410925	0.162089	0.028418	0.480604	0.187873	0.354685	0.044851	0.083695	0.438449	0.201321	0.053333	0.131651	0.110049	0.517781	0.246688	0.136761	0.192254	0.190114	0.243611
92	0.145649	0.253894	0.713837	0.081715	0.074522	0.155371	0.220550	0.026577	0.281174	0.209543	0.412153	0.204926	0.104465	0.373917	0.256426	0.085508	0.458848	0.216562	0.375605	0.099554	0.085915	0.366951	0.181962	0.055696	0.090803	0.164873	0.472185	0.051624	0.064172	0.210439	0.191022	0.044931	0.194880	0.270810	0.788694	0.104076	0.107619	0.119820	0.175610	0.020829	0.132780	0.276010	0.569296	0.188507	0.112097	0.402687	0.159790	0.027421	0.468548	0.244572	0.307651	0.044817	0.083981	0.435920	0.219085	0.052326	0.120511	0.127121	0.516614	0.245335	0.124349	0.339429	0.183134	0.172545
93	0.149345	0.257837	0.707507	0.073803	0.068427	0.139659	0.219489	0.026541	0.330077	0.196321	0.388821	0.169163	0.107131	0.405620	0.256613	0.086631	0.468704	0.218782	0.364384	0.098711	0.068448	0.367996	0.198175	0.066565	0.092345	0.164647	0.433257	0.051219	0.062412	0.206328	0.179873	0.046197	0.186636	0.317929	0.712980	0.094674	0.110153	0.128455	0.173939	0.020023	0.129497	0.279309	0.565239	0.187375	0.111612	0.401136	0.155879	0.028036	0.467584	0.288635	0.263533	0.044808	0.082734	0.436978	0.214380	0.052105	0.142400	0.155179	0.526298	0.246004	0.114285	0.353377	0.160462	0.119329
94	0.159298	0.272426	0.708310	0.076718	0.065282	0.135509	0.224536	0.026725	0.384311	0.178680	0.341690	0.147006	0.115710	0.461487	0.273471	0.085774	0.442066	0.273435	0.364901	0.094992	0.067039	0.368502	0.213787	0.069900	0.093827	0.161007	0.402988	0.046709	0.062863	0.208465	0.180131	0.040359	0.172578	0.331585	0.584967	0.091987	0.108320	0.158208	0.171317	0.019991	0.121314	0.296843	0.554608	0.186679	0.111784	0.400246	0.186212	0.028078	0.462561	0.322643	0.256391	0.044663	0.078642	0.432432	0.188230	0.052277	0.191657	0.167934	0.544354	0.242650	0.106956	0.358128	0.158886	0.091225
95	0.205791	0.273336	0.706904	0.102696	0.070056	0.137991	0.224481	0.028066	0.402863	0.183310	0.282745	0.139469	0.123471	0.469500	0.279789	0.083748	0.433938	0.445547	0.364651	0.088990	0.068624	0.360678	0.261455	0.070719	0.093337	0.157586	0.401416	0.035434	0.059449	0.201235	0.184206	0.039095	0.176923	0.331807	0.500277	0.092215	0.104664	0.196867	0.152800	0.016003	0.122870	0.303615	0.545893	0.184869	0.119601	0.401829	0.188885	0.028685	0.413488	0.403330	0.263914	0.044812	0.079242	0.408608	0.192806	0.054863	0.196653	0.193744	0.553779	0.241116	0.102711	0.368979	0.157272	0.087147
96	0.223299	0.305485	0.683607	0.128900	0.073467	0.139838	0.159710	0.031413	0.411241	0.199918	0.251239	0.139139	0.124324	0.481602	0.274928	0.077211	0.311455	0.552574	0.362806	0.080994	0.070147	0.353320	0.299141	0.081507	0.092286	0.156598	0.385889	0.032055	0.057038	0.168048	0.195227	0.042074	0.177536	0.349684	0.445031	0.091300	0.113741	0.201776	0.143175	0.016603	0.167674	0.304064	0.544927	0.176691	0.130976	0.390892	0.183395	0.037267	0.380140	0.407675	0.258091	0.044678	0.078075	0.306502	0.223292	0.054576	0.201001	0.210940	0.559052	0.240562	0.099462	0.393566	0.139577	0.072614
97	0.248563	0.323438	0.597866	0.135154	0.072203	0.138945	0.169527	0.029436	0.412642	0.205413	0.262218	0.140819	0.123343	0.488282	0.252135	0.066233	0.313193	0.556416	0.361625	0.061995	0.067989	0.310231	0.293588	0.092402	0.082857	0.154883	0.352440	0.031634	0.059049	0.201059	0.214144	0.042348	0.176682	0.370870	0.409255	0.090279	0.128165	0.206336	0.149524	0.021201	0.221203	0.340096	0.523085	0.164887	0.155700	0.354401	0.186621	0.038446	0.377143	0.408016	0.247982	0.044907	0.078493	0.278476	0.253048	0.055813	0.203145	0.211569	0.560394	0.238908	0.106034	0.468639	0.102738	0.055979
98	0.248232	0.327039	0.394533	0.134861	0.073109	0.138819	0.163396	0.032300	0.401733	0.215891	0.325130	0.147681	0.121720	0.480951	0.233900	0.064164	0.409804	0.599084	0.358780	0.042797	0.050381	0.209622	0.291470	0.091640	0.072388	0.207745	0.320063	0.027937	0.061075	0.204579	0.215738	0.042292	0.194935	0.372156	0.396779	0.090066	0.131441	0.204279	0.130995	0.026680	0.258501	0.347816	0.486737	0.160551	0.145497	0.278198	0.186912	0.038280	0.360313	0.407541	0.247277	0.044646	0.075769	0.223804	0.256709	0.061916	0.202432	0.211899	0.557388	0.236369	0.127191	0.469385	0.091092	0.040537
99	0.245027	0.329208	0.270493	0.134755	0.087180	0.139487	0.178529	0.034537	0.414761	0.218256	0.338094	0.154470	0.116169	0.462996	0.231213	0.062572	0.455192	0.603940	0.351760	0.034204	0.060278	0.148764	0.291498	0.091463	0.068765	0.213371	0.307267	0.024671	0.061517	0.211622	0.206508	0.038726	0.241755	0.372710	0.396794	0.090019	0.124175	0.203119	0.111762	0.028783	0.328833	0.364575	0.451023	0.160368	0.140594	0.226141	0.186187	0.039270	0.359942	0.406283	0.248705	0.040408	0.076078	0.233671	0.259050	0.067538	0.216239	0.256155	0.538263	0.233363	0.127602	0.466859	0.089238	0.039330
100	0.233401	0.324761	0.308143	0.143893	0.088338	0.143507	0.179753	0.033185	0.422617	0.231757	0.336660	0.152411	0.107555	0.422909	0.228262	0.053984	0.466542	0.619381	0.337007	0.031762	0.064178	0.166440	0.292648	0.094118	0.074160	0.212766	0.300595	0.021913	0.079816	0.210067	0.170911	0.035536	0.249376	0.372841	0.396239	0.089907	0.123705	0.199538	0.118993	0.031356	0.473092	0.365524	0.431345	0.157569	0.143123	0.147091	0.185699	0.041918	0.347410	0.406500	0.246387	0.032203	0.103142	0.235719	0.262210	0.071473	0.221419	0.269863	0.532716	0.227468	0.126117	0.463427	0.058178	0.041739
101	0.235087	0.327321	0.297351	0.156735	0.093000	0.149859	0.204130	0.032644	0.418278	0.236346	0.341006	0.145812	0.106858	0.355294	0.198358	0.046909	0.468882	0.632448	0.296845	0.031856	0.070219	0.258778	0.287458	0.095002	0.082117	0.215610	0.291154	0.022605	0.103797	0.203203	0.169340	0.035710	0.249998	0.375036	0.393844	0.089290	0.124384	0.177090	0.145175	0.033247	0.559263	0.373063	0.399619	0.157406	0.164835	0.067707	0.170201	0.051871	0.243283	0.403467	0.243513	0.025999	0.105049	0.212779	0.264477	0.075244	0.222499	0.269867	0.531624	0.222854	0.112347	0.464458	0.033822	0.043396
