	126_M_P_sh_R_D_A_01.c3d	126_M_P_sh_R_D_A_01.c3d	126_M_P_sh_R_D_A_01.c3d	126_M_P_sh_R_D_A_01.c3d	126_M_P_sh_R_D_A_01.c3d	126_M_P_sh_R_D_A_01.c3d	126_M_P_sh_R_D_A_01.c3d	126_M_P_sh_R_D_A_01.c3d	126_M_P_sh_R_D_A_02.c3d	126_M_P_sh_R_D_A_02.c3d	126_M_P_sh_R_D_A_02.c3d	126_M_P_sh_R_D_A_02.c3d	126_M_P_sh_R_D_A_02.c3d	126_M_P_sh_R_D_A_02.c3d	126_M_P_sh_R_D_A_02.c3d	126_M_P_sh_R_D_A_02.c3d	126_M_P_sh_R_D_A_03.c3d	126_M_P_sh_R_D_A_03.c3d	126_M_P_sh_R_D_A_03.c3d	126_M_P_sh_R_D_A_03.c3d	126_M_P_sh_R_D_A_03.c3d	126_M_P_sh_R_D_A_03.c3d	126_M_P_sh_R_D_A_03.c3d	126_M_P_sh_R_D_A_03.c3d	126_M_P_sh_R_D_A_04.c3d	126_M_P_sh_R_D_A_04.c3d	126_M_P_sh_R_D_A_04.c3d	126_M_P_sh_R_D_A_04.c3d	126_M_P_sh_R_D_A_04.c3d	126_M_P_sh_R_D_A_04.c3d	126_M_P_sh_R_D_A_04.c3d	126_M_P_sh_R_D_A_04.c3d	126_M_P_sh_R_D_A_05.c3d	126_M_P_sh_R_D_A_05.c3d	126_M_P_sh_R_D_A_05.c3d	126_M_P_sh_R_D_A_05.c3d	126_M_P_sh_R_D_A_05.c3d	126_M_P_sh_R_D_A_05.c3d	126_M_P_sh_R_D_A_05.c3d	126_M_P_sh_R_D_A_05.c3d	126_M_P_sh_R_D_A_06.c3d	126_M_P_sh_R_D_A_06.c3d	126_M_P_sh_R_D_A_06.c3d	126_M_P_sh_R_D_A_06.c3d	126_M_P_sh_R_D_A_06.c3d	126_M_P_sh_R_D_A_06.c3d	126_M_P_sh_R_D_A_06.c3d	126_M_P_sh_R_D_A_06.c3d	126_M_P_sh_R_D_A_07.c3d	126_M_P_sh_R_D_A_07.c3d	126_M_P_sh_R_D_A_07.c3d	126_M_P_sh_R_D_A_07.c3d	126_M_P_sh_R_D_A_07.c3d	126_M_P_sh_R_D_A_07.c3d	126_M_P_sh_R_D_A_07.c3d	126_M_P_sh_R_D_A_07.c3d	126_M_P_sh_R_D_A_08.c3d	126_M_P_sh_R_D_A_08.c3d	126_M_P_sh_R_D_A_08.c3d	126_M_P_sh_R_D_A_08.c3d	126_M_P_sh_R_D_A_08.c3d	126_M_P_sh_R_D_A_08.c3d	126_M_P_sh_R_D_A_08.c3d	126_M_P_sh_R_D_A_08.c3d	126_M_P_sh_R_D_A_09.c3d	126_M_P_sh_R_D_A_09.c3d	126_M_P_sh_R_D_A_09.c3d	126_M_P_sh_R_D_A_09.c3d	126_M_P_sh_R_D_A_09.c3d	126_M_P_sh_R_D_A_09.c3d	126_M_P_sh_R_D_A_09.c3d	126_M_P_sh_R_D_A_09.c3d	126_M_P_sh_R_D_A_10.c3d	126_M_P_sh_R_D_A_10.c3d	126_M_P_sh_R_D_A_10.c3d	126_M_P_sh_R_D_A_10.c3d	126_M_P_sh_R_D_A_10.c3d	126_M_P_sh_R_D_A_10.c3d	126_M_P_sh_R_D_A_10.c3d	126_M_P_sh_R_D_A_10.c3d
	Biceps femoris_lat	Semitendinosus_lat	Vastus lateralis_lat	Vastus medialis_lat	Biceps femoris_med	Semitendinosus_med	Vastus lateralis_med	Vastus medialis_med	Biceps femoris_lat	Semitendinosus_lat	Vastus lateralis_lat	Vastus medialis_lat	Biceps femoris_med	Semitendinosus_med	Vastus lateralis_med	Vastus medialis_med	Biceps femoris_lat	Semitendinosus_lat	Vastus lateralis_lat	Vastus medialis_lat	Biceps femoris_med	Semitendinosus_med	Vastus lateralis_med	Vastus medialis_med	Biceps femoris_lat	Semitendinosus_lat	Vastus lateralis_lat	Vastus medialis_lat	Biceps femoris_med	Semitendinosus_med	Vastus lateralis_med	Vastus medialis_med	Biceps femoris_lat	Semitendinosus_lat	Vastus lateralis_lat	Vastus medialis_lat	Biceps femoris_med	Semitendinosus_med	Vastus lateralis_med	Vastus medialis_med	Biceps femoris_lat	Semitendinosus_lat	Vastus lateralis_lat	Vastus medialis_lat	Biceps femoris_med	Semitendinosus_med	Vastus lateralis_med	Vastus medialis_med	Biceps femoris_lat	Semitendinosus_lat	Vastus lateralis_lat	Vastus medialis_lat	Biceps femoris_med	Semitendinosus_med	Vastus lateralis_med	Vastus medialis_med	Biceps femoris_lat	Semitendinosus_lat	Vastus lateralis_lat	Vastus medialis_lat	Biceps femoris_med	Semitendinosus_med	Vastus lateralis_med	Vastus medialis_med	Biceps femoris_lat	Semitendinosus_lat	Vastus lateralis_lat	Vastus medialis_lat	Biceps femoris_med	Semitendinosus_med	Vastus lateralis_med	Vastus medialis_med	Biceps femoris_lat	Semitendinosus_lat	Vastus lateralis_lat	Vastus medialis_lat	Biceps femoris_med	Semitendinosus_med	Vastus lateralis_med	Vastus medialis_med
	P2D	P2D	P2D	P2D	P2D	P2D	P2D	P2D	P2D	P2D	P2D	P2D	P2D	P2D	P2D	P2D	P2D	P2D	P2D	P2D	P2D	P2D	P2D	P2D	P2D	P2D	P2D	P2D	P2D	P2D	P2D	P2D	P2D	P2D	P2D	P2D	P2D	P2D	P2D	P2D	P2D	P2D	P2D	P2D	P2D	P2D	P2D	P2D	P2D	P2D	P2D	P2D	P2D	P2D	P2D	P2D	P2D	P2D	P2D	P2D	P2D	P2D	P2D	P2D	P2D	P2D	P2D	P2D	P2D	P2D	P2D	P2D	P2D	P2D	P2D	P2D	P2D	P2D	P2D	P2D
	EMG_lat	EMG_lat	EMG_lat	EMG_lat	EMG_med	EMG_med	EMG_med	EMG_med	EMG_lat	EMG_lat	EMG_lat	EMG_lat	EMG_med	EMG_med	EMG_med	EMG_med	EMG_lat	EMG_lat	EMG_lat	EMG_lat	EMG_med	EMG_med	EMG_med	EMG_med	EMG_lat	EMG_lat	EMG_lat	EMG_lat	EMG_med	EMG_med	EMG_med	EMG_med	EMG_lat	EMG_lat	EMG_lat	EMG_lat	EMG_med	EMG_med	EMG_med	EMG_med	EMG_lat	EMG_lat	EMG_lat	EMG_lat	EMG_med	EMG_med	EMG_med	EMG_med	EMG_lat	EMG_lat	EMG_lat	EMG_lat	EMG_med	EMG_med	EMG_med	EMG_med	EMG_lat	EMG_lat	EMG_lat	EMG_lat	EMG_med	EMG_med	EMG_med	EMG_med	EMG_lat	EMG_lat	EMG_lat	EMG_lat	EMG_med	EMG_med	EMG_med	EMG_med	EMG_lat	EMG_lat	EMG_lat	EMG_lat	EMG_med	EMG_med	EMG_med	EMG_med
ITEM	Y	Y	Y	Y	Y	Y	Y	Y	Y	Y	Y	Y	Y	Y	Y	Y	Y	Y	Y	Y	Y	Y	Y	Y	Y	Y	Y	Y	Y	Y	Y	Y	Y	Y	Y	Y	Y	Y	Y	Y	Y	Y	Y	Y	Y	Y	Y	Y	Y	Y	Y	Y	Y	Y	Y	Y	Y	Y	Y	Y	Y	Y	Y	Y	Y	Y	Y	Y	Y	Y	Y	Y	Y	Y	Y	Y	Y	Y	Y	Y
1	0.301978	0.427535	0.241377	0.053169	0.068821	0.208981	0.435987	0.074594	0.346337	0.334981	0.197506	0.530313	0.409403	0.059771	0.339740	0.055884	0.112099	0.131893	0.311747	0.313888	0.215025	0.231047	0.298601	0.104238	0.504230	0.351536	0.211994	0.046407	0.198775	0.307395	0.272848	0.026391	0.342140	0.528410	0.217495	0.030421	0.204147	0.143456	0.186696	0.049842	0.275047	0.242391	0.202628	0.052295	0.158823	0.215537	0.451043	0.138368	0.308203	0.347911	0.324839	0.036356	0.085276	0.123066	0.200479	0.096570	0.198992	0.351543	0.279782	0.024395	0.045784	0.195710	0.272566	0.184515	0.392850	0.545349	0.206772	0.021242	0.072482	0.459234	0.139073	0.113352	0.148442	0.036024	0.286318	0.107457	0.049006	0.415679	0.228062	0.227994
2	0.185618	0.451428	0.239999	0.052573	0.067301	0.208221	0.435664	0.056254	0.346724	0.334298	0.194661	0.556925	0.362908	0.067567	0.328866	0.082892	0.104446	0.156638	0.313560	0.419781	0.214534	0.225957	0.299411	0.129233	0.595730	0.359289	0.210871	0.044339	0.197768	0.315527	0.269070	0.027240	0.315065	0.518750	0.240266	0.030709	0.208182	0.158684	0.165972	0.045405	0.263320	0.260464	0.218614	0.051644	0.157991	0.205839	0.455763	0.145567	0.306818	0.322630	0.326584	0.035201	0.078566	0.108107	0.193406	0.122065	0.352803	0.360233	0.265150	0.023895	0.051560	0.188847	0.266583	0.205392	0.413255	0.550433	0.174981	0.020036	0.067072	0.425749	0.140112	0.131379	0.154770	0.040584	0.288592	0.108002	0.043129	0.404460	0.209052	0.264398
3	0.214254	0.475617	0.227019	0.053793	0.059434	0.172167	0.434076	0.060813	0.329719	0.329014	0.195737	0.560056	0.358279	0.074898	0.333184	0.128580	0.099915	0.162759	0.313076	0.495005	0.217569	0.230124	0.304938	0.158708	0.636636	0.378879	0.212403	0.042537	0.199177	0.333337	0.261969	0.027259	0.324798	0.514491	0.260480	0.030982	0.207315	0.197362	0.141071	0.039442	0.260369	0.293655	0.201354	0.055898	0.129478	0.189774	0.413429	0.151917	0.339674	0.278876	0.322287	0.037213	0.078905	0.089304	0.155761	0.151511	0.359735	0.414709	0.260777	0.023667	0.052724	0.184013	0.258703	0.228650	0.427007	0.538092	0.175066	0.021212	0.066204	0.335006	0.144520	0.152243	0.157754	0.041237	0.288677	0.108210	0.061083	0.385496	0.204439	0.296398
4	0.215789	0.475845	0.201879	0.054496	0.057796	0.156981	0.374507	0.080830	0.311740	0.255318	0.199658	0.548879	0.350575	0.074448	0.332408	0.191237	0.092369	0.161876	0.278372	0.536318	0.224371	0.256659	0.312658	0.191926	0.641511	0.381508	0.213952	0.047736	0.198348	0.353564	0.265131	0.052984	0.317200	0.509397	0.264594	0.031487	0.207956	0.225042	0.127839	0.039712	0.289571	0.297767	0.215444	0.059211	0.097823	0.183970	0.321667	0.152860	0.349457	0.258734	0.312244	0.044117	0.082082	0.086916	0.148132	0.187997	0.442754	0.416700	0.254159	0.021200	0.050660	0.181506	0.256831	0.252169	0.429688	0.538476	0.168479	0.027284	0.064199	0.300023	0.142597	0.181863	0.169302	0.038530	0.286675	0.112785	0.063558	0.414919	0.189305	0.325084
5	0.215077	0.469471	0.205058	0.048847	0.055026	0.144632	0.290501	0.105772	0.274943	0.200403	0.200276	0.530675	0.313721	0.076097	0.331928	0.278596	0.098404	0.161876	0.249866	0.543614	0.239054	0.286449	0.299281	0.233849	0.654286	0.380121	0.214131	0.043251	0.200270	0.363440	0.263726	0.067520	0.350480	0.506291	0.265544	0.036620	0.207084	0.255261	0.124691	0.039995	0.290334	0.291115	0.224750	0.099652	0.074549	0.183799	0.315212	0.179277	0.351709	0.289956	0.294340	0.044098	0.085301	0.074881	0.150228	0.236063	0.447087	0.406813	0.237171	0.020901	0.047873	0.170715	0.251146	0.262826	0.448057	0.536020	0.172507	0.035566	0.081651	0.264866	0.141833	0.220498	0.170619	0.035721	0.275147	0.123956	0.064847	0.418160	0.215216	0.328909
6	0.215423	0.467150	0.204909	0.049049	0.077259	0.135958	0.266711	0.142228	0.276134	0.197501	0.223339	0.507656	0.313779	0.076348	0.329742	0.374298	0.105158	0.165214	0.237409	0.544477	0.237514	0.319166	0.276121	0.271405	0.654450	0.379859	0.218232	0.038147	0.188779	0.359506	0.259132	0.069025	0.356430	0.478334	0.266008	0.043424	0.205298	0.260504	0.116647	0.072732	0.264002	0.275052	0.215348	0.193093	0.062891	0.177526	0.270737	0.321321	0.359500	0.320010	0.277971	0.042699	0.094754	0.047423	0.137747	0.287270	0.443243	0.407264	0.227187	0.024034	0.046909	0.158106	0.242389	0.321795	0.448574	0.530040	0.173838	0.044912	0.133220	0.259240	0.143658	0.269485	0.170854	0.040049	0.269020	0.137154	0.065973	0.390388	0.268594	0.772642
7	0.209277	0.442687	0.195139	0.042198	0.084435	0.134672	0.230089	0.182135	0.231189	0.215713	0.212183	0.480533	0.314492	0.076340	0.245370	0.407485	0.106801	0.217758	0.235398	0.567237	0.229372	0.319383	0.265708	0.309140	0.654380	0.378299	0.221118	0.039690	0.132419	0.362127	0.256558	0.069346	0.353013	0.431648	0.262231	0.049106	0.198816	0.273635	0.127176	0.116648	0.265300	0.239238	0.209344	0.259371	0.063197	0.166858	0.241586	0.628289	0.386761	0.300456	0.270667	0.042580	0.095695	0.034171	0.136962	0.328495	0.441869	0.362645	0.225079	0.028727	0.051050	0.154895	0.232896	0.325305	0.448431	0.529332	0.170369	0.054219	0.149972	0.237841	0.116785	0.300978	0.157336	0.096195	0.271135	0.147083	0.067801	0.370215	0.281289	1.009549
8	0.204827	0.448765	0.180238	0.039771	0.092408	0.084114	0.184823	0.194287	0.165518	0.231061	0.202426	0.452239	0.284029	0.075980	0.239511	0.612429	0.106639	0.214455	0.215467	0.607235	0.235117	0.322267	0.268034	0.345539	0.652955	0.376698	0.216543	0.044713	0.126603	0.362542	0.278079	0.070294	0.345710	0.395076	0.261961	0.059416	0.182237	0.311223	0.121758	0.135092	0.258625	0.237568	0.227013	0.321292	0.066277	0.171244	0.220193	0.668723	0.415987	0.269156	0.265888	0.041740	0.245702	0.028637	0.159090	0.330433	0.440809	0.375623	0.214669	0.031412	0.048646	0.180233	0.228189	0.323794	0.445400	0.523401	0.178295	0.060384	0.206820	0.199940	0.099692	0.315166	0.150759	0.109237	0.289617	0.155650	0.076276	0.354727	0.303361	1.041610
9	0.215641	0.443187	0.183763	0.051252	0.108319	0.064676	0.176949	0.203290	0.154133	0.229269	0.207700	0.427050	0.260922	0.076524	0.201729	0.821477	0.103899	0.233367	0.256218	0.641876	0.250049	0.309961	0.265204	0.533033	0.650865	0.372156	0.198633	0.049802	0.126001	0.354942	0.290356	0.104147	0.344616	0.344566	0.258829	0.073760	0.180722	0.322544	0.124709	0.147188	0.238621	0.245204	0.238637	0.368747	0.062298	0.163856	0.203309	0.675232	0.413917	0.275284	0.264124	0.041632	0.324803	0.026542	0.165238	0.333646	0.437578	0.405859	0.197484	0.031787	0.068989	0.186328	0.206648	0.331374	0.445923	0.495363	0.254887	0.062067	0.246042	0.186724	0.253509	0.545318	0.142195	0.125009	0.515121	0.159987	0.077792	0.361051	0.280779	1.041798
10	0.226080	0.435403	0.196461	0.057874	0.118674	0.062806	0.176158	0.249023	0.141905	0.229175	0.251501	0.412702	0.265290	0.079693	0.176680	0.942860	0.101105	0.298554	0.364051	0.671531	0.300896	0.300934	0.269128	0.629726	0.646457	0.297470	0.220027	0.050094	0.126046	0.348595	0.424284	0.133903	0.322734	0.265751	0.259453	0.084783	0.135822	0.355131	0.153992	0.158051	0.233824	0.253643	0.240757	0.372467	0.056659	0.195681	0.229965	0.697863	0.446161	0.274544	0.263701	0.041969	0.338500	0.024490	0.179215	0.336562	0.463748	0.400359	0.266777	0.036218	0.095062	0.179507	0.203834	0.373764	0.430020	0.498513	0.401412	0.082940	0.260587	0.165891	0.289801	0.808733	0.138463	0.164542	0.657367	0.161200	0.083465	0.399059	0.263378	1.052956
11	0.231634	0.430820	0.178564	0.060800	0.118141	0.053882	0.179380	0.328236	0.116878	0.229704	0.261860	0.407235	0.226366	0.088949	0.161394	0.980588	0.101651	0.335663	0.372343	0.700009	0.305904	0.297417	0.291726	0.674495	0.600724	0.304128	0.213824	0.050164	0.096920	0.312883	0.437299	0.140707	0.318709	0.231902	0.255228	0.089729	0.081073	0.425753	0.152611	0.170566	0.218620	0.264309	0.216047	0.395910	0.055681	0.195527	0.248238	0.748002	0.445698	0.261622	0.244754	0.040441	0.471307	0.022503	0.196426	0.402380	0.462731	0.376215	0.318182	0.047798	0.134034	0.173381	0.155683	0.454484	0.404904	0.489058	0.455576	0.115662	0.268780	0.180515	0.293741	0.866029	0.139888	0.171866	0.660226	0.161772	0.089166	0.416356	0.300796	1.076350
12	0.214805	0.400342	0.162075	0.060158	0.125797	0.031902	0.176684	0.520841	0.102116	0.242345	0.271405	0.381672	0.222032	0.087362	0.171624	0.994450	0.104750	0.338186	0.395405	0.720306	0.305463	0.315087	0.374769	0.697165	0.556260	0.343371	0.177529	0.049132	0.089868	0.327153	0.510604	0.181846	0.321133	0.144157	0.259493	0.090278	0.084062	0.451669	0.162803	0.176744	0.218807	0.268433	0.198828	0.425231	0.056134	0.199473	0.275360	0.806792	0.421454	0.250178	0.170749	0.040877	0.774462	0.024033	0.221194	0.510898	0.460527	0.354597	0.328092	0.058678	0.148190	0.163468	0.149105	0.541709	0.358770	0.312101	0.468865	0.144328	0.291178	0.179086	0.293043	0.872061	0.142263	0.187816	0.716193	0.160991	0.091442	0.416299	0.307253	1.112603
13	0.199102	0.317791	0.160180	0.061639	0.131105	0.028873	0.208979	0.712495	0.100411	0.223662	0.321888	0.344000	0.201776	0.089571	0.180823	0.996112	0.103391	0.340256	0.427801	0.724599	0.304942	0.334426	0.387162	0.720064	0.498091	0.413638	0.199101	0.052531	0.099975	0.365978	0.549756	0.183380	0.317577	0.121739	0.275297	0.089542	0.084460	0.487367	0.173172	0.179738	0.230728	0.224141	0.192457	0.452760	0.062124	0.217384	0.278345	0.861095	0.392776	0.242432	0.163483	0.041312	0.790511	0.025566	0.230762	0.598069	0.442456	0.320540	0.347315	0.065238	0.168647	0.148766	0.147218	0.616664	0.303420	0.270226	0.526230	0.165391	0.380286	0.178498	0.322618	0.870510	0.156618	0.190404	0.790626	0.158145	0.098634	0.427611	0.313543	1.150354
14	0.196811	0.300076	0.159771	0.063211	0.134318	0.029803	0.290148	0.766275	0.080729	0.193948	0.417798	0.305652	0.198831	0.093067	0.204287	0.992117	0.118783	0.330470	0.428479	0.694936	0.305674	0.344787	0.362834	0.737847	0.484389	0.422808	0.206449	0.068461	0.105067	0.366242	0.549886	0.184249	0.316406	0.102773	0.255169	0.088491	0.077186	0.523217	0.183277	0.180910	0.218496	0.205984	0.188662	0.472865	0.095566	0.237795	0.289806	0.918268	0.391886	0.243856	0.163462	0.040742	0.791886	0.030483	0.234850	0.670133	0.336000	0.310194	0.348031	0.077371	0.190657	0.146710	0.130893	0.660147	0.289862	0.268158	0.565539	0.175026	0.501830	0.179667	0.363722	0.868059	0.186514	0.191067	0.818393	0.140220	0.103997	0.426575	0.321737	1.179449
15	0.156855	0.265729	0.160150	0.063563	0.138856	0.036246	0.292776	0.773016	0.073922	0.200432	0.427542	0.249905	0.201161	0.137958	0.252671	0.984642	0.127216	0.338199	0.432429	0.643151	0.301281	0.348411	0.366162	0.744481	0.347467	0.417169	0.235929	0.069639	0.102830	0.354607	0.550059	0.184092	0.308327	0.101690	0.241546	0.088343	0.081098	0.523264	0.189153	0.180811	0.192782	0.192338	0.165655	0.487008	0.105973	0.262648	0.284741	0.964004	0.392769	0.250802	0.158657	0.049280	0.793021	0.032292	0.250028	0.702344	0.329923	0.226659	0.350398	0.087881	0.194590	0.152117	0.188893	0.675988	0.248859	0.251907	0.574150	0.178923	0.553558	0.187236	0.374903	0.866255	0.189186	0.190900	0.822334	0.132818	0.097272	0.413854	0.337281	1.196051
16	0.156632	0.250934	0.160811	0.063120	0.169483	0.044744	0.296896	0.771348	0.070185	0.207054	0.533991	0.170192	0.203867	0.141959	0.255109	0.972623	0.126532	0.340806	0.463642	0.593764	0.301759	0.349030	0.369746	0.742858	0.273166	0.393861	0.277764	0.097612	0.097345	0.337407	0.548867	0.177938	0.275084	0.098817	0.250905	0.095315	0.083362	0.508670	0.195167	0.178693	0.160542	0.184940	0.149914	0.479046	0.105756	0.279407	0.292295	0.998366	0.395464	0.253443	0.169586	0.049493	0.794054	0.032397	0.247628	0.707135	0.203061	0.214280	0.358727	0.091511	0.194511	0.159859	0.245473	0.679293	0.217895	0.234182	0.572906	0.179997	0.624965	0.190868	0.375793	0.867254	0.183632	0.191542	0.818222	0.131257	0.102723	0.375854	0.338199	1.199605
17	0.156581	0.241907	0.150354	0.070585	0.188863	0.056536	0.332799	0.773456	0.069550	0.210858	0.607212	0.113283	0.186657	0.142162	0.258819	0.946640	0.122586	0.341413	0.471138	0.575338	0.312269	0.348841	0.429033	0.738605	0.216215	0.392484	0.293589	0.112924	0.101921	0.397013	0.548915	0.173162	0.287944	0.090848	0.257329	0.105339	0.087814	0.514208	0.185281	0.168052	0.162566	0.173551	0.174207	0.448965	0.117918	0.280741	0.317989	1.022838	0.396162	0.253986	0.227384	0.052654	0.795177	0.031698	0.242730	0.695008	0.196021	0.210006	0.359434	0.094189	0.194797	0.160953	0.251632	0.675291	0.181077	0.234844	0.571993	0.179890	0.645893	0.191574	0.377022	0.869236	0.180443	0.190446	0.814505	0.131404	0.102562	0.372408	0.285431	1.158706
18	0.157008	0.256052	0.148979	0.094105	0.184697	0.085170	0.336025	0.784818	0.100984	0.213294	0.615065	0.108804	0.159070	0.148335	0.257939	0.928729	0.109444	0.344319	0.507138	0.583610	0.391130	0.340572	0.499391	0.733480	0.181964	0.394555	0.292941	0.114084	0.102560	0.403140	0.548392	0.172629	0.268524	0.090648	0.236773	0.117474	0.097146	0.496671	0.194522	0.169537	0.149873	0.170888	0.171651	0.413650	0.118126	0.284706	0.350531	1.034205	0.387791	0.253966	0.251470	0.053498	0.799363	0.030373	0.241972	0.675136	0.197151	0.206158	0.360675	0.094627	0.197334	0.163229	0.260732	0.675041	0.175606	0.228723	0.572468	0.179503	0.642794	0.188306	0.396612	0.876796	0.215241	0.191012	0.814965	0.131185	0.102255	0.317815	0.279170	0.801351
19	0.158979	0.262447	0.148333	0.140526	0.203631	0.172383	0.337146	0.805505	0.118812	0.215551	0.614644	0.118370	0.147923	0.171741	0.260557	0.855092	0.107501	0.328890	0.524273	0.585771	0.407942	0.317839	0.513852	0.726880	0.189185	0.395541	0.294455	0.114224	0.102056	0.418079	0.542214	0.172534	0.262130	0.090347	0.228140	0.132806	0.099398	0.493546	0.200530	0.195109	0.130859	0.164897	0.176527	0.357373	0.117556	0.287003	0.383645	0.911309	0.387543	0.238061	0.250553	0.053728	0.795364	0.033515	0.237405	0.661210	0.201014	0.199365	0.367306	0.096875	0.198601	0.163718	0.264445	0.648530	0.120172	0.222579	0.575833	0.179356	0.633502	0.164078	0.409447	0.902615	0.278205	0.191315	0.820543	0.126104	0.094437	0.287756	0.247781	0.709504
20	0.152215	0.245547	0.142234	0.179073	0.195673	0.180915	0.341075	0.820690	0.116689	0.220496	0.607648	0.121535	0.144034	0.178458	0.262362	0.659009	0.114995	0.312647	0.531525	0.567884	0.406855	0.276901	0.511155	0.715974	0.191582	0.395648	0.294454	0.113924	0.104329	0.445734	0.528283	0.172348	0.225401	0.088939	0.231540	0.145573	0.105005	0.479818	0.179965	0.217960	0.135019	0.158630	0.172260	0.339598	0.115183	0.324868	0.382923	0.815250	0.379724	0.182804	0.250469	0.055080	0.760697	0.043571	0.239752	0.663032	0.196425	0.168764	0.371721	0.116373	0.199475	0.162457	0.287922	0.645357	0.116208	0.218948	0.576793	0.179304	0.621842	0.142561	0.421207	0.884435	0.284220	0.191327	0.822916	0.114084	0.093603	0.269619	0.250628	0.712961
21	0.141399	0.243768	0.130672	0.216242	0.192069	0.197053	0.343423	0.824250	0.115466	0.217516	0.597813	0.128757	0.132352	0.259502	0.273249	0.429744	0.116462	0.306253	0.514363	0.547081	0.419938	0.230608	0.517996	0.704404	0.191610	0.395906	0.295443	0.112498	0.106358	0.510151	0.520075	0.154926	0.187998	0.088438	0.238785	0.154912	0.104829	0.461894	0.184791	0.231776	0.135695	0.160997	0.175418	0.330072	0.111673	0.374581	0.392408	0.813068	0.373558	0.159183	0.250551	0.055982	0.737150	0.053631	0.250802	0.667848	0.187181	0.065145	0.372278	0.148079	0.199921	0.121126	0.292109	0.645247	0.116503	0.216124	0.577499	0.179419	0.609643	0.131932	0.347682	0.634043	0.284422	0.189241	0.818964	0.097893	0.093355	0.257884	0.250687	0.717661
22	0.127073	0.235843	0.093923	0.241182	0.191463	0.239785	0.344727	0.821250	0.115656	0.183570	0.596834	0.134621	0.119745	0.262753	0.278541	0.302419	0.113881	0.288389	0.439413	0.534045	0.417496	0.229554	0.523747	0.691975	0.188411	0.385608	0.296790	0.109411	0.115146	0.563627	0.374491	0.130658	0.182750	0.060087	0.239457	0.160646	0.100849	0.436654	0.181068	0.245873	0.136000	0.140661	0.212645	0.299669	0.112715	0.359667	0.410830	0.804075	0.316937	0.144266	0.249629	0.058689	0.733578	0.059362	0.238895	0.681330	0.100769	0.077874	0.320149	0.174534	0.195386	0.099211	0.307086	0.642508	0.102425	0.214567	0.580533	0.179234	0.607167	0.105657	0.346389	0.441163	0.283695	0.167917	0.815575	0.082672	0.085088	0.230738	0.233879	0.697665
23	0.107935	0.230244	0.125923	0.254927	0.187635	0.327159	0.340593	0.733221	0.115926	0.169692	0.597001	0.140771	0.115162	0.285933	0.265106	0.239091	0.111337	0.253564	0.396076	0.514974	0.409489	0.219879	0.522548	0.677821	0.180089	0.370608	0.287806	0.109392	0.114508	0.634278	0.337793	0.122172	0.177284	0.051081	0.240146	0.160037	0.102284	0.421872	0.170250	0.254569	0.121124	0.145328	0.233352	0.265947	0.115038	0.387507	0.418285	0.775968	0.303246	0.102177	0.250032	0.060354	0.543504	0.059272	0.220207	0.636888	0.094926	0.090193	0.321304	0.187888	0.183286	0.104150	0.306588	0.627300	0.103879	0.191270	0.555253	0.179045	0.595810	0.091658	0.354378	0.405721	0.282913	0.171286	0.805531	0.065785	0.079735	0.232632	0.222243	0.648537
24	0.108409	0.225103	0.127191	0.256451	0.185685	0.348872	0.332851	0.574696	0.116071	0.162971	0.590106	0.145881	0.111586	0.361358	0.248535	0.218165	0.114369	0.247073	0.390098	0.493761	0.397515	0.214597	0.524136	0.530162	0.159587	0.339929	0.260896	0.110222	0.110249	0.652456	0.205466	0.043646	0.168274	0.047641	0.239325	0.154619	0.101063	0.442282	0.158056	0.256991	0.114679	0.140298	0.229659	0.228991	0.114992	0.445591	0.417692	0.776059	0.248095	0.100295	0.270509	0.060299	0.192431	0.060538	0.200306	0.556433	0.093410	0.099524	0.306278	0.198611	0.158980	0.105596	0.307421	0.592303	0.103576	0.130644	0.476253	0.172058	0.584349	0.086196	0.355241	0.401241	0.283156	0.192839	0.658676	0.056112	0.076559	0.240344	0.224556	0.575251
25	0.111278	0.205643	0.129190	0.258262	0.185997	0.378148	0.249443	0.490175	0.116529	0.159321	0.590226	0.148156	0.097200	0.386095	0.240780	0.217347	0.113960	0.261360	0.353582	0.458728	0.361635	0.206984	0.528112	0.417790	0.155913	0.317784	0.261933	0.110385	0.107490	0.666879	0.056423	0.036053	0.163731	0.047546	0.242587	0.148387	0.098133	0.457714	0.152254	0.256859	0.092077	0.153972	0.229635	0.198434	0.112723	0.485879	0.412420	0.755451	0.222682	0.100374	0.281160	0.059565	0.183896	0.059091	0.201407	0.462374	0.095568	0.100741	0.336850	0.211485	0.157181	0.122164	0.306019	0.553343	0.131413	0.129410	0.407177	0.156179	0.476103	0.086438	0.319185	0.407327	0.283621	0.177393	0.547315	0.052793	0.059224	0.559653	0.215957	0.496275
26	0.097981	0.180599	0.158853	0.258315	0.184747	0.502276	0.238889	0.478367	0.117522	0.166748	0.595932	0.145411	0.093518	0.480910	0.172224	0.217251	0.106375	0.271722	0.339095	0.424137	0.359165	0.197813	0.511911	0.354768	0.149311	0.135582	0.267515	0.110363	0.111066	0.703213	0.054562	0.032420	0.160509	0.047134	0.245626	0.144432	0.093659	0.458400	0.143061	0.256767	0.076262	0.185062	0.230552	0.168569	0.100447	0.479791	0.404382	0.816210	0.203270	0.098560	0.291538	0.059737	0.178281	0.058394	0.181237	0.359899	0.095345	0.100834	0.378651	0.220501	0.135841	0.125698	0.310779	0.518211	0.138356	0.118313	0.393579	0.143181	0.372509	0.074513	0.293307	0.413735	0.281573	0.176092	0.535030	0.050239	0.060798	0.619027	0.196275	0.427695
27	0.104514	0.170334	0.179944	0.265138	0.161693	0.563363	0.222029	0.479357	0.118074	0.162697	0.595762	0.155572	0.083717	0.614605	0.172169	0.245321	0.086015	0.262568	0.342425	0.421898	0.350012	0.163156	0.461863	0.313712	0.145802	0.116547	0.257294	0.102464	0.112468	0.764786	0.054740	0.033961	0.146313	0.043826	0.242227	0.146864	0.092425	0.451607	0.126698	0.252550	0.073560	0.185729	0.228327	0.156630	0.073914	0.486712	0.389640	0.869691	0.196541	0.099931	0.292421	0.065277	0.176715	0.074570	0.166550	0.302079	0.092451	0.099511	0.380952	0.227707	0.108956	0.133397	0.322629	0.499761	0.168349	0.105070	0.314630	0.142433	0.317823	0.044984	0.289261	0.409372	0.279246	0.205703	0.434568	0.047884	0.058686	0.683245	0.169756	0.386362
28	0.106053	0.197827	0.178419	0.287753	0.130374	0.602303	0.180535	0.471358	0.114054	0.162159	0.528234	0.168604	0.086816	0.750372	0.163256	0.311467	0.083533	0.268004	0.323640	0.436996	0.350850	0.133059	0.456661	0.261356	0.143900	0.103307	0.251669	0.099846	0.113772	0.832322	0.112600	0.037311	0.141418	0.037835	0.256607	0.166633	0.081594	0.438483	0.142512	0.240364	0.067893	0.187048	0.205518	0.156879	0.070264	0.485925	0.376752	0.876921	0.196816	0.101957	0.294446	0.066685	0.190077	0.075649	0.178078	0.280165	0.088557	0.099180	0.373690	0.235764	0.094429	0.162228	0.296306	0.497922	0.223886	0.098403	0.234718	0.153719	0.125358	0.049697	0.291904	0.383943	0.265498	0.351709	0.299467	0.047196	0.059197	0.721168	0.165037	0.378321
29	0.106870	0.201021	0.177904	0.319542	0.123578	0.617017	0.129458	0.447473	0.113313	0.154198	0.501337	0.177743	0.088471	0.776198	0.170217	0.337809	0.095926	0.289853	0.307516	0.454002	0.345842	0.119788	0.449969	0.212659	0.133591	0.106726	0.221014	0.090991	0.099074	0.800007	0.135184	0.046731	0.140441	0.033499	0.273402	0.205362	0.073626	0.437541	0.143804	0.220474	0.069742	0.187720	0.198763	0.168000	0.065826	0.502598	0.371857	0.864155	0.196196	0.090085	0.297544	0.061992	0.183830	0.075639	0.208228	0.276686	0.083286	0.100038	0.374728	0.239555	0.094779	0.238587	0.252677	0.498545	0.231424	0.093837	0.191777	0.166754	0.107386	0.053505	0.289721	0.341140	0.248896	0.357981	0.212869	0.050460	0.064027	0.722627	0.163791	0.377386
30	0.111105	0.184281	0.177951	0.348852	0.090108	0.613016	0.119395	0.405765	0.114251	0.142998	0.448495	0.185767	0.088076	0.784828	0.155989	0.352322	0.109240	0.296989	0.262542	0.461598	0.340646	0.122637	0.431048	0.192314	0.118397	0.102447	0.191695	0.051236	0.106033	0.800235	0.137465	0.047907	0.140795	0.031703	0.271913	0.250642	0.069778	0.434117	0.148268	0.190461	0.062675	0.186012	0.183693	0.177894	0.046815	0.505794	0.332476	0.881272	0.195274	0.085878	0.298979	0.060677	0.161302	0.076317	0.217473	0.277790	0.076646	0.104129	0.376590	0.240321	0.094802	0.245638	0.253302	0.498380	0.230904	0.091176	0.174115	0.176692	0.107047	0.053817	0.313621	0.263890	0.245208	0.367194	0.182090	0.058736	0.064768	0.725646	0.160477	0.361306
31	0.112229	0.179601	0.182083	0.368759	0.078520	0.612048	0.093916	0.369917	0.114473	0.144454	0.292334	0.190953	0.088586	0.788101	0.149744	0.354983	0.110237	0.302248	0.201597	0.457008	0.337789	0.124531	0.421732	0.192373	0.112703	0.089976	0.190412	0.035139	0.114393	0.796098	0.141033	0.047915	0.136083	0.027833	0.280039	0.283821	0.054340	0.416281	0.149963	0.172051	0.056998	0.171448	0.180099	0.175704	0.047221	0.515365	0.316346	0.933557	0.177853	0.080264	0.266672	0.060685	0.149212	0.076708	0.217602	0.276381	0.062991	0.107421	0.371674	0.238739	0.096588	0.248770	0.244866	0.497151	0.228540	0.088099	0.176626	0.181590	0.104765	0.054351	0.289459	0.167317	0.246924	0.375213	0.178829	0.072318	0.064435	0.726363	0.150867	0.329967
32	0.114661	0.181310	0.246906	0.384928	0.073476	0.615199	0.083906	0.342803	0.115646	0.139956	0.233298	0.192597	0.080694	0.767647	0.129615	0.354475	0.108610	0.496095	0.175923	0.441700	0.321400	0.124836	0.352137	0.194145	0.088666	0.080665	0.188829	0.034109	0.115211	0.786486	0.171842	0.050859	0.102682	0.027206	0.257311	0.302837	0.052780	0.399531	0.148427	0.147208	0.056493	0.149322	0.174925	0.174687	0.046588	0.509646	0.281217	0.956268	0.120169	0.080086	0.226737	0.056073	0.149509	0.075349	0.185479	0.270320	0.055119	0.107131	0.369421	0.231121	0.101727	0.296269	0.240982	0.495274	0.228805	0.085082	0.176440	0.182656	0.101568	0.054920	0.277017	0.151219	0.245936	0.392726	0.180123	0.087150	0.058571	0.731640	0.141926	0.294380
33	0.115010	0.180890	0.332251	0.391048	0.071427	0.603601	0.061560	0.308382	0.090036	0.137634	0.231535	0.189947	0.072466	0.767134	0.115839	0.354372	0.108674	0.570184	0.155922	0.415033	0.208797	0.125583	0.241036	0.191662	0.053399	0.089918	0.186569	0.038565	0.113201	0.759021	0.175819	0.051553	0.106610	0.027376	0.266337	0.307225	0.034987	0.356724	0.147983	0.123881	0.056642	0.146748	0.135242	0.166618	0.044995	0.478557	0.277404	0.964960	0.092915	0.081733	0.217864	0.051373	0.173640	0.069768	0.181292	0.237268	0.050500	0.103866	0.390919	0.217719	0.099198	0.347767	0.215249	0.494770	0.228808	0.082928	0.161692	0.181966	0.129145	0.055166	0.287773	0.148170	0.204128	0.394717	0.173922	0.099761	0.058682	0.721834	0.149923	0.261583
34	0.115685	0.176533	0.340148	0.395857	0.066373	0.571280	0.040834	0.268223	0.085036	0.132563	0.233367	0.184919	0.070251	0.765401	0.114092	0.354284	0.109311	0.612040	0.159265	0.380271	0.176673	0.132768	0.208187	0.186285	0.055034	0.093392	0.196941	0.049986	0.102263	0.711906	0.204712	0.050288	0.144550	0.026785	0.267184	0.302110	0.029268	0.236894	0.148427	0.110733	0.051146	0.135753	0.117568	0.156202	0.039855	0.460974	0.252894	0.966044	0.108187	0.081880	0.218193	0.051947	0.169557	0.069560	0.187924	0.182693	0.050357	0.094860	0.372108	0.204427	0.097362	0.350570	0.218847	0.495065	0.226849	0.082474	0.154351	0.180195	0.144763	0.055807	0.286635	0.143922	0.099394	0.394523	0.144858	0.108972	0.060653	0.716042	0.136248	0.230714
35	0.116387	0.172743	0.347647	0.400928	0.064511	0.548294	0.035732	0.218353	0.093687	0.145128	0.234009	0.179356	0.069917	0.735002	0.114986	0.354235	0.106571	0.628417	0.168607	0.343304	0.142968	0.142692	0.207628	0.178333	0.059335	0.093095	0.194239	0.063541	0.098714	0.643322	0.219059	0.050226	0.192264	0.023405	0.260179	0.300878	0.027624	0.129989	0.151659	0.107670	0.051162	0.135470	0.115998	0.144620	0.032291	0.455883	0.222787	0.961915	0.106648	0.079233	0.218057	0.052503	0.172275	0.069415	0.197050	0.156548	0.049886	0.081693	0.335309	0.207978	0.098079	0.361913	0.197211	0.494429	0.225685	0.082392	0.153244	0.177649	0.140323	0.054656	0.277947	0.143637	0.086340	0.394976	0.132478	0.115501	0.061252	0.720906	0.119588	0.199911
36	0.115214	0.170681	0.362569	0.407992	0.054099	0.537640	0.054535	0.169372	0.122182	0.177811	0.231862	0.175577	0.069532	0.723447	0.109256	0.354268	0.096206	0.644922	0.170276	0.307751	0.091350	0.151140	0.176334	0.166224	0.074429	0.103960	0.201163	0.063698	0.100245	0.620092	0.224551	0.050265	0.259996	0.019202	0.274949	0.309975	0.024330	0.051821	0.155309	0.107862	0.053080	0.074624	0.120220	0.152415	0.028496	0.387051	0.185066	0.935598	0.170557	0.076282	0.222490	0.060524	0.179004	0.066794	0.187971	0.147752	0.047047	0.069656	0.334603	0.251909	0.100248	0.427669	0.195033	0.485127	0.227192	0.082780	0.138260	0.176052	0.140246	0.053598	0.266250	0.138023	0.086616	0.396866	0.133651	0.121911	0.060114	0.717131	0.123159	0.162282
37	0.108816	0.161835	0.360447	0.410334	0.051363	0.442480	0.077888	0.136017	0.132907	0.188262	0.231797	0.173702	0.057707	0.693928	0.163957	0.355793	0.092544	0.648949	0.165489	0.277865	0.086671	0.151773	0.163551	0.150075	0.078039	0.106223	0.207078	0.066281	0.096952	0.578100	0.236813	0.050701	0.280782	0.016747	0.302332	0.323832	0.024569	0.045072	0.154678	0.110217	0.054540	0.044077	0.126562	0.165636	0.030496	0.353241	0.170697	0.908202	0.174215	0.074985	0.264271	0.059528	0.195235	0.066998	0.194498	0.139553	0.041524	0.057068	0.277680	0.285102	0.097417	0.427578	0.194732	0.458983	0.233031	0.083443	0.131132	0.177158	0.140345	0.053590	0.261672	0.123451	0.087057	0.398610	0.133714	0.125224	0.057410	0.631257	0.124225	0.121650
38	0.099944	0.159002	0.347447	0.411245	0.047006	0.334075	0.091639	0.149507	0.137543	0.195978	0.228778	0.174098	0.057091	0.544864	0.198751	0.338860	0.092697	0.658445	0.149098	0.275673	0.086140	0.151971	0.163103	0.137369	0.080014	0.106114	0.220025	0.091015	0.088129	0.527481	0.246808	0.049641	0.318179	0.017468	0.331708	0.349968	0.020860	0.047225	0.148559	0.123914	0.054200	0.048012	0.169427	0.164276	0.031080	0.304878	0.172166	0.848000	0.174353	0.074485	0.258446	0.065877	0.228013	0.060952	0.201828	0.130188	0.036838	0.056579	0.216564	0.301275	0.086991	0.444946	0.193125	0.410903	0.231878	0.084028	0.112665	0.178097	0.143134	0.054409	0.259610	0.097252	0.092194	0.392502	0.132534	0.127980	0.047107	0.530816	0.125968	0.090342
39	0.090484	0.162460	0.335547	0.406491	0.040524	0.277688	0.097143	0.217108	0.143067	0.196892	0.201712	0.176652	0.050824	0.369270	0.209301	0.281312	0.092629	0.654675	0.135748	0.271613	0.085984	0.155678	0.153643	0.134580	0.082431	0.136579	0.213754	0.097192	0.085834	0.419348	0.246756	0.051509	0.332065	0.028873	0.342788	0.373147	0.021202	0.051974	0.109651	0.141867	0.056697	0.049199	0.254015	0.157282	0.032138	0.303311	0.172966	0.747912	0.171853	0.074475	0.239522	0.069218	0.246249	0.046118	0.202495	0.119203	0.032695	0.057632	0.221811	0.305796	0.088509	0.516550	0.183528	0.345295	0.219334	0.082399	0.101990	0.177110	0.147767	0.054215	0.258439	0.090657	0.122537	0.395300	0.139467	0.130425	0.047161	0.523773	0.127416	0.066202
40	0.087760	0.116250	0.333217	0.390102	0.044697	0.211868	0.096952	0.257962	0.231148	0.195089	0.167499	0.181678	0.044966	0.266005	0.224936	0.243707	0.092473	0.651553	0.121782	0.255930	0.085324	0.160514	0.131591	0.130568	0.085506	0.154193	0.194968	0.097045	0.082692	0.254751	0.223425	0.049375	0.384330	0.034092	0.352301	0.385432	0.018810	0.058844	0.110211	0.150163	0.054969	0.047562	0.267890	0.144932	0.050252	0.280053	0.180365	0.661116	0.172278	0.076481	0.220469	0.069254	0.263357	0.045492	0.181513	0.109676	0.034560	0.059666	0.231774	0.302894	0.087288	0.550970	0.157971	0.283460	0.210197	0.080425	0.107394	0.171130	0.147045	0.031956	0.254061	0.090425	0.142297	0.395331	0.139909	0.130322	0.051782	0.508317	0.128113	0.055178
41	0.087430	0.114385	0.335989	0.364687	0.047150	0.193640	0.096155	0.266818	0.322012	0.184220	0.148038	0.182857	0.042080	0.227776	0.254015	0.236123	0.085795	0.649499	0.092222	0.225624	0.082771	0.161287	0.110520	0.122503	0.087914	0.181927	0.198882	0.097052	0.080596	0.248811	0.214896	0.042124	0.416387	0.043997	0.360524	0.392048	0.037704	0.058055	0.155385	0.145655	0.055582	0.046417	0.347260	0.150161	0.054703	0.226680	0.184392	0.658249	0.170684	0.078640	0.215056	0.069572	0.275106	0.046610	0.163216	0.108157	0.035115	0.058840	0.235915	0.300132	0.089232	0.554178	0.153006	0.246875	0.188308	0.068731	0.111739	0.157423	0.145435	0.031898	0.192156	0.089727	0.142280	0.395051	0.137240	0.131603	0.067673	0.614838	0.133481	0.054195
42	0.080192	0.108652	0.343459	0.335411	0.053722	0.161672	0.097007	0.265730	0.334131	0.187872	0.150346	0.171544	0.039043	0.201245	0.278621	0.251075	0.073399	0.665646	0.096421	0.188583	0.072133	0.163839	0.108849	0.108797	0.088068	0.194166	0.188485	0.096900	0.068916	0.245967	0.213721	0.041400	0.425031	0.055606	0.368442	0.398583	0.041433	0.056028	0.177332	0.140498	0.054161	0.049748	0.405460	0.160999	0.054807	0.231344	0.183182	0.653624	0.171286	0.076582	0.238729	0.073975	0.312917	0.045579	0.162576	0.117229	0.032295	0.051188	0.236432	0.299457	0.088482	0.560667	0.142964	0.244390	0.120873	0.051331	0.104402	0.141438	0.165976	0.048598	0.156190	0.091476	0.142347	0.358322	0.154906	0.134043	0.073575	0.707257	0.133472	0.056665
43	0.076942	0.096987	0.344569	0.302938	0.052912	0.144584	0.123752	0.263912	0.333667	0.189757	0.242807	0.157175	0.035473	0.192199	0.294524	0.270044	0.068835	0.666852	0.098858	0.157147	0.055851	0.163799	0.130266	0.093887	0.088629	0.196280	0.172548	0.096702	0.054321	0.242285	0.211619	0.053514	0.425803	0.061395	0.385171	0.399301	0.042586	0.057355	0.212082	0.137408	0.053947	0.049699	0.432353	0.156804	0.060964	0.300349	0.169090	0.568541	0.171753	0.070463	0.238903	0.078607	0.334595	0.039936	0.163835	0.128709	0.028984	0.045342	0.234873	0.299388	0.088588	0.606147	0.121431	0.270855	0.108286	0.034538	0.098840	0.128484	0.172052	0.055745	0.151984	0.091644	0.142896	0.236076	0.133861	0.135216	0.078702	0.720032	0.140078	0.054412
44	0.072962	0.084143	0.321587	0.272559	0.051429	0.128903	0.148875	0.263707	0.332615	0.189660	0.283333	0.142778	0.035906	0.191762	0.315353	0.282605	0.064533	0.628572	0.118776	0.139440	0.044606	0.157854	0.163238	0.079181	0.082217	0.201974	0.170467	0.096658	0.051424	0.266455	0.187172	0.057845	0.425950	0.061807	0.386339	0.386209	0.049683	0.083743	0.236432	0.136683	0.057128	0.049215	0.434624	0.152906	0.079400	0.322515	0.141609	0.524529	0.170751	0.065112	0.227478	0.081401	0.356929	0.034018	0.177876	0.143056	0.026146	0.046751	0.258817	0.297940	0.086232	0.613099	0.119056	0.315835	0.113568	0.031411	0.103208	0.118335	0.207411	0.056798	0.126700	0.091730	0.142427	0.228270	0.127565	0.136536	0.081306	0.773663	0.193135	0.054500
45	0.064197	0.081461	0.238815	0.248318	0.051325	0.128448	0.150615	0.264126	0.333503	0.187419	0.293522	0.129025	0.038940	0.189473	0.418420	0.297631	0.055660	0.473359	0.140508	0.161772	0.038420	0.149690	0.161212	0.068226	0.080816	0.203094	0.263315	0.097660	0.054538	0.239549	0.185075	0.054485	0.426217	0.062062	0.387832	0.360397	0.049941	0.104763	0.266453	0.144830	0.060771	0.049290	0.442628	0.149746	0.082704	0.334715	0.134701	0.521369	0.169924	0.060230	0.226828	0.083017	0.360125	0.035774	0.189143	0.161815	0.030607	0.053005	0.259084	0.296256	0.075506	0.603925	0.118776	0.369125	0.119554	0.032322	0.102902	0.112159	0.237595	0.056989	0.112382	0.094809	0.150644	0.213688	0.167700	0.139547	0.087559	0.799733	0.191632	0.066014
46	0.073575	0.082321	0.234571	0.242793	0.054809	0.128293	0.152668	0.266135	0.332975	0.181875	0.345655	0.116199	0.041347	0.167109	0.450053	0.314865	0.048986	0.502725	0.153167	0.219318	0.035270	0.149345	0.171012	0.058818	0.080687	0.202319	0.403422	0.100881	0.055307	0.235299	0.151098	0.055165	0.426168	0.062818	0.381040	0.334009	0.051972	0.106465	0.324162	0.160972	0.061525	0.058422	0.443723	0.141625	0.086823	0.329299	0.134180	0.529582	0.168592	0.057887	0.225500	0.086297	0.387983	0.038102	0.183055	0.170723	0.050931	0.056567	0.250475	0.297822	0.076471	0.591019	0.117542	0.421323	0.133426	0.031806	0.104373	0.111445	0.304026	0.057521	0.093713	0.097571	0.154849	0.201495	0.238214	0.141859	0.088072	0.801069	0.240382	0.083596
47	0.102285	0.084086	0.209523	0.257369	0.055289	0.127923	0.153518	0.272657	0.332257	0.183850	0.366283	0.107626	0.045813	0.139838	0.452017	0.330195	0.051307	0.520440	0.162782	0.261220	0.036693	0.154011	0.176331	0.051916	0.080623	0.197479	0.448731	0.122603	0.055783	0.290110	0.133241	0.056221	0.429765	0.065333	0.378429	0.320950	0.055460	0.110009	0.370121	0.178453	0.062301	0.077506	0.445106	0.124344	0.086748	0.330865	0.122906	0.548163	0.165644	0.056053	0.238365	0.088344	0.398584	0.042633	0.178668	0.169737	0.056817	0.056582	0.253088	0.288037	0.078872	0.617542	0.147715	0.466563	0.154304	0.035035	0.117958	0.113773	0.339923	0.057571	0.124576	0.096996	0.157093	0.160249	0.248769	0.142402	0.095870	0.746169	0.281878	0.095000
48	0.103558	0.089783	0.220503	0.275465	0.058757	0.123661	0.141548	0.283142	0.352795	0.180785	0.366041	0.104935	0.054702	0.127245	0.453228	0.342280	0.055835	0.447546	0.247981	0.299954	0.037571	0.154050	0.176595	0.049891	0.078942	0.197975	0.480084	0.126507	0.052612	0.290229	0.136908	0.056181	0.438574	0.067157	0.382315	0.320862	0.058415	0.209076	0.371882	0.187583	0.063285	0.090223	0.439458	0.115139	0.087599	0.328854	0.098852	0.557269	0.160535	0.053187	0.245160	0.088447	0.400686	0.043446	0.179103	0.176027	0.057297	0.056270	0.251154	0.240116	0.077736	0.616978	0.292607	0.477727	0.158519	0.040332	0.173407	0.120711	0.365413	0.057179	0.122059	0.086060	0.155268	0.158637	0.262622	0.137336	0.103747	0.688857	0.287026	0.099866
49	0.112496	0.102324	0.296357	0.288132	0.058500	0.116615	0.138247	0.287846	0.431777	0.173238	0.394358	0.107270	0.063088	0.077727	0.432723	0.349263	0.057391	0.503563	0.264670	0.321265	0.036315	0.140402	0.175159	0.053396	0.071797	0.199524	0.565298	0.123528	0.045869	0.289798	0.121957	0.059389	0.445724	0.066814	0.390684	0.329191	0.057772	0.263909	0.371774	0.175303	0.062038	0.125092	0.415822	0.115705	0.088813	0.340360	0.098053	0.559421	0.150006	0.051771	0.253721	0.104612	0.398407	0.042867	0.154504	0.203662	0.058402	0.058606	0.251715	0.186844	0.075050	0.581959	0.340648	0.488340	0.172931	0.045229	0.228424	0.129532	0.366291	0.056661	0.127484	0.068947	0.156252	0.158841	0.269370	0.130568	0.108163	0.685513	0.291571	0.099379
50	0.123836	0.108993	0.328266	0.296162	0.060456	0.107740	0.155483	0.264989	0.497875	0.153376	0.432454	0.108761	0.070427	0.076962	0.432824	0.342873	0.064843	0.487216	0.348726	0.328633	0.044363	0.274835	0.174298	0.054947	0.063015	0.195011	0.572325	0.124040	0.044761	0.304112	0.150378	0.061626	0.443306	0.066329	0.395458	0.335324	0.063264	0.777962	0.370827	0.160417	0.062343	0.125267	0.400097	0.111096	0.088064	0.357767	0.094576	0.564125	0.118947	0.052759	0.267429	0.131149	0.375544	0.043166	0.156963	0.217066	0.061378	0.060151	0.276374	0.145433	0.075768	0.599346	0.352129	0.500069	0.177134	0.046758	0.246638	0.131311	0.364668	0.062430	0.135551	0.063912	0.161152	0.156875	0.353816	0.124801	0.109347	0.661678	0.307561	0.098050
51	0.129587	0.106003	0.329456	0.298931	0.058647	0.097495	0.169156	0.221865	0.534625	0.123620	0.447191	0.106065	0.073193	0.076632	0.417859	0.331567	0.074870	0.478047	0.405837	0.329634	0.063681	0.299310	0.174448	0.054308	0.059844	0.198193	0.578681	0.112698	0.044928	0.318732	0.169151	0.059753	0.433345	0.067094	0.414989	0.327695	0.069128	0.912445	0.357578	0.152561	0.060471	0.125413	0.389835	0.105579	0.089323	0.362139	0.112412	0.555723	0.058994	0.055352	0.252732	0.134091	0.361841	0.044368	0.162141	0.218237	0.062980	0.058691	0.295912	0.120433	0.071395	0.586336	0.451757	0.645478	0.183712	0.046757	0.253763	0.129566	0.363783	0.062516	0.136803	0.065669	0.167597	0.152221	0.432826	0.119007	0.118158	0.697017	0.308224	0.096906
52	0.128697	0.100411	0.331381	0.298842	0.065501	0.098854	0.181785	0.208628	0.545211	0.122104	0.448244	0.099175	0.095677	0.076372	0.405906	0.329505	0.080968	0.477217	0.417050	0.325104	0.065542	0.309434	0.175305	0.053997	0.056649	0.195221	0.582108	0.103895	0.051535	0.427964	0.171856	0.060133	0.433118	0.068088	0.404981	0.310223	0.064455	1.036408	0.337004	0.144543	0.056081	0.125319	0.333242	0.087064	0.085857	0.365266	0.115480	0.584778	0.080192	0.055037	0.227890	0.139146	0.347480	0.046644	0.182062	0.219470	0.063404	0.056797	0.322687	0.109743	0.066119	0.530649	0.530447	0.800224	0.189043	0.052099	0.321578	0.129800	0.363874	0.071073	0.151624	0.070881	0.172571	0.147179	0.471470	0.115488	0.117831	0.679947	0.306489	0.095771
53	0.152426	0.096378	0.331537	0.296364	0.063669	0.139002	0.207939	0.202861	0.608997	0.112930	0.450283	0.088851	0.113212	0.075761	0.384807	0.350131	0.081266	0.475806	0.473322	0.322059	0.075914	0.321432	0.178629	0.057088	0.062530	0.186755	0.583379	0.107185	0.066574	0.604218	0.175895	0.070497	0.474665	0.068377	0.462843	0.283897	0.065574	1.045061	0.337930	0.141334	0.051235	0.124185	0.288284	0.083855	0.081366	0.367718	0.164359	0.611012	0.108758	0.053319	0.253201	0.139371	0.332949	0.075889	0.181520	0.225950	0.063472	0.056928	0.320257	0.107199	0.081359	0.485204	0.538558	0.932022	0.190000	0.056016	0.396365	0.131974	0.360103	0.177690	0.176192	0.073299	0.171057	0.147526	0.492182	0.111954	0.123571	0.524629	0.306720	0.094309
54	0.206166	0.094657	0.333252	0.290251	0.063709	0.142944	0.223624	0.201542	0.753789	0.109842	0.454849	0.083962	0.141359	0.072168	0.375048	0.383400	0.081282	0.468765	0.575189	0.326518	0.080595	0.329009	0.202045	0.059174	0.083694	0.154256	0.597878	0.113629	0.102277	0.708148	0.179075	0.074992	0.474338	0.066584	0.528386	0.246544	0.062002	1.046935	0.331186	0.141316	0.048482	0.124799	0.281774	0.087039	0.084303	0.395764	0.366190	0.619348	0.155306	0.051515	0.302626	0.143082	0.315869	0.084307	0.176250	0.241778	0.063129	0.060737	0.354579	0.108839	0.083678	0.475538	0.545017	0.987196	0.193108	0.056950	0.431790	0.129655	0.349114	0.220877	0.178370	0.073275	0.147378	0.097622	0.630182	0.110305	0.123885	0.509986	0.309765	0.093240
55	0.214272	0.098535	0.334966	0.281704	0.067761	0.132416	0.241907	0.206930	0.732089	0.106412	0.455660	0.090005	0.252270	0.062489	0.366741	0.419934	0.085092	0.434719	0.631960	0.330876	0.080333	0.328556	0.214629	0.056022	0.098134	0.142835	0.648606	0.126131	0.104727	0.736337	0.177484	0.066191	0.449432	0.063388	0.542674	0.224137	0.060965	1.054549	0.297383	0.137177	0.043203	0.124754	0.284157	0.086361	0.084013	0.411205	0.385669	0.619511	0.151463	0.051226	0.303352	0.147261	0.284501	0.092712	0.175368	0.269375	0.063407	0.062366	0.461337	0.117065	0.084109	0.435965	0.547296	1.007962	0.196400	0.057065	0.431213	0.122711	0.340913	0.233564	0.194629	0.072505	0.143497	0.077845	0.765690	0.111729	0.132396	0.442120	0.300029	0.091416
56	0.223301	0.102815	0.315511	0.268615	0.104775	0.125418	0.243543	0.219232	0.713852	0.105906	0.492985	0.101745	0.503079	0.058810	0.252330	0.447408	0.085337	0.433451	0.646348	0.333616	0.082484	0.341456	0.224784	0.057668	0.102138	0.134194	0.704740	0.130648	0.117593	0.733909	0.178857	0.060181	0.414530	0.061454	0.534557	0.214242	0.060783	1.058113	0.266427	0.121287	0.041426	0.125924	0.318551	0.083822	0.074359	0.464484	0.424138	0.614874	0.227039	0.050798	0.291800	0.156299	0.272880	0.094664	0.146710	0.298897	0.065398	0.063650	0.487921	0.127600	0.084411	0.354818	0.547707	1.022509	0.195979	0.056966	0.488965	0.113783	0.309160	0.274234	0.214024	0.074800	0.146674	0.071948	0.795301	0.111048	0.128650	0.362340	0.293090	0.087042
57	0.257833	0.100284	0.370732	0.253605	0.162646	0.125438	0.241367	0.224395	0.713992	0.101438	0.557206	0.115375	0.519919	0.058037	0.176573	0.458866	0.085304	0.432768	0.650283	0.332402	0.087616	0.352071	0.263400	0.211265	0.102464	0.125798	0.724839	0.131274	0.124849	0.732662	0.403482	0.061614	0.409711	0.057561	0.537637	0.216850	0.059530	1.058475	0.153823	0.095938	0.037317	0.125893	0.394843	0.081306	0.060436	0.491438	0.449662	0.604888	0.396942	0.054245	0.283096	0.159401	0.247226	0.096556	0.141365	0.328225	0.065524	0.056178	0.475273	0.128986	0.082709	0.343526	0.549383	1.019924	0.188988	0.058204	0.536922	0.106235	0.236967	0.276690	0.221955	0.072283	0.146737	0.070112	0.794958	0.107960	0.126919	0.349754	0.280948	0.073004
58	0.400707	0.100279	0.380498	0.226637	0.263520	0.127874	0.240426	0.219905	0.714280	0.105708	0.632181	0.124678	0.521418	0.055150	0.173000	0.456954	0.085297	0.382615	0.647882	0.310550	0.087968	0.357785	0.263341	0.307023	0.103005	0.121170	0.716917	0.132032	0.126259	0.731713	0.523380	0.061088	0.407901	0.056381	0.526262	0.224988	0.054637	1.050662	0.135082	0.049335	0.043773	0.120920	0.498819	0.092541	0.055247	0.498055	0.468332	0.590068	0.573177	0.064193	0.306090	0.159866	0.201779	0.095181	0.135877	0.354811	0.059948	0.053971	0.475483	0.117442	0.084185	0.321382	0.557244	1.002904	0.196026	0.058156	0.538815	0.103608	0.206966	0.283546	0.212920	0.069440	0.145408	0.070093	0.810699	0.104645	0.127805	0.345099	0.242664	0.053312
59	0.401750	0.101144	0.379897	0.183878	0.320430	0.132248	0.238372	0.207480	0.714555	0.110436	0.682290	0.128747	0.591084	0.058601	0.141119	0.448357	0.083672	0.280437	0.646244	0.280529	0.094713	0.360588	0.247041	0.310347	0.104863	0.122119	0.662690	0.133011	0.126322	0.712775	0.535615	0.061243	0.408052	0.057286	0.529735	0.233253	0.054076	1.041062	0.129098	0.027845	0.054180	0.134240	0.541802	0.105449	0.056440	0.509694	0.476212	0.573394	0.728881	0.070173	0.319283	0.162369	0.181919	0.098102	0.132635	0.370547	0.060078	0.058668	0.518699	0.109390	0.082055	0.303944	0.583580	0.983330	0.225612	0.059794	0.557856	0.104364	0.075012	0.301026	0.199970	0.071985	0.140983	0.068783	0.815459	0.098088	0.120567	0.344663	0.237776	0.036107
60	0.401708	0.101262	0.372359	0.142373	0.404982	0.133417	0.238665	0.188946	0.714227	0.113275	0.672229	0.129928	0.843716	0.059784	0.130895	0.441372	0.083018	0.267255	0.628559	0.248549	0.102975	0.364676	0.255242	0.315790	0.110492	0.124153	0.592832	0.121584	0.125231	0.713108	0.595273	0.063956	0.407659	0.057596	0.643904	0.233372	0.051108	0.911770	0.127873	0.033694	0.056520	0.180533	0.702580	0.106583	0.059101	0.530427	0.477673	0.557600	0.906680	0.071656	0.319973	0.161738	0.174373	0.104761	0.132322	0.368435	0.068931	0.059959	0.599657	0.108017	0.079466	0.246379	0.581564	0.968684	0.223175	0.065672	0.574571	0.103600	0.068356	0.309655	0.198632	0.089782	0.126536	0.066410	0.806165	0.085683	0.122213	0.343400	0.248588	0.028759
61	0.415950	0.094994	0.361043	0.111012	0.586439	0.136834	0.238048	0.168210	0.714312	0.113420	0.649272	0.130002	0.847850	0.072762	0.124911	0.441256	0.081651	0.245641	0.641055	0.213917	0.104257	0.368535	0.368680	0.320807	0.111535	0.124688	0.618179	0.097167	0.125400	0.726849	0.633730	0.061975	0.408692	0.059118	0.711307	0.243848	0.042450	0.606832	0.128721	0.035994	0.062398	0.200832	0.755473	0.112428	0.059227	0.571180	0.487976	0.546776	1.275640	0.080756	0.318939	0.161734	0.157177	0.182576	0.129188	0.353186	0.067962	0.056817	0.609676	0.110425	0.080223	0.240012	0.529507	0.992997	0.264738	0.067672	0.592411	0.100335	0.085627	0.310376	0.193426	0.092168	0.118989	0.065689	0.789586	0.069165	0.132775	0.465946	0.232285	0.029627
62	0.426096	0.087662	0.339745	0.087324	0.610111	0.138256	0.230268	0.145387	0.712891	0.110271	0.657282	0.129195	0.848632	0.093163	0.126063	0.440633	0.079589	0.093821	0.650905	0.206980	0.104572	0.367510	0.484160	0.320965	0.114766	0.126322	0.602768	0.096327	0.126754	0.741309	0.652625	0.060012	0.406580	0.056942	0.758672	0.245572	0.032878	0.319647	0.126472	0.035197	0.074923	0.201594	0.749826	0.131771	0.058640	0.585049	0.496321	0.534397	1.294332	0.085975	0.305618	0.164670	0.158285	0.182900	0.119263	0.346891	0.070275	0.056645	0.631185	0.108151	0.085025	0.241682	0.499087	1.057293	0.330821	0.065145	0.594340	0.093886	0.146197	0.312090	0.204385	0.093642	0.116494	0.065661	0.791037	0.058781	0.128529	0.452960	0.222929	0.029891
63	0.433379	0.084435	0.384664	0.077601	0.609943	0.145017	0.221921	0.126222	0.683517	0.109954	0.663513	0.127526	0.848243	0.099317	0.127204	0.435049	0.072658	0.096058	0.616426	0.217357	0.106227	0.368243	0.491117	0.333071	0.122771	0.132355	0.577679	0.096707	0.125784	0.750860	0.650740	0.086998	0.393593	0.057871	0.770716	0.238175	0.033072	0.237530	0.127835	0.034404	0.088537	0.202296	0.746737	0.140041	0.057070	0.580172	0.494926	0.509318	1.294690	0.086539	0.309912	0.167448	0.156376	0.185386	0.091024	0.347896	0.070363	0.057880	0.623533	0.106227	0.085685	0.193759	0.502115	1.135314	0.360847	0.062467	0.574851	0.084257	0.200238	0.313150	0.205631	0.095951	0.115583	0.065344	0.787615	0.058723	0.120766	0.422799	0.233656	0.029539
64	0.459024	0.091731	0.506745	0.082873	0.610642	0.152013	0.198861	0.117740	0.629540	0.110449	0.753428	0.125274	0.845499	0.103049	0.127494	0.446999	0.063685	0.099251	0.604439	0.226710	0.107798	0.378923	0.526554	0.341273	0.143810	0.134340	0.573599	0.098119	0.121859	0.704725	0.649835	0.093716	0.375545	0.066784	0.762115	0.225793	0.031216	0.234798	0.086519	0.034512	0.111594	0.211932	0.738702	0.135948	0.055243	0.581901	0.491688	0.483702	1.295058	0.085006	0.300192	0.145490	0.153370	0.183337	0.053257	0.349653	0.076630	0.058217	0.609923	0.106267	0.092635	0.202016	0.430190	1.171956	0.382047	0.062327	0.576842	0.079478	0.209130	0.282533	0.190909	0.096628	0.114219	0.066807	0.786593	0.060170	0.125056	0.417410	0.274697	0.030143
65	0.456362	0.113421	0.542695	0.099062	0.611988	0.156233	0.188822	0.127146	0.589182	0.106709	0.877709	0.125066	0.844129	0.101966	0.141455	0.474550	0.059380	0.106298	0.582786	0.227147	0.103463	0.302392	0.575973	0.343830	0.152020	0.133617	0.571757	0.097902	0.113543	0.561999	0.648615	0.088453	0.359978	0.085999	0.766179	0.212189	0.031299	0.207884	0.076894	0.034423	0.175558	0.212682	0.737637	0.135336	0.054841	0.578609	0.491957	0.380481	1.302056	0.082417	0.290546	0.132069	0.132247	0.212504	0.047940	0.359645	0.081579	0.057834	0.612240	0.106213	0.093904	0.205288	0.320024	1.190822	0.401883	0.062463	0.587128	0.079203	0.236339	0.260284	0.179643	0.098374	0.106902	0.069149	0.754928	0.060701	0.113837	0.427506	0.276639	0.031072
66	0.435894	0.128136	0.595290	0.117585	0.613027	0.183733	0.141339	0.131210	0.564027	0.104859	0.916299	0.128026	0.833553	0.099809	0.154960	0.499454	0.059474	0.098921	0.507465	0.229556	0.095073	0.393948	0.604746	0.345485	0.212499	0.128992	0.579437	0.108174	0.087241	0.410450	0.647737	0.086137	0.336054	0.097418	0.761921	0.203878	0.031156	0.225554	0.120543	0.037253	0.234533	0.216163	0.732796	0.135303	0.047688	0.573785	0.403443	0.280765	1.308723	0.080802	0.290163	0.128926	0.135863	0.230159	0.044276	0.361256	0.086430	0.055317	0.591819	0.104570	0.083651	0.198676	0.310439	1.202125	0.404265	0.056518	0.557083	0.076655	0.237833	0.227067	0.175414	0.100802	0.097348	0.070183	0.833293	0.065382	0.122386	0.440328	0.287232	0.034072
67	0.432310	0.129992	0.607070	0.131007	0.621193	0.195024	0.155430	0.112210	0.556531	0.100863	0.918270	0.133691	0.711561	0.099083	0.155999	0.504170	0.047432	0.093890	0.397069	0.232366	0.101379	0.407250	0.610991	0.347202	0.276233	0.116724	1.067537	0.155455	0.085345	0.360996	0.648305	0.086488	0.326433	0.098281	0.766638	0.202958	0.048707	0.289951	0.128305	0.041291	0.315547	0.216372	0.724003	0.135234	0.069639	0.577492	0.331975	0.212988	1.308050	0.083090	0.290660	0.129461	0.129003	0.238846	0.043516	0.347442	0.103660	0.068871	0.512631	0.099931	0.077313	0.196704	0.323571	1.254232	0.410558	0.051713	0.509672	0.071101	0.240615	0.200195	0.161858	0.100573	0.089721	0.070302	0.892349	0.072247	0.127811	0.448365	0.283795	0.044195
68	0.428512	0.126581	0.609976	0.138375	0.621366	0.221656	0.167606	0.093559	0.325789	0.100511	0.931448	0.136376	0.684840	0.096711	0.130045	0.491127	0.037764	0.094003	0.350705	0.234541	0.095930	0.402343	0.611038	0.347974	0.323447	0.109225	1.301690	0.153557	0.063537	0.351393	0.648422	0.089427	0.221685	0.097946	0.745074	0.202948	0.054390	0.341266	0.127970	0.048453	0.327736	0.211084	0.639554	0.132885	0.088473	0.613894	0.316112	0.157765	1.303867	0.089910	0.238495	0.166927	0.171597	0.237943	0.089438	0.326709	0.105002	0.072035	0.489000	0.088560	0.076303	0.196549	0.320269	1.300424	0.419731	0.049990	0.475809	0.071184	0.241067	0.229088	0.145239	0.096944	0.097063	0.066844	0.880194	0.076794	0.128820	0.443377	0.307802	0.060300
69	0.416250	0.125230	0.600610	0.143313	0.592169	0.284880	0.168237	0.085114	0.120023	0.093317	0.962756	0.129392	0.682022	0.095343	0.126010	0.482535	0.045641	0.092555	0.337075	0.231741	0.093448	0.400387	0.603250	0.349129	0.347334	0.104877	1.291562	0.145123	0.050105	0.361574	0.530386	0.094286	0.177718	0.098118	0.680872	0.204044	0.056923	0.371348	0.127730	0.050068	0.390625	0.208305	0.610844	0.121388	0.090640	0.539713	0.260637	0.110906	1.303861	0.097128	0.329068	0.191784	0.289073	0.240130	0.118842	0.293530	0.113361	0.072370	0.512275	0.077739	0.074891	0.196587	0.323582	1.431139	0.425999	0.051623	0.480947	0.075539	0.253860	0.231104	0.147376	0.093434	0.111323	0.058919	0.892378	0.084132	0.126781	0.444441	0.310267	0.068243
70	0.287958	0.128576	0.613778	0.144074	0.558066	0.492644	0.168644	0.082774	0.109093	0.081613	0.971135	0.115334	0.660231	0.092772	0.130815	0.480917	0.049406	0.090521	0.341873	0.228844	0.097924	0.442588	0.600825	0.349136	0.659449	0.115874	1.437357	0.147084	0.047434	0.414153	0.423811	0.096494	0.152424	0.098238	0.661258	0.206296	0.060721	0.384606	0.127609	0.046416	0.414557	0.144653	0.494350	0.114719	0.092593	0.522337	0.242379	0.098853	1.317826	0.099618	0.464558	0.187572	0.346193	0.241661	0.130319	0.260634	0.129773	0.069666	0.518958	0.069856	0.072186	0.195801	0.327078	1.535799	0.427773	0.055328	0.498313	0.075927	0.269443	0.220394	0.148865	0.093941	0.109669	0.054953	0.983169	0.089863	0.129493	0.443516	0.289301	0.068575
71	0.291108	0.129603	0.615567	0.144733	0.538088	0.511502	0.169566	0.084720	0.105956	0.077644	0.938522	0.099150	0.265401	0.092356	0.130768	0.488390	0.048829	0.089246	0.342778	0.225662	0.097014	0.432955	0.596218	0.346390	0.679711	0.161460	1.637036	0.173820	0.051732	0.420014	0.410737	0.103211	0.149945	0.098867	0.661116	0.206614	0.085636	0.449152	0.127323	0.045309	0.480060	0.121896	0.253830	0.114037	0.092660	0.542997	0.233481	0.094509	1.292025	0.100920	0.487529	0.181968	0.398539	0.252261	0.182030	0.239316	0.158050	0.064544	0.515973	0.071589	0.070374	0.195566	0.321076	1.602022	0.428006	0.054721	0.495155	0.071589	0.268618	0.196518	0.155262	0.088526	0.109639	0.059633	1.045688	0.091481	0.136989	0.475854	0.287974	0.068639
72	0.325626	0.125985	0.608979	0.143257	0.283357	0.602520	0.166519	0.084508	0.101672	0.072692	0.875408	0.084242	0.164670	0.084756	0.126293	0.497141	0.049874	0.089392	0.384324	0.222043	0.098698	0.435990	0.579662	0.262841	0.691542	0.189451	1.734866	0.174388	0.057946	0.428136	0.318536	0.106167	0.119996	0.096605	0.665054	0.197164	0.092680	0.483318	0.141730	0.049869	0.553967	0.117001	0.168795	0.100575	0.095227	0.545410	0.230558	0.102758	1.240256	0.099096	0.517428	0.186328	0.505836	0.264963	0.212492	0.231229	0.198008	0.063586	0.509280	0.083038	0.070954	0.187358	0.269114	1.635717	0.427482	0.061095	0.495081	0.062832	0.270101	0.198450	0.168372	0.083429	0.137903	0.068622	1.052335	0.091761	0.126055	0.489379	0.289733	0.069879
73	0.315575	0.121411	0.598247	0.141264	0.201936	0.604260	0.162656	0.084289	0.100995	0.065953	0.813743	0.074741	0.159735	0.065919	0.122759	0.499011	0.055314	0.092070	0.383563	0.220692	0.105482	0.430767	0.572804	0.172924	0.692013	0.198183	1.748978	0.174582	0.069392	0.418481	0.232946	0.105342	0.116430	0.094792	0.666250	0.174345	0.094604	0.483056	0.152806	0.050984	0.584277	0.122263	0.206009	0.076025	0.109697	0.504021	0.245119	0.117846	1.165035	0.093590	0.607276	0.192865	0.509047	0.281105	0.223945	0.231174	0.263256	0.064806	0.504646	0.096774	0.071950	0.159905	0.257345	1.653013	0.415492	0.067048	0.491702	0.059387	0.247936	0.217010	0.166055	0.083327	0.190958	0.079234	1.041789	0.097093	0.118676	0.515528	0.290001	0.070438
74	0.304095	0.122920	0.596283	0.140001	0.198087	0.604613	0.190190	0.084166	0.101204	0.065627	0.808369	0.071192	0.172449	0.051484	0.120557	0.497999	0.079915	0.092254	0.361133	0.215339	0.099789	0.441112	0.573225	0.166292	0.691572	0.198091	1.746778	0.176743	0.069139	0.389243	0.138505	0.105369	0.120408	0.096561	0.657104	0.151942	0.095256	0.483234	0.144584	0.050509	0.665822	0.111561	0.203005	0.066318	0.123163	0.456749	0.244901	0.119107	1.109322	0.095213	0.649896	0.195818	0.513302	0.302602	0.226041	0.231037	0.294663	0.064320	0.501867	0.105770	0.075556	0.169134	0.249729	1.645602	0.414720	0.064379	0.484427	0.064931	0.224299	0.217604	0.155183	0.078066	0.239441	0.083411	1.050269	0.102845	0.122119	0.497210	0.304792	0.070435
75	0.311661	0.128199	0.578405	0.139948	0.198112	0.616471	0.228530	0.084881	0.098990	0.061976	0.809423	0.070047	0.176243	0.033440	0.118396	0.472458	0.084000	0.088538	0.353459	0.201854	0.102432	0.441308	0.569093	0.158242	0.691870	0.196713	1.725530	0.179284	0.076397	0.356405	0.131377	0.083548	0.181119	0.102745	0.561084	0.147563	0.095050	0.486625	0.150205	0.050210	0.684681	0.102147	0.221497	0.065043	0.126569	0.452000	0.266284	0.120568	0.607379	0.096211	0.657753	0.197793	0.514633	0.316626	0.231972	0.228282	0.300960	0.065490	0.522874	0.108399	0.080883	0.182295	0.234234	1.607034	0.388359	0.060329	0.464561	0.073449	0.219259	0.218447	0.161150	0.071905	0.274640	0.084647	1.073349	0.103498	0.114744	0.490270	0.286834	0.070444
76	0.280750	0.123894	0.488266	0.138128	0.193338	0.634235	0.232552	0.080511	0.095841	0.061502	0.805450	0.070304	0.182982	0.039514	0.102930	0.407962	0.084608	0.085000	0.354667	0.190778	0.105649	0.441360	0.478931	0.163252	0.690903	0.197286	1.719884	0.179660	0.100901	0.329554	0.145727	0.075719	0.189508	0.106549	0.452565	0.135195	0.094991	0.482985	0.137662	0.048798	0.671507	0.098604	0.325879	0.083062	0.130816	0.446321	0.265949	0.121844	0.347482	0.089743	0.658255	0.196847	0.513493	0.329806	0.258729	0.217490	0.306075	0.067473	0.520864	0.108398	0.089913	0.174639	0.211414	1.552020	0.333571	0.059685	0.450136	0.077430	0.222523	0.216544	0.162252	0.065691	0.279814	0.085229	1.092165	0.101591	0.112039	0.499365	0.267729	0.070030
77	0.282231	0.102850	0.453287	0.132174	0.195048	0.625198	0.254741	0.069436	0.090940	0.063811	0.799118	0.072439	0.192741	0.056334	0.073885	0.317144	0.083554	0.054676	0.513943	0.210003	0.105558	0.441092	0.382738	0.181974	0.688543	0.201155	1.725016	0.179987	0.109031	0.329533	0.143605	0.073081	0.191120	0.109981	0.369757	0.107481	0.090884	0.430713	0.120719	0.044937	0.639242	0.096080	0.367257	0.087293	0.150819	0.445990	0.279076	0.121757	0.342335	0.087303	0.658472	0.193938	0.511309	0.324545	0.260977	0.179696	0.309830	0.066931	0.521749	0.109125	0.086629	0.160576	0.188646	1.478262	0.295487	0.060370	0.451157	0.076937	0.203545	0.217926	0.160802	0.061787	0.295503	0.085502	1.107372	0.096894	0.105540	0.472367	0.265416	0.068762
78	0.281250	0.082949	0.372646	0.123991	0.161966	0.621102	0.249203	0.069656	0.092494	0.062018	0.766368	0.074984	0.275760	0.071154	0.067752	0.233827	0.089475	0.055130	0.563561	0.238517	0.104792	0.443568	0.375096	0.167054	0.688760	0.209020	1.728165	0.178971	0.106167	0.405460	0.142011	0.072327	0.202528	0.109602	0.312460	0.085982	0.085479	0.415348	0.122826	0.037300	0.616467	0.096218	0.395841	0.087111	0.150914	0.445823	0.296945	0.123250	0.340987	0.086112	0.658003	0.191934	0.525000	0.318424	0.267634	0.143694	0.338259	0.067353	0.526660	0.110758	0.083398	0.153314	0.188159	1.383337	0.258489	0.063373	0.441961	0.077545	0.225722	0.245954	0.148494	0.059929	0.329082	0.085487	1.122838	0.097377	0.087293	0.521512	0.240186	0.065100
79	0.307883	0.076921	0.351819	0.119914	0.106021	0.613148	0.239771	0.070468	0.098105	0.062577	0.589595	0.076737	0.296591	0.098403	0.071558	0.192206	0.108224	0.054683	0.566179	0.259338	0.102018	0.437286	0.313852	0.156772	0.684429	0.210813	1.726532	0.177443	0.109090	0.425994	0.138463	0.072200	0.290275	0.105583	0.311179	0.076741	0.085519	0.358316	0.124784	0.032829	0.603421	0.098351	0.440834	0.085047	0.148267	0.421631	0.303326	0.126974	0.335106	0.085763	0.657007	0.192358	0.540928	0.338606	0.274052	0.109557	0.380413	0.052112	0.528875	0.113341	0.085894	0.152834	0.173308	1.282888	0.225119	0.066143	0.441033	0.078860	0.244482	0.230995	0.140553	0.060427	0.387852	0.083593	1.123252	0.101982	0.084401	0.578452	0.227491	0.054150
80	0.331215	0.077680	0.342401	0.121138	0.090208	0.610110	0.238752	0.071117	0.113402	0.060591	0.457808	0.076732	0.300757	0.121266	0.064559	0.185187	0.115613	0.058434	0.589006	0.255466	0.101729	0.422587	0.212649	0.154062	0.661851	0.208155	1.621341	0.146084	0.122918	0.419048	0.134117	0.067855	0.410748	0.093200	0.304533	0.074671	0.085676	0.334382	0.127881	0.035732	0.576151	0.098917	0.451366	0.081969	0.133257	0.392102	0.292365	0.125955	0.291809	0.085457	0.655032	0.192649	0.556757	0.370464	0.258375	0.068438	0.410638	0.044933	0.529576	0.125416	0.085453	0.153223	0.126079	1.176957	0.208828	0.068407	0.442592	0.080247	0.281049	0.222097	0.160877	0.060404	0.388429	0.082501	1.114194	0.106104	0.100616	0.756503	0.198025	0.036113
81	0.338309	0.076356	0.299594	0.122699	0.084173	0.459068	0.240940	0.075960	0.145707	0.062116	0.435269	0.073539	0.335457	0.126520	0.093583	0.183841	0.117833	0.066219	0.632784	0.265861	0.100070	0.345092	0.122817	0.170451	0.634332	0.207279	1.307910	0.123601	0.129418	0.441603	0.131158	0.059618	0.427289	0.077428	0.273919	0.073917	0.068963	0.303040	0.137179	0.037233	0.544795	0.092636	0.453361	0.082395	0.128454	0.248681	0.292729	0.128081	0.280294	0.083950	0.654511	0.192048	0.522481	0.377976	0.270187	0.049152	0.434841	0.046642	0.525870	0.140390	0.087225	0.154159	0.152010	1.088083	0.198035	0.069586	0.440681	0.079138	0.300466	0.224651	0.157593	0.059082	0.388769	0.082390	1.025449	0.105147	0.115236	0.790215	0.196078	0.033197
82	0.337372	0.071354	0.254158	0.126965	0.080745	0.433684	0.240632	0.082748	0.167887	0.069763	0.431265	0.072007	0.339868	0.126708	0.267978	0.164166	0.137232	0.076063	0.634279	0.315026	0.092891	0.395256	0.092659	0.228563	0.644078	0.210159	1.245334	0.136181	0.132816	0.395746	0.132450	0.055330	0.497223	0.073048	0.244622	0.072315	0.050679	0.171492	0.136887	0.029871	0.484342	0.082534	0.453094	0.084104	0.125662	0.259826	0.286001	0.127908	0.277387	0.078315	0.652360	0.173803	0.512408	0.376925	0.276313	0.045321	0.497729	0.051720	0.518796	0.146450	0.088654	0.154413	0.186353	0.906705	0.182910	0.070630	0.439532	0.075545	0.325667	0.239311	0.168919	0.051143	0.393790	0.082300	0.981118	0.102140	0.112090	0.780659	0.183400	0.037847
83	0.336759	0.069519	0.248348	0.129077	0.079040	0.279446	0.234806	0.093997	0.175404	0.074494	0.374406	0.074034	0.340472	0.128069	0.276971	0.114948	0.152351	0.081482	0.633323	0.383181	0.091208	0.399651	0.087187	0.299426	0.612569	0.214887	1.156033	0.143054	0.133416	0.389273	0.140330	0.039626	0.606076	0.074600	0.216154	0.074689	0.046204	0.133814	0.115087	0.027858	0.394719	0.073430	0.442034	0.083230	0.125716	0.264085	0.270469	0.111235	0.270639	0.068759	0.641555	0.131377	0.415225	0.362796	0.247009	0.044203	0.490029	0.058080	0.466501	0.146403	0.088940	0.154735	0.194048	0.686120	0.161727	0.069737	0.440001	0.071318	0.455382	0.240551	0.160420	0.039226	0.397894	0.079090	0.980333	0.098743	0.108864	0.747062	0.162772	0.040835
84	0.312502	0.072237	0.238281	0.124637	0.069762	0.266805	0.229972	0.108924	0.267336	0.078370	0.301110	0.076274	0.344061	0.130064	0.302223	0.084721	0.158025	0.083702	0.622852	0.449965	0.090476	0.385008	0.100278	0.383556	0.491750	0.193679	0.832310	0.121187	0.130849	0.396928	0.132618	0.027911	0.640572	0.075795	0.202909	0.078368	0.039211	0.133161	0.116492	0.028231	0.327050	0.070006	0.434051	0.072250	0.125657	0.210792	0.256666	0.109355	0.234781	0.058490	0.547807	0.109800	0.389517	0.347497	0.235976	0.035133	0.486699	0.061965	0.371392	0.138105	0.092527	0.155837	0.188490	0.500435	0.158813	0.066936	0.400277	0.070002	0.515035	0.225133	0.151304	0.040492	0.393978	0.074357	0.851899	0.091272	0.108805	0.684504	0.173498	0.042729
85	0.314827	0.073242	0.237053	0.119573	0.070567	0.262477	0.218418	0.125001	0.394155	0.078753	0.342170	0.077442	0.373258	0.131125	0.319051	0.108641	0.158578	0.081564	0.606226	0.497091	0.086001	0.347205	0.123054	0.391881	0.479066	0.158332	0.488961	0.105902	0.125298	0.382268	0.129616	0.027784	0.821574	0.075644	0.203060	0.080440	0.047191	0.130729	0.127961	0.032104	0.129146	0.076688	0.418109	0.069159	0.117187	0.233575	0.255648	0.086732	0.152543	0.053098	0.482791	0.108473	0.421777	0.304255	0.236686	0.024005	0.461807	0.061312	0.361978	0.125338	0.099292	0.157499	0.191177	0.362733	0.165630	0.066332	0.360937	0.070545	0.576422	0.216872	0.159432	0.046092	0.391898	0.074431	0.631143	0.084890	0.110762	0.663820	0.167327	0.045116
86	0.309790	0.069151	0.245461	0.118933	0.060627	0.241272	0.164052	0.136727	0.409849	0.078761	0.378945	0.078519	0.445573	0.134448	0.324798	0.133203	0.151922	0.078139	0.602093	0.522338	0.086050	0.369023	0.120756	0.435949	0.472260	0.137193	0.315775	0.113153	0.125571	0.390735	0.129888	0.027226	0.924671	0.079064	0.203055	0.075108	0.052704	0.100838	0.136841	0.035906	0.108795	0.084802	0.403279	0.063199	0.100062	0.241877	0.229776	0.077742	0.136723	0.048030	0.474377	0.108439	0.418080	0.282792	0.242695	0.025114	0.445871	0.071294	0.313200	0.120804	0.102423	0.157671	0.212430	0.245399	0.160154	0.062784	0.361291	0.071025	0.614079	0.210740	0.191713	0.046136	0.399824	0.071133	0.514685	0.085787	0.107160	0.663519	0.133614	0.045354
87	0.288610	0.059874	0.223191	0.121886	0.059342	0.151944	0.154330	0.138183	0.437453	0.077025	0.377429	0.080594	0.445058	0.134683	0.325581	0.156769	0.145741	0.075402	0.614471	0.535780	0.083748	0.391739	0.125050	0.481008	0.487887	0.131732	0.357386	0.125055	0.123187	0.391459	0.139299	0.027543	0.954843	0.082229	0.183680	0.068918	0.053313	0.099427	0.173930	0.044480	0.108023	0.085083	0.284786	0.037065	0.089916	0.237995	0.185308	0.078336	0.128584	0.047799	0.355373	0.114042	0.417793	0.277444	0.249671	0.031818	0.451806	0.078892	0.289566	0.126414	0.099554	0.153086	0.245793	0.170006	0.146180	0.056359	0.344438	0.070095	0.610018	0.211707	0.191226	0.045582	0.439046	0.065390	0.500707	0.088196	0.108002	0.659772	0.143290	0.045221
88	0.281150	0.058316	0.200983	0.125761	0.053940	0.174135	0.103548	0.137643	0.441519	0.073378	0.355004	0.083085	0.461758	0.131880	0.325550	0.179386	0.144415	0.074930	0.621677	0.541469	0.078038	0.387132	0.127680	0.483727	0.498209	0.132699	0.415695	0.130066	0.105636	0.394831	0.144679	0.028381	0.968742	0.080988	0.173093	0.063894	0.052726	0.097498	0.212239	0.048423	0.105323	0.083643	0.273994	0.037596	0.087237	0.234889	0.178212	0.074109	0.119057	0.045065	0.186615	0.103682	0.422826	0.244202	0.242072	0.040473	0.457801	0.083261	0.288827	0.132964	0.091433	0.055431	0.277387	0.142963	0.141895	0.052420	0.324600	0.067542	0.607483	0.211943	0.194231	0.045492	0.483518	0.059928	0.499015	0.083501	0.107032	0.654848	0.146001	0.044327
89	0.274769	0.061231	0.225186	0.127873	0.041416	0.182881	0.057803	0.135463	0.447125	0.071075	0.336270	0.085843	0.443480	0.141045	0.325224	0.187492	0.146492	0.075845	0.587735	0.538256	0.075661	0.379040	0.123459	0.490910	0.500896	0.129957	0.418525	0.128863	0.098810	0.399672	0.150377	0.034634	0.970774	0.077126	0.175338	0.062443	0.066294	0.098168	0.222038	0.048330	0.105659	0.135916	0.180853	0.041689	0.051523	0.228772	0.174479	0.070811	0.107952	0.034964	0.115617	0.109002	0.415466	0.227352	0.243631	0.054883	0.456899	0.084909	0.290242	0.136574	0.082177	0.057323	0.288116	0.147130	0.143090	0.051400	0.353002	0.066361	0.603546	0.190147	0.194247	0.043656	0.553908	0.061398	0.508276	0.077636	0.105244	0.649220	0.143897	0.043732
90	0.284322	0.067321	0.254659	0.128308	0.040948	0.228686	0.046447	0.135543	0.447887	0.071446	0.332651	0.087144	0.410556	0.150126	0.324503	0.188191	0.150979	0.075936	0.451238	0.527015	0.064732	0.394866	0.119074	0.532463	0.500688	0.117765	0.406335	0.129673	0.099334	0.316767	0.151310	0.033578	0.964851	0.069183	0.175310	0.068631	0.079997	0.080344	0.222111	0.047079	0.104608	0.148225	0.117771	0.056132	0.032643	0.232391	0.140234	0.069711	0.102743	0.026254	0.125178	0.149084	0.388441	0.223558	0.234845	0.071084	0.433639	0.083774	0.282608	0.137584	0.079338	0.057696	0.292018	0.291707	0.134577	0.052193	0.409915	0.068218	0.592556	0.164884	0.193541	0.043531	0.605455	0.063621	0.533150	0.077383	0.103262	0.568252	0.142305	0.043699
91	0.259403	0.073107	0.272289	0.128313	0.042139	0.211924	0.053261	0.137404	0.446665	0.071171	0.344509	0.086184	0.411184	0.146948	0.324216	0.199016	0.145842	0.075888	0.443861	0.514572	0.061272	0.399376	0.117113	0.563803	0.498915	0.100233	0.385065	0.136172	0.094678	0.280233	0.152639	0.034945	0.960019	0.060356	0.182080	0.074208	0.116748	0.057918	0.221092	0.044681	0.099499	0.144396	0.221890	0.112880	0.031037	0.237064	0.115917	0.059132	0.114075	0.025455	0.119610	0.163625	0.358606	0.164345	0.228922	0.096413	0.394062	0.082896	0.286738	0.132722	0.078457	0.055687	0.299654	0.399833	0.136547	0.055726	0.448448	0.070581	0.594073	0.124837	0.182894	0.042960	0.730120	0.063330	0.573178	0.077043	0.099901	0.519612	0.143645	0.043851
92	0.235304	0.085535	0.271212	0.126518	0.039746	0.206943	0.107899	0.135684	0.457995	0.074240	0.418773	0.085346	0.383842	0.196428	0.322778	0.208780	0.137454	0.076836	0.477770	0.513638	0.063572	0.513516	0.117121	0.574413	0.494201	0.079220	0.411233	0.135772	0.080691	0.273159	0.154126	0.038777	0.960213	0.055587	0.182811	0.073522	0.151165	0.049892	0.224276	0.045919	0.117030	0.243952	0.357707	0.152227	0.036423	0.240052	0.123958	0.065083	0.122688	0.027216	0.119231	0.165649	0.303091	0.070249	0.226913	0.118547	0.362843	0.082286	0.265953	0.118299	0.069747	0.051003	0.300249	0.488367	0.140752	0.059531	0.450055	0.074255	0.603228	0.120735	0.173787	0.042904	0.965034	0.064785	0.544851	0.077877	0.064085	0.136581	0.163918	0.043771
93	0.211797	0.097055	0.281272	0.123067	0.050351	0.219734	0.116625	0.130809	0.462273	0.073638	0.447074	0.086784	0.376699	0.227500	0.210792	0.209036	0.138196	0.069239	0.465268	0.523184	0.062355	0.610753	0.120100	0.583064	0.489600	0.075730	0.422160	0.134685	0.069079	0.219090	0.154826	0.039394	0.962440	0.056455	0.173522	0.072214	0.214595	0.050549	0.232643	0.046813	0.119644	0.245231	0.376373	0.155513	0.039085	0.240326	0.128100	0.072623	0.136102	0.030039	0.173823	0.167347	0.257252	0.065665	0.190761	0.135171	0.325144	0.080522	0.232521	0.100159	0.069246	0.049023	0.298987	0.567552	0.135625	0.055948	0.445958	0.077939	0.604288	0.064529	0.167071	0.038927	0.989599	0.067397	0.536766	0.077507	0.064350	0.138504	0.167491	0.041408
94	0.202461	0.097006	0.283069	0.117134	0.052794	0.226667	0.125641	0.124530	0.462791	0.072470	0.493067	0.086824	0.375606	0.233386	0.227556	0.211265	0.124690	0.061551	0.433689	0.519548	0.064657	0.680641	0.125743	0.581972	0.490017	0.075550	0.419796	0.134061	0.062082	0.215022	0.156793	0.039559	0.955310	0.058626	0.172114	0.072629	0.229865	0.050049	0.230160	0.047518	0.124438	0.245619	0.441767	0.161361	0.039279	0.233907	0.140029	0.060721	0.135965	0.042388	0.190774	0.166617	0.252157	0.065429	0.177660	0.143279	0.212872	0.077325	0.236226	0.092938	0.067222	0.045251	0.284818	0.636565	0.134987	0.053803	0.442021	0.079745	0.629184	0.048525	0.159992	0.036913	0.981097	0.068178	0.587585	0.075731	0.066182	0.131836	0.171936	0.035487
95	0.188247	0.099465	0.284726	0.113153	0.051975	0.228794	0.129418	0.117733	0.453234	0.077473	0.567619	0.084591	0.373247	0.232695	0.208830	0.220089	0.101691	0.055064	0.522831	0.488924	0.074089	0.718940	0.126113	0.606925	0.463571	0.071282	0.407072	0.124140	0.059883	0.226183	0.160764	0.040152	0.904508	0.058776	0.172615	0.074571	0.241230	0.052458	0.225991	0.047207	0.152987	0.247109	0.454397	0.182487	0.038172	0.206161	0.146900	0.060408	0.134995	0.051615	0.194658	0.166578	0.271385	0.064477	0.174034	0.148669	0.208663	0.073066	0.244772	0.091862	0.065190	0.045615	0.259746	0.666918	0.128226	0.053369	0.458405	0.080347	0.636885	0.049262	0.156667	0.033202	0.981229	0.069120	0.626643	0.076568	0.067841	0.131803	0.165050	0.027954
96	0.169151	0.098029	0.289062	0.111952	0.050876	0.228050	0.135194	0.106978	0.448600	0.086293	0.605408	0.079258	0.354067	0.231838	0.188929	0.246804	0.087394	0.050141	0.536786	0.434013	0.077568	0.788446	0.127889	0.631580	0.369519	0.050548	0.401647	0.113828	0.061718	0.210280	0.156390	0.038568	0.898655	0.058671	0.179170	0.077280	0.244394	0.049888	0.211939	0.046462	0.165159	0.243193	0.455320	0.204617	0.042484	0.189907	0.146079	0.060972	0.149055	0.064203	0.223037	0.168808	0.217533	0.065380	0.160308	0.149067	0.181295	0.069759	0.253926	0.091939	0.064847	0.057209	0.242957	0.670822	0.118664	0.055058	0.495310	0.087082	0.660990	0.048139	0.152574	0.019867	0.983062	0.074156	0.635553	0.079119	0.087887	0.127894	0.155646	0.021591
97	0.140197	0.098125	0.291071	0.114407	0.051880	0.237513	0.141040	0.093647	0.450453	0.085959	0.604579	0.071738	0.229378	0.230624	0.199087	0.274866	0.094859	0.049106	0.538477	0.366548	0.077941	0.813039	0.168517	0.680472	0.195891	0.037989	0.389801	0.109318	0.062618	0.208864	0.163063	0.038572	0.872672	0.059314	0.199258	0.082342	0.255486	0.047044	0.199980	0.039990	0.165731	0.241392	0.467648	0.212973	0.066117	0.171244	0.139454	0.063686	0.172538	0.064159	0.287648	0.169638	0.195589	0.058716	0.156856	0.149142	0.157504	0.069302	0.252854	0.092938	0.059213	0.056479	0.242604	0.671923	0.116846	0.069946	0.513019	0.095840	0.589152	0.044203	0.105694	0.016128	0.980318	0.078990	0.638112	0.080561	0.104982	0.126299	0.162572	0.018869
98	0.139358	0.100972	0.285095	0.119143	0.052019	0.245100	0.156511	0.086988	0.443448	0.083851	0.609207	0.067003	0.222403	0.231690	0.199867	0.291476	0.099546	0.049432	0.551511	0.314091	0.077438	0.824471	0.221367	0.739200	0.181265	0.035047	0.376151	0.109252	0.061271	0.185886	0.180296	0.038468	0.807365	0.059467	0.198942	0.082665	0.256015	0.047990	0.158842	0.032913	0.165943	0.243025	0.470868	0.215019	0.078031	0.107358	0.136316	0.066820	0.181403	0.064194	0.301736	0.171009	0.225951	0.045926	0.136498	0.148571	0.148948	0.057344	0.242373	0.089601	0.056674	0.052018	0.240164	0.685987	0.120749	0.083531	0.522294	0.102891	0.589717	0.034905	0.057073	0.017361	0.978772	0.080858	0.638984	0.080612	0.128920	0.121326	0.193294	0.019006
99	0.142499	0.101498	0.289783	0.120240	0.055179	0.272610	0.221571	0.084916	0.340603	0.082802	0.600106	0.065046	0.197222	0.232634	0.199971	0.293151	0.104076	0.048863	0.530067	0.280340	0.077576	0.830307	0.229747	0.812902	0.178344	0.035158	0.375678	0.105018	0.055248	0.179222	0.182497	0.038616	0.804657	0.063207	0.198135	0.078913	0.254672	0.045952	0.121908	0.031352	0.172919	0.246139	0.549546	0.215424	0.080228	0.103411	0.133062	0.067719	0.181636	0.063558	0.387427	0.176343	0.233693	0.040015	0.093594	0.146941	0.115676	0.045969	0.252214	0.080562	0.063859	0.097071	0.219992	0.712342	0.118905	0.087959	0.549575	0.108370	0.593587	0.029167	0.048284	0.016431	0.978925	0.079838	0.641245	0.084191	0.140181	0.100530	0.192954	0.019198
100	0.154987	0.102894	0.397531	0.118168	0.066223	0.329947	0.233837	0.092213	0.279258	0.082080	0.569866	0.063355	0.142244	0.228570	0.201244	0.290930	0.106312	0.050186	0.494386	0.261429	0.076606	0.833088	0.223178	0.873652	0.162887	0.034216	0.349001	0.088552	0.052471	0.169233	0.196535	0.038419	0.683171	0.072858	0.403540	0.073323	0.250629	0.043620	0.134224	0.030600	0.183218	0.214550	0.565697	0.215716	0.080666	0.102611	0.131652	0.067049	0.187057	0.064672	0.422365	0.177760	0.227943	0.037263	0.076334	0.148388	0.064177	0.043842	0.286527	0.069663	0.067182	0.132356	0.189953	0.730071	0.118955	0.091419	0.587307	0.112696	0.599468	0.027451	0.045926	0.016402	0.978740	0.078829	0.654985	0.088083	0.146292	0.098889	0.193289	0.018982
101	0.153929	0.101887	0.466943	0.114617	0.068060	0.320180	0.255279	0.099616	0.271342	0.080969	0.557715	0.060875	0.134615	0.207914	0.207494	0.290537	0.112436	0.049630	0.513270	0.257272	0.077857	0.817403	0.247008	0.853882	0.096767	0.031261	0.283498	0.075590	0.050558	0.153913	0.215067	0.031021	0.488694	0.073460	0.664916	0.070079	0.243235	0.043407	0.147295	0.029938	0.176773	0.212315	0.599037	0.206152	0.080614	0.102525	0.123866	0.067009	0.197382	0.068071	0.434676	0.164864	0.228316	0.037130	0.069612	0.154689	0.044765	0.043497	0.288398	0.062183	0.071347	0.141333	0.139921	0.730222	0.120933	0.090671	0.589078	0.115475	0.600025	0.027305	0.045609	0.017995	0.974099	0.076953	0.666288	0.088368	0.154529	0.095275	0.189527	0.017431
