	127_M_P_sh_L_ND_A_02.c3d	127_M_P_sh_L_ND_A_02.c3d	127_M_P_sh_L_ND_A_02.c3d	127_M_P_sh_L_ND_A_02.c3d	127_M_P_sh_L_ND_A_02.c3d	127_M_P_sh_L_ND_A_02.c3d	127_M_P_sh_L_ND_A_02.c3d	127_M_P_sh_L_ND_A_02.c3d	127_M_P_sh_L_ND_A_04.c3d	127_M_P_sh_L_ND_A_04.c3d	127_M_P_sh_L_ND_A_04.c3d	127_M_P_sh_L_ND_A_04.c3d	127_M_P_sh_L_ND_A_04.c3d	127_M_P_sh_L_ND_A_04.c3d	127_M_P_sh_L_ND_A_04.c3d	127_M_P_sh_L_ND_A_04.c3d	127_M_P_sh_L_ND_A_05.c3d	127_M_P_sh_L_ND_A_05.c3d	127_M_P_sh_L_ND_A_05.c3d	127_M_P_sh_L_ND_A_05.c3d	127_M_P_sh_L_ND_A_05.c3d	127_M_P_sh_L_ND_A_05.c3d	127_M_P_sh_L_ND_A_05.c3d	127_M_P_sh_L_ND_A_05.c3d	127_M_P_sh_L_ND_A_08.c3d	127_M_P_sh_L_ND_A_08.c3d	127_M_P_sh_L_ND_A_08.c3d	127_M_P_sh_L_ND_A_08.c3d	127_M_P_sh_L_ND_A_08.c3d	127_M_P_sh_L_ND_A_08.c3d	127_M_P_sh_L_ND_A_08.c3d	127_M_P_sh_L_ND_A_08.c3d	127_M_P_sh_L_ND_A_09.c3d	127_M_P_sh_L_ND_A_09.c3d	127_M_P_sh_L_ND_A_09.c3d	127_M_P_sh_L_ND_A_09.c3d	127_M_P_sh_L_ND_A_09.c3d	127_M_P_sh_L_ND_A_09.c3d	127_M_P_sh_L_ND_A_09.c3d	127_M_P_sh_L_ND_A_09.c3d	127_M_P_sh_L_ND_A_10.c3d	127_M_P_sh_L_ND_A_10.c3d	127_M_P_sh_L_ND_A_10.c3d	127_M_P_sh_L_ND_A_10.c3d	127_M_P_sh_L_ND_A_10.c3d	127_M_P_sh_L_ND_A_10.c3d	127_M_P_sh_L_ND_A_10.c3d	127_M_P_sh_L_ND_A_10.c3d
	Biceps femoris_lat	Semitendinosus_lat	Vastus lateralis_lat	Vastus medialis_lat	Biceps femoris_med	Semitendinosus_med	Vastus lateralis_med	Vastus medialis_med	Biceps femoris_lat	Semitendinosus_lat	Vastus lateralis_lat	Vastus medialis_lat	Biceps femoris_med	Semitendinosus_med	Vastus lateralis_med	Vastus medialis_med	Biceps femoris_lat	Semitendinosus_lat	Vastus lateralis_lat	Vastus medialis_lat	Biceps femoris_med	Semitendinosus_med	Vastus lateralis_med	Vastus medialis_med	Biceps femoris_lat	Semitendinosus_lat	Vastus lateralis_lat	Vastus medialis_lat	Biceps femoris_med	Semitendinosus_med	Vastus lateralis_med	Vastus medialis_med	Biceps femoris_lat	Semitendinosus_lat	Vastus lateralis_lat	Vastus medialis_lat	Biceps femoris_med	Semitendinosus_med	Vastus lateralis_med	Vastus medialis_med	Biceps femoris_lat	Semitendinosus_lat	Vastus lateralis_lat	Vastus medialis_lat	Biceps femoris_med	Semitendinosus_med	Vastus lateralis_med	Vastus medialis_med
	P2D	P2D	P2D	P2D	P2D	P2D	P2D	P2D	P2D	P2D	P2D	P2D	P2D	P2D	P2D	P2D	P2D	P2D	P2D	P2D	P2D	P2D	P2D	P2D	P2D	P2D	P2D	P2D	P2D	P2D	P2D	P2D	P2D	P2D	P2D	P2D	P2D	P2D	P2D	P2D	P2D	P2D	P2D	P2D	P2D	P2D	P2D	P2D
	EMG_lat	EMG_lat	EMG_lat	EMG_lat	EMG_med	EMG_med	EMG_med	EMG_med	EMG_lat	EMG_lat	EMG_lat	EMG_lat	EMG_med	EMG_med	EMG_med	EMG_med	EMG_lat	EMG_lat	EMG_lat	EMG_lat	EMG_med	EMG_med	EMG_med	EMG_med	EMG_lat	EMG_lat	EMG_lat	EMG_lat	EMG_med	EMG_med	EMG_med	EMG_med	EMG_lat	EMG_lat	EMG_lat	EMG_lat	EMG_med	EMG_med	EMG_med	EMG_med	EMG_lat	EMG_lat	EMG_lat	EMG_lat	EMG_med	EMG_med	EMG_med	EMG_med
ITEM	Y	Y	Y	Y	Y	Y	Y	Y	Y	Y	Y	Y	Y	Y	Y	Y	Y	Y	Y	Y	Y	Y	Y	Y	Y	Y	Y	Y	Y	Y	Y	Y	Y	Y	Y	Y	Y	Y	Y	Y	Y	Y	Y	Y	Y	Y	Y	Y
1	0.285787	0.383054	0.194918	0.171259	0.537807	0.591754	0.069718	0.145144	0.262212	0.381825	0.153046	0.138118	0.165870	0.304511	0.086009	0.076746	0.223213	0.219564	0.245388	0.150798	0.535226	0.160944	0.144312	0.077284	0.119537	0.078248	0.145534	0.120212	0.450739	0.237299	0.198641	0.119197	0.213025	0.313926	0.138888	0.078341	0.270373	0.152431	0.162715	0.065309	0.154792	0.247452	0.091307	0.120234	0.596037	0.460467	0.182004	0.093245
2	0.295503	0.394686	0.193145	0.172880	0.420409	0.597235	0.074134	0.146315	0.279226	0.409645	0.149810	0.123241	0.158771	0.169450	0.101999	0.081381	0.221415	0.218266	0.245262	0.147131	0.494028	0.172871	0.150390	0.073811	0.122908	0.071659	0.138801	0.122844	0.449107	0.235453	0.180745	0.109161	0.208767	0.306131	0.135314	0.075296	0.287732	0.162626	0.158065	0.066434	0.188964	0.280877	0.094418	0.114861	0.559864	0.419137	0.188929	0.089426
3	0.297533	0.395781	0.201318	0.172198	0.413933	0.546896	0.122780	0.147468	0.313170	0.431804	0.142402	0.117296	0.157115	0.096301	0.105988	0.082353	0.217022	0.218040	0.246642	0.140598	0.319477	0.201764	0.166690	0.070132	0.123112	0.068533	0.142069	0.123367	0.433818	0.222965	0.172370	0.091853	0.218527	0.301022	0.114702	0.076145	0.313941	0.175341	0.158266	0.067115	0.222369	0.310766	0.107005	0.106110	0.520680	0.380730	0.194581	0.081457
4	0.282007	0.396096	0.214404	0.171946	0.413920	0.526629	0.176807	0.154484	0.331085	0.436927	0.136660	0.130748	0.136608	0.157439	0.118078	0.083760	0.214135	0.239407	0.242987	0.132232	0.274644	0.203502	0.180276	0.070304	0.120552	0.067979	0.155186	0.121058	0.423142	0.140506	0.169381	0.075632	0.228952	0.310831	0.091588	0.077455	0.315181	0.177732	0.162222	0.065645	0.253026	0.318223	0.118108	0.106439	0.507561	0.381992	0.197669	0.087933
5	0.271565	0.396518	0.228562	0.171642	0.414863	0.513667	0.181329	0.144392	0.331366	0.436954	0.136221	0.160622	0.127063	0.244000	0.124213	0.089132	0.214687	0.313833	0.242396	0.123275	0.280111	0.217027	0.183550	0.070808	0.114075	0.065991	0.174026	0.124131	0.421720	0.128800	0.169021	0.071197	0.239879	0.314170	0.098668	0.090346	0.379660	0.173526	0.162613	0.062098	0.270762	0.320832	0.131090	0.107010	0.431071	0.315342	0.178411	0.093940
6	0.235847	0.389985	0.233248	0.164932	0.419411	0.494521	0.199400	0.119892	0.338710	0.432188	0.134289	0.176019	0.126309	0.243331	0.126244	0.096180	0.199495	0.377570	0.235670	0.121959	0.307721	0.256332	0.190428	0.073633	0.103393	0.054933	0.199697	0.128356	0.427270	0.128115	0.153116	0.071364	0.248107	0.370233	0.106044	0.108327	0.523079	0.174096	0.170412	0.059985	0.271832	0.297160	0.133565	0.108377	0.445367	0.280844	0.141833	0.104438
7	0.194127	0.364308	0.230562	0.142193	0.442920	0.477496	0.212002	0.108466	0.342431	0.319015	0.137276	0.176501	0.149179	0.279325	0.126357	0.109080	0.197974	0.386774	0.213254	0.121917	0.316586	0.287627	0.193190	0.070825	0.094293	0.047246	0.207436	0.140840	0.418461	0.124860	0.127799	0.065251	0.254057	0.378506	0.108404	0.122966	0.572869	0.176925	0.180932	0.059999	0.264051	0.296439	0.133041	0.108695	0.461033	0.283405	0.132133	0.112294
8	0.190736	0.310246	0.230808	0.125451	0.448531	0.491225	0.226173	0.107926	0.336731	0.322579	0.123824	0.175033	0.235710	0.293667	0.125801	0.117953	0.191800	0.390627	0.182598	0.125058	0.326147	0.350353	0.192523	0.070475	0.098289	0.056441	0.211167	0.160880	0.426584	0.136572	0.104584	0.065624	0.258874	0.379732	0.111526	0.140494	0.573940	0.178209	0.185456	0.059324	0.260202	0.308571	0.130756	0.109428	0.460180	0.295583	0.132949	0.111904
9	0.157664	0.269226	0.233958	0.112362	0.481220	0.511239	0.236551	0.108051	0.335340	0.336379	0.137947	0.182487	0.246643	0.297394	0.128302	0.120264	0.186595	0.391081	0.175105	0.129426	0.344582	0.386543	0.199949	0.071295	0.138678	0.083216	0.208484	0.173927	0.467840	0.178748	0.089773	0.083488	0.264279	0.380523	0.139153	0.145352	0.569771	0.184395	0.185850	0.054861	0.263280	0.337342	0.122115	0.109407	0.468403	0.308363	0.153886	0.115129
10	0.145690	0.262437	0.229221	0.110817	0.501188	0.513783	0.237817	0.107607	0.319775	0.354211	0.145651	0.185787	0.245631	0.297370	0.151259	0.120073	0.184791	0.385097	0.173737	0.133394	0.482712	0.391745	0.225755	0.067899	0.187997	0.146388	0.234158	0.182923	0.531908	0.175965	0.070989	0.096931	0.268608	0.373082	0.169538	0.147127	0.570718	0.188697	0.183589	0.050602	0.274438	0.347198	0.112673	0.110314	0.492098	0.437146	0.169544	0.117211
11	0.142816	0.233459	0.207711	0.107354	0.551029	0.540057	0.241952	0.096775	0.295835	0.358528	0.145427	0.181266	0.242778	0.297385	0.162463	0.120154	0.184603	0.382450	0.173556	0.130114	0.512571	0.398908	0.256274	0.067317	0.214238	0.177865	0.298151	0.183068	0.541766	0.175146	0.077300	0.097799	0.267273	0.361970	0.224874	0.147417	0.575355	0.193289	0.182817	0.053144	0.296878	0.392133	0.119442	0.104516	0.453147	0.499156	0.169967	0.115460
12	0.132859	0.188200	0.181510	0.092563	0.540872	0.524529	0.249556	0.088341	0.286452	0.359866	0.174432	0.173679	0.236877	0.299227	0.163096	0.118096	0.163636	0.377751	0.163716	0.130977	0.513394	0.421395	0.286747	0.070904	0.223924	0.257904	0.353177	0.178432	0.543489	0.278075	0.121021	0.098857	0.257758	0.342864	0.287341	0.169605	0.598345	0.186012	0.184427	0.056230	0.324226	0.412639	0.140130	0.087270	0.405619	0.513769	0.169398	0.112377
13	0.108240	0.116330	0.182444	0.084809	0.551698	0.499036	0.257795	0.082744	0.291703	0.340909	0.215430	0.175652	0.234503	0.300950	0.166753	0.113600	0.139767	0.368913	0.146740	0.130607	0.513459	0.430908	0.294838	0.073986	0.225218	0.295442	0.402803	0.198206	0.530006	0.327353	0.140426	0.101972	0.223807	0.287178	0.324516	0.234354	0.620133	0.177802	0.192745	0.057456	0.343568	0.488413	0.191690	0.077802	0.337382	0.521598	0.168901	0.112686
14	0.089336	0.152001	0.185750	0.093430	0.513202	0.473142	0.272150	0.085886	0.278066	0.303814	0.235931	0.178878	0.231363	0.332123	0.171066	0.104384	0.143533	0.368044	0.125718	0.133283	0.497463	0.426110	0.303799	0.077122	0.234143	0.303441	0.419314	0.230900	0.523431	0.356889	0.153163	0.110427	0.204778	0.259034	0.340190	0.287463	0.623394	0.167219	0.202012	0.057174	0.357091	0.522417	0.241819	0.103574	0.323122	0.523882	0.168861	0.114021
15	0.147087	0.286193	0.171752	0.124943	0.514737	0.434337	0.279339	0.088939	0.238072	0.315267	0.238268	0.178039	0.229310	0.343770	0.162967	0.099783	0.145635	0.377813	0.099913	0.131203	0.485277	0.415486	0.311954	0.081063	0.250374	0.335155	0.424253	0.268190	0.529497	0.378409	0.154096	0.125197	0.226120	0.251760	0.341686	0.311467	0.621862	0.162827	0.211868	0.053952	0.357888	0.531121	0.286626	0.143339	0.310630	0.522216	0.167537	0.117714
16	0.191690	0.415386	0.153946	0.175023	0.505238	0.518639	0.271954	0.095814	0.211768	0.406281	0.238772	0.168583	0.228631	0.358597	0.155120	0.100504	0.146992	0.392063	0.072329	0.123496	0.485560	0.412529	0.323849	0.085359	0.278030	0.375045	0.425392	0.284889	0.554483	0.384967	0.155869	0.136912	0.277553	0.256246	0.353872	0.320190	0.626137	0.162913	0.215625	0.047152	0.350332	0.532568	0.335148	0.175908	0.310551	0.513022	0.154071	0.115782
17	0.205891	0.467350	0.128682	0.197413	0.514641	0.543451	0.239982	0.091442	0.200629	0.412627	0.234199	0.141001	0.229076	0.373029	0.150089	0.102706	0.146532	0.392299	0.064616	0.124237	0.478961	0.407303	0.326671	0.090187	0.311227	0.404639	0.437794	0.290772	0.560183	0.393635	0.168865	0.141511	0.326255	0.258072	0.393645	0.321582	0.629363	0.173533	0.228267	0.046091	0.329738	0.524839	0.364327	0.200780	0.308321	0.497508	0.148751	0.109013
18	0.207066	0.481888	0.139605	0.199447	0.514864	0.552678	0.226200	0.086629	0.191502	0.458750	0.236952	0.120914	0.227093	0.360755	0.142316	0.106571	0.164256	0.429702	0.065773	0.134254	0.474309	0.392948	0.319453	0.090927	0.330414	0.419574	0.449985	0.291414	0.557608	0.397396	0.197311	0.141989	0.342009	0.245355	0.487379	0.325665	0.630821	0.181192	0.233989	0.045584	0.311121	0.517721	0.362789	0.212885	0.297922	0.480200	0.152399	0.103961
19	0.214933	0.532621	0.145861	0.198721	0.469395	0.552762	0.227428	0.086547	0.188558	0.472631	0.235060	0.119161	0.228881	0.378097	0.145864	0.108138	0.202189	0.494895	0.061856	0.154194	0.498419	0.389867	0.313263	0.092638	0.334764	0.421367	0.463098	0.285908	0.555124	0.410691	0.210227	0.141834	0.340937	0.252174	0.574519	0.337944	0.633085	0.174013	0.231708	0.045940	0.308794	0.516480	0.362314	0.214614	0.283773	0.460437	0.159565	0.094248
20	0.220291	0.578243	0.146880	0.197171	0.454598	0.581700	0.210586	0.086137	0.193666	0.516770	0.226021	0.113206	0.230431	0.369295	0.146299	0.097738	0.241418	0.603757	0.067787	0.171155	0.507552	0.386120	0.328524	0.097224	0.335064	0.421509	0.481355	0.279112	0.552414	0.421481	0.209267	0.140702	0.337206	0.177316	0.609029	0.350072	0.659571	0.168837	0.227589	0.046821	0.320899	0.525223	0.381268	0.217039	0.245727	0.450733	0.167945	0.079421
21	0.229192	0.612123	0.136678	0.194431	0.447340	0.624780	0.199012	0.087792	0.210365	0.525691	0.221183	0.095145	0.206999	0.346015	0.149855	0.084644	0.273068	0.665636	0.068284	0.185389	0.504163	0.363395	0.345683	0.101695	0.333603	0.420750	0.501360	0.270885	0.540172	0.413406	0.210637	0.136855	0.357039	0.185722	0.612876	0.353872	0.637936	0.168492	0.226949	0.046575	0.327453	0.547160	0.404944	0.221965	0.231831	0.442095	0.175864	0.075666
22	0.232345	0.628592	0.130006	0.193869	0.463977	0.613110	0.183495	0.086971	0.232108	0.539156	0.231368	0.084375	0.145643	0.352964	0.155219	0.079206	0.305814	0.654368	0.082759	0.188139	0.490398	0.346657	0.353310	0.102316	0.321164	0.418013	0.511767	0.274067	0.476169	0.438936	0.211089	0.124318	0.403664	0.184084	0.612334	0.352997	0.532640	0.166169	0.223967	0.046594	0.340064	0.577832	0.453953	0.232254	0.224094	0.438393	0.167119	0.075978
23	0.232951	0.641569	0.133102	0.194730	0.448551	0.610968	0.188175	0.082591	0.244515	0.547518	0.240938	0.081152	0.159327	0.353056	0.152190	0.077670	0.343890	0.642984	0.135507	0.190322	0.486821	0.287452	0.358082	0.097216	0.298937	0.402407	0.518122	0.288221	0.410930	0.443694	0.209202	0.116269	0.436948	0.185697	0.607452	0.356265	0.445220	0.173624	0.216819	0.048002	0.363785	0.600178	0.485980	0.237487	0.198969	0.406448	0.135192	0.073062
24	0.234693	0.642968	0.136850	0.197224	0.398004	0.596673	0.188972	0.078696	0.242940	0.555442	0.229346	0.081689	0.163989	0.377742	0.127570	0.078310	0.388144	0.638229	0.198006	0.198666	0.472784	0.230469	0.355734	0.093757	0.284078	0.388057	0.497810	0.326733	0.385824	0.441595	0.198152	0.115389	0.455703	0.187449	0.610680	0.358615	0.446147	0.186265	0.215040	0.053797	0.369925	0.583253	0.491940	0.237914	0.145276	0.206230	0.124854	0.075991
25	0.243558	0.641844	0.128486	0.201376	0.389302	0.575798	0.179861	0.082049	0.233324	0.557790	0.204082	0.079097	0.172744	0.413901	0.114667	0.080365	0.430251	0.638983	0.244852	0.201700	0.362819	0.232575	0.343189	0.093383	0.278471	0.346999	0.464100	0.357129	0.319054	0.374849	0.175379	0.114725	0.461216	0.194279	0.611195	0.360044	0.446195	0.192806	0.216335	0.057537	0.359073	0.574384	0.492303	0.237417	0.150701	0.142496	0.128755	0.080960
26	0.260180	0.618708	0.121788	0.201699	0.372611	0.557775	0.171784	0.082358	0.232711	0.558228	0.186597	0.078388	0.181419	0.423599	0.108989	0.086515	0.452093	0.638725	0.284186	0.198776	0.276497	0.217486	0.323706	0.093476	0.277378	0.324925	0.418301	0.358386	0.259701	0.351981	0.161937	0.111874	0.461193	0.209807	0.589167	0.345575	0.443297	0.195692	0.216892	0.059930	0.342791	0.545886	0.490048	0.239430	0.150142	0.107001	0.134477	0.079885
27	0.236771	0.557331	0.136979	0.183991	0.358926	0.550536	0.144957	0.078519	0.232547	0.533702	0.187320	0.078633	0.199197	0.414090	0.103418	0.087878	0.453890	0.636567	0.294759	0.197281	0.263605	0.187431	0.294760	0.092113	0.270018	0.333526	0.400142	0.339642	0.268899	0.316552	0.152912	0.101091	0.460392	0.218649	0.575769	0.299404	0.435622	0.188608	0.218022	0.059832	0.336379	0.539522	0.483060	0.244341	0.154263	0.100170	0.141425	0.077827
28	0.209291	0.479534	0.174219	0.144776	0.366558	0.549264	0.127124	0.070370	0.220542	0.465546	0.199730	0.085749	0.202215	0.403399	0.098933	0.088234	0.503306	0.648218	0.296790	0.199379	0.263768	0.131730	0.278213	0.089205	0.253862	0.306063	0.420656	0.310090	0.258077	0.313680	0.151856	0.083542	0.454741	0.219485	0.578825	0.253303	0.409077	0.182955	0.224836	0.057587	0.350883	0.497602	0.465943	0.259008	0.155596	0.300914	0.143244	0.074260
29	0.228578	0.448587	0.173199	0.125733	0.379430	0.477235	0.126830	0.063183	0.209364	0.457939	0.230151	0.108824	0.201621	0.394449	0.098226	0.084621	0.624397	0.669025	0.298767	0.206589	0.261242	0.124543	0.265139	0.087136	0.225780	0.257213	0.452958	0.294312	0.212968	0.323219	0.149815	0.071202	0.441280	0.219257	0.590121	0.234155	0.378067	0.181176	0.223174	0.056902	0.369338	0.495259	0.451361	0.268872	0.178679	0.345075	0.144882	0.070166
30	0.264354	0.420425	0.186911	0.124772	0.382402	0.433696	0.127102	0.059146	0.204329	0.414107	0.243464	0.134551	0.196965	0.371089	0.100401	0.083681	0.681071	0.699022	0.326530	0.212679	0.252574	0.122342	0.247483	0.082189	0.178342	0.208245	0.467852	0.300424	0.201473	0.331929	0.128925	0.068183	0.401644	0.209385	0.586564	0.241066	0.379205	0.182212	0.219701	0.057305	0.374345	0.494267	0.434862	0.270388	0.187114	0.413285	0.151676	0.068883
31	0.279896	0.348819	0.238063	0.123189	0.370981	0.404688	0.132997	0.063094	0.201568	0.394964	0.246720	0.149860	0.196632	0.337030	0.111115	0.085275	0.733128	0.730498	0.357386	0.215248	0.243247	0.123876	0.226955	0.078002	0.137531	0.178624	0.467340	0.312610	0.196118	0.367003	0.083640	0.067360	0.366323	0.209317	0.563986	0.253990	0.379872	0.183182	0.201448	0.057587	0.378084	0.487198	0.409419	0.265787	0.205515	0.450024	0.145814	0.070607
32	0.279048	0.271224	0.272063	0.120699	0.377404	0.393427	0.123266	0.066009	0.200280	0.324050	0.250098	0.161158	0.199676	0.301704	0.126704	0.088754	0.763256	0.733576	0.374469	0.215920	0.241455	0.125601	0.211173	0.070663	0.128798	0.174349	0.455199	0.324233	0.181013	0.353844	0.065382	0.071000	0.358587	0.206687	0.475265	0.250947	0.367205	0.184024	0.179771	0.056864	0.380827	0.475311	0.391724	0.262730	0.225174	0.460006	0.136474	0.072620
33	0.275686	0.229983	0.275176	0.123083	0.373229	0.383489	0.120800	0.066772	0.181115	0.238156	0.240570	0.166359	0.202019	0.319637	0.133119	0.096216	0.770844	0.731605	0.385872	0.217392	0.238127	0.126572	0.208653	0.069007	0.125425	0.174489	0.430713	0.336153	0.176099	0.344286	0.059346	0.075499	0.371809	0.177179	0.377532	0.234035	0.369740	0.179418	0.156114	0.054964	0.379959	0.465986	0.391481	0.261491	0.241562	0.469579	0.130606	0.072920
34	0.282590	0.195723	0.275595	0.132652	0.367113	0.216398	0.122845	0.066338	0.142923	0.188358	0.229020	0.165063	0.171950	0.322251	0.133725	0.104001	0.772260	0.728843	0.396921	0.215666	0.202183	0.126820	0.207183	0.068174	0.125760	0.177418	0.403722	0.342357	0.177630	0.342058	0.057168	0.073060	0.392735	0.166191	0.352666	0.214241	0.344349	0.175968	0.150147	0.055254	0.360480	0.464314	0.386111	0.262037	0.241755	0.483657	0.117434	0.072734
35	0.300010	0.165970	0.279864	0.144052	0.364554	0.165439	0.129949	0.064836	0.121789	0.212605	0.224925	0.168814	0.172732	0.309442	0.126915	0.109564	0.766273	0.700153	0.407953	0.207258	0.123232	0.126354	0.185771	0.063425	0.130519	0.175656	0.392306	0.337712	0.178975	0.289283	0.053845	0.071919	0.386288	0.159531	0.403111	0.203268	0.313431	0.200547	0.155568	0.056722	0.340576	0.451955	0.373802	0.260146	0.241179	0.489938	0.109406	0.071400
36	0.320156	0.162083	0.285677	0.155687	0.325155	0.171254	0.141437	0.066663	0.156921	0.265018	0.215338	0.173473	0.153656	0.308764	0.122772	0.109699	0.755931	0.639505	0.417223	0.191528	0.113202	0.125403	0.143239	0.060712	0.122395	0.175142	0.374031	0.322942	0.175921	0.304635	0.053615	0.069114	0.343825	0.162786	0.458528	0.194241	0.235651	0.229878	0.159570	0.056217	0.348143	0.445678	0.375315	0.271127	0.249857	0.517190	0.110600	0.070591
37	0.318606	0.163905	0.289142	0.157550	0.294280	0.178884	0.141507	0.069486	0.194081	0.267098	0.226585	0.189087	0.149831	0.282576	0.120086	0.108456	0.746341	0.523681	0.421509	0.175466	0.099714	0.120335	0.102892	0.052006	0.161210	0.237575	0.352548	0.283758	0.166297	0.306232	0.055641	0.068573	0.301268	0.164267	0.508316	0.187505	0.259493	0.335135	0.160611	0.056287	0.359604	0.447301	0.355768	0.297628	0.278226	0.523329	0.113963	0.068712
38	0.294176	0.162823	0.292972	0.146693	0.293239	0.236434	0.144288	0.070711	0.197224	0.268258	0.246610	0.206634	0.142370	0.245569	0.120532	0.108383	0.736694	0.480377	0.422550	0.158126	0.135691	0.113234	0.089845	0.053864	0.251940	0.386981	0.347728	0.245612	0.163802	0.328171	0.063366	0.068263	0.294695	0.172591	0.512572	0.186722	0.286964	0.346062	0.162186	0.056390	0.350122	0.427674	0.352440	0.330907	0.291747	0.550956	0.116030	0.061324
39	0.287508	0.153937	0.297090	0.144184	0.297473	0.271591	0.142280	0.071009	0.197433	0.267983	0.256712	0.214166	0.136836	0.232379	0.120987	0.104541	0.721681	0.427425	0.418191	0.150163	0.173623	0.112367	0.121939	0.053439	0.305051	0.528256	0.347738	0.227670	0.154444	0.338648	0.065050	0.069905	0.325854	0.200216	0.496951	0.190245	0.300543	0.345670	0.162745	0.060748	0.351453	0.433926	0.377175	0.365246	0.360579	0.560510	0.108508	0.059667
40	0.301421	0.194415	0.303865	0.193187	0.297941	0.300896	0.142885	0.073622	0.197901	0.293989	0.264625	0.211543	0.097903	0.295261	0.120765	0.100915	0.703806	0.426860	0.405691	0.137225	0.192108	0.058546	0.158126	0.051633	0.317743	0.602176	0.350315	0.231599	0.157168	0.336639	0.067457	0.069860	0.361784	0.208710	0.494843	0.190612	0.289796	0.342190	0.160141	0.062330	0.351639	0.433813	0.386081	0.383848	0.366093	0.561194	0.100456	0.059193
41	0.350900	0.278712	0.315448	0.279525	0.286679	0.314234	0.141231	0.079914	0.215128	0.337694	0.267011	0.220313	0.148936	0.294763	0.122793	0.100792	0.676919	0.424100	0.383390	0.127159	0.198316	0.048144	0.176334	0.051410	0.322221	0.622454	0.335110	0.239263	0.165970	0.318324	0.088275	0.065567	0.379504	0.209126	0.499605	0.198020	0.290152	0.338726	0.155377	0.065091	0.345780	0.430699	0.388544	0.387347	0.370201	0.528609	0.099010	0.058038
42	0.393122	0.306296	0.317723	0.350383	0.225177	0.302129	0.135245	0.085791	0.256207	0.342602	0.258939	0.211646	0.176392	0.306655	0.123026	0.105043	0.651759	0.423807	0.359685	0.126579	0.198024	0.045667	0.187113	0.051467	0.324348	0.654311	0.309805	0.236899	0.159533	0.303317	0.101578	0.061564	0.381272	0.217199	0.505607	0.210691	0.331193	0.343663	0.161740	0.065377	0.339536	0.420669	0.400089	0.383911	0.365324	0.484008	0.105023	0.056715
43	0.400214	0.319403	0.273748	0.395095	0.223614	0.302926	0.129552	0.085871	0.274620	0.351197	0.270067	0.200812	0.212223	0.367889	0.121112	0.114940	0.643098	0.427885	0.333992	0.127094	0.225486	0.045030	0.186566	0.052254	0.326176	0.705941	0.288791	0.233093	0.164507	0.268387	0.109632	0.058756	0.402685	0.343823	0.498800	0.212727	0.337477	0.350443	0.169786	0.064317	0.325412	0.424564	0.401133	0.373796	0.350059	0.466472	0.110389	0.057170
44	0.406772	0.349913	0.263862	0.401222	0.340017	0.304981	0.125461	0.080469	0.297399	0.390380	0.278993	0.192338	0.213683	0.374490	0.123697	0.119679	0.648667	0.440663	0.330396	0.125851	0.284759	0.046893	0.189261	0.057464	0.335843	0.707563	0.253925	0.215338	0.172561	0.230106	0.109722	0.058596	0.423894	0.510267	0.490582	0.204982	0.368639	0.354938	0.160346	0.063374	0.322744	0.471909	0.389605	0.360699	0.343953	0.403135	0.106024	0.053698
45	0.436626	0.442310	0.308561	0.410853	0.324544	0.312045	0.123282	0.076370	0.310158	0.410469	0.280154	0.193805	0.260983	0.385685	0.123383	0.114674	0.575122	0.455009	0.330052	0.115611	0.319277	0.048363	0.199111	0.061430	0.357223	0.721774	0.236809	0.198417	0.186298	0.231448	0.109667	0.052333	0.428770	0.648251	0.482953	0.194543	0.396004	0.439448	0.152257	0.063369	0.330751	0.489367	0.376092	0.347205	0.336010	0.391931	0.106884	0.046620
46	0.482329	0.507704	0.331917	0.438472	0.338132	0.313551	0.130649	0.075457	0.309321	0.407579	0.305826	0.198246	0.262211	0.374748	0.113463	0.106482	0.500174	0.472451	0.323790	0.098844	0.335191	0.051719	0.215440	0.064262	0.376130	0.739339	0.262772	0.179948	0.198345	0.234760	0.109496	0.047493	0.420715	0.659967	0.485558	0.185631	0.474771	0.481039	0.147117	0.068999	0.326900	0.487910	0.364264	0.336339	0.356106	0.406436	0.112830	0.045627
47	0.493613	0.520736	0.332477	0.468432	0.349319	0.312587	0.134685	0.076172	0.310403	0.376838	0.342439	0.197033	0.263059	0.370802	0.116879	0.097666	0.422549	0.452700	0.289752	0.089791	0.344136	0.049302	0.229599	0.069088	0.393550	0.741248	0.302031	0.167512	0.196341	0.235916	0.109801	0.056937	0.410177	0.664212	0.490360	0.176501	0.517157	0.495026	0.135343	0.071177	0.329948	0.514881	0.361871	0.328886	0.371392	0.418442	0.116086	0.045431
48	0.491640	0.522729	0.332989	0.490618	0.372718	0.439888	0.176734	0.093128	0.348608	0.330839	0.404022	0.194199	0.271513	0.372092	0.120722	0.090540	0.335590	0.415502	0.272680	0.093233	0.349142	0.051156	0.242953	0.070014	0.408034	0.741018	0.335786	0.161169	0.198777	0.226484	0.121136	0.063748	0.399776	0.685386	0.488335	0.176734	0.527460	0.496955	0.132923	0.071333	0.354462	0.622880	0.361980	0.327727	0.379506	0.411305	0.116853	0.045233
49	0.490307	0.524043	0.328649	0.503941	0.393079	0.573583	0.179740	0.106121	0.376185	0.339153	0.501789	0.174963	0.280759	0.373220	0.120209	0.085018	0.285104	0.404545	0.268952	0.109493	0.349085	0.053843	0.258276	0.069140	0.429296	0.750202	0.367685	0.160079	0.197817	0.270197	0.127795	0.065163	0.385055	0.697836	0.463713	0.200665	0.526700	0.496333	0.135478	0.070771	0.392728	0.730546	0.362781	0.330324	0.447058	0.396790	0.117019	0.041773
50	0.490491	0.524445	0.323122	0.509665	0.429449	0.598212	0.168345	0.108769	0.430416	0.365368	0.601739	0.151699	0.285618	0.373576	0.118424	0.087062	0.274531	0.445366	0.266025	0.126468	0.349478	0.055981	0.268182	0.068948	0.440480	0.743328	0.406581	0.162261	0.204760	0.320646	0.127992	0.065255	0.382783	0.707007	0.427580	0.241349	0.524685	0.492648	0.132925	0.068830	0.409338	0.730614	0.351063	0.330533	0.475990	0.444110	0.121648	0.042714
51	0.489975	0.524472	0.306425	0.506239	0.429277	0.638383	0.164854	0.107411	0.470475	0.448917	0.665751	0.155172	0.289086	0.378232	0.120004	0.091500	0.282671	0.450645	0.257001	0.132642	0.354306	0.057077	0.273022	0.066576	0.406226	0.692233	0.413189	0.155646	0.240443	0.296785	0.130032	0.063608	0.388544	0.711768	0.373546	0.276920	0.524579	0.480851	0.127254	0.067225	0.396645	0.717782	0.319349	0.314086	0.469152	0.457519	0.127960	0.049006
52	0.468604	0.501221	0.293650	0.488248	0.427198	0.629053	0.163512	0.105960	0.474143	0.459495	0.670206	0.167285	0.293395	0.374546	0.124279	0.093791	0.349607	0.474789	0.245191	0.137206	0.363909	0.056880	0.273443	0.063217	0.364284	0.583785	0.412491	0.146961	0.271965	0.295487	0.139707	0.059318	0.375414	0.712423	0.347021	0.313607	0.523048	0.469966	0.122163	0.067130	0.375726	0.708096	0.276684	0.283049	0.513538	0.430032	0.133202	0.056815
53	0.425029	0.524181	0.275190	0.459418	0.424615	0.636787	0.162894	0.105248	0.483404	0.455923	0.659894	0.160461	0.295847	0.375341	0.134856	0.094072	0.364459	0.502244	0.233580	0.138795	0.364178	0.056949	0.270651	0.060822	0.356107	0.496170	0.410561	0.134663	0.254447	0.295311	0.138309	0.056815	0.354072	0.701496	0.353709	0.341172	0.512868	0.405580	0.121013	0.069959	0.393039	0.768380	0.227838	0.252316	0.545716	0.426823	0.134047	0.060458
54	0.481024	0.662256	0.266030	0.428480	0.423164	0.627067	0.162524	0.102028	0.516224	0.459675	0.675206	0.158902	0.289279	0.356862	0.139949	0.093475	0.383053	0.504704	0.232828	0.138784	0.346253	0.067293	0.259680	0.058736	0.385004	0.460388	0.398209	0.119639	0.248145	0.297076	0.123891	0.055568	0.344936	0.697921	0.413070	0.344809	0.498135	0.385096	0.118365	0.071410	0.422860	0.789942	0.186303	0.233051	0.566356	0.421302	0.140704	0.061347
55	0.591534	0.737121	0.308019	0.405604	0.431184	0.623498	0.172309	0.096456	0.619516	0.481243	0.694886	0.168279	0.258032	0.381876	0.141048	0.091236	0.465101	0.503653	0.261052	0.139764	0.336310	0.083187	0.236743	0.058848	0.426483	0.418799	0.416262	0.118071	0.240983	0.308193	0.116671	0.052939	0.342180	0.699582	0.491159	0.339034	0.485696	0.383604	0.117307	0.069708	0.433341	0.791791	0.173529	0.226683	0.571934	0.423303	0.132573	0.064504
56	0.648690	0.765442	0.363822	0.405302	0.437918	0.629742	0.183398	0.093153	0.638984	0.472147	0.718499	0.170489	0.224390	0.314521	0.142509	0.079350	0.493428	0.502913	0.280226	0.140319	0.342135	0.099149	0.220642	0.058772	0.449502	0.321114	0.425191	0.109860	0.274467	0.316709	0.115891	0.053541	0.338687	0.696087	0.534578	0.338563	0.479671	0.377367	0.119030	0.063939	0.438506	0.799044	0.182531	0.231438	0.580288	0.440839	0.125388	0.064071
57	0.623890	0.729815	0.352240	0.396377	0.390065	0.633727	0.184796	0.093484	0.641281	0.462718	0.764803	0.163447	0.220540	0.301275	0.142242	0.071393	0.498669	0.503327	0.305649	0.141562	0.349168	0.106336	0.210481	0.058514	0.446966	0.315260	0.431799	0.102667	0.338163	0.348191	0.117654	0.054589	0.309805	0.626054	0.577746	0.350353	0.480692	0.374629	0.124571	0.057299	0.429786	0.803759	0.190171	0.232826	0.597046	0.418111	0.123378	0.063959
58	0.636390	0.739345	0.338006	0.368012	0.378166	0.632578	0.185938	0.094878	0.641944	0.469618	0.825660	0.166949	0.182312	0.302771	0.135886	0.057259	0.512253	0.503867	0.353952	0.154727	0.345189	0.109579	0.211301	0.056876	0.430140	0.295990	0.432394	0.100852	0.343503	0.367732	0.121702	0.056804	0.319574	0.492769	0.588561	0.373954	0.457083	0.367792	0.118551	0.052166	0.411154	0.809617	0.201619	0.228367	0.620031	0.522356	0.142166	0.072537
59	0.702537	0.848882	0.340693	0.337140	0.383671	0.630942	0.181708	0.096846	0.639117	0.481745	0.868030	0.175808	0.152685	0.314988	0.136023	0.055663	0.537682	0.503484	0.379789	0.170989	0.340169	0.110464	0.209967	0.053055	0.420667	0.247581	0.423084	0.099508	0.346719	0.369327	0.122513	0.054693	0.388313	0.365807	0.587616	0.384900	0.453185	0.362230	0.109163	0.051251	0.410933	0.777641	0.235099	0.233707	0.612613	0.538055	0.161569	0.087062
60	0.757632	0.914164	0.392797	0.305095	0.384689	0.630126	0.181847	0.097096	0.610943	0.484477	0.874661	0.212118	0.149321	0.319856	0.139191	0.055100	0.549328	0.495250	0.405469	0.198918	0.343149	0.109682	0.203961	0.047792	0.410045	0.244623	0.406178	0.093042	0.353214	0.369973	0.123040	0.042530	0.428347	0.386596	0.589730	0.389784	0.421424	0.357806	0.108274	0.050503	0.444104	0.769785	0.272213	0.240670	0.606636	0.510550	0.157537	0.088583
61	0.771658	0.945102	0.438727	0.283629	0.446805	0.614737	0.156337	0.088716	0.593412	0.479839	0.818493	0.257425	0.147481	0.321014	0.140571	0.056045	0.549598	0.504933	0.415358	0.223792	0.335830	0.107193	0.188725	0.045624	0.396432	0.245800	0.378540	0.089950	0.351152	0.368251	0.109307	0.036277	0.444777	0.382757	0.592012	0.395375	0.384769	0.272395	0.108427	0.048816	0.491582	0.781284	0.284867	0.248338	0.618395	0.506559	0.154767	0.088570
62	0.778967	0.955381	0.461107	0.278684	0.458533	0.453307	0.129824	0.066210	0.612627	0.463042	0.751190	0.280327	0.154217	0.339720	0.142859	0.066655	0.562414	0.469393	0.418303	0.244001	0.346428	0.107906	0.170944	0.039061	0.375977	0.222589	0.342757	0.087023	0.350719	0.313835	0.105730	0.033959	0.436941	0.339650	0.589965	0.399417	0.303865	0.162335	0.104830	0.041329	0.520257	0.759708	0.288137	0.255076	0.605430	0.521861	0.154863	0.088612
63	0.782821	0.962361	0.473013	0.274647	0.415086	0.389321	0.124896	0.052571	0.663293	0.393354	0.734170	0.272749	0.232677	0.342269	0.154252	0.086233	0.567531	0.429575	0.418234	0.253172	0.337185	0.107317	0.152929	0.037081	0.351544	0.207559	0.293457	0.085686	0.341150	0.264974	0.105769	0.033050	0.434300	0.318649	0.584532	0.390939	0.168305	0.096340	0.103581	0.035935	0.521875	0.669033	0.315619	0.260378	0.533868	0.497113	0.153555	0.087019
64	0.789498	0.963413	0.476924	0.256809	0.423884	0.288852	0.125961	0.048933	0.703668	0.390242	0.761059	0.272275	0.339974	0.363962	0.165684	0.092021	0.610682	0.410335	0.424564	0.252707	0.350009	0.106219	0.123686	0.036883	0.336560	0.192344	0.282864	0.091921	0.307699	0.250639	0.097120	0.032766	0.430014	0.298043	0.577651	0.368524	0.120244	0.082325	0.101489	0.035953	0.511770	0.613458	0.376027	0.261281	0.535908	0.440272	0.152096	0.082656
65	0.769559	0.909998	0.483020	0.215419	0.418369	0.239606	0.126933	0.048949	0.694807	0.393826	0.795223	0.295421	0.365673	0.374957	0.167145	0.090183	0.677367	0.420245	0.461156	0.247322	0.350003	0.104957	0.097505	0.036645	0.334068	0.193946	0.282482	0.093931	0.289805	0.248682	0.088587	0.032342	0.421809	0.279907	0.581285	0.341099	0.111058	0.078712	0.096586	0.035844	0.513816	0.619097	0.432067	0.264493	0.490482	0.438456	0.162790	0.078285
66	0.695454	0.811269	0.482015	0.194830	0.430192	0.195691	0.126823	0.048452	0.696703	0.400754	0.783730	0.305890	0.391053	0.370952	0.162572	0.089543	0.719885	0.413193	0.515973	0.238977	0.348003	0.105285	0.076757	0.030959	0.331318	0.197357	0.282582	0.102805	0.289968	0.245731	0.089730	0.041635	0.420941	0.272420	0.588423	0.312515	0.109696	0.083166	0.092062	0.036017	0.533670	0.616780	0.475108	0.265532	0.465106	0.436071	0.166837	0.075766
67	0.602869	0.754766	0.445919	0.204406	0.437433	0.172900	0.127014	0.048297	0.671778	0.442485	0.760332	0.314616	0.489500	0.328630	0.156585	0.089528	0.732773	0.491139	0.604687	0.240839	0.346082	0.112144	0.070794	0.027046	0.298693	0.209633	0.282229	0.108119	0.289382	0.239939	0.091877	0.050623	0.433232	0.280520	0.584019	0.316472	0.109736	0.088491	0.090600	0.036204	0.577076	0.588271	0.492466	0.267622	0.393413	0.435778	0.160621	0.077255
68	0.569273	0.690835	0.402043	0.209562	0.438607	0.206455	0.119359	0.048200	0.702143	0.476231	0.734839	0.320792	0.497383	0.320322	0.155698	0.090202	0.723135	0.549863	0.659069	0.244711	0.422150	0.144502	0.074913	0.026548	0.230920	0.207487	0.237352	0.109325	0.289994	0.225820	0.088271	0.059251	0.459931	0.277263	0.522991	0.336514	0.109020	0.089770	0.093395	0.035284	0.607694	0.497943	0.492618	0.261145	0.388766	0.430661	0.157422	0.075357
69	0.602882	0.689418	0.407817	0.200572	0.460907	0.191384	0.102214	0.044345	0.712506	0.478523	0.689184	0.324671	0.498468	0.324781	0.153491	0.090450	0.720172	0.685195	0.669261	0.245015	0.427615	0.176508	0.077025	0.027172	0.172850	0.208073	0.166167	0.099924	0.246024	0.205481	0.079814	0.062774	0.488798	0.303542	0.448714	0.351746	0.112446	0.090668	0.093302	0.029394	0.610592	0.480385	0.491232	0.245283	0.388229	0.417528	0.157271	0.074327
70	0.597142	0.631439	0.427012	0.181055	0.454378	0.183928	0.096121	0.042313	0.714072	0.468039	0.607998	0.320687	0.498648	0.340747	0.153295	0.088503	0.754696	0.683337	0.669006	0.247192	0.429852	0.189328	0.077251	0.028026	0.161478	0.201147	0.142484	0.099395	0.137889	0.135354	0.072761	0.062736	0.514955	0.376571	0.374577	0.346556	0.122879	0.100668	0.091872	0.025261	0.690796	0.509752	0.491124	0.242692	0.353468	0.397598	0.156271	0.074510
71	0.553055	0.531524	0.427315	0.160553	0.470898	0.185659	0.107820	0.039249	0.712921	0.455673	0.538704	0.318519	0.498379	0.349525	0.151804	0.087141	0.759380	0.679899	0.663513	0.256897	0.461861	0.226200	0.097145	0.034625	0.169578	0.183826	0.137050	0.113762	0.117343	0.089963	0.071810	0.060926	0.516698	0.399861	0.309337	0.322915	0.130321	0.113455	0.089056	0.020344	0.754743	0.499120	0.492161	0.234477	0.339514	0.346276	0.149721	0.072347
72	0.513289	0.529628	0.410431	0.158678	0.515823	0.191608	0.115693	0.034335	0.713441	0.451248	0.498365	0.320346	0.499821	0.332725	0.146533	0.088290	0.798857	0.771867	0.652986	0.271360	0.509345	0.228337	0.140320	0.044325	0.160263	0.193364	0.122426	0.126253	0.095687	0.073345	0.083761	0.063798	0.484991	0.396624	0.295699	0.293020	0.142265	0.118842	0.081672	0.019388	0.767049	0.476695	0.484046	0.232266	0.297895	0.203759	0.119345	0.057122
73	0.496311	0.522897	0.393505	0.159089	0.535859	0.244077	0.123514	0.029765	0.714732	0.445194	0.495547	0.337220	0.500355	0.311098	0.150624	0.148769	0.873424	0.854526	0.646897	0.288268	0.534750	0.227452	0.146896	0.047971	0.155776	0.192322	0.081033	0.131993	0.072430	0.055077	0.093061	0.067032	0.430482	0.377612	0.288976	0.282293	0.139221	0.119998	0.073390	0.018961	0.787241	0.466973	0.500920	0.231565	0.293666	0.200020	0.115534	0.047549
74	0.499998	0.515955	0.386487	0.164875	0.495058	0.243355	0.120652	0.029986	0.693996	0.454178	0.489348	0.370882	0.501448	0.311916	0.150435	0.281082	0.887632	0.866029	0.635841	0.293169	0.513980	0.227078	0.147398	0.048139	0.172495	0.189665	0.128549	0.137674	0.073893	0.050855	0.098294	0.071070	0.395193	0.354951	0.273857	0.277287	0.130698	0.121018	0.076234	0.021678	0.836772	0.563794	0.513132	0.219956	0.220187	0.198133	0.113251	0.048108
75	0.504499	0.522471	0.370775	0.189628	0.442867	0.242491	0.114910	0.029978	0.688478	0.510746	0.480580	0.382153	0.502605	0.291569	0.156850	0.310216	0.881967	0.865827	0.615871	0.286090	0.487699	0.229373	0.146195	0.047439	0.192746	0.192246	0.188317	0.162278	0.073351	0.053110	0.099558	0.072281	0.384548	0.354368	0.267996	0.270176	0.134856	0.152578	0.073874	0.022241	0.835877	0.583366	0.501457	0.211132	0.218448	0.155809	0.113621	0.047886
76	0.545814	0.624750	0.363005	0.228310	0.444929	0.244773	0.106081	0.026833	0.705969	0.507400	0.457217	0.378483	0.486749	0.282687	0.156392	0.306981	0.866720	0.877818	0.608254	0.273922	0.489867	0.231462	0.147392	0.046796	0.188508	0.192226	0.223933	0.183017	0.072315	0.058279	0.099784	0.072597	0.391190	0.362072	0.256667	0.262720	0.149586	0.161096	0.074955	0.023293	0.856069	0.568311	0.500147	0.200770	0.215984	0.125742	0.112289	0.048438
77	0.553121	0.702340	0.354117	0.253810	0.432248	0.247958	0.103755	0.026540	0.718905	0.505771	0.431323	0.354100	0.409546	0.269631	0.151728	0.314317	0.862885	0.916979	0.600039	0.252301	0.493442	0.231024	0.148973	0.046212	0.182860	0.178217	0.239519	0.193419	0.070762	0.065086	0.099318	0.072514	0.405292	0.419639	0.238381	0.254722	0.177714	0.159894	0.077083	0.026343	0.880274	0.567296	0.497249	0.185911	0.221753	0.142405	0.108310	0.046291
78	0.615811	0.706233	0.350712	0.248951	0.430804	0.247888	0.100991	0.022074	0.677148	0.500542	0.444460	0.355754	0.397794	0.236444	0.151981	0.326483	0.850473	0.935636	0.600109	0.232155	0.513835	0.242020	0.150674	0.045146	0.182783	0.164973	0.241177	0.195340	0.072244	0.067214	0.095823	0.072558	0.421329	0.434652	0.225208	0.251752	0.202116	0.171504	0.077723	0.026744	0.885533	0.566373	0.477438	0.172152	0.166927	0.157853	0.075541	0.046650
79	0.612173	0.706579	0.365744	0.237300	0.430994	0.247078	0.103276	0.022435	0.629128	0.440562	0.444323	0.356804	0.380826	0.226161	0.153652	0.333540	0.859878	0.930865	0.604352	0.218047	0.515681	0.244544	0.151039	0.045471	0.179878	0.169112	0.259624	0.205561	0.071900	0.064152	0.094421	0.066242	0.427353	0.437139	0.209462	0.251602	0.210516	0.171676	0.088715	0.026566	0.904603	0.532817	0.428278	0.168328	0.173539	0.167918	0.058628	0.044215
80	0.603460	0.709822	0.368712	0.231977	0.416298	0.244877	0.103492	0.021243	0.606825	0.399057	0.442455	0.369068	0.254403	0.225619	0.155169	0.337863	0.914769	0.930713	0.609105	0.213547	0.514103	0.263777	0.150214	0.045857	0.194696	0.266865	0.290351	0.231352	0.072872	0.060924	0.093489	0.059653	0.440918	0.439902	0.185057	0.236604	0.229326	0.183323	0.095842	0.025256	0.932910	0.550834	0.369754	0.171196	0.175710	0.171658	0.064526	0.040003
81	0.555678	0.704070	0.377633	0.237356	0.413056	0.228006	0.103665	0.026812	0.629465	0.398327	0.439644	0.385027	0.187548	0.216338	0.155455	0.339967	0.940529	0.927179	0.596745	0.213429	0.514548	0.290992	0.148734	0.045996	0.267647	0.424217	0.303394	0.273861	0.073740	0.057740	0.096465	0.052038	0.420782	0.452674	0.178131	0.194486	0.237664	0.194979	0.097338	0.024930	0.975733	0.638693	0.314477	0.171917	0.172256	0.170648	0.089547	0.038989
82	0.497782	0.685007	0.372039	0.249016	0.382736	0.205728	0.103481	0.028487	0.660943	0.435947	0.432805	0.399448	0.182833	0.193261	0.154959	0.340972	0.954430	0.922512	0.555000	0.213675	0.515149	0.303532	0.148966	0.045981	0.327496	0.524962	0.304785	0.328881	0.072985	0.057510	0.096483	0.049064	0.376124	0.477827	0.178004	0.155927	0.238454	0.200524	0.096855	0.026377	0.952852	0.679726	0.294486	0.167439	0.188747	0.169524	0.101638	0.039106
83	0.489702	0.636446	0.338481	0.250361	0.367449	0.198276	0.099279	0.031712	0.687681	0.491516	0.412718	0.406720	0.182503	0.156039	0.156959	0.342046	1.021233	0.917710	0.484402	0.211133	0.459935	0.295051	0.150930	0.046004	0.329863	0.574786	0.305161	0.361410	0.113949	0.059028	0.095529	0.048254	0.362229	0.444597	0.175641	0.123298	0.238995	0.201549	0.096522	0.025579	0.930174	0.693832	0.296523	0.158073	0.186984	0.173033	0.101807	0.039942
84	0.530320	0.707144	0.297909	0.251291	0.342695	0.190465	0.089337	0.033112	0.697335	0.496023	0.397675	0.393425	0.181285	0.133405	0.159060	0.342110	1.074522	0.846541	0.362294	0.195575	0.442342	0.277196	0.150537	0.046024	0.331484	0.581910	0.315241	0.359394	0.152514	0.062837	0.094956	0.048125	0.352701	0.422200	0.178994	0.117484	0.238723	0.202214	0.093997	0.026114	0.916852	0.678945	0.298219	0.135019	0.188145	0.175983	0.099617	0.038635
85	0.580787	0.837038	0.281647	0.252070	0.294121	0.181324	0.069500	0.032631	0.690050	0.496381	0.398882	0.351741	0.179544	0.113662	0.164200	0.342169	1.111562	0.775005	0.283257	0.190178	0.439005	0.265083	0.150143	0.046812	0.372084	0.637275	0.319954	0.361285	0.179451	0.065241	0.082619	0.042851	0.361986	0.462143	0.201492	0.119598	0.238324	0.203059	0.096644	0.025699	0.871110	0.658947	0.307391	0.117309	0.193179	0.175426	0.101663	0.031854
86	0.583434	0.894295	0.276195	0.248778	0.124673	0.099061	0.053717	0.033156	0.657610	0.483712	0.388340	0.298512	0.175484	0.111518	0.161208	0.340443	1.098499	0.689655	0.271502	0.188601	0.420692	0.222104	0.147164	0.043503	0.437972	0.706312	0.321422	0.375601	0.202586	0.065128	0.076293	0.036992	0.362391	0.515483	0.210413	0.117942	0.239381	0.200664	0.097685	0.026645	0.872084	0.659510	0.297159	0.118207	0.217761	0.175503	0.101249	0.029117
87	0.608503	0.958312	0.279969	0.235672	0.209349	0.078263	0.045898	0.033015	0.583535	0.429904	0.313959	0.285675	0.175129	0.109243	0.162672	0.254318	1.081140	0.686811	0.271570	0.183009	0.327128	0.214211	0.117725	0.035556	0.474167	0.735199	0.307283	0.415270	0.204005	0.063404	0.067005	0.033266	0.372948	0.578954	0.212424	0.115692	0.241670	0.197071	0.101660	0.027428	0.870277	0.671431	0.294990	0.117680	0.249479	0.178299	0.106821	0.026807
88	0.580226	0.905883	0.286438	0.201845	0.296644	0.082455	0.046508	0.034604	0.538549	0.468424	0.261412	0.285372	0.160257	0.103902	0.162651	0.176471	1.074066	0.691981	0.271962	0.165472	0.301587	0.211665	0.098970	0.025498	0.510769	0.755264	0.277229	0.451410	0.204064	0.059778	0.061012	0.032964	0.380876	0.609202	0.215837	0.112660	0.247798	0.194230	0.105189	0.028896	0.846837	0.830752	0.268065	0.128298	0.250576	0.179060	0.112017	0.028004
89	0.599779	0.894243	0.292572	0.172612	0.287646	0.086539	0.049415	0.035239	0.590506	0.512853	0.201652	0.290923	0.154099	0.098523	0.158006	0.167157	0.990061	0.564624	0.270503	0.136539	0.297685	0.211112	0.102399	0.025474	0.525623	0.760560	0.252024	0.463003	0.204043	0.053325	0.065470	0.033220	0.408092	0.608404	0.225114	0.106357	0.247410	0.193473	0.106535	0.030290	0.791169	0.804172	0.246464	0.146296	0.250296	0.176467	0.117903	0.029510
90	0.587607	0.904968	0.277446	0.171500	0.300539	0.076526	0.058232	0.037334	0.659297	0.521629	0.162093	0.298128	0.144968	0.095067	0.149585	0.154988	0.955246	0.490379	0.257230	0.099314	0.297771	0.209877	0.102836	0.025436	0.527796	0.759262	0.239377	0.462226	0.203856	0.044211	0.070833	0.033181	0.534876	0.604403	0.219678	0.100076	0.244853	0.194133	0.102423	0.029514	0.790247	0.795445	0.239454	0.155003	0.249341	0.161635	0.120389	0.032189
91	0.588570	0.911769	0.258452	0.177846	0.322561	0.080225	0.063831	0.037537	0.741890	0.524318	0.162673	0.294966	0.139797	0.094856	0.143314	0.123844	0.958782	0.489848	0.236162	0.081309	0.291016	0.206035	0.107990	0.025216	0.527806	0.758640	0.242851	0.462064	0.203330	0.037815	0.078119	0.032409	0.592863	0.607952	0.212611	0.099567	0.239915	0.173848	0.095444	0.028906	0.739309	0.801481	0.231930	0.159103	0.245318	0.140426	0.120388	0.034377
92	0.581740	0.958057	0.232812	0.173634	0.351581	0.082990	0.064265	0.038086	0.746512	0.523336	0.162551	0.274400	0.134264	0.087653	0.137843	0.105033	0.957495	0.515402	0.215309	0.076956	0.261086	0.204935	0.113763	0.023449	0.528244	0.757481	0.228303	0.457131	0.204139	0.036531	0.086177	0.032843	0.657377	0.696988	0.217939	0.099527	0.225354	0.159015	0.092516	0.027902	0.715657	0.798681	0.230506	0.161556	0.232658	0.122345	0.119465	0.035702
93	0.582239	0.989857	0.188799	0.157782	0.396756	0.100905	0.060358	0.040090	0.777079	0.564912	0.148848	0.252290	0.136446	0.080071	0.140212	0.113950	0.962129	0.515668	0.196796	0.078995	0.260177	0.198283	0.129355	0.021482	0.523913	0.730334	0.185167	0.444153	0.204742	0.036588	0.092293	0.032799	0.668607	0.705411	0.227217	0.097758	0.204378	0.157612	0.090980	0.025410	0.723665	0.797606	0.230635	0.162532	0.216009	0.114990	0.117800	0.038992
94	0.566616	1.038808	0.185977	0.144293	0.408267	0.302513	0.060387	0.039881	0.827727	0.546283	0.138968	0.236160	0.139620	0.082295	0.145049	0.120801	0.977178	0.403574	0.176018	0.078130	0.238389	0.185619	0.149498	0.020765	0.497552	0.659371	0.159516	0.422930	0.203784	0.036978	0.092138	0.032869	0.659779	0.718532	0.234962	0.082723	0.187417	0.142406	0.091336	0.026957	0.688025	0.798048	0.229739	0.156847	0.201181	0.116172	0.112564	0.042193
95	0.524462	1.026037	0.186369	0.141271	0.413271	0.422085	0.060797	0.036793	0.841884	0.499194	0.129372	0.223011	0.190603	0.084295	0.151029	0.118636	0.988032	0.401446	0.159911	0.071440	0.240800	0.163692	0.164724	0.020041	0.459056	0.606851	0.155310	0.389985	0.204473	0.035308	0.091662	0.031713	0.655353	0.712455	0.240013	0.072193	0.174079	0.138801	0.091264	0.028575	0.632530	0.800796	0.228583	0.147391	0.189822	0.120871	0.097814	0.043908
96	0.492687	0.887123	0.179757	0.143661	0.413075	0.486961	0.060618	0.034163	0.840452	0.495583	0.119750	0.208118	0.217911	0.099745	0.161050	0.115225	0.968284	0.462290	0.139090	0.056701	0.238104	0.132430	0.166728	0.019841	0.459421	0.667173	0.154812	0.368416	0.176319	0.031802	0.091006	0.031254	0.651449	0.715118	0.239509	0.069007	0.161126	0.131030	0.088972	0.028844	0.551374	0.762919	0.218546	0.143996	0.185361	0.119992	0.096122	0.043053
97	0.455076	0.819191	0.155779	0.139309	0.416333	0.556150	0.062905	0.034797	0.858388	0.498764	0.108549	0.202917	0.240297	0.110192	0.170891	0.115838	0.911755	0.479537	0.127272	0.048560	0.242358	0.051176	0.166717	0.021737	0.553817	0.718711	0.137240	0.378180	0.158921	0.033964	0.088475	0.031715	0.636016	0.714395	0.240985	0.067760	0.139364	0.126803	0.090014	0.029117	0.550752	0.722729	0.218748	0.138114	0.210063	0.112343	0.106613	0.043654
98	0.420187	0.703016	0.149131	0.126186	0.420270	0.581509	0.063700	0.035198	0.859254	0.497932	0.116086	0.202807	0.256720	0.125603	0.167750	0.118915	0.848032	0.479503	0.115259	0.049882	0.235813	0.024238	0.164962	0.021604	0.604708	0.680067	0.123702	0.385620	0.139941	0.042226	0.087471	0.031334	0.627475	0.686705	0.237915	0.061603	0.180054	0.137485	0.092233	0.027665	0.528086	0.731924	0.215502	0.140282	0.234205	0.112203	0.117314	0.044570
99	0.365044	0.635444	0.145646	0.109579	0.428177	0.582106	0.069220	0.034731	0.858984	0.486316	0.119040	0.203628	0.280603	0.135295	0.204292	0.120913	0.766416	0.512416	0.115596	0.054745	0.243904	0.023810	0.163380	0.020770	0.570770	0.656963	0.125042	0.378279	0.114742	0.050207	0.089145	0.028041	0.646392	0.660731	0.218566	0.058520	0.190606	0.158069	0.090517	0.028451	0.523402	0.738846	0.207553	0.147721	0.252001	0.142114	0.131387	0.048524
100	0.360084	0.598456	0.117932	0.107119	0.424716	0.582560	0.068761	0.034086	0.842579	0.444995	0.120182	0.201404	0.319378	0.145378	0.268885	0.121308	0.693195	0.518118	0.101569	0.055744	0.245696	0.023600	0.164669	0.019771	0.572616	0.757880	0.119579	0.342114	0.122283	0.061494	0.090216	0.026056	0.651205	0.705151	0.212556	0.083463	0.211563	0.162046	0.090222	0.027877	0.509156	0.750846	0.190956	0.155683	0.283166	0.212304	0.136048	0.051382
101	0.286219	0.574166	0.119872	0.105656	0.354118	0.582423	0.070243	0.033281	0.799290	0.388252	0.137888	0.186239	0.320004	0.157966	0.289209	0.123474	0.538797	0.532876	0.095236	0.057257	0.242588	0.021200	0.164119	0.018625	0.537298	0.838949	0.114421	0.279702	0.127098	0.066143	0.092593	0.024492	0.645491	0.768614	0.219706	0.126199	0.228557	0.162280	0.093443	0.030458	0.425089	0.752689	0.188484	0.169364	0.291089	0.257396	0.135551	0.056098
