	128_F_P_sh_L_ND_A_01.c3d	128_F_P_sh_L_ND_A_01.c3d	128_F_P_sh_L_ND_A_01.c3d	128_F_P_sh_L_ND_A_01.c3d	128_F_P_sh_L_ND_A_01.c3d	128_F_P_sh_L_ND_A_01.c3d	128_F_P_sh_L_ND_A_01.c3d	128_F_P_sh_L_ND_A_01.c3d	128_F_P_sh_L_ND_A_03.c3d	128_F_P_sh_L_ND_A_03.c3d	128_F_P_sh_L_ND_A_03.c3d	128_F_P_sh_L_ND_A_03.c3d	128_F_P_sh_L_ND_A_03.c3d	128_F_P_sh_L_ND_A_03.c3d	128_F_P_sh_L_ND_A_03.c3d	128_F_P_sh_L_ND_A_03.c3d	128_F_P_sh_L_ND_A_04.c3d	128_F_P_sh_L_ND_A_04.c3d	128_F_P_sh_L_ND_A_04.c3d	128_F_P_sh_L_ND_A_04.c3d	128_F_P_sh_L_ND_A_04.c3d	128_F_P_sh_L_ND_A_04.c3d	128_F_P_sh_L_ND_A_04.c3d	128_F_P_sh_L_ND_A_04.c3d	128_F_P_sh_L_ND_A_05.c3d	128_F_P_sh_L_ND_A_05.c3d	128_F_P_sh_L_ND_A_05.c3d	128_F_P_sh_L_ND_A_05.c3d	128_F_P_sh_L_ND_A_05.c3d	128_F_P_sh_L_ND_A_05.c3d	128_F_P_sh_L_ND_A_05.c3d	128_F_P_sh_L_ND_A_05.c3d	128_F_P_sh_L_ND_A_06.c3d	128_F_P_sh_L_ND_A_06.c3d	128_F_P_sh_L_ND_A_06.c3d	128_F_P_sh_L_ND_A_06.c3d	128_F_P_sh_L_ND_A_06.c3d	128_F_P_sh_L_ND_A_06.c3d	128_F_P_sh_L_ND_A_06.c3d	128_F_P_sh_L_ND_A_06.c3d	128_F_P_sh_L_ND_A_07.c3d	128_F_P_sh_L_ND_A_07.c3d	128_F_P_sh_L_ND_A_07.c3d	128_F_P_sh_L_ND_A_07.c3d	128_F_P_sh_L_ND_A_07.c3d	128_F_P_sh_L_ND_A_07.c3d	128_F_P_sh_L_ND_A_07.c3d	128_F_P_sh_L_ND_A_07.c3d	128_F_P_sh_L_ND_A_08.c3d	128_F_P_sh_L_ND_A_08.c3d	128_F_P_sh_L_ND_A_08.c3d	128_F_P_sh_L_ND_A_08.c3d	128_F_P_sh_L_ND_A_08.c3d	128_F_P_sh_L_ND_A_08.c3d	128_F_P_sh_L_ND_A_08.c3d	128_F_P_sh_L_ND_A_08.c3d	128_F_P_sh_L_ND_A_09.c3d	128_F_P_sh_L_ND_A_09.c3d	128_F_P_sh_L_ND_A_09.c3d	128_F_P_sh_L_ND_A_09.c3d	128_F_P_sh_L_ND_A_09.c3d	128_F_P_sh_L_ND_A_09.c3d	128_F_P_sh_L_ND_A_09.c3d	128_F_P_sh_L_ND_A_09.c3d	128_F_P_sh_L_ND_A_10.c3d	128_F_P_sh_L_ND_A_10.c3d	128_F_P_sh_L_ND_A_10.c3d	128_F_P_sh_L_ND_A_10.c3d	128_F_P_sh_L_ND_A_10.c3d	128_F_P_sh_L_ND_A_10.c3d	128_F_P_sh_L_ND_A_10.c3d	128_F_P_sh_L_ND_A_10.c3d
	Biceps femoris_lat	Semitendinosus_lat	Vastus lateralis_lat	Vastus medialis_lat	Biceps femoris_med	Semitendinosus_med	Vastus lateralis_med	Vastus medialis_med	Biceps femoris_lat	Semitendinosus_lat	Vastus lateralis_lat	Vastus medialis_lat	Biceps femoris_med	Semitendinosus_med	Vastus lateralis_med	Vastus medialis_med	Biceps femoris_lat	Semitendinosus_lat	Vastus lateralis_lat	Vastus medialis_lat	Biceps femoris_med	Semitendinosus_med	Vastus lateralis_med	Vastus medialis_med	Biceps femoris_lat	Semitendinosus_lat	Vastus lateralis_lat	Vastus medialis_lat	Biceps femoris_med	Semitendinosus_med	Vastus lateralis_med	Vastus medialis_med	Biceps femoris_lat	Semitendinosus_lat	Vastus lateralis_lat	Vastus medialis_lat	Biceps femoris_med	Semitendinosus_med	Vastus lateralis_med	Vastus medialis_med	Biceps femoris_lat	Semitendinosus_lat	Vastus lateralis_lat	Vastus medialis_lat	Biceps femoris_med	Semitendinosus_med	Vastus lateralis_med	Vastus medialis_med	Biceps femoris_lat	Semitendinosus_lat	Vastus lateralis_lat	Vastus medialis_lat	Biceps femoris_med	Semitendinosus_med	Vastus lateralis_med	Vastus medialis_med	Biceps femoris_lat	Semitendinosus_lat	Vastus lateralis_lat	Vastus medialis_lat	Biceps femoris_med	Semitendinosus_med	Vastus lateralis_med	Vastus medialis_med	Biceps femoris_lat	Semitendinosus_lat	Vastus lateralis_lat	Vastus medialis_lat	Biceps femoris_med	Semitendinosus_med	Vastus lateralis_med	Vastus medialis_med
	P2D	P2D	P2D	P2D	P2D	P2D	P2D	P2D	P2D	P2D	P2D	P2D	P2D	P2D	P2D	P2D	P2D	P2D	P2D	P2D	P2D	P2D	P2D	P2D	P2D	P2D	P2D	P2D	P2D	P2D	P2D	P2D	P2D	P2D	P2D	P2D	P2D	P2D	P2D	P2D	P2D	P2D	P2D	P2D	P2D	P2D	P2D	P2D	P2D	P2D	P2D	P2D	P2D	P2D	P2D	P2D	P2D	P2D	P2D	P2D	P2D	P2D	P2D	P2D	P2D	P2D	P2D	P2D	P2D	P2D	P2D	P2D
	EMG_lat	EMG_lat	EMG_lat	EMG_lat	EMG_med	EMG_med	EMG_med	EMG_med	EMG_lat	EMG_lat	EMG_lat	EMG_lat	EMG_med	EMG_med	EMG_med	EMG_med	EMG_lat	EMG_lat	EMG_lat	EMG_lat	EMG_med	EMG_med	EMG_med	EMG_med	EMG_lat	EMG_lat	EMG_lat	EMG_lat	EMG_med	EMG_med	EMG_med	EMG_med	EMG_lat	EMG_lat	EMG_lat	EMG_lat	EMG_med	EMG_med	EMG_med	EMG_med	EMG_lat	EMG_lat	EMG_lat	EMG_lat	EMG_med	EMG_med	EMG_med	EMG_med	EMG_lat	EMG_lat	EMG_lat	EMG_lat	EMG_med	EMG_med	EMG_med	EMG_med	EMG_lat	EMG_lat	EMG_lat	EMG_lat	EMG_med	EMG_med	EMG_med	EMG_med	EMG_lat	EMG_lat	EMG_lat	EMG_lat	EMG_med	EMG_med	EMG_med	EMG_med
ITEM	Y	Y	Y	Y	Y	Y	Y	Y	Y	Y	Y	Y	Y	Y	Y	Y	Y	Y	Y	Y	Y	Y	Y	Y	Y	Y	Y	Y	Y	Y	Y	Y	Y	Y	Y	Y	Y	Y	Y	Y	Y	Y	Y	Y	Y	Y	Y	Y	Y	Y	Y	Y	Y	Y	Y	Y	Y	Y	Y	Y	Y	Y	Y	Y	Y	Y	Y	Y	Y	Y	Y	Y
1	0.104667	0.127490	0.457065	0.674442	0.188818	0.249929	0.210008	0.181980	0.149744	0.096613	0.726797	0.498008	0.247691	0.185928	0.270366	0.322717	0.094072	0.105411	0.353584	0.480645	0.262974	0.237586	0.181531	0.090678	0.339003	0.292298	0.398488	0.277885	0.598388	0.516710	0.606899	0.741354	0.171956	0.158749	0.401261	0.356070	0.333230	0.380112	0.377200	0.231708	0.147552	0.178631	0.373123	0.332652	0.262204	0.239420	0.465579	0.448966	0.115018	0.079052	0.427532	0.603465	0.240358	0.203216	0.503796	0.399276	0.130308	0.103648	0.676229	0.549817	0.372581	0.126236	0.316591	0.258017	0.251693	0.142027	0.378961	0.382655	0.402917	0.484961	0.310625	0.332756
2	0.080601	0.119061	0.457815	0.644505	0.190339	0.239465	0.203495	0.176692	0.149181	0.108745	0.688402	0.494772	0.222609	0.180663	0.293476	0.302955	0.102564	0.111424	0.351280	0.486177	0.291096	0.245419	0.175662	0.088551	0.337698	0.284565	0.392083	0.276459	0.645438	0.572326	0.595368	0.703577	0.164272	0.147693	0.403857	0.313390	0.338595	0.392369	0.389564	0.240724	0.157075	0.180701	0.380579	0.333366	0.283212	0.250036	0.458409	0.445604	0.109118	0.084438	0.475085	0.591136	0.240688	0.202864	0.500009	0.361058	0.121562	0.102052	0.705779	0.551029	0.352310	0.131138	0.336609	0.258256	0.247899	0.141339	0.449548	0.430700	0.405163	0.478706	0.214146	0.306999
3	0.096797	0.111783	0.418485	0.612138	0.196912	0.234832	0.185081	0.176505	0.136415	0.151014	0.557783	0.506783	0.222402	0.168300	0.298485	0.298648	0.102714	0.129677	0.336835	0.475428	0.297339	0.248827	0.161805	0.088632	0.336399	0.281494	0.369959	0.278796	0.649994	0.589862	0.600801	0.678052	0.189630	0.145185	0.406541	0.289242	0.357169	0.397121	0.391617	0.250466	0.193821	0.170914	0.389843	0.371946	0.288098	0.256758	0.463244	0.451817	0.111384	0.088180	0.546952	0.647843	0.240250	0.202583	0.465956	0.339511	0.126826	0.092545	0.766972	0.581970	0.343060	0.146780	0.363921	0.283329	0.242304	0.133123	0.475165	0.497791	0.367326	0.471515	0.204324	0.268377
4	0.104017	0.116131	0.394536	0.616389	0.189574	0.217384	0.195710	0.178791	0.129372	0.182678	0.464543	0.456652	0.209039	0.158989	0.301019	0.299854	0.115998	0.130086	0.264600	0.461283	0.341468	0.261193	0.161894	0.080904	0.329645	0.267125	0.350295	0.275195	0.648776	0.589211	0.613468	0.670816	0.238622	0.123917	0.446443	0.309359	0.373405	0.441944	0.382797	0.255288	0.196257	0.191403	0.413618	0.378013	0.296010	0.264934	0.472541	0.446483	0.125601	0.083936	0.575371	0.715388	0.234773	0.204304	0.441720	0.327109	0.143799	0.082023	0.790947	0.617565	0.343808	0.138090	0.375238	0.323073	0.236970	0.132840	0.484245	0.490651	0.415382	0.455199	0.199380	0.188440
5	0.122973	0.143749	0.318907	0.526750	0.171442	0.234451	0.176012	0.208682	0.104782	0.179521	0.442631	0.458432	0.208950	0.134161	0.297911	0.299767	0.128922	0.166637	0.190552	0.332797	0.403767	0.255273	0.167288	0.082962	0.294973	0.253379	0.339714	0.274995	0.649012	0.578930	0.611637	0.675569	0.241513	0.129250	0.461281	0.391494	0.380212	0.454087	0.370647	0.261756	0.195478	0.197541	0.430772	0.410522	0.303889	0.282838	0.489137	0.425186	0.145307	0.084187	0.560732	0.737247	0.255857	0.204199	0.406506	0.328116	0.144652	0.063456	0.801096	0.630223	0.311230	0.138206	0.385477	0.372826	0.225670	0.133074	0.512897	0.461542	0.450673	0.465362	0.199787	0.153046
6	0.124041	0.161561	0.271257	0.382250	0.175921	0.241933	0.166395	0.212225	0.100836	0.182237	0.426774	0.460431	0.208097	0.108818	0.300790	0.297166	0.129119	0.189459	0.191810	0.233514	0.408860	0.323001	0.177652	0.095423	0.281858	0.199319	0.330608	0.275119	0.648482	0.579642	0.557960	0.653456	0.261131	0.125241	0.436920	0.406496	0.391137	0.456678	0.359239	0.263197	0.199156	0.200052	0.482659	0.422751	0.313800	0.297096	0.497785	0.405345	0.147211	0.060457	0.556262	0.683714	0.250071	0.204539	0.375035	0.328681	0.149378	0.065357	0.806489	0.619583	0.229251	0.130726	0.384685	0.390585	0.217524	0.116721	0.504204	0.481455	0.511736	0.476288	0.228266	0.148936
7	0.122693	0.181132	0.240809	0.277894	0.144324	0.215427	0.167378	0.215195	0.131621	0.181354	0.421986	0.466021	0.207811	0.098441	0.336796	0.297715	0.165983	0.191825	0.187648	0.220619	0.412385	0.338931	0.198299	0.106659	0.231016	0.159910	0.316216	0.305406	0.650005	0.589771	0.457524	0.553638	0.277555	0.199507	0.382859	0.405633	0.391245	0.454576	0.365297	0.262631	0.211967	0.199896	0.540240	0.477095	0.322923	0.294744	0.512216	0.399045	0.125942	0.092527	0.628187	0.745344	0.239580	0.204373	0.357818	0.335436	0.144344	0.065947	0.809126	0.613746	0.188269	0.151175	0.383768	0.399126	0.180900	0.094537	0.501215	0.537841	0.523330	0.300635	0.245908	0.116373
8	0.139165	0.183688	0.257364	0.246043	0.189869	0.435020	0.205799	0.255804	0.164909	0.179694	0.401459	0.473269	0.216656	0.101873	0.317689	0.314736	0.253274	0.248504	0.189529	0.227495	0.410275	0.346573	0.201652	0.115865	0.125170	0.158535	0.315912	0.306792	0.649523	0.593429	0.351406	0.365773	0.285844	0.276706	0.369113	0.406093	0.394429	0.446453	0.372540	0.271458	0.214357	0.199572	0.564937	0.568325	0.299815	0.303698	0.511786	0.397861	0.126359	0.115929	0.706347	0.819968	0.235117	0.190839	0.409352	0.381107	0.143301	0.067986	0.811417	0.608249	0.186171	0.157561	0.377532	0.401294	0.207312	0.086363	0.501466	0.551464	0.506830	0.256633	0.242627	0.121674
9	0.158524	0.210762	0.258665	0.244572	0.337619	0.429631	0.248216	0.273568	0.163178	0.181336	0.395511	0.502531	0.200198	0.145998	0.306782	0.320011	0.295536	0.331289	0.224820	0.226200	0.410855	0.348923	0.199515	0.116927	0.108832	0.156387	0.299942	0.346732	0.650475	0.592312	0.293142	0.217415	0.308158	0.290352	0.354565	0.394723	0.378688	0.438220	0.366843	0.271218	0.213952	0.196466	0.561888	0.581913	0.288544	0.347579	0.506438	0.373654	0.136167	0.118865	0.720432	0.838745	0.210132	0.180038	0.496423	0.475500	0.159951	0.089912	0.804120	0.610743	0.200571	0.157353	0.369969	0.402368	0.261968	0.153455	0.499435	0.549269	0.505694	0.258911	0.251930	0.143001
10	0.169478	0.213397	0.261622	0.265492	0.359053	0.453238	0.262482	0.279083	0.209940	0.200916	0.366985	0.479292	0.182901	0.194464	0.297850	0.296335	0.301726	0.403487	0.232741	0.208301	0.414039	0.350127	0.199137	0.122162	0.112040	0.152294	0.302661	0.376686	0.650818	0.593812	0.293684	0.186185	0.332031	0.293546	0.358423	0.352452	0.346495	0.432455	0.369258	0.270291	0.210168	0.194138	0.549281	0.557679	0.271491	0.365451	0.490479	0.333011	0.141839	0.121104	0.725672	0.839496	0.201667	0.179053	0.580439	0.628114	0.229422	0.092036	0.765163	0.616279	0.234644	0.157221	0.360515	0.399850	0.269863	0.155402	0.486705	0.547339	0.505684	0.257624	0.252728	0.169372
11	0.172739	0.265283	0.312410	0.297530	0.364820	0.484922	0.296172	0.286390	0.238432	0.202367	0.343469	0.367725	0.125338	0.271383	0.313707	0.191444	0.301425	0.437583	0.226627	0.167160	0.413766	0.349738	0.201384	0.130554	0.106225	0.113748	0.284857	0.487212	0.635322	0.586758	0.313392	0.192290	0.342482	0.324961	0.343144	0.330890	0.333420	0.438740	0.375673	0.271439	0.275815	0.303892	0.544436	0.549644	0.270843	0.365871	0.429269	0.285994	0.142233	0.121337	0.761726	0.842098	0.191880	0.176756	0.617248	0.789433	0.253881	0.092906	0.691037	0.609825	0.260700	0.175840	0.344429	0.386947	0.280045	0.239711	0.449970	0.546459	0.506066	0.283482	0.243322	0.167203
12	0.176238	0.331926	0.389492	0.351424	0.395808	0.518346	0.394385	0.328952	0.255908	0.172517	0.350147	0.326416	0.147917	0.347883	0.291368	0.192162	0.435893	0.456986	0.266728	0.172947	0.407751	0.334574	0.207750	0.130501	0.102112	0.133377	0.271807	0.494921	0.623433	0.573180	0.340967	0.209418	0.378641	0.324669	0.377448	0.325586	0.337657	0.437258	0.381348	0.272882	0.380949	0.414227	0.541234	0.580062	0.279019	0.361194	0.354584	0.230757	0.142018	0.119756	0.777893	0.838331	0.181822	0.157078	0.637185	0.903888	0.256844	0.091366	0.622844	0.588294	0.265298	0.185421	0.321189	0.354871	0.290585	0.275238	0.406588	0.530254	0.500738	0.282735	0.245533	0.169117
13	0.172509	0.370626	0.430287	0.348856	0.411510	0.521526	0.423277	0.349745	0.256223	0.169518	0.363116	0.262404	0.165435	0.439241	0.285124	0.216363	0.463798	0.481854	0.272678	0.202704	0.401727	0.326182	0.216910	0.130488	0.097781	0.156146	0.271557	0.495842	0.638614	0.591510	0.356252	0.219642	0.376710	0.332053	0.444398	0.338640	0.309192	0.388515	0.355729	0.264264	0.391949	1.010434	0.541374	0.618129	0.279243	0.356858	0.322050	0.191352	0.145519	0.120445	0.742173	0.791712	0.181446	0.100802	0.639561	0.966345	0.302702	0.097580	0.578296	0.555463	0.282930	0.195394	0.313859	0.326941	0.299736	0.303401	0.337501	0.473563	0.520432	0.290331	0.259757	0.170745
14	0.192379	0.488690	0.433182	0.340673	0.438994	0.520635	0.421696	0.340974	0.254061	0.228947	0.371881	0.261152	0.188083	0.458045	0.282650	0.229698	0.470806	0.485844	0.306893	0.194282	0.392568	0.330646	0.279671	0.142874	0.075620	0.158619	0.289383	0.493731	0.653489	0.609983	0.359375	0.224620	0.351253	0.365924	0.479768	0.350313	0.289566	0.331816	0.332342	0.244724	0.421325	1.121906	0.535266	0.605169	0.285005	0.354453	0.323935	0.188245	0.152019	0.120457	0.717442	0.719490	0.173356	0.083407	0.658792	0.968928	0.392284	0.107697	0.602468	0.517764	0.302040	0.198548	0.324386	0.322633	0.300479	0.329940	0.315432	0.385920	0.534513	0.297633	0.257701	0.175370
15	0.230158	0.519181	0.464394	0.338234	0.454161	0.512657	0.423188	0.320668	0.300208	0.266844	0.385550	0.260307	0.217805	0.476693	0.281016	0.228740	0.470068	0.495108	0.328724	0.199209	0.389713	0.331116	0.316247	0.165193	0.131569	0.162550	0.314601	0.491856	0.608658	0.631240	0.357420	0.232612	0.323883	0.442117	0.470717	0.350275	0.277701	0.334140	0.347491	0.233031	0.425912	1.124913	0.552286	0.681758	0.340590	0.352942	0.318714	0.188226	0.133587	0.123355	0.707629	0.676432	0.170764	0.077545	0.659113	0.978464	0.443552	0.191169	0.617729	0.478072	0.313221	0.217436	0.328495	0.321516	0.303283	0.336143	0.378032	0.465389	0.526992	0.306441	0.258780	0.176865
16	0.236360	0.559645	0.512731	0.367598	0.449661	0.509317	0.430269	0.329032	0.336516	0.382179	0.367298	0.295072	0.234155	0.519977	0.301268	0.233477	0.479993	0.499210	0.324004	0.199448	0.377476	0.322332	0.315126	0.170740	0.242548	0.168021	0.331973	0.493089	0.498561	0.597879	0.362995	0.225661	0.313424	0.494746	0.463151	0.330779	0.276956	0.323823	0.351943	0.229855	0.430311	1.122897	0.528924	0.690903	0.409912	0.353103	0.321891	0.210833	0.128051	0.134448	0.667367	0.655083	0.166164	0.085861	0.680422	1.003757	0.456232	0.213719	0.615474	0.444969	0.318064	0.231428	0.320363	0.320568	0.319854	0.386571	0.346783	0.516472	0.492885	0.275644	0.266991	0.192845
17	0.252353	0.552633	0.540020	0.418690	0.450086	0.503886	0.456957	0.348857	0.332265	0.410186	0.288689	0.278392	0.240940	0.546160	0.307178	0.232848	0.483081	0.507394	0.303128	0.192821	0.347149	0.329241	0.315275	0.178433	0.296168	0.172447	0.388746	0.497640	0.477818	0.593918	0.371649	0.223343	0.276126	0.532158	0.465743	0.373210	0.292252	0.311407	0.351815	0.232595	0.431489	1.122582	0.503023	0.675633	0.415620	0.364689	0.320574	0.244226	0.151660	0.132736	0.590776	0.523489	0.151726	0.078894	0.742722	1.023810	0.564606	0.281721	0.604371	0.441560	0.307747	0.230395	0.309430	0.320511	0.325519	0.404935	0.352752	0.487677	0.408399	0.239375	0.240441	0.199034
18	0.288104	0.566263	0.526704	0.424027	0.465972	0.377276	0.435783	0.314833	0.322743	0.425408	0.250263	0.258823	0.282371	0.551684	0.266591	0.215163	0.485497	0.511276	0.300509	0.194295	0.350712	0.333325	0.315026	0.204241	0.337460	0.260607	0.388154	0.488351	0.401966	0.585632	0.449466	0.266188	0.330402	0.536667	0.510701	0.374906	0.313381	0.413741	0.340516	0.232958	0.426753	1.122713	0.429494	0.654988	0.410039	0.363240	0.324487	0.266272	0.156000	0.111486	0.471721	0.335272	0.149248	0.078225	0.780391	1.034781	0.591513	0.288269	0.518839	0.424586	0.305829	0.228726	0.294115	0.321439	0.319824	0.422581	0.367888	0.426970	0.463917	0.220681	0.220397	0.221793
19	0.293038	0.555680	0.531287	0.432494	0.477954	0.420618	0.422984	0.304987	0.301889	0.489253	0.251824	0.276474	0.292708	0.568155	0.256898	0.184475	0.453141	0.517613	0.302185	0.199268	0.341788	0.329814	0.315428	0.213100	0.344034	0.320766	0.387784	0.439562	0.308795	0.539128	0.509059	0.308526	0.325321	0.497441	0.606828	0.396959	0.295189	0.614279	0.338657	0.238302	0.430762	1.125152	0.399607	0.577997	0.399163	0.365171	0.326190	0.274269	0.155219	0.113447	0.439617	0.339179	0.139945	0.077882	0.790467	1.039734	0.588116	0.289079	0.460820	0.378261	0.303914	0.225283	0.271594	0.329626	0.279760	0.433677	0.373161	0.417902	0.464618	0.203957	0.215539	0.216081
20	0.290813	0.556409	0.550350	0.419699	0.472025	0.555169	0.412654	0.303137	0.287175	0.514085	0.318472	0.331676	0.296119	0.559628	0.262035	0.173886	0.418562	0.463284	0.279008	0.198732	0.301082	0.328091	0.314899	0.216114	0.347151	0.327124	0.394675	0.400123	0.290241	0.527560	0.508982	0.311417	0.311046	0.508812	0.648285	0.402973	0.331069	0.658958	0.355004	0.235062	0.463462	1.125511	0.422647	0.533591	0.395057	0.400634	0.300363	0.263230	0.148980	0.113769	0.434614	0.385872	0.145636	0.081260	0.823564	1.077909	0.602684	0.300175	0.427836	0.335774	0.302122	0.217178	0.264576	0.321945	0.248965	0.469141	0.440150	0.462521	0.464765	0.200234	0.217973	0.211455
21	0.291277	0.546472	0.524730	0.406095	0.550111	0.579329	0.381266	0.304125	0.307404	0.547160	0.317671	0.325235	0.314860	0.546052	0.264178	0.170754	0.410558	0.428384	0.267810	0.199216	0.232501	0.341877	0.312010	0.213729	0.353956	0.326743	0.382068	0.388499	0.290468	0.553743	0.497581	0.308087	0.308403	0.513791	0.680439	0.422776	0.359127	0.681221	0.399020	0.236184	0.501435	1.131898	0.417165	0.533195	0.420750	0.397538	0.274454	0.254156	0.151102	0.116711	0.380257	0.392825	0.108515	0.090120	0.873277	1.182985	0.603869	0.325748	0.410345	0.308750	0.316575	0.219610	0.262337	0.306897	0.241814	0.487087	0.446671	0.477161	0.484170	0.209318	0.247522	0.210696
22	0.300411	0.538080	0.468784	0.337458	0.539767	0.588650	0.304444	0.276778	0.422542	0.554996	0.307032	0.341500	0.327312	0.513129	0.245496	0.172558	0.408143	0.390380	0.269229	0.209491	0.222811	0.279384	0.304881	0.209935	0.360120	0.334271	0.356871	0.228589	0.321973	0.572496	0.472459	0.297555	0.336939	0.500725	0.687513	0.437154	0.355149	0.730522	0.443994	0.276150	0.477271	1.111305	0.541658	0.546267	0.426168	0.386126	0.254772	0.272219	0.163699	0.120450	0.249348	0.387782	0.091689	0.093067	0.911695	1.258249	0.604526	0.377088	0.420752	0.300404	0.418914	0.248627	0.255608	0.273582	0.236705	0.453756	0.447239	0.456831	0.480724	0.188987	0.244716	0.208670
23	0.311986	0.503662	0.445221	0.300166	0.529203	0.595300	0.294989	0.256617	0.413320	0.532053	0.296215	0.365760	0.326678	0.489639	0.224137	0.170209	0.312899	0.373346	0.258585	0.228467	0.221420	0.277971	0.287030	0.210338	0.366489	0.327060	0.403247	0.210592	0.335214	0.571569	0.476064	0.291434	0.343888	0.505022	0.655505	0.440880	0.358391	0.733872	0.451573	0.302612	0.401706	1.093559	0.682252	0.565144	0.417662	0.372779	0.250454	0.297126	0.188527	0.116622	0.187178	0.372526	0.084681	0.092434	0.928913	1.286662	0.605985	0.380335	0.423895	0.293288	0.537005	0.273413	0.261092	0.253222	0.219107	0.436385	0.474452	0.457688	0.466469	0.211940	0.270706	0.211419
24	0.316859	0.419172	0.473428	0.301401	0.501238	0.593045	0.300531	0.239606	0.389156	0.567474	0.331472	0.356627	0.322541	0.414718	0.215762	0.140225	0.205910	0.342533	0.302585	0.363843	0.247099	0.311469	0.282517	0.215409	0.368468	0.323461	0.446626	0.239879	0.353063	0.559651	0.491594	0.291459	0.370865	0.531710	0.608453	0.434791	0.359638	0.734149	0.433017	0.286957	0.395250	0.602452	0.837033	0.669907	0.410536	0.372714	0.216510	0.305002	0.181908	0.116927	0.259383	0.422388	0.083312	0.098115	0.922107	1.297335	0.617318	0.384279	0.439577	0.283865	0.555728	0.326267	0.289980	0.245505	0.209888	0.423706	0.579148	0.483806	0.460850	0.205862	0.278245	0.215145
25	0.291973	0.368723	0.446260	0.302314	0.509111	0.624814	0.311246	0.243944	0.374176	0.626366	0.361717	0.398926	0.313080	0.403507	0.220766	0.121659	0.193957	0.348085	0.293101	0.390391	0.251244	0.316682	0.286905	0.217682	0.370965	0.355191	0.490450	0.290607	0.348378	0.547551	0.494925	0.291778	0.424607	0.532406	0.569768	0.423024	0.363173	0.743076	0.432232	0.280464	0.357331	0.304109	0.893340	0.809066	0.414326	0.364954	0.217114	0.305000	0.189907	0.113483	0.330663	0.485641	0.083126	0.100105	0.887092	1.269665	0.602815	0.406441	0.438530	0.275313	0.573960	0.374488	0.331550	0.245755	0.214677	0.407464	0.761789	0.680719	0.445597	0.195197	0.276857	0.212558
26	0.298665	0.305219	0.384645	0.272337	0.511768	0.624303	0.316340	0.240567	0.397731	0.679646	0.363503	0.429567	0.297369	0.411356	0.222740	0.122179	0.237687	0.349436	0.302633	0.431307	0.271408	0.321466	0.286888	0.215714	0.406365	0.356345	0.473811	0.296470	0.342367	0.549007	0.494281	0.292131	0.485345	0.526519	0.581042	0.382874	0.381223	0.770739	0.433898	0.280349	0.337084	0.200212	0.891188	0.795774	0.430382	0.338985	0.221335	0.305166	0.270526	0.105175	0.335733	0.506559	0.084625	0.099565	0.833952	1.206339	0.617320	0.416333	0.440714	0.269290	0.710332	0.460879	0.335516	0.244124	0.219684	0.403672	0.789671	0.961766	0.413066	0.183369	0.276593	0.211033
27	0.333627	0.328058	0.336828	0.173578	0.521043	0.634080	0.278063	0.220432	0.391647	0.660347	0.379940	0.432363	0.341200	0.361868	0.199601	0.115260	0.302286	0.359480	0.340473	0.444457	0.302577	0.320470	0.287113	0.227096	0.411843	0.395516	0.475495	0.324219	0.339839	0.548980	0.493751	0.291731	0.489455	0.490122	0.584101	0.350553	0.381065	0.771780	0.427891	0.279888	0.339072	0.191028	0.917234	0.756660	0.424679	0.335187	0.218261	0.305789	0.307375	0.087745	0.333292	0.515613	0.091695	0.099875	0.794329	1.109220	0.624016	0.486843	0.429224	0.281180	0.731142	0.536101	0.340355	0.262288	0.194710	0.357449	0.782963	1.151284	0.402882	0.195544	0.266215	0.197002
28	0.305571	0.327374	0.340191	0.155960	0.463144	0.644894	0.281285	0.235823	0.388740	0.622922	0.366329	0.392633	0.336382	0.323076	0.206381	0.127897	0.334865	0.324213	0.421665	0.461070	0.324542	0.314941	0.279327	0.233553	0.424951	0.448313	0.501391	0.380610	0.334617	0.553926	0.480383	0.284563	0.480586	0.460005	0.566188	0.337240	0.375424	0.770438	0.401232	0.273197	0.352939	0.220082	0.974283	0.754454	0.437367	0.338251	0.220504	0.309731	0.309196	0.079166	0.348259	0.516916	0.091979	0.101705	0.770503	1.009578	0.613919	0.532316	0.383517	0.292452	0.724834	0.548168	0.348211	0.292691	0.185482	0.339605	0.799420	1.170319	0.388191	0.205711	0.266502	0.184507
29	0.363397	0.358478	0.341924	0.161088	0.384698	0.588850	0.282980	0.240694	0.381959	0.603798	0.349925	0.373446	0.313282	0.322311	0.222619	0.153919	0.335304	0.317501	0.516909	0.496071	0.350139	0.312510	0.286727	0.237238	0.450853	0.419737	0.492745	0.366837	0.346196	0.551794	0.460153	0.269462	0.456568	0.443620	0.521104	0.338180	0.355979	0.771688	0.390628	0.272601	0.368535	0.258153	1.030964	0.764832	0.441181	0.336367	0.222066	0.314695	0.307997	0.117787	0.376042	0.495033	0.087493	0.107931	0.744382	0.926678	0.570756	0.545934	0.319610	0.280894	0.723154	0.560979	0.356878	0.303462	0.197884	0.318908	0.887683	1.267290	0.279012	0.206494	0.273393	0.151202
30	0.382314	0.388086	0.305208	0.183814	0.382472	0.462419	0.278088	0.226791	0.280500	0.573685	0.366560	0.370360	0.319850	0.295123	0.216605	0.158545	0.364354	0.289913	0.556117	0.513692	0.349793	0.310391	0.228452	0.227241	0.463005	0.366161	0.500758	0.366647	0.322292	0.529707	0.442116	0.254233	0.467193	0.441855	0.384145	0.305625	0.350697	0.772294	0.396480	0.277677	0.372001	0.280318	1.078457	0.841354	0.440840	0.338675	0.229139	0.315934	0.303288	0.154608	0.418512	0.444272	0.084812	0.110893	0.721699	0.907396	0.519920	0.535198	0.334791	0.255219	0.716732	0.558111	0.367740	0.307565	0.196385	0.322888	0.931685	1.335513	0.258232	0.208731	0.268946	0.154463
31	0.388516	0.384280	0.313221	0.183154	0.239376	0.412873	0.263848	0.209038	0.231880	0.563683	0.369688	0.351263	0.316832	0.288223	0.212848	0.161806	0.390400	0.299722	0.551807	0.515206	0.354577	0.310074	0.198977	0.220069	0.470178	0.356716	0.507278	0.367172	0.260663	0.507660	0.440826	0.250070	0.460445	0.427804	0.357161	0.308081	0.381003	0.771903	0.378932	0.273121	0.346691	0.281313	1.086049	0.885707	0.436986	0.337796	0.226370	0.316498	0.302651	0.157031	0.445895	0.450278	0.085267	0.107995	0.726950	0.904194	0.519457	0.521114	0.446215	0.244516	0.708057	0.558087	0.362594	0.307381	0.173634	0.268333	0.907985	1.324128	0.243242	0.209321	0.248122	0.139177
32	0.380135	0.351700	0.331877	0.183975	0.239087	0.384045	0.227518	0.173718	0.194315	0.496163	0.373319	0.349244	0.296737	0.330255	0.212576	0.163400	0.408976	0.322594	0.551626	0.515226	0.370515	0.299070	0.207649	0.237995	0.468057	0.374509	0.499413	0.366931	0.265268	0.472208	0.442618	0.238366	0.457269	0.428566	0.313894	0.337020	0.404967	0.770896	0.373965	0.269877	0.286584	0.251628	1.088810	0.930375	0.404728	0.340720	0.231066	0.318869	0.300337	0.163887	0.461062	0.465484	0.081295	0.098852	0.727755	0.882085	0.439257	0.489954	0.524516	0.251405	0.704534	0.550404	0.361116	0.308844	0.209182	0.236753	0.904388	1.324440	0.211459	0.209943	0.204243	0.106835
33	0.371914	0.348427	0.299941	0.205100	0.247785	0.394394	0.234773	0.177758	0.169602	0.415163	0.366496	0.376817	0.306073	0.343607	0.202210	0.163498	0.414677	0.308392	0.555352	0.509550	0.390219	0.283712	0.209826	0.236286	0.483459	0.385565	0.514380	0.375001	0.263155	0.442743	0.443895	0.233613	0.412808	0.463629	0.324701	0.379311	0.408806	0.775287	0.374334	0.267283	0.282737	0.250574	1.042468	0.927538	0.337968	0.372900	0.227145	0.314126	0.289041	0.181391	0.465283	0.469942	0.080128	0.097247	0.673902	0.862662	0.389006	0.484664	0.544518	0.253997	0.704536	0.547547	0.358275	0.308879	0.214290	0.261587	0.908315	1.330323	0.204113	0.198594	0.201508	0.108186
34	0.363306	0.335385	0.238658	0.234727	0.295819	0.394737	0.218861	0.177890	0.139234	0.267796	0.370865	0.447194	0.352731	0.408432	0.197199	0.165307	0.424581	0.317322	0.559753	0.508492	0.385377	0.281644	0.228524	0.217845	0.491869	0.381464	0.526081	0.385290	0.263377	0.428100	0.434497	0.233343	0.434780	0.462553	0.334006	0.397890	0.390214	0.731448	0.378516	0.262702	0.304838	0.293100	0.954513	0.904686	0.361169	0.495998	0.229152	0.303455	0.300960	0.281669	0.437855	0.413381	0.083267	0.096989	0.622490	0.846950	0.447344	0.497992	0.546974	0.251423	0.705500	0.552560	0.359992	0.309248	0.244792	0.270288	0.900529	1.339323	0.202043	0.174793	0.190903	0.118374
35	0.355007	0.339092	0.234393	0.247260	0.271341	0.345419	0.203348	0.156486	0.104574	0.321899	0.363547	0.496671	0.356169	0.458623	0.186162	0.159985	0.427392	0.311879	0.562269	0.427146	0.383247	0.271899	0.257570	0.214752	0.490565	0.377298	0.498982	0.406661	0.264106	0.376523	0.367229	0.198693	0.412524	0.416867	0.332680	0.403807	0.406439	0.586187	0.376418	0.258020	0.308819	0.313098	0.823223	0.824128	0.443519	0.562339	0.231007	0.296233	0.299608	0.317418	0.389843	0.330870	0.082394	0.097636	0.606858	0.840651	0.505263	0.538399	0.571616	0.253901	0.712766	0.552884	0.362986	0.304474	0.242689	0.269807	0.848383	1.346960	0.182645	0.212726	0.166741	0.122275
36	0.352435	0.323817	0.255631	0.250899	0.268321	0.373585	0.193892	0.166388	0.144371	0.376539	0.383728	0.522717	0.484325	0.452552	0.175454	0.162903	0.428411	0.297028	0.566503	0.368710	0.416707	0.252739	0.273779	0.222555	0.491389	0.362604	0.445445	0.393627	0.263517	0.341417	0.258032	0.104662	0.383396	0.408769	0.326573	0.404712	0.397320	0.470372	0.363129	0.264311	0.301587	0.306515	0.729586	0.668729	0.448966	0.560951	0.222955	0.288991	0.254646	0.318356	0.400834	0.298363	0.066705	0.093724	0.570275	0.804303	0.513021	0.534940	0.637049	0.258661	0.712196	0.551974	0.372085	0.291519	0.256964	0.285383	0.697072	1.282343	0.177554	0.225809	0.168631	0.132879
37	0.314908	0.378805	0.255349	0.256148	0.256195	0.321804	0.211459	0.171650	0.153230	0.394102	0.414825	0.593779	0.479373	0.433801	0.171175	0.166665	0.411379	0.284738	0.555798	0.334901	0.428107	0.232911	0.273031	0.224752	0.487844	0.525415	0.433780	0.388715	0.263852	0.316414	0.231361	0.076548	0.334346	0.351838	0.258304	0.400075	0.360003	0.438916	0.323886	0.262900	0.297575	0.302685	0.710863	0.594540	0.489419	0.546004	0.222436	0.286219	0.214730	0.327281	0.408638	0.281196	0.059321	0.081916	0.489573	0.652286	0.519743	0.502651	0.761995	0.283462	0.711414	0.552286	0.364507	0.259972	0.264742	0.294930	0.626350	1.057996	0.183966	0.223447	0.165818	0.133610
38	0.302419	0.414692	0.252248	0.272076	0.259279	0.318080	0.201821	0.155081	0.170834	0.459919	0.454221	0.633502	0.439246	0.466842	0.160609	0.166764	0.357420	0.309878	0.555635	0.338894	0.431754	0.225824	0.276199	0.222614	0.482645	0.595872	0.445641	0.377722	0.265505	0.264197	0.228866	0.076629	0.333247	0.318460	0.251199	0.376143	0.351811	0.314984	0.256175	0.229295	0.294232	0.332894	0.685388	0.606031	0.507426	0.557969	0.215089	0.290117	0.240517	0.337483	0.411783	0.277997	0.058624	0.074589	0.437525	0.466995	0.554024	0.495190	0.843009	0.338494	0.697390	0.550537	0.357593	0.221425	0.270803	0.293906	0.638419	0.824570	0.190704	0.211644	0.163776	0.130997
39	0.239046	0.393852	0.248843	0.278263	0.242621	0.353654	0.198690	0.150761	0.180767	0.467084	0.459159	0.647399	0.441145	0.468436	0.143089	0.160459	0.321382	0.332452	0.502387	0.355859	0.428136	0.209002	0.283216	0.213318	0.466474	0.550754	0.524743	0.369941	0.233282	0.205685	0.229621	0.085972	0.340301	0.330152	0.252187	0.368952	0.358519	0.306135	0.208830	0.173270	0.283379	0.323843	0.589214	0.603547	0.496835	0.557670	0.203089	0.273084	0.242236	0.353007	0.397813	0.265490	0.058414	0.075916	0.421317	0.373493	0.663741	0.498455	0.853107	0.397262	0.612816	0.530445	0.356266	0.210639	0.282678	0.305382	0.613942	0.803822	0.191389	0.211417	0.164105	0.131873
40	0.216067	0.355134	0.259675	0.266536	0.241929	0.363496	0.200773	0.154026	0.181109	0.471684	0.454114	0.649626	0.434011	0.462917	0.150590	0.155582	0.310940	0.329975	0.406937	0.328964	0.414083	0.154236	0.283084	0.208535	0.402992	0.572383	0.637454	0.467664	0.206084	0.199872	0.215765	0.090756	0.332037	0.351534	0.265729	0.393565	0.356074	0.303280	0.221948	0.157862	0.278136	0.317064	0.491398	0.600212	0.503784	0.565915	0.201362	0.241426	0.376024	0.337763	0.357217	0.265503	0.059363	0.070995	0.434146	0.304884	0.717248	0.498426	0.857915	0.400160	0.541203	0.523796	0.349703	0.208088	0.275230	0.310724	0.463494	0.636524	0.191690	0.213435	0.148174	0.124229
41	0.209163	0.360200	0.280129	0.321548	0.242560	0.363471	0.210615	0.155654	0.189586	0.472956	0.425857	0.631679	0.419402	0.459833	0.166488	0.163492	0.302471	0.352498	0.330156	0.287035	0.416044	0.130410	0.280150	0.214647	0.407125	0.583609	0.645117	0.495707	0.191637	0.205989	0.182057	0.089511	0.317704	0.350858	0.255628	0.423976	0.354620	0.291115	0.240521	0.157133	0.267968	0.285218	0.337054	0.506911	0.506701	0.585123	0.218301	0.217492	0.437717	0.354981	0.308149	0.253870	0.060475	0.071085	0.471560	0.341506	0.716302	0.503653	0.869173	0.398506	0.535931	0.489935	0.319421	0.206714	0.299867	0.296745	0.361268	0.470047	0.201492	0.218681	0.145905	0.118560
42	0.261159	0.420675	0.264945	0.326719	0.217290	0.365054	0.197743	0.153265	0.240858	0.475597	0.405347	0.572184	0.421224	0.463148	0.191847	0.162179	0.322871	0.360101	0.326341	0.291214	0.383133	0.129443	0.280482	0.209243	0.411976	0.674916	0.682960	0.515613	0.243007	0.213565	0.156760	0.088258	0.329838	0.350412	0.248893	0.414634	0.373558	0.203057	0.237566	0.155340	0.267446	0.279889	0.249128	0.405034	0.502870	0.587105	0.218925	0.216473	0.441118	0.364224	0.306127	0.206381	0.059061	0.071659	0.499746	0.424420	0.729257	0.453524	0.884847	0.391209	0.466216	0.478115	0.292348	0.203942	0.294835	0.280407	0.348279	0.460217	0.214725	0.223991	0.141286	0.117563
43	0.275835	0.516803	0.271079	0.320614	0.208077	0.348287	0.180937	0.150206	0.258512	0.448350	0.417058	0.471194	0.420784	0.436200	0.220905	0.167358	0.322270	0.375002	0.336660	0.291978	0.370468	0.128527	0.279376	0.193032	0.429328	0.701509	0.739583	0.555315	0.259155	0.219050	0.158885	0.087869	0.337758	0.314409	0.287979	0.355604	0.389719	0.171061	0.238954	0.157027	0.271437	0.305321	0.257951	0.257376	0.496236	0.591488	0.218309	0.221602	0.468333	0.361247	0.294415	0.195669	0.049469	0.075188	0.511016	0.517185	0.729073	0.388070	0.902936	0.381128	0.209214	0.376089	0.297865	0.203072	0.270818	0.333058	0.352957	0.442107	0.203249	0.215807	0.138925	0.116581
44	0.266918	0.523862	0.268574	0.313168	0.125173	0.351496	0.188622	0.173793	0.398511	0.419254	0.412101	0.459106	0.411302	0.435633	0.222842	0.171538	0.320388	0.426989	0.359256	0.293429	0.348894	0.130721	0.281294	0.189901	0.446885	0.744368	0.745471	0.573963	0.260732	0.220397	0.170327	0.090431	0.333941	0.281076	0.273561	0.309640	0.387560	0.173391	0.234551	0.157892	0.275258	0.338784	0.265679	0.245011	0.492980	0.599949	0.227860	0.219343	0.492510	0.309569	0.290631	0.204584	0.041338	0.078045	0.511936	0.587363	0.728657	0.357262	0.906914	0.373752	0.180308	0.307711	0.286301	0.163950	0.269477	0.328582	0.407154	0.479444	0.201859	0.218430	0.144534	0.114032
45	0.263121	0.532103	0.273495	0.298979	0.125852	0.346826	0.174985	0.177826	0.419284	0.447904	0.361295	0.357692	0.367638	0.372317	0.229192	0.173262	0.310523	0.413188	0.354538	0.290586	0.390563	0.126499	0.251391	0.184599	0.440464	0.744410	0.717254	0.567824	0.261851	0.205184	0.189220	0.108690	0.321650	0.296042	0.271916	0.295490	0.387650	0.168294	0.225924	0.156774	0.254021	0.330381	0.258171	0.236568	0.494562	0.609217	0.226413	0.213860	0.494845	0.281672	0.319151	0.208999	0.044663	0.078573	0.512859	0.597719	0.731730	0.350424	0.899600	0.375802	0.199438	0.281041	0.277517	0.120225	0.280330	0.324332	0.495259	0.558791	0.221235	0.219148	0.108388	0.093913
46	0.308578	0.531220	0.256964	0.294679	0.122508	0.315691	0.148773	0.148989	0.424692	0.395875	0.307505	0.291190	0.370030	0.329612	0.224419	0.165781	0.308165	0.429301	0.325262	0.291389	0.409787	0.166076	0.240356	0.179408	0.519164	0.760945	0.709252	0.554478	0.243849	0.207647	0.198628	0.124591	0.309288	0.291456	0.303791	0.332610	0.387690	0.163429	0.215361	0.153116	0.237937	0.311767	0.268878	0.247090	0.487927	0.619591	0.224221	0.207308	0.501505	0.280777	0.337269	0.207213	0.044530	0.083793	0.530874	0.611755	0.740538	0.349797	0.861756	0.383961	0.199467	0.271938	0.250728	0.091064	0.284051	0.315906	0.524949	0.640774	0.207501	0.210462	0.114501	0.084820
47	0.369332	0.507770	0.265894	0.293677	0.097904	0.306317	0.129034	0.135812	0.421466	0.363283	0.254631	0.219291	0.163829	0.331042	0.225641	0.160255	0.308961	0.437899	0.287133	0.291325	0.408035	0.254849	0.238408	0.163206	0.545965	0.817755	0.718532	0.551540	0.243478	0.208044	0.198812	0.125965	0.290600	0.266484	0.309634	0.408775	0.379446	0.162791	0.224220	0.149955	0.233798	0.319288	0.363190	0.354527	0.488375	0.621092	0.218164	0.205937	0.489328	0.293910	0.328390	0.197554	0.050602	0.100324	0.554205	0.644433	0.744065	0.350746	0.806786	0.394629	0.206294	0.274811	0.223370	0.078341	0.310233	0.298244	0.535902	0.666975	0.231318	0.198589	0.137933	0.074092
48	0.372285	0.446729	0.282562	0.278205	0.095186	0.279941	0.126813	0.128940	0.437031	0.345121	0.242910	0.195047	0.162493	0.322819	0.233525	0.159184	0.316995	0.432697	0.279636	0.294839	0.419603	0.261920	0.235685	0.133687	0.567698	0.775875	0.739166	0.561450	0.279410	0.200060	0.206895	0.125771	0.279438	0.257866	0.311077	0.416873	0.376377	0.175348	0.233190	0.149937	0.233907	0.330220	0.475062	0.487782	0.496033	0.620262	0.216143	0.205608	0.467534	0.294121	0.312047	0.208826	0.067868	0.118391	0.546320	0.648472	0.736683	0.347002	0.781611	0.410871	0.213451	0.284147	0.224022	0.080429	0.360982	0.287889	0.537258	0.671600	0.217732	0.197660	0.145250	0.075059
49	0.413444	0.444993	0.285361	0.263096	0.092689	0.230639	0.126889	0.128918	0.457601	0.335942	0.229526	0.207124	0.165157	0.264466	0.234383	0.158124	0.379947	0.426869	0.254880	0.267345	0.404581	0.273695	0.230908	0.123817	0.549666	0.688277	0.732347	0.568114	0.295596	0.181006	0.219214	0.128353	0.300406	0.273135	0.351465	0.412517	0.365577	0.169245	0.233169	0.151973	0.234045	0.323885	0.521157	0.490045	0.506902	0.617869	0.210660	0.196748	0.465057	0.277961	0.311186	0.191575	0.079027	0.123169	0.543325	0.645247	0.705259	0.351250	0.781136	0.405159	0.209706	0.282109	0.222238	0.078694	0.368630	0.295059	0.527800	0.685306	0.210059	0.198470	0.147183	0.074326
50	0.423742	0.442571	0.283261	0.251624	0.082643	0.211055	0.125456	0.128159	0.442878	0.330523	0.245169	0.199308	0.166477	0.261098	0.227307	0.154422	0.380699	0.399001	0.334299	0.226719	0.403389	0.270950	0.207960	0.122875	0.550959	0.690736	0.649132	0.548092	0.288192	0.160934	0.220304	0.134443	0.288433	0.260542	0.371705	0.408981	0.368550	0.238182	0.232943	0.159731	0.229455	0.319488	0.524189	0.485633	0.509552	0.605411	0.221493	0.178049	0.394648	0.278278	0.310812	0.197367	0.075813	0.123814	0.544306	0.648312	0.661216	0.286627	0.787380	0.415739	0.212404	0.279311	0.223802	0.078297	0.376244	0.336891	0.582752	0.703116	0.213737	0.192385	0.144196	0.073997
51	0.425677	0.439554	0.225630	0.186548	0.088155	0.175378	0.107257	0.127106	0.424479	0.316815	0.244793	0.195452	0.171659	0.272132	0.204662	0.134611	0.378205	0.397097	0.417298	0.223821	0.400411	0.269829	0.168133	0.113367	0.544983	0.682216	0.543545	0.474305	0.295171	0.157395	0.239123	0.146490	0.280370	0.255834	0.389694	0.376574	0.360599	0.251510	0.243383	0.146296	0.207193	0.292123	0.526341	0.512053	0.487633	0.521805	0.245852	0.153462	0.344173	0.271233	0.318877	0.191568	0.073803	0.142465	0.540754	0.648069	0.685877	0.307709	0.752408	0.433938	0.206960	0.271534	0.215950	0.079722	0.398190	0.379597	0.622637	0.738013	0.211989	0.185820	0.170665	0.077003
52	0.406481	0.418307	0.216812	0.155989	0.090655	0.154585	0.107703	0.126809	0.364609	0.282204	0.236095	0.205183	0.172762	0.273493	0.196971	0.124470	0.374619	0.381529	0.428817	0.230079	0.344903	0.273890	0.156380	0.096033	0.542734	0.683584	0.548319	0.429213	0.324700	0.161184	0.247310	0.153892	0.300859	0.277751	0.395826	0.372787	0.353291	0.248924	0.244056	0.122739	0.205493	0.312527	0.629027	0.530294	0.425336	0.401213	0.261002	0.122282	0.336412	0.278978	0.301346	0.187492	0.078165	0.159690	0.543812	0.650093	0.731111	0.459350	0.644024	0.427637	0.220409	0.273000	0.193330	0.086908	0.381233	0.382643	0.631694	0.768691	0.202299	0.175917	0.190591	0.080653
53	0.387337	0.247042	0.182711	0.148884	0.093853	0.142872	0.087700	0.117352	0.231253	0.145346	0.362383	0.317496	0.180461	0.270208	0.173364	0.125944	0.375848	0.365019	0.429428	0.214396	0.339067	0.269059	0.162103	0.099676	0.556772	0.600066	0.512428	0.416366	0.409989	0.272962	0.248054	0.158774	0.436032	0.303932	0.369217	0.381153	0.357765	0.275741	0.238375	0.119575	0.242734	0.314876	0.915205	0.769515	0.417214	0.400171	0.261178	0.110451	0.303859	0.264890	0.289684	0.177984	0.081191	0.165382	0.542438	0.651934	0.749198	0.671462	0.491732	0.396487	0.245433	0.270211	0.149624	0.095246	0.379955	0.375545	0.634370	0.784913	0.196076	0.164805	0.207006	0.082077
54	0.386517	0.225058	0.197806	0.121290	0.101344	0.119484	0.073859	0.082507	0.225966	0.135507	0.445841	0.445705	0.190384	0.268276	0.133683	0.115805	0.420473	0.355219	0.427652	0.209956	0.338760	0.275344	0.155912	0.105501	0.561886	0.572524	0.476723	0.369003	0.472262	0.443019	0.256214	0.159058	0.480647	0.435964	0.336626	0.379136	0.360069	0.312795	0.229043	0.099717	0.331910	0.309157	0.986290	0.909483	0.383373	0.387686	0.262728	0.111489	0.232651	0.273603	0.291211	0.157177	0.082889	0.174189	0.532396	0.668440	0.685232	0.702592	0.437870	0.338246	0.268903	0.281394	0.135530	0.097263	0.379603	0.328402	0.637766	0.794607	0.194810	0.164756	0.224647	0.094275
55	0.384622	0.191521	0.232794	0.129241	0.109972	0.105440	0.073120	0.053692	0.206245	0.112342	0.448894	0.569039	0.206737	0.254783	0.129741	0.131825	0.427477	0.254176	0.435475	0.226927	0.356242	0.284834	0.150167	0.116862	0.534165	0.495925	0.515792	0.376659	0.475659	0.454287	0.264354	0.156529	0.507726	0.452237	0.359172	0.370655	0.374347	0.376761	0.240022	0.110742	0.382329	0.290150	0.981715	0.925807	0.311342	0.358225	0.266588	0.098454	0.227166	0.250932	0.278884	0.178379	0.082771	0.176180	0.504504	0.694415	0.596941	0.698738	0.430937	0.332311	0.304882	0.309798	0.133369	0.099885	0.375037	0.315205	0.601257	0.765287	0.207988	0.164864	0.221793	0.111098
56	0.359005	0.193109	0.242520	0.135181	0.117078	0.101116	0.108793	0.090321	0.171391	0.074699	0.493711	0.609337	0.203450	0.214065	0.115072	0.120010	0.422713	0.257020	0.477156	0.258988	0.391290	0.285072	0.145955	0.112737	0.527835	0.495350	0.541589	0.391168	0.535970	0.494403	0.288619	0.174501	0.577775	0.457361	0.401198	0.409574	0.385595	0.380859	0.226168	0.112465	0.400659	0.265671	0.980623	0.926673	0.308680	0.357188	0.261263	0.091943	0.219051	0.248771	0.237188	0.175053	0.082409	0.178260	0.473869	0.694763	0.626720	0.716286	0.403062	0.336759	0.311186	0.331900	0.132971	0.108393	0.348109	0.313647	0.516324	0.688187	0.228543	0.165787	0.217915	0.118375
57	0.291779	0.192033	0.254088	0.185623	0.115230	0.127038	0.164942	0.141577	0.125013	0.122516	0.643493	0.792757	0.190324	0.165617	0.115926	0.119873	0.447035	0.269483	0.505953	0.289465	0.411176	0.312211	0.148986	0.108809	0.473648	0.509411	0.547163	0.389917	0.636625	0.547117	0.332895	0.208950	0.609459	0.479482	0.373832	0.351086	0.386710	0.385392	0.204190	0.113183	0.539363	0.262640	0.982150	0.926208	0.297999	0.344818	0.240984	0.091092	0.222557	0.228734	0.281501	0.213708	0.092792	0.189218	0.430778	0.677627	0.677581	0.743696	0.370972	0.337653	0.327181	0.318982	0.147963	0.109100	0.353060	0.314289	0.488964	0.580293	0.231550	0.125213	0.211780	0.113200
58	0.281397	0.197323	0.304154	0.272037	0.114804	0.153982	0.195419	0.166204	0.081650	0.139254	0.693883	0.898916	0.191646	0.162679	0.112853	0.118654	0.444844	0.257835	0.509373	0.295985	0.419561	0.332850	0.160892	0.108752	0.467149	0.405803	0.540219	0.356352	0.650355	0.570294	0.345857	0.234098	0.609254	0.476252	0.373183	0.293840	0.355739	0.390300	0.211853	0.119857	0.594800	0.261139	0.970494	0.898436	0.286774	0.300434	0.216844	0.090111	0.232796	0.212820	0.379117	0.323976	0.110876	0.192724	0.386697	0.647743	0.676280	0.765672	0.325100	0.346526	0.329955	0.295190	0.150124	0.113015	0.320695	0.315930	0.477781	0.514086	0.249211	0.117149	0.205204	0.108860
59	0.231755	0.216756	0.321027	0.294975	0.118745	0.158348	0.197985	0.170872	0.078653	0.141640	0.702946	0.920242	0.210570	0.175089	0.097701	0.118345	0.455290	0.304278	0.511512	0.284062	0.435323	0.360397	0.157561	0.116259	0.463707	0.346905	0.581364	0.359617	0.635263	0.573365	0.346293	0.237135	0.602822	0.480154	0.367309	0.285301	0.329072	0.399393	0.220567	0.117167	0.597737	0.254438	0.941839	0.835019	0.286923	0.288399	0.212825	0.088617	0.240825	0.198609	0.458044	0.507892	0.114886	0.203650	0.371736	0.591162	0.677626	0.774607	0.341884	0.375459	0.330791	0.276479	0.168832	0.124423	0.248827	0.318261	0.496017	0.555593	0.276233	0.148973	0.200962	0.111060
60	0.159685	0.216316	0.320629	0.360884	0.128315	0.156755	0.197295	0.172380	0.090083	0.215067	0.698905	0.932533	0.210730	0.185156	0.119550	0.138335	0.445028	0.288601	0.514167	0.278833	0.433890	0.367737	0.153892	0.123498	0.426710	0.406870	0.690641	0.432023	0.627764	0.569537	0.354847	0.241024	0.597037	0.477111	0.347735	0.284939	0.328817	0.396922	0.218126	0.114852	0.597450	0.229154	0.951578	0.808072	0.280687	0.276248	0.210464	0.071054	0.241995	0.195816	0.470227	0.608827	0.129948	0.291699	0.369246	0.513358	0.675894	0.787984	0.341218	0.391212	0.334142	0.272849	0.159654	0.131053	0.235239	0.331532	0.491302	0.592645	0.282959	0.162241	0.200334	0.111693
61	0.115705	0.213852	0.344029	0.414733	0.154218	0.154299	0.207392	0.178686	0.093308	0.240656	0.674475	0.917401	0.206297	0.199551	0.146713	0.166098	0.450828	0.273625	0.483516	0.279454	0.379543	0.366163	0.153426	0.122738	0.416456	0.438648	0.739071	0.542320	0.628024	0.569766	0.362408	0.249300	0.601344	0.460847	0.384623	0.297486	0.328759	0.397060	0.222320	0.129092	0.597828	0.222230	0.982983	0.818725	0.264701	0.232759	0.198463	0.069120	0.177910	0.174763	0.474755	0.620225	0.233462	0.329979	0.374552	0.492661	0.667093	0.803512	0.324980	0.384535	0.343137	0.268655	0.163633	0.127715	0.309195	0.279400	0.438648	0.573731	0.381393	0.173193	0.201427	0.120420
62	0.104821	0.222444	0.444772	0.438251	0.173212	0.163760	0.227524	0.180497	0.093613	0.244836	0.599025	0.884484	0.222836	0.189474	0.147176	0.172082	0.445993	0.287749	0.459172	0.270147	0.373255	0.337216	0.148602	0.123541	0.411693	0.428445	0.750284	0.694848	0.628627	0.569795	0.368842	0.246093	0.605757	0.479231	0.398100	0.325153	0.328870	0.406801	0.229206	0.132822	0.600888	0.276954	0.996317	0.824169	0.248967	0.192047	0.196478	0.067621	0.175145	0.138056	0.497569	0.687340	0.344005	0.365651	0.359532	0.487713	0.654707	0.804184	0.324508	0.369194	0.339678	0.260978	0.165260	0.128377	0.382096	0.224221	0.416715	0.568432	0.412613	0.377726	0.186101	0.131116
63	0.105242	0.226820	0.536761	0.519130	0.176571	0.210292	0.278924	0.181952	0.093250	0.244585	0.578989	0.831136	0.372285	0.202730	0.148989	0.177862	0.453425	0.328929	0.509768	0.313556	0.366914	0.302815	0.149816	0.127388	0.407429	0.434796	0.720895	0.719736	0.628423	0.570357	0.367237	0.234976	0.585282	0.471879	0.419106	0.372601	0.319760	0.427721	0.228670	0.134593	0.610303	0.350006	0.966479	0.818076	0.235508	0.157414	0.196547	0.061557	0.177116	0.135790	0.533530	0.732390	0.377426	0.422020	0.316681	0.444331	0.666182	0.806066	0.336236	0.339428	0.337144	0.261953	0.164354	0.133754	0.389999	0.203198	0.478739	0.544436	0.523203	0.461908	0.228266	0.151493
64	0.123277	0.248500	0.578601	0.641981	0.176192	0.289410	0.293622	0.189236	0.087677	0.244223	0.590569	0.784350	0.375386	0.200926	0.150279	0.181165	0.464379	0.385355	0.546502	0.385516	0.326735	0.297515	0.150722	0.133266	0.393860	0.470330	0.734762	0.722345	0.628291	0.570109	0.369303	0.233020	0.480858	0.446586	0.416054	0.416553	0.283389	0.442002	0.230869	0.142076	0.637948	0.400321	0.734934	0.682588	0.244964	0.142433	0.196061	0.056003	0.177330	0.107211	0.583312	0.737481	0.383454	0.473667	0.334918	0.415057	0.667296	0.814322	0.351288	0.326224	0.329144	0.260531	0.165266	0.135056	0.391310	0.204314	0.534440	0.561714	0.561920	0.509540	0.270670	0.232663
65	0.122435	0.256719	0.563693	0.658639	0.173246	0.313437	0.296298	0.198631	0.087387	0.235301	0.470958	0.711039	0.427718	0.195369	0.147819	0.188487	0.408194	0.428838	0.547226	0.455681	0.323305	0.290972	0.153152	0.136173	0.385208	0.476305	0.727635	0.736240	0.617217	0.569559	0.366079	0.234819	0.440252	0.335324	0.410140	0.428882	0.277733	0.434681	0.232439	0.141773	0.610574	0.404843	0.604802	0.395684	0.233404	0.142601	0.192242	0.056838	0.172147	0.101056	0.609785	0.736879	0.466240	0.495443	0.398516	0.418099	0.681190	0.815155	0.340639	0.316283	0.327249	0.260883	0.168736	0.131115	0.391129	0.211487	0.527557	0.548905	0.561430	0.511330	0.259469	0.245517
66	0.145859	0.250037	0.560573	0.663738	0.190220	0.319642	0.283055	0.211257	0.099055	0.207753	0.297788	0.470989	0.436513	0.278639	0.153832	0.179292	0.393878	0.431397	0.548665	0.469060	0.322539	0.290741	0.157270	0.135535	0.378810	0.476723	0.704175	0.762766	0.605450	0.569694	0.360875	0.239121	0.375283	0.320125	0.435212	0.427138	0.272024	0.408420	0.227845	0.133810	0.577716	0.428896	0.699597	0.387208	0.202063	0.143516	0.192888	0.058834	0.169379	0.098665	0.639737	0.764230	0.487312	0.495183	0.403512	0.417457	0.683773	0.812864	0.326353	0.277480	0.323299	0.262923	0.167634	0.131555	0.392440	0.220042	0.524064	0.543828	0.558984	0.508612	0.262106	0.238832
67	0.191412	0.232599	0.554792	0.657105	0.190926	0.314727	0.261838	0.299667	0.151323	0.207729	0.241563	0.380477	0.436073	0.296299	0.163204	0.180564	0.400731	0.480738	0.540585	0.462095	0.322701	0.289444	0.161398	0.134515	0.378329	0.476839	0.694336	0.749876	0.609105	0.569712	0.358665	0.245524	0.257959	0.305047	0.421486	0.406168	0.268958	0.394841	0.214161	0.129914	0.604147	0.517559	0.759593	0.435904	0.185318	0.144286	0.184224	0.056736	0.157370	0.098271	0.634411	0.811251	0.494778	0.493048	0.429639	0.422657	0.627769	0.764827	0.324798	0.274828	0.323019	0.264559	0.167158	0.131583	0.435317	0.222911	0.518240	0.543997	0.543954	0.507099	0.274741	0.235395
68	0.196027	0.211094	0.526817	0.629832	0.192113	0.306057	0.264343	0.289398	0.237807	0.215965	0.226611	0.334385	0.434018	0.297066	0.162714	0.181246	0.393515	0.541677	0.528060	0.455330	0.327900	0.285472	0.160786	0.133757	0.384159	0.450409	0.690045	0.743776	0.626729	0.569794	0.345032	0.244946	0.213267	0.300752	0.426713	0.405793	0.229766	0.390529	0.213102	0.129887	0.514764	0.559170	0.764694	0.441266	0.178962	0.143900	0.151482	0.048690	0.160525	0.114357	0.600260	0.783138	0.500398	0.499207	0.453940	0.431192	0.582888	0.593031	0.326429	0.268119	0.320097	0.264447	0.160933	0.129516	0.522253	0.330507	0.496761	0.541229	0.539375	0.506249	0.285424	0.236204
69	0.196752	0.205280	0.503992	0.612568	0.194546	0.308251	0.271580	0.288888	0.243048	0.201882	0.228142	0.316366	0.435312	0.296268	0.166096	0.182457	0.406952	0.564592	0.525278	0.449955	0.332987	0.280072	0.160257	0.131184	0.332560	0.447091	0.699055	0.755278	0.645597	0.569893	0.339193	0.242570	0.214758	0.307753	0.446773	0.449209	0.207980	0.377081	0.212122	0.128412	0.408752	0.561486	0.751597	0.441470	0.154988	0.146493	0.101268	0.045274	0.151452	0.115416	0.545115	0.684244	0.518071	0.512737	0.452970	0.433718	0.583222	0.516725	0.345128	0.264216	0.313508	0.298077	0.160807	0.121925	0.551849	0.343047	0.504483	0.524152	0.521794	0.507181	0.289421	0.239104
70	0.204507	0.248162	0.507142	0.587824	0.189255	0.308930	0.279637	0.288790	0.349465	0.203975	0.207102	0.295797	0.431687	0.294593	0.165573	0.180049	0.406830	0.543788	0.535337	0.458264	0.330861	0.274699	0.157826	0.125502	0.300302	0.451462	0.689476	0.805769	0.621116	0.543293	0.349310	0.239511	0.223503	0.328114	0.486127	0.495678	0.203426	0.346030	0.211097	0.128091	0.399095	0.558849	0.728648	0.443082	0.127918	0.142761	0.090310	0.043565	0.148895	0.123000	0.537979	0.582592	0.520164	0.529696	0.460736	0.422253	0.571969	0.537542	0.370690	0.248470	0.312230	0.313997	0.183103	0.129308	0.585819	0.345148	0.569704	0.498021	0.508983	0.500763	0.298643	0.245251
71	0.269467	0.305942	0.501351	0.540963	0.181791	0.309018	0.274282	0.285391	0.407781	0.249886	0.200474	0.247864	0.431206	0.293821	0.152411	0.166625	0.378824	0.542958	0.604448	0.569233	0.307261	0.266492	0.159463	0.116317	0.321409	0.408289	0.570162	0.786137	0.566113	0.411374	0.359829	0.241448	0.313089	0.344843	0.474689	0.500625	0.162972	0.273123	0.199013	0.116175	0.412000	0.561098	0.693303	0.455050	0.119171	0.141512	0.094487	0.041982	0.156260	0.182988	0.534385	0.559438	0.524138	0.592846	0.467758	0.372919	0.551909	0.546751	0.372235	0.241113	0.306698	0.291777	0.185250	0.129922	0.657298	0.328319	0.606571	0.487707	0.512299	0.498319	0.301146	0.247530
72	0.300539	0.464041	0.411790	0.531061	0.180755	0.307297	0.260219	0.287633	0.410051	0.250684	0.218138	0.210288	0.441940	0.285032	0.135111	0.145102	0.340423	0.542312	0.613299	0.593390	0.272661	0.271972	0.161115	0.110590	0.429733	0.359214	0.500753	0.735798	0.565862	0.403770	0.363668	0.246186	0.317110	0.341799	0.425113	0.506596	0.109525	0.261007	0.193015	0.119429	0.471613	0.578956	0.645002	0.466875	0.116390	0.142019	0.083363	0.041904	0.202024	0.208264	0.526183	0.494592	0.528284	0.656729	0.462048	0.346099	0.429670	0.526188	0.372404	0.241916	0.294083	0.276357	0.199902	0.128294	0.636729	0.324275	0.604968	0.484910	0.449977	0.490787	0.300529	0.242337
73	0.439947	0.486188	0.346226	0.480072	0.190249	0.267836	0.207155	0.287697	0.416681	0.251252	0.221306	0.168907	0.443378	0.296157	0.139846	0.140997	0.342192	0.538817	0.583203	0.590293	0.257873	0.230079	0.167945	0.107051	0.439522	0.349399	0.450623	0.584864	0.532103	0.386695	0.364149	0.240362	0.345944	0.367734	0.395990	0.485839	0.096869	0.255792	0.194474	0.126975	0.552585	0.585712	0.617843	0.441919	0.116236	0.145640	0.080861	0.041869	0.209598	0.221886	0.508135	0.411718	0.547692	0.655783	0.456016	0.329621	0.406888	0.497833	0.371883	0.232065	0.290536	0.257670	0.215307	0.126846	0.603871	0.315385	0.614642	0.447313	0.422019	0.358417	0.296266	0.235259
74	0.459078	0.478655	0.280638	0.270639	0.193852	0.200134	0.193380	0.280712	0.416990	0.252102	0.215881	0.161749	0.329448	0.287260	0.133987	0.132049	0.337358	0.516549	0.530884	0.567137	0.237151	0.216018	0.165398	0.110166	0.452081	0.335395	0.465246	0.529053	0.397654	0.296068	0.331843	0.215380	0.367203	0.381523	0.376966	0.438380	0.094203	0.258532	0.183382	0.125376	0.548812	0.539186	0.638304	0.448991	0.128865	0.152108	0.089746	0.042920	0.233362	0.352426	0.461867	0.400366	0.556049	0.654234	0.453025	0.293595	0.401660	0.481963	0.345825	0.186668	0.269808	0.255592	0.211023	0.130447	0.616771	0.341761	0.609474	0.481919	0.272804	0.244426	0.251262	0.221934
75	0.458471	0.472848	0.336672	0.271694	0.216081	0.159684	0.194000	0.276034	0.408096	0.254637	0.231556	0.177214	0.328775	0.287556	0.130992	0.127683	0.306733	0.494907	0.482287	0.525284	0.200767	0.157816	0.167269	0.102423	0.425759	0.263433	0.448241	0.540350	0.354962	0.252154	0.312120	0.188897	0.491470	0.394883	0.387765	0.400292	0.103789	0.244957	0.165743	0.128018	0.553311	0.507463	0.639684	0.456207	0.168201	0.151602	0.086294	0.043434	0.263857	0.381381	0.428436	0.412119	0.556538	0.653140	0.450525	0.269183	0.398916	0.489666	0.350864	0.149701	0.263169	0.249092	0.197660	0.126438	0.674196	0.423124	0.587956	0.490370	0.169190	0.113760	0.189492	0.134676
76	0.457754	0.477196	0.353354	0.283786	0.203734	0.158609	0.196485	0.230301	0.374879	0.249842	0.301307	0.185763	0.253952	0.287656	0.131656	0.118583	0.334336	0.455745	0.476657	0.463264	0.182496	0.152553	0.175433	0.097650	0.460653	0.237436	0.436240	0.528734	0.345759	0.234163	0.322194	0.197114	0.505344	0.425676	0.466380	0.427680	0.100775	0.244673	0.161575	0.128036	0.642359	0.535990	0.644973	0.455400	0.188412	0.151123	0.084968	0.042186	0.264966	0.401562	0.412320	0.379190	0.556844	0.624611	0.457796	0.271871	0.401668	0.481606	0.424005	0.174319	0.287350	0.249437	0.189678	0.112646	0.684936	0.452008	0.590867	0.512655	0.163002	0.101188	0.185002	0.098731
77	0.468436	0.479628	0.364440	0.281273	0.207482	0.142504	0.183179	0.087028	0.361463	0.201273	0.340505	0.336437	0.210827	0.207714	0.120192	0.105587	0.337668	0.499660	0.516480	0.441129	0.182536	0.148377	0.178009	0.098325	0.575822	0.243148	0.414068	0.468558	0.341811	0.233249	0.320245	0.218079	0.531081	0.437728	0.481509	0.443599	0.103999	0.242502	0.154363	0.116948	0.641419	0.518292	0.573572	0.424785	0.187404	0.148403	0.091061	0.043597	0.285087	0.402946	0.428158	0.248287	0.529770	0.601497	0.462262	0.276563	0.465899	0.508712	0.455174	0.189051	0.306431	0.255995	0.190930	0.109037	0.683276	0.445846	0.591729	0.514917	0.151556	0.106129	0.180719	0.097994
78	0.469382	0.481889	0.380457	0.275425	0.213150	0.139884	0.160430	0.087026	0.337696	0.176510	0.376593	0.373339	0.210193	0.172787	0.107076	0.090487	0.344859	0.528104	0.531081	0.445740	0.181136	0.143279	0.179927	0.102467	0.633964	0.229681	0.409135	0.460290	0.353667	0.226162	0.313196	0.208887	0.577983	0.441005	0.484489	0.436380	0.113656	0.227106	0.144078	0.110202	0.647394	0.439526	0.502280	0.377003	0.193098	0.136763	0.093213	0.044453	0.319872	0.396672	0.484107	0.255331	0.464177	0.578798	0.456248	0.265126	0.462609	0.506842	0.450974	0.189589	0.301311	0.259852	0.185310	0.108235	0.663708	0.441715	0.595202	0.514802	0.146265	0.141377	0.165618	0.097665
79	0.494698	0.483680	0.391109	0.286471	0.207678	0.144895	0.147134	0.078865	0.182930	0.135604	0.465311	0.393304	0.211581	0.171036	0.108303	0.089507	0.351514	0.487355	0.511047	0.432033	0.177510	0.117282	0.176999	0.099543	0.742713	0.242718	0.420975	0.462957	0.357422	0.224731	0.318599	0.208114	0.589876	0.431298	0.480785	0.431020	0.118923	0.183421	0.138545	0.103751	0.697109	0.392539	0.480228	0.369673	0.198807	0.134991	0.095130	0.045630	0.317150	0.399922	0.485481	0.397974	0.429442	0.551092	0.457543	0.252592	0.457210	0.495698	0.438675	0.189334	0.300891	0.264268	0.185297	0.104833	0.592919	0.368283	0.609354	0.526969	0.167802	0.157769	0.142022	0.094276
80	0.498486	0.458377	0.399589	0.308658	0.205433	0.140097	0.126006	0.064481	0.163462	0.126978	0.487485	0.461552	0.209605	0.165764	0.103425	0.087483	0.374135	0.495812	0.519657	0.426313	0.168065	0.116510	0.178546	0.101006	0.768050	0.290589	0.453344	0.460013	0.373255	0.218718	0.317576	0.210127	0.591862	0.433787	0.448581	0.379866	0.120672	0.138124	0.117647	0.093201	0.720718	0.381418	0.486916	0.381034	0.197382	0.129473	0.102831	0.045359	0.324541	0.412926	0.483023	0.439040	0.425349	0.493059	0.446875	0.252674	0.486085	0.484010	0.449645	0.201693	0.300804	0.270736	0.192167	0.106770	0.565244	0.355201	0.603554	0.586670	0.213022	0.158916	0.135479	0.090376
81	0.475992	0.451446	0.427512	0.338282	0.183250	0.139818	0.124677	0.064117	0.156173	0.132368	0.472554	0.475015	0.198438	0.149961	0.108323	0.084732	0.361459	0.509111	0.517421	0.427989	0.170263	0.131158	0.174678	0.109053	0.764662	0.349333	0.476047	0.371812	0.373082	0.218436	0.314612	0.209965	0.592182	0.456061	0.422105	0.334977	0.141604	0.128715	0.116852	0.094170	0.730129	0.383015	0.585039	0.406567	0.194136	0.121988	0.102371	0.045748	0.320634	0.404416	0.553831	0.520784	0.342005	0.463385	0.417540	0.269261	0.469452	0.485822	0.436841	0.194401	0.300652	0.265289	0.190456	0.106839	0.534851	0.350063	0.533110	0.733811	0.218117	0.201502	0.178404	0.101310
82	0.451607	0.271149	0.432629	0.338331	0.179127	0.135449	0.110403	0.045749	0.154694	0.144695	0.507038	0.537503	0.217513	0.138080	0.111947	0.085055	0.361537	0.513626	0.443440	0.297208	0.168681	0.148364	0.171220	0.112089	0.754973	0.381813	0.473906	0.304074	0.372718	0.219536	0.313367	0.209110	0.551168	0.527104	0.415342	0.321569	0.159486	0.142997	0.135075	0.097920	0.732298	0.396125	0.621678	0.432796	0.198585	0.120102	0.100781	0.044183	0.291363	0.399414	0.578480	0.555666	0.295924	0.463552	0.418655	0.293295	0.467616	0.484526	0.440212	0.192272	0.304037	0.274982	0.191328	0.109264	0.443362	0.349178	0.516818	0.797290	0.247332	0.203860	0.193888	0.117183
83	0.345266	0.279748	0.417207	0.333123	0.157558	0.124862	0.132411	0.069546	0.160586	0.154558	0.518616	0.570024	0.221699	0.134972	0.115613	0.084260	0.362407	0.516006	0.416712	0.190359	0.166979	0.159592	0.168135	0.114542	0.705712	0.377024	0.524632	0.296677	0.373711	0.224657	0.308724	0.205078	0.560979	0.538826	0.417604	0.296764	0.156990	0.143830	0.146635	0.097909	0.707877	0.397105	0.608313	0.406008	0.246219	0.133658	0.105633	0.040283	0.284416	0.390363	0.587117	0.571911	0.281783	0.464777	0.415787	0.349730	0.464264	0.491052	0.439222	0.192933	0.323282	0.337558	0.190850	0.108445	0.413163	0.351748	0.507361	0.829804	0.265763	0.205137	0.194702	0.118326
84	0.310853	0.305139	0.390787	0.353256	0.153882	0.143497	0.140388	0.079028	0.160907	0.185171	0.487466	0.566638	0.207158	0.116366	0.118798	0.084186	0.358925	0.519603	0.432001	0.192765	0.187386	0.179621	0.165790	0.117504	0.692748	0.403007	0.561142	0.347232	0.370743	0.227779	0.305013	0.196071	0.564018	0.502367	0.424372	0.290855	0.166299	0.151898	0.149150	0.098146	0.637862	0.434277	0.612731	0.404201	0.291345	0.169863	0.106054	0.047342	0.276300	0.307654	0.602283	0.581591	0.273823	0.451871	0.395015	0.414455	0.450675	0.503713	0.422012	0.191858	0.344698	0.347465	0.206105	0.114543	0.375754	0.350066	0.494821	1.004246	0.269097	0.203825	0.218512	0.126961
85	0.320347	0.311693	0.338511	0.313486	0.113202	0.173309	0.133045	0.080168	0.197659	0.203117	0.467030	0.541037	0.209727	0.110821	0.154200	0.089288	0.357519	0.524816	0.465086	0.281082	0.224117	0.180425	0.167326	0.114300	0.693650	0.401702	0.566626	0.439483	0.343479	0.228159	0.307320	0.192958	0.615701	0.505938	0.432690	0.285266	0.207703	0.167394	0.150289	0.098585	0.632597	0.490402	0.596297	0.396587	0.304435	0.203303	0.105057	0.057160	0.245697	0.248253	0.583574	0.575995	0.241166	0.439378	0.385144	0.472535	0.449668	0.479622	0.395124	0.186978	0.334631	0.342322	0.212010	0.119273	0.342960	0.324165	0.442070	1.009486	0.268358	0.199220	0.245760	0.140733
86	0.319090	0.385951	0.313714	0.276240	0.128435	0.175518	0.131317	0.078427	0.242366	0.217705	0.491670	0.472326	0.206972	0.109852	0.160494	0.085711	0.348325	0.519398	0.472756	0.332673	0.224729	0.176791	0.208847	0.124655	0.725412	0.401244	0.566194	0.575661	0.284644	0.229765	0.312223	0.197139	0.535579	0.485156	0.418973	0.275420	0.215962	0.168678	0.149759	0.099899	0.635304	0.540570	0.589514	0.354642	0.304394	0.206176	0.110361	0.059754	0.247377	0.210978	0.569072	0.573208	0.235336	0.408031	0.372984	0.476826	0.444545	0.455676	0.388736	0.195512	0.352085	0.309261	0.202571	0.112203	0.208112	0.201827	0.418199	0.992016	0.268469	0.198350	0.251277	0.143691
87	0.338163	0.389431	0.358564	0.273485	0.121860	0.180214	0.164341	0.088409	0.312256	0.219898	0.560342	0.534534	0.199156	0.106908	0.157001	0.082219	0.279684	0.524040	0.483487	0.370154	0.211957	0.238079	0.301950	0.167193	0.739501	0.408300	0.591369	0.636681	0.224722	0.226698	0.312492	0.205186	0.557482	0.473141	0.291007	0.218931	0.218732	0.174284	0.149031	0.099877	0.552541	0.546050	0.565363	0.357089	0.306012	0.205055	0.110918	0.063842	0.237498	0.201995	0.599540	0.630845	0.230252	0.349205	0.353474	0.470741	0.434716	0.418144	0.389092	0.205888	0.347867	0.305872	0.191275	0.099161	0.204983	0.118315	0.429770	0.985449	0.268562	0.198258	0.253023	0.144079
88	0.337629	0.403746	0.379727	0.275523	0.134977	0.204054	0.227442	0.123358	0.407203	0.211315	0.526075	0.542970	0.198632	0.092823	0.156870	0.082095	0.283932	0.498555	0.453094	0.380748	0.199897	0.265584	0.328867	0.184465	0.680068	0.428728	0.678072	0.693165	0.222539	0.230706	0.299395	0.211119	0.553958	0.454865	0.195379	0.177528	0.218978	0.174971	0.150921	0.096411	0.528332	0.565606	0.552999	0.347313	0.313919	0.204919	0.105112	0.071821	0.157487	0.201520	0.613279	0.641751	0.218234	0.133426	0.352391	0.490699	0.457647	0.412357	0.392098	0.206545	0.325741	0.303112	0.186685	0.098626	0.296773	0.149880	0.470042	0.996182	0.269074	0.195574	0.252484	0.144630
89	0.312608	0.411828	0.402807	0.305750	0.133240	0.217330	0.236901	0.133914	0.437610	0.220339	0.574898	0.505627	0.197036	0.095497	0.159621	0.084258	0.322996	0.416650	0.385617	0.364845	0.201069	0.264794	0.327709	0.183655	0.643952	0.427455	0.731979	0.841741	0.217539	0.206756	0.290469	0.214002	0.505405	0.447185	0.279182	0.194749	0.220518	0.175128	0.149218	0.085267	0.514563	0.581992	0.563675	0.346718	0.316496	0.205308	0.117610	0.072540	0.154041	0.199330	0.587946	0.603912	0.180592	0.120238	0.353332	0.522968	0.459567	0.409693	0.422941	0.212062	0.321578	0.294054	0.163501	0.092979	0.417283	0.222685	0.468219	1.009630	0.270663	0.171955	0.249609	0.144131
90	0.343216	0.416214	0.404248	0.317616	0.130301	0.220512	0.252685	0.173502	0.438630	0.213401	0.593725	0.497956	0.196087	0.101936	0.169876	0.102520	0.379336	0.393523	0.417626	0.368695	0.234289	0.268770	0.331789	0.183999	0.505985	0.466630	0.792920	0.910481	0.232846	0.174706	0.278210	0.218600	0.510207	0.448201	0.381742	0.303181	0.221139	0.181995	0.147844	0.078267	0.441309	0.565742	0.567029	0.357552	0.321247	0.245373	0.131316	0.074530	0.139946	0.170603	0.585474	0.552539	0.113762	0.116913	0.357252	0.522788	0.463339	0.391658	0.418417	0.211459	0.320565	0.292879	0.147000	0.088725	0.437612	0.259391	0.498474	1.009665	0.257073	0.156942	0.251212	0.143716
91	0.375370	0.484799	0.390578	0.283288	0.129443	0.221245	0.253397	0.194214	0.434174	0.206255	0.654345	0.437456	0.194504	0.103634	0.201600	0.121635	0.351928	0.301448	0.484655	0.380921	0.252658	0.279078	0.327793	0.182886	0.446140	0.478268	0.825934	0.944659	0.259916	0.169721	0.261946	0.211376	0.511895	0.450943	0.382650	0.307756	0.217453	0.187397	0.154847	0.084855	0.370723	0.561597	0.570468	0.341152	0.322218	0.305754	0.130307	0.078857	0.138234	0.123871	0.522135	0.501794	0.108823	0.113091	0.357355	0.521837	0.467693	0.371778	0.342265	0.187716	0.327985	0.291338	0.138270	0.084844	0.573488	0.292584	0.610931	1.026068	0.218015	0.150897	0.241471	0.139982
92	0.381172	0.555615	0.433176	0.353683	0.124770	0.216779	0.247916	0.200547	0.436257	0.206237	0.713598	0.510933	0.194159	0.104523	0.223415	0.140446	0.363786	0.258081	0.516608	0.414405	0.258947	0.310481	0.325004	0.181947	0.513576	0.495175	0.808219	0.964638	0.271129	0.154621	0.263173	0.207473	0.514216	0.374962	0.387259	0.308692	0.221114	0.191107	0.165973	0.094278	0.364935	0.560252	0.506699	0.320855	0.307438	0.311850	0.137981	0.079493	0.135460	0.105590	0.476488	0.450629	0.097245	0.110467	0.349701	0.522882	0.430963	0.327013	0.295281	0.166136	0.323470	0.294670	0.132125	0.082522	0.631022	0.338511	0.617917	0.917263	0.209264	0.076171	0.197171	0.116179
93	0.419532	0.547880	0.433355	0.385708	0.122887	0.214163	0.243501	0.211539	0.535349	0.318869	0.751527	0.596302	0.171593	0.118521	0.226691	0.149097	0.423442	0.318265	0.507439	0.426047	0.260727	0.311722	0.328710	0.181525	0.559385	0.456393	0.824189	0.967586	0.269440	0.139513	0.265303	0.198939	0.519970	0.278506	0.405234	0.318208	0.220132	0.212575	0.163335	0.091743	0.377687	0.553189	0.493116	0.303028	0.293594	0.324512	0.152114	0.079321	0.141360	0.095752	0.450735	0.517765	0.098390	0.090005	0.347875	0.517878	0.434043	0.322562	0.290248	0.173228	0.307199	0.315064	0.130712	0.082403	0.632237	0.347836	0.617279	0.827354	0.150818	0.068545	0.178494	0.093639
94	0.429990	0.542825	0.431846	0.374267	0.121314	0.190728	0.240515	0.228288	0.604674	0.425037	0.763870	0.625086	0.134482	0.132381	0.230846	0.145883	0.436194	0.338616	0.515726	0.427793	0.261807	0.314604	0.332196	0.178321	0.579219	0.489100	0.823665	0.967160	0.268478	0.139690	0.254660	0.169419	0.549710	0.283313	0.498000	0.373674	0.218351	0.215721	0.166243	0.086954	0.379557	0.557192	0.566243	0.367234	0.294852	0.328348	0.152626	0.081136	0.144852	0.101629	0.425392	0.590590	0.098876	0.079598	0.352614	0.517252	0.444461	0.360976	0.291772	0.190800	0.286281	0.329472	0.131829	0.091843	0.634102	0.351877	0.611651	0.789803	0.082710	0.062798	0.177563	0.092358
95	0.417324	0.538113	0.440303	0.374040	0.112366	0.167222	0.243904	0.233466	0.605067	0.437168	0.797999	0.682818	0.117555	0.127218	0.242256	0.148682	0.452624	0.351254	0.534639	0.475763	0.271638	0.320638	0.329564	0.175155	0.650683	0.474631	0.814105	0.956980	0.254629	0.139492	0.251335	0.167511	0.511580	0.364034	0.526438	0.411702	0.216884	0.224597	0.157702	0.086798	0.386716	0.565453	0.569318	0.392276	0.296984	0.333353	0.149884	0.086227	0.143076	0.111289	0.520347	0.641910	0.103319	0.079404	0.353240	0.519416	0.451790	0.416370	0.266953	0.208271	0.285329	0.340354	0.131998	0.097438	0.637664	0.352920	0.601162	0.545675	0.067723	0.068928	0.148880	0.082369
96	0.430754	0.500107	0.451193	0.392380	0.095846	0.164333	0.245397	0.233585	0.556744	0.501412	0.843502	0.634996	0.096440	0.129693	0.263609	0.212366	0.474285	0.373011	0.505647	0.494551	0.283367	0.328841	0.329590	0.169203	0.645102	0.513285	0.796360	0.921247	0.246584	0.143290	0.230636	0.170312	0.484064	0.386099	0.518615	0.410744	0.219844	0.227852	0.151578	0.087089	0.379657	0.488942	0.571239	0.377816	0.295252	0.341529	0.154120	0.097176	0.112059	0.115862	0.569030	0.752191	0.123750	0.084432	0.381177	0.526920	0.390247	0.439203	0.249237	0.223556	0.288850	0.332364	0.126720	0.095018	0.643001	0.355915	0.605022	0.490182	0.067363	0.070713	0.100516	0.056336
97	0.431592	0.485212	0.429391	0.401165	0.092981	0.156470	0.235105	0.230713	0.558695	0.507493	0.902000	0.698418	0.062107	0.127831	0.276680	0.260232	0.476725	0.386567	0.491454	0.457277	0.291041	0.334424	0.339082	0.171367	0.622072	0.531471	0.791920	0.847015	0.239549	0.153868	0.219427	0.177575	0.492617	0.441853	0.546773	0.421275	0.217165	0.230567	0.143535	0.084036	0.336935	0.453366	0.590628	0.380049	0.300529	0.338693	0.148666	0.099282	0.108551	0.125867	0.538941	0.767549	0.146381	0.099247	0.413998	0.573817	0.403511	0.429537	0.245858	0.225492	0.290156	0.323734	0.123987	0.088040	0.641807	0.384033	0.600409	0.515432	0.064597	0.070876	0.088099	0.046966
98	0.423799	0.482369	0.449011	0.401442	0.044623	0.126714	0.196285	0.221876	0.614364	0.560235	0.882623	0.706414	0.058242	0.127392	0.277785	0.267794	0.479356	0.384714	0.488439	0.441118	0.295618	0.332061	0.348900	0.179513	0.572308	0.561982	0.784672	0.774033	0.242820	0.160191	0.250500	0.192700	0.449119	0.473433	0.558686	0.416180	0.202968	0.229054	0.126605	0.077521	0.300851	0.388264	0.601520	0.389277	0.299824	0.344684	0.155055	0.102875	0.139455	0.144026	0.443139	0.743187	0.169528	0.120071	0.402036	0.593808	0.428916	0.436756	0.253572	0.232433	0.297377	0.323736	0.154657	0.102595	0.645710	0.410363	0.596201	0.502943	0.064513	0.069498	0.088907	0.045625
99	0.422160	0.476211	0.416298	0.374596	0.043918	0.086233	0.186787	0.225626	0.627191	0.595425	0.856289	0.697482	0.057080	0.125848	0.279304	0.268335	0.488689	0.374169	0.479106	0.422357	0.302170	0.332491	0.348870	0.180730	0.599087	0.559141	0.718531	0.749964	0.304533	0.166449	0.279602	0.210255	0.465797	0.528416	0.566874	0.413780	0.205712	0.229143	0.131719	0.078536	0.317329	0.366284	0.577428	0.391129	0.301693	0.352033	0.163670	0.113520	0.180019	0.197105	0.445890	0.726304	0.180607	0.128562	0.390913	0.578198	0.434035	0.456045	0.267339	0.256932	0.293053	0.297649	0.157380	0.109038	0.618731	0.426257	0.580037	0.488843	0.063986	0.069995	0.087066	0.041734
100	0.392391	0.470675	0.419921	0.348534	0.042880	0.079337	0.169837	0.196791	0.697948	0.616337	0.824402	0.657308	0.057829	0.155000	0.283720	0.267707	0.564048	0.368584	0.483351	0.462297	0.276121	0.329951	0.348732	0.178816	0.586603	0.585426	0.629738	0.565455	0.375788	0.190686	0.297196	0.226492	0.477122	0.540514	0.506208	0.390445	0.203443	0.224904	0.150393	0.085399	0.330847	0.380930	0.520128	0.370540	0.273023	0.351978	0.163659	0.121600	0.190112	0.200984	0.454404	0.724003	0.181192	0.127213	0.389176	0.536743	0.457020	0.474706	0.279612	0.289971	0.267476	0.241251	0.155831	0.109859	0.539016	0.391712	0.588131	0.473323	0.085801	0.081251	0.086942	0.047625
101	0.357223	0.397828	0.410772	0.350760	0.041097	0.077027	0.167182	0.185486	0.696416	0.591386	0.795104	0.595244	0.160274	0.159948	0.281517	0.262241	0.592251	0.369051	0.453383	0.460850	0.251943	0.330424	0.342333	0.177976	0.653847	0.609978	0.558694	0.441487	0.378845	0.200294	0.298204	0.230074	0.474812	0.545403	0.463630	0.327067	0.168586	0.210206	0.151127	0.089358	0.301841	0.383431	0.506063	0.349603	0.222171	0.337360	0.168573	0.129633	0.274857	0.228189	0.496984	0.720714	0.179467	0.127921	0.410574	0.496057	0.461718	0.479686	0.289180	0.315924	0.257484	0.260955	0.133118	0.102008	0.584233	0.373173	0.543733	0.459571	0.097845	0.089925	0.081551	0.048681
