	103_P_T2_sh_R_D_A_02.c3d	103_P_T2_sh_R_D_A_02.c3d	103_P_T2_sh_R_D_A_02.c3d	103_P_T2_sh_R_D_A_02.c3d	103_P_T2_sh_R_D_A_02.c3d	103_P_T2_sh_R_D_A_02.c3d	103_P_T2_sh_R_D_A_02.c3d	103_P_T2_sh_R_D_A_02.c3d	103_P_T2_sh_R_D_A_03.c3d	103_P_T2_sh_R_D_A_03.c3d	103_P_T2_sh_R_D_A_03.c3d	103_P_T2_sh_R_D_A_03.c3d	103_P_T2_sh_R_D_A_03.c3d	103_P_T2_sh_R_D_A_03.c3d	103_P_T2_sh_R_D_A_03.c3d	103_P_T2_sh_R_D_A_03.c3d	103_P_T2_sh_R_D_A_04.c3d	103_P_T2_sh_R_D_A_04.c3d	103_P_T2_sh_R_D_A_04.c3d	103_P_T2_sh_R_D_A_04.c3d	103_P_T2_sh_R_D_A_04.c3d	103_P_T2_sh_R_D_A_04.c3d	103_P_T2_sh_R_D_A_04.c3d	103_P_T2_sh_R_D_A_04.c3d	103_P_T2_sh_R_D_A_06.c3d	103_P_T2_sh_R_D_A_06.c3d	103_P_T2_sh_R_D_A_06.c3d	103_P_T2_sh_R_D_A_06.c3d	103_P_T2_sh_R_D_A_06.c3d	103_P_T2_sh_R_D_A_06.c3d	103_P_T2_sh_R_D_A_06.c3d	103_P_T2_sh_R_D_A_06.c3d	103_P_T2_sh_R_D_A_07.c3d	103_P_T2_sh_R_D_A_07.c3d	103_P_T2_sh_R_D_A_07.c3d	103_P_T2_sh_R_D_A_07.c3d	103_P_T2_sh_R_D_A_07.c3d	103_P_T2_sh_R_D_A_07.c3d	103_P_T2_sh_R_D_A_07.c3d	103_P_T2_sh_R_D_A_07.c3d	103_P_T2_sh_R_D_A_08.c3d	103_P_T2_sh_R_D_A_08.c3d	103_P_T2_sh_R_D_A_08.c3d	103_P_T2_sh_R_D_A_08.c3d	103_P_T2_sh_R_D_A_08.c3d	103_P_T2_sh_R_D_A_08.c3d	103_P_T2_sh_R_D_A_08.c3d	103_P_T2_sh_R_D_A_08.c3d	103_P_T2_sh_R_D_A_09.c3d	103_P_T2_sh_R_D_A_09.c3d	103_P_T2_sh_R_D_A_09.c3d	103_P_T2_sh_R_D_A_09.c3d	103_P_T2_sh_R_D_A_09.c3d	103_P_T2_sh_R_D_A_09.c3d	103_P_T2_sh_R_D_A_09.c3d	103_P_T2_sh_R_D_A_09.c3d	103_P_T2_sh_R_D_A_10.c3d	103_P_T2_sh_R_D_A_10.c3d	103_P_T2_sh_R_D_A_10.c3d	103_P_T2_sh_R_D_A_10.c3d	103_P_T2_sh_R_D_A_10.c3d	103_P_T2_sh_R_D_A_10.c3d	103_P_T2_sh_R_D_A_10.c3d	103_P_T2_sh_R_D_A_10.c3d
	Biceps femoris_lat	Semitendinosus_lat	Vastus lateralis_lat	Vastus medialis_lat	Biceps femoris_med	Semitendinosus_med	Vastus lateralis_med	Vastus medialis_med	Biceps femoris_lat	Semitendinosus_lat	Vastus lateralis_lat	Vastus medialis_lat	Biceps femoris_med	Semitendinosus_med	Vastus lateralis_med	Vastus medialis_med	Biceps femoris_lat	Semitendinosus_lat	Vastus lateralis_lat	Vastus medialis_lat	Biceps femoris_med	Semitendinosus_med	Vastus lateralis_med	Vastus medialis_med	Biceps femoris_lat	Semitendinosus_lat	Vastus lateralis_lat	Vastus medialis_lat	Biceps femoris_med	Semitendinosus_med	Vastus lateralis_med	Vastus medialis_med	Biceps femoris_lat	Semitendinosus_lat	Vastus lateralis_lat	Vastus medialis_lat	Biceps femoris_med	Semitendinosus_med	Vastus lateralis_med	Vastus medialis_med	Biceps femoris_lat	Semitendinosus_lat	Vastus lateralis_lat	Vastus medialis_lat	Biceps femoris_med	Semitendinosus_med	Vastus lateralis_med	Vastus medialis_med	Biceps femoris_lat	Semitendinosus_lat	Vastus lateralis_lat	Vastus medialis_lat	Biceps femoris_med	Semitendinosus_med	Vastus lateralis_med	Vastus medialis_med	Biceps femoris_lat	Semitendinosus_lat	Vastus lateralis_lat	Vastus medialis_lat	Biceps femoris_med	Semitendinosus_med	Vastus lateralis_med	Vastus medialis_med
	P2D	P2D	P2D	P2D	P2D	P2D	P2D	P2D	P2D	P2D	P2D	P2D	P2D	P2D	P2D	P2D	P2D	P2D	P2D	P2D	P2D	P2D	P2D	P2D	P2D	P2D	P2D	P2D	P2D	P2D	P2D	P2D	P2D	P2D	P2D	P2D	P2D	P2D	P2D	P2D	P2D	P2D	P2D	P2D	P2D	P2D	P2D	P2D	P2D	P2D	P2D	P2D	P2D	P2D	P2D	P2D	P2D	P2D	P2D	P2D	P2D	P2D	P2D	P2D
	EMG_lat	EMG_lat	EMG_lat	EMG_lat	EMG_med	EMG_med	EMG_med	EMG_med	EMG_lat	EMG_lat	EMG_lat	EMG_lat	EMG_med	EMG_med	EMG_med	EMG_med	EMG_lat	EMG_lat	EMG_lat	EMG_lat	EMG_med	EMG_med	EMG_med	EMG_med	EMG_lat	EMG_lat	EMG_lat	EMG_lat	EMG_med	EMG_med	EMG_med	EMG_med	EMG_lat	EMG_lat	EMG_lat	EMG_lat	EMG_med	EMG_med	EMG_med	EMG_med	EMG_lat	EMG_lat	EMG_lat	EMG_lat	EMG_med	EMG_med	EMG_med	EMG_med	EMG_lat	EMG_lat	EMG_lat	EMG_lat	EMG_med	EMG_med	EMG_med	EMG_med	EMG_lat	EMG_lat	EMG_lat	EMG_lat	EMG_med	EMG_med	EMG_med	EMG_med
ITEM	Y	Y	Y	Y	Y	Y	Y	Y	Y	Y	Y	Y	Y	Y	Y	Y	Y	Y	Y	Y	Y	Y	Y	Y	Y	Y	Y	Y	Y	Y	Y	Y	Y	Y	Y	Y	Y	Y	Y	Y	Y	Y	Y	Y	Y	Y	Y	Y	Y	Y	Y	Y	Y	Y	Y	Y	Y	Y	Y	Y	Y	Y	Y	Y
1	0.202371	0.708383	0.143138	0.127242	0.215762	0.579359	0.187073	0.257125	0.214632	0.510053	0.086780	0.307519	0.468335	0.452058	0.103990	0.177832	0.249754	0.507093	0.093505	0.367920	0.254168	0.602432	0.199607	0.190530	0.200517	0.110654	0.351526	0.204766	0.194117	0.370289	0.273960	0.063058	0.260004	0.641329	0.213444	0.210132	0.297567	0.172994	0.273708	0.180500	0.450250	0.710845	0.159720	0.193604	0.249709	0.477429	0.138663	0.172351	0.493210	0.452181	0.188859	0.209442	0.339688	0.557438	0.110215	0.094574	0.326876	0.440709	0.060117	0.084202	0.307663	0.230671	0.195465	0.238518
2	0.194326	0.635364	0.164216	0.188805	0.211662	0.609220	0.212912	0.237819	0.210666	0.502114	0.103419	0.306400	0.475092	0.525502	0.102953	0.175496	0.244142	0.501226	0.083187	0.343233	0.274263	0.658375	0.246181	0.196143	0.209588	0.122367	0.360703	0.207472	0.164549	0.284372	0.271362	0.047952	0.267889	0.630503	0.225335	0.194168	0.238927	0.155465	0.280343	0.177081	0.463249	0.648949	0.153739	0.197494	0.226884	0.479618	0.145446	0.213569	0.541137	0.461395	0.192779	0.210743	0.356290	0.365834	0.106292	0.107209	0.325368	0.444681	0.058662	0.117283	0.287544	0.227483	0.199637	0.214546
3	0.179147	0.601645	0.172388	0.195781	0.195877	0.610022	0.223258	0.263713	0.182438	0.470384	0.103453	0.316127	0.459054	0.524924	0.102270	0.171855	0.242263	0.503945	0.079902	0.341858	0.273087	0.653514	0.296485	0.193049	0.195059	0.131974	0.276126	0.173758	0.154530	0.260737	0.273792	0.053410	0.266222	0.630518	0.221410	0.199483	0.229500	0.116741	0.269592	0.188685	0.475585	0.581539	0.144550	0.209257	0.229477	0.482655	0.179717	0.266844	0.626293	0.462307	0.200914	0.197547	0.376833	0.361267	0.107975	0.091074	0.385683	0.426713	0.086831	0.121008	0.231540	0.236473	0.190901	0.172924
4	0.185049	0.604972	0.167510	0.193901	0.176494	0.601695	0.229085	0.269840	0.161525	0.374729	0.106463	0.321919	0.437288	0.581394	0.116879	0.150956	0.240613	0.532671	0.070235	0.338889	0.276272	0.651570	0.294176	0.185960	0.170202	0.168922	0.161227	0.142694	0.165529	0.273304	0.272101	0.093187	0.265797	0.655836	0.228249	0.214108	0.234115	0.109468	0.249107	0.187195	0.489578	0.666724	0.143069	0.213286	0.222134	0.469230	0.191032	0.280307	0.625487	0.461264	0.251334	0.179459	0.374926	0.349559	0.115490	0.094941	0.503904	0.386808	0.090803	0.123635	0.196383	0.252306	0.158339	0.188980
5	0.189046	0.590229	0.193076	0.214932	0.142974	0.574243	0.279156	0.268693	0.163767	0.338962	0.137422	0.322757	0.429786	0.600414	0.128899	0.127860	0.244944	0.637597	0.058839	0.318542	0.256379	0.632957	0.298676	0.174065	0.167804	0.193092	0.151795	0.139177	0.171484	0.284336	0.255945	0.115451	0.265885	0.693971	0.247723	0.218830	0.245522	0.114402	0.231640	0.195317	0.482667	0.667153	0.143732	0.229093	0.224164	0.431808	0.185768	0.275325	0.625186	0.508249	0.259298	0.174544	0.390182	0.428217	0.115496	0.099494	0.522456	0.413063	0.093217	0.122200	0.164868	0.275971	0.150729	0.181285
6	0.188408	0.579894	0.220615	0.253843	0.152056	0.576868	0.305964	0.273409	0.108079	0.261673	0.156832	0.318348	0.349506	0.513589	0.115365	0.139691	0.236217	0.659750	0.065276	0.319300	0.243542	0.586633	0.300133	0.179424	0.162193	0.194256	0.151016	0.163444	0.284165	0.429801	0.241513	0.116837	0.267613	0.689846	0.277690	0.218298	0.247796	0.121709	0.226691	0.252120	0.485515	0.632728	0.145647	0.234414	0.229133	0.420347	0.190978	0.294991	0.622449	0.508774	0.265048	0.162677	0.389526	0.542218	0.137986	0.097336	0.547585	0.359541	0.099742	0.126283	0.141893	0.274724	0.101633	0.175434
7	0.163171	0.499123	0.217672	0.254458	0.188993	0.645130	0.333788	0.270758	0.135626	0.142950	0.182497	0.328240	0.334713	0.515662	0.098225	0.236492	0.240879	0.764531	0.064349	0.301589	0.252017	0.569965	0.293063	0.196656	0.158089	0.208834	0.182260	0.207998	0.295107	0.484835	0.242506	0.161131	0.263304	0.679330	0.336444	0.218592	0.252728	0.152736	0.238238	0.248624	0.466934	0.645409	0.149733	0.239526	0.230562	0.420852	0.206658	0.341633	0.616448	0.400014	0.261965	0.157649	0.356608	0.543431	0.375328	0.110389	0.544614	0.406774	0.106489	0.127643	0.122674	0.281594	0.090934	0.177877
8	0.116676	0.404562	0.251603	0.250098	0.185565	0.618991	0.356396	0.400651	0.181074	0.193971	0.287321	0.339158	0.296943	0.520875	0.104847	0.248701	0.242685	0.800612	0.074108	0.266421	0.278444	0.587775	0.335581	0.179997	0.155740	0.217926	0.194983	0.234820	0.293456	0.497275	0.299163	0.223136	0.263386	0.684949	0.380122	0.213879	0.273485	0.334756	0.250393	0.251913	0.434730	0.632313	0.150460	0.233276	0.230773	0.436576	0.205595	0.370481	0.611740	0.436042	0.264125	0.198435	0.382276	0.682453	0.537651	0.165493	0.573992	0.484651	0.112264	0.125946	0.117982	0.267543	0.093432	0.177534
9	0.180916	0.401466	0.272020	0.257005	0.172056	0.586580	0.354585	0.739921	0.242285	0.270272	0.323304	0.276113	0.285720	0.549125	0.183072	0.255112	0.243815	0.783589	0.076149	0.270951	0.273365	0.558293	0.373611	0.164028	0.152810	0.225973	0.236204	0.286124	0.307678	0.479903	0.393780	0.238113	0.268101	0.753780	0.381377	0.210335	0.279326	0.416586	0.250122	0.257601	0.383128	0.624875	0.151408	0.220727	0.220621	0.421274	0.202240	0.388061	0.490698	0.423462	0.249403	0.200725	0.387949	0.714780	0.562281	0.220561	0.574081	0.491216	0.173242	0.153998	0.123243	0.273859	0.158611	0.240646
10	0.265397	0.393905	0.271320	0.270340	0.170002	0.505658	0.342157	0.799664	0.268786	0.344941	0.325305	0.283361	0.278469	0.556048	0.209819	0.267861	0.239113	0.777356	0.079438	0.303840	0.327499	0.566635	0.372699	0.168500	0.144213	0.275708	0.245710	0.301161	0.307747	0.500827	0.400600	0.239065	0.249522	0.763652	0.398338	0.255614	0.283323	0.425819	0.228424	0.276020	0.380135	0.743550	0.135004	0.213616	0.211882	0.404779	0.204921	0.393998	0.443408	0.408379	0.223649	0.190749	0.364832	0.683988	0.644008	0.227152	0.522098	0.489649	0.190985	0.154451	0.152588	0.337347	0.226225	0.240895
11	0.281935	0.400480	0.265910	0.245362	0.246496	0.503020	0.339564	0.803006	0.290950	0.386980	0.340701	0.356501	0.256664	0.519506	0.221422	0.260831	0.238985	0.756839	0.093402	0.339714	0.309622	0.391171	0.381327	0.158216	0.128256	0.276632	0.258005	0.305455	0.308655	0.533949	0.431292	0.237644	0.240611	0.764455	0.445522	0.299171	0.282957	0.434146	0.186018	0.311787	0.438986	0.955735	0.152514	0.240122	0.207684	0.405379	0.226481	0.437827	0.259905	0.417540	0.225774	0.189264	0.349169	0.682130	0.799406	0.277218	0.535163	0.473006	0.196059	0.161790	0.194714	0.419885	0.232194	0.237645
12	0.297751	0.411151	0.261827	0.271286	0.298006	0.532977	0.372565	0.867185	0.312799	0.396983	0.348099	0.388270	0.238830	0.495983	0.227671	0.264453	0.235716	0.765402	0.167925	0.345336	0.306455	0.356844	0.365408	0.157281	0.129995	0.257263	0.258347	0.303563	0.346434	0.545210	0.428378	0.234739	0.214523	0.775791	0.527459	0.327693	0.293539	0.506067	0.206693	0.350475	0.446646	1.026164	0.206790	0.251123	0.180246	0.388434	0.232876	0.473929	0.243738	0.445205	0.173185	0.213697	0.383926	0.693481	0.841919	0.304273	0.505415	0.476781	0.192209	0.275846	0.245001	0.450889	0.263035	0.255526
13	0.357026	0.421546	0.333665	0.278802	0.338579	0.546999	0.398713	0.977237	0.327472	0.398914	0.346840	0.385895	0.198643	0.470641	0.278133	0.269905	0.226110	0.763528	0.192601	0.328925	0.305413	0.354804	0.377584	0.169734	0.133387	0.238637	0.270930	0.305446	0.349910	0.541654	0.424093	0.226696	0.186377	0.766974	0.561677	0.336992	0.301941	0.586224	0.246957	0.349224	0.467676	1.134495	0.216957	0.259420	0.151550	0.321831	0.257631	0.527926	0.260361	0.427241	0.139349	0.213588	0.389115	0.687845	0.845523	0.307380	0.378646	0.449447	0.189950	0.296060	0.237100	0.438067	0.362899	0.284877
14	0.368604	0.415521	0.345984	0.282333	0.370533	0.574480	0.369140	1.033898	0.327444	0.402975	0.334786	0.387320	0.159398	0.497225	0.343999	0.273050	0.224871	0.753683	0.198020	0.312820	0.310215	0.365393	0.407529	0.192545	0.136030	0.236760	0.277277	0.295454	0.355797	0.454516	0.455922	0.253588	0.381875	0.808687	0.553316	0.313671	0.291980	0.664354	0.247589	0.377587	0.501346	1.316790	0.254021	0.269622	0.163064	0.303008	0.266766	0.546601	0.251729	0.317417	0.133823	0.225782	0.386831	0.600973	0.845495	0.307198	0.359645	0.425547	0.189145	0.308133	0.229106	0.414098	0.397134	0.319847
15	0.369182	0.413796	0.318777	0.252632	0.592101	0.695954	0.349653	1.041810	0.319874	0.411949	0.334456	0.387298	0.181526	0.532581	0.362036	0.275834	0.338198	0.762474	0.200126	0.305757	0.313178	0.370287	0.446077	0.203840	0.137257	0.223075	0.251911	0.267370	0.415343	0.432774	0.485047	0.270407	0.533428	0.873615	0.577118	0.331388	0.285437	0.673827	0.248599	0.387415	0.504174	1.354865	0.307846	0.390603	0.158608	0.293166	0.276280	0.548001	0.244045	0.337310	0.161938	0.245221	0.383419	0.567947	0.825704	0.314905	0.307323	0.393088	0.186530	0.341775	0.228323	0.411261	0.405084	0.325247
16	0.369404	0.413573	0.317427	0.236945	0.593695	0.615471	0.316434	1.040791	0.320727	0.431790	0.305330	0.372200	0.177224	0.531131	0.403843	0.268059	0.421384	0.750318	0.223287	0.309342	0.308311	0.372896	0.452356	0.182933	0.140147	0.214367	0.241491	0.246842	0.404607	0.391442	0.419299	0.237790	0.562171	0.906015	0.638777	0.396327	0.284633	0.675770	0.253051	0.369884	0.517871	1.355879	0.317295	0.449373	0.154749	0.298665	0.282010	0.531893	0.153722	0.321213	0.190766	0.258100	0.367945	0.511126	0.713129	0.313262	0.305015	0.344184	0.182118	0.368081	0.223639	0.409475	0.404265	0.325125
17	0.371851	0.413830	0.297485	0.270323	0.593662	0.593934	0.293514	0.973911	0.294376	0.414925	0.207222	0.351387	0.159985	0.506344	0.454391	0.268403	0.418684	0.675852	0.254254	0.339394	0.292424	0.393035	0.432487	0.169834	0.141114	0.229968	0.201784	0.184780	0.397064	0.390092	0.338558	0.225029	0.561780	0.892091	0.683718	0.465980	0.279947	0.668656	0.257095	0.410370	0.536861	1.317789	0.367762	0.455943	0.151146	0.299799	0.259221	0.509990	0.143578	0.307998	0.197374	0.244716	0.333333	0.283211	0.648698	0.268969	0.247303	0.236944	0.189489	0.374988	0.229943	0.411098	0.403851	0.322374
18	0.357855	0.356697	0.273111	0.295789	0.600120	0.589163	0.292880	0.756096	0.278871	0.392755	0.191301	0.343640	0.157886	0.495711	0.457655	0.282230	0.418485	0.645404	0.280716	0.363368	0.276390	0.357068	0.382141	0.174611	0.154033	0.247499	0.163785	0.147169	0.401253	0.352490	0.326239	0.224055	0.563407	0.866683	0.695348	0.483054	0.211723	0.611626	0.257999	0.451969	0.559426	1.302930	0.504366	0.508180	0.148308	0.296716	0.259651	0.520970	0.140865	0.302566	0.204863	0.246171	0.327321	0.255290	0.642225	0.257476	0.240796	0.295437	0.241404	0.386840	0.234069	0.407116	0.386582	0.279845
19	0.292340	0.227779	0.268922	0.292867	0.599668	0.589107	0.279004	0.706523	0.268270	0.328626	0.205833	0.316359	0.158171	0.447764	0.431620	0.269654	0.419588	0.562801	0.316605	0.393123	0.254476	0.334304	0.367860	0.186355	0.143369	0.249710	0.140665	0.118414	0.409483	0.318369	0.276920	0.223698	0.570821	0.884820	0.689935	0.485752	0.196410	0.566823	0.262179	0.468774	0.558629	1.301169	0.608596	0.597715	0.140108	0.300155	0.274133	0.563134	0.161924	0.298579	0.208072	0.264797	0.337727	0.266743	0.468089	0.230692	0.249272	0.311756	0.308806	0.398626	0.220411	0.343661	0.355416	0.267336
20	0.273790	0.213111	0.270077	0.291781	0.580842	0.574844	0.277752	0.691607	0.272102	0.346813	0.200869	0.226615	0.158488	0.455868	0.428175	0.271362	0.425417	0.524692	0.333895	0.410134	0.232614	0.485123	0.372714	0.179704	0.123979	0.269106	0.139206	0.106529	0.373715	0.337964	0.266536	0.213409	0.571637	0.886571	0.665425	0.485412	0.190567	0.561411	0.250428	0.459498	0.558627	1.268619	0.640964	0.633631	0.128955	0.298357	0.294207	0.595107	0.247458	0.361399	0.337948	0.409401	0.312026	0.249217	0.285676	0.171127	0.222326	0.334730	0.315887	0.401150	0.193305	0.257208	0.353488	0.281733
21	0.251438	0.206871	0.266855	0.260226	0.555622	0.543092	0.252339	0.606517	0.270719	0.473757	0.203365	0.185083	0.160484	0.425155	0.431857	0.278140	0.429830	0.544824	0.339687	0.394231	0.308291	0.769173	0.370410	0.184928	0.126585	0.289105	0.109148	0.115463	0.360485	0.346279	0.287647	0.227944	0.574748	0.873003	0.645045	0.485825	0.210067	0.585085	0.258503	0.453339	0.561797	1.261105	0.644305	0.637905	0.158558	0.358591	0.327785	0.599137	0.263935	0.415813	0.415850	0.446303	0.298722	0.283480	0.240593	0.151566	0.209450	0.453596	0.322145	0.332822	0.226148	0.218896	0.344592	0.281822
22	0.212600	0.335423	0.196468	0.248338	0.535946	0.520734	0.309032	0.446604	0.294634	0.552760	0.243792	0.186828	0.167399	0.417343	0.440913	0.283158	0.421274	0.542611	0.343294	0.362421	0.322834	0.845461	0.459934	0.251695	0.178677	0.392981	0.066637	0.135611	0.242133	0.280979	0.233085	0.199219	0.578290	0.808847	0.660769	0.489485	0.196757	0.530420	0.264840	0.451987	0.565817	1.260256	0.644463	0.639628	0.172099	0.363603	0.374283	0.604351	0.270397	0.433331	0.423384	0.441982	0.293465	0.341644	0.239785	0.152793	0.212753	0.512888	0.324646	0.309616	0.276899	0.221787	0.238471	0.242292
23	0.205375	0.403065	0.154386	0.230352	0.498934	0.478314	0.348348	0.362197	0.379517	0.759965	0.260890	0.186676	0.191309	0.461838	0.389779	0.280121	0.419669	0.555564	0.334410	0.319437	0.342364	0.970421	0.551119	0.348955	0.177589	0.399156	0.179420	0.133576	0.167403	0.264356	0.175114	0.133998	0.581710	0.735948	0.673364	0.500359	0.167628	0.444574	0.260693	0.494062	0.557687	1.207073	0.646364	0.640104	0.166180	0.354513	0.401297	0.606326	0.284874	0.424899	0.434353	0.446089	0.268182	0.345237	0.260367	0.145785	0.247268	0.603055	0.324709	0.303955	0.293602	0.222427	0.171043	0.185936
24	0.205021	0.406499	0.159924	0.235668	0.219348	0.355603	0.387437	0.359591	0.382516	0.759717	0.254653	0.184955	0.278882	0.521531	0.358568	0.268382	0.446071	0.548571	0.320684	0.328869	0.336809	1.012070	0.580002	0.416169	0.182066	0.402828	0.203529	0.129760	0.264186	0.367309	0.185293	0.123126	0.581407	0.731222	0.654179	0.513040	0.236051	0.376477	0.325908	0.504039	0.526448	1.084512	0.639875	0.631530	0.160141	0.353342	0.404704	0.605999	0.286463	0.414870	0.460536	0.453591	0.275361	0.343613	0.288527	0.122535	0.233718	0.602329	0.324770	0.283855	0.317944	0.233758	0.145373	0.164786
25	0.285720	0.453882	0.180918	0.247445	0.213845	0.383459	0.393324	0.363810	0.367654	0.738411	0.252921	0.170824	0.276538	0.520089	0.361766	0.276064	0.488802	0.548218	0.326372	0.343220	0.338908	1.016855	0.572179	0.428940	0.217616	0.409043	0.210868	0.129259	0.271018	0.375799	0.193034	0.123039	0.578469	0.694408	0.590588	0.515556	0.294091	0.536519	0.511183	0.506339	0.561248	1.088647	0.622506	0.626282	0.159440	0.348883	0.393743	0.573355	0.286490	0.407617	0.457892	0.439710	0.288242	0.383105	0.302613	0.112931	0.249764	0.664635	0.324711	0.266677	0.349111	0.227211	0.144545	0.162471
26	0.313576	0.497734	0.211144	0.221413	0.229374	0.385125	0.414630	0.363621	0.365117	0.740842	0.248343	0.141564	0.294952	0.610091	0.337612	0.244962	0.535250	0.560897	0.332629	0.343611	0.361645	1.019882	0.649282	0.435828	0.205079	0.365181	0.242629	0.142172	0.284584	0.381627	0.194695	0.123308	0.581665	0.630322	0.548051	0.508244	0.301345	0.619496	0.599288	0.490385	0.563622	1.077312	0.624252	0.619951	0.156416	0.314036	0.388837	0.536546	0.320343	0.476591	0.461220	0.438744	0.306875	0.395124	0.295106	0.111060	0.243912	0.657811	0.320557	0.262465	0.346317	0.230117	0.146465	0.163050
27	0.334819	0.548772	0.232800	0.175474	0.221671	0.378495	0.459790	0.393781	0.346479	0.734356	0.251912	0.148400	0.299127	0.632435	0.321258	0.199568	0.456289	0.518746	0.344190	0.352524	0.364613	1.005736	0.746095	0.462907	0.213502	0.387253	0.244581	0.147666	0.276235	0.368806	0.204823	0.136823	0.496270	0.563878	0.544246	0.507565	0.317338	0.695850	0.597823	0.452788	0.534128	0.826609	0.614842	0.613508	0.149762	0.319480	0.376069	0.485437	0.326540	0.495040	0.473705	0.446063	0.312513	0.393465	0.287370	0.111317	0.238947	0.632985	0.267885	0.227703	0.346459	0.215049	0.145045	0.164144
28	0.396412	0.580039	0.230206	0.154629	0.211899	0.366330	0.498441	0.416820	0.328580	0.719339	0.246594	0.162294	0.312758	0.635617	0.321564	0.193739	0.415848	0.448008	0.365160	0.381269	0.371259	1.026773	0.761146	0.465130	0.324413	0.571035	0.246668	0.148159	0.268240	0.313276	0.183931	0.168417	0.321437	0.474611	0.511868	0.502921	0.335522	0.742261	0.606589	0.410838	0.533791	0.764357	0.588953	0.544315	0.141757	0.346407	0.377760	0.475593	0.301255	0.470629	0.433379	0.365020	0.311787	0.397604	0.258770	0.119073	0.231190	0.631694	0.169716	0.198076	0.353271	0.240286	0.134025	0.160190
29	0.427227	0.598719	0.227208	0.139917	0.184262	0.352686	0.498367	0.433328	0.315133	0.688364	0.236133	0.172074	0.362903	0.647032	0.326511	0.189207	0.461010	0.452104	0.355074	0.356204	0.374282	1.033374	0.761136	0.471977	0.330567	0.596274	0.255481	0.136582	0.277578	0.332059	0.203625	0.183117	0.260634	0.438997	0.436575	0.476382	0.359316	0.749122	0.684651	0.390715	0.502808	0.722062	0.582100	0.481220	0.154711	0.377690	0.378397	0.484294	0.227180	0.358580	0.329643	0.261599	0.289095	0.401328	0.237291	0.118359	0.229261	0.625198	0.162643	0.184928	0.354555	0.234654	0.122066	0.134918
30	0.428321	0.602974	0.237354	0.138638	0.183932	0.362253	0.482018	0.417386	0.318662	0.637259	0.223612	0.198146	0.393733	0.659384	0.344016	0.193833	0.562271	0.536925	0.329713	0.327679	0.309613	0.909853	0.771198	0.481180	0.315472	0.590760	0.270808	0.148937	0.281358	0.347620	0.198734	0.193970	0.301264	0.497796	0.354575	0.435998	0.369788	0.771375	0.793415	0.395663	0.445290	0.766652	0.559629	0.474718	0.169621	0.398422	0.379783	0.497484	0.218491	0.345663	0.292724	0.251134	0.255665	0.345784	0.252552	0.150370	0.213790	0.540263	0.147787	0.190808	0.303170	0.223441	0.152222	0.095919
31	0.416171	0.552787	0.259074	0.139968	0.184253	0.371466	0.419942	0.391677	0.327967	0.494871	0.201336	0.199747	0.400788	0.668772	0.334479	0.183842	0.591569	0.523695	0.297769	0.286086	0.290760	0.817470	0.761886	0.516520	0.318858	0.593279	0.268927	0.158319	0.285457	0.393191	0.206193	0.196027	0.324587	0.531231	0.309417	0.422902	0.359866	0.752017	0.827086	0.377590	0.408074	0.793666	0.450900	0.417474	0.175219	0.417715	0.387239	0.499047	0.206081	0.331480	0.287682	0.254523	0.250892	0.295709	0.264978	0.166229	0.219857	0.496372	0.140936	0.193790	0.253633	0.251401	0.162027	0.111295
32	0.394613	0.483159	0.247066	0.144616	0.172302	0.352805	0.383280	0.350807	0.314683	0.343503	0.184607	0.244826	0.400456	0.668521	0.322191	0.173241	0.620241	0.525545	0.311589	0.270377	0.252387	0.658499	0.672809	0.657657	0.325805	0.620922	0.308553	0.219179	0.205644	0.308132	0.310014	0.217292	0.315151	0.476014	0.293124	0.432171	0.358042	0.747817	0.824410	0.339049	0.401247	0.787440	0.295254	0.279689	0.176054	0.420544	0.387917	0.478052	0.192492	0.333389	0.263068	0.208879	0.250727	0.319312	0.300109	0.247529	0.177593	0.433278	0.142396	0.201906	0.235475	0.318584	0.178099	0.119459
33	0.400459	0.491047	0.247795	0.196141	0.157882	0.242691	0.346917	0.409738	0.349454	0.362531	0.198895	0.266249	0.366734	0.557381	0.335778	0.167806	0.759702	0.639646	0.339859	0.289819	0.244976	0.544040	0.600218	0.639399	0.308038	0.616848	0.312328	0.241871	0.194927	0.301479	0.348512	0.221132	0.325381	0.487678	0.294004	0.438798	0.356096	0.747466	0.816281	0.267281	0.399777	0.786519	0.201437	0.164999	0.181843	0.467862	0.376029	0.430559	0.191057	0.351147	0.279581	0.202573	0.257629	0.327742	0.273229	0.325975	0.179307	0.432583	0.186993	0.271754	0.212872	0.325834	0.194448	0.134203
34	0.347187	0.457714	0.233765	0.219919	0.141157	0.205812	0.341803	0.574715	0.379353	0.366227	0.243642	0.262871	0.326603	0.471895	0.333419	0.163402	0.833048	0.733183	0.345979	0.290506	0.245856	0.480393	0.563459	0.619617	0.306331	0.616997	0.287151	0.234149	0.167085	0.302341	0.431877	0.253300	0.323753	0.489992	0.291026	0.438600	0.312576	0.717746	0.793327	0.216103	0.396142	0.786248	0.199808	0.152387	0.184380	0.472464	0.356721	0.375417	0.164861	0.294172	0.270842	0.211184	0.234096	0.320022	0.285444	0.351767	0.156942	0.347788	0.277155	0.278288	0.148390	0.326937	0.234807	0.156494
35	0.326334	0.434845	0.208723	0.215746	0.120018	0.195737	0.344438	0.590351	0.383521	0.357586	0.245789	0.269401	0.324461	0.442747	0.295994	0.163395	0.836247	0.732635	0.344517	0.285382	0.247710	0.471638	0.560587	0.623659	0.300610	0.598474	0.302877	0.232312	0.159259	0.310361	0.530839	0.265229	0.308769	0.494084	0.266353	0.433668	0.258177	0.600645	0.691987	0.181648	0.405280	0.809803	0.219239	0.151190	0.175458	0.411188	0.329510	0.330496	0.142101	0.233462	0.252553	0.198084	0.207026	0.349133	0.391614	0.363268	0.158803	0.351851	0.292753	0.283636	0.145712	0.326976	0.259806	0.204654
36	0.308118	0.357278	0.178209	0.224654	0.121378	0.216554	0.329305	0.634039	0.385660	0.359088	0.227213	0.263364	0.304846	0.306525	0.307295	0.148281	0.821214	0.729290	0.356094	0.255581	0.211953	0.460672	0.466673	0.612945	0.178306	0.418122	0.302528	0.242061	0.193671	0.474668	0.602904	0.268485	0.318417	0.531801	0.195004	0.413816	0.241368	0.506359	0.632170	0.182014	0.419956	0.893613	0.230181	0.151043	0.165727	0.396241	0.286616	0.295633	0.195525	0.263921	0.243638	0.201417	0.185800	0.339949	0.406110	0.371075	0.167581	0.392293	0.286028	0.305451	0.144266	0.327886	0.265907	0.240769
37	0.241222	0.307621	0.224939	0.223583	0.120063	0.238122	0.294571	0.652747	0.384267	0.360993	0.220257	0.257022	0.298854	0.303732	0.372775	0.141239	0.796607	0.731038	0.376282	0.242329	0.210839	0.469501	0.380331	0.598064	0.163472	0.371735	0.297931	0.238665	0.199501	0.553244	0.605911	0.257808	0.337128	0.567378	0.199963	0.437513	0.217510	0.402297	0.655439	0.220275	0.424391	0.881776	0.227472	0.150914	0.165923	0.402398	0.249075	0.276699	0.227358	0.304183	0.244833	0.190003	0.189571	0.328325	0.465883	0.474085	0.169505	0.381839	0.297255	0.309256	0.128344	0.308928	0.265330	0.328069
38	0.159321	0.264497	0.333865	0.225449	0.126194	0.262527	0.295327	0.641254	0.394333	0.351786	0.241610	0.291879	0.267357	0.283887	0.376909	0.157543	0.797926	0.751013	0.385640	0.252674	0.193066	0.416696	0.398619	0.599794	0.143535	0.275900	0.284296	0.214025	0.193567	0.588478	0.605049	0.266824	0.338748	0.588527	0.288549	0.480894	0.184396	0.282354	0.663563	0.259502	0.474695	0.944820	0.226056	0.149586	0.188146	0.413015	0.244495	0.266138	0.228021	0.295337	0.267957	0.179509	0.189313	0.313625	0.519701	0.538922	0.182809	0.376515	0.337214	0.321326	0.126479	0.309343	0.303856	0.332767
39	0.157201	0.275589	0.336378	0.228260	0.130144	0.253025	0.281148	0.625916	0.365413	0.311412	0.237859	0.375815	0.184518	0.232111	0.364375	0.163341	0.801346	0.759015	0.371225	0.262803	0.244393	0.535910	0.441013	0.604278	0.397323	0.403128	0.232586	0.207407	0.181528	0.558481	0.600087	0.266248	0.336726	0.597965	0.342289	0.497815	0.129278	0.238738	0.589553	0.258949	0.488170	0.893543	0.209873	0.144303	0.204685	0.412776	0.254378	0.265194	0.225838	0.282485	0.291637	0.222539	0.194742	0.317759	0.593631	0.577086	0.185380	0.398618	0.365337	0.347080	0.123079	0.282257	0.402373	0.348934
40	0.161444	0.326085	0.325971	0.229023	0.129007	0.230656	0.288351	0.613398	0.326533	0.283940	0.232070	0.366981	0.141708	0.176725	0.358181	0.154515	0.791731	0.759041	0.333715	0.242873	0.246475	0.555335	0.429778	0.597606	0.493517	0.455141	0.149571	0.175658	0.218474	0.637031	0.547471	0.268619	0.380334	0.639068	0.370738	0.540687	0.092305	0.147433	0.427188	0.320211	0.490292	0.893054	0.208139	0.146373	0.213895	0.410323	0.276410	0.264455	0.226960	0.284281	0.282818	0.226493	0.175060	0.299831	0.584800	0.580928	0.296587	0.399761	0.394341	0.378244	0.121194	0.252522	0.477820	0.420590
41	0.179736	0.319252	0.319106	0.236322	0.141017	0.247591	0.323350	0.616221	0.282827	0.175695	0.280400	0.345580	0.146214	0.161200	0.367882	0.156677	0.762432	0.732326	0.358603	0.363129	0.262629	0.702332	0.419856	0.502562	0.512116	0.494135	0.126379	0.147482	0.216316	0.636644	0.526090	0.277300	0.403759	0.638099	0.384764	0.552800	0.086503	0.123590	0.359320	0.329879	0.472075	0.889087	0.247776	0.164947	0.213076	0.395078	0.296332	0.258935	0.226916	0.251139	0.223020	0.254991	0.164109	0.285886	0.571218	0.546720	0.294961	0.318535	0.447555	0.400891	0.146351	0.241212	0.519481	0.474755
42	0.178732	0.327755	0.315684	0.209191	0.155106	0.324683	0.344338	0.573376	0.266964	0.206193	0.295653	0.336236	0.136752	0.146704	0.370198	0.185936	0.698880	0.646318	0.419728	0.427829	0.268478	0.771380	0.419436	0.290384	0.600161	0.549338	0.123847	0.151639	0.210423	0.636177	0.444022	0.250168	0.426819	0.620646	0.385024	0.537393	0.085089	0.122059	0.374244	0.332786	0.460965	0.888582	0.292190	0.212654	0.210168	0.371870	0.301338	0.245132	0.227587	0.249135	0.217646	0.285654	0.121509	0.266676	0.571458	0.516068	0.295291	0.304226	0.452873	0.358824	0.145724	0.251314	0.516571	0.477107
43	0.178552	0.355990	0.315794	0.219871	0.154620	0.332656	0.351694	0.424810	0.218837	0.215042	0.300530	0.338593	0.131265	0.138663	0.379720	0.228505	0.666261	0.634473	0.424216	0.431715	0.273385	0.769947	0.418455	0.272427	0.627492	0.557716	0.103457	0.148479	0.206511	0.642295	0.324598	0.232872	0.418008	0.571451	0.397787	0.554073	0.084724	0.134576	0.386610	0.347720	0.459608	0.871651	0.325898	0.304905	0.203450	0.340096	0.292018	0.219493	0.225701	0.239099	0.227328	0.289155	0.130367	0.270347	0.536097	0.500724	0.293744	0.286768	0.409336	0.334843	0.146762	0.272228	0.504426	0.471343
44	0.219072	0.353029	0.319353	0.295173	0.148411	0.393519	0.318486	0.412218	0.230017	0.211765	0.303851	0.350410	0.119260	0.097130	0.436627	0.222163	0.635495	0.621585	0.416481	0.440357	0.270870	0.771259	0.449160	0.225997	0.638027	0.559820	0.108895	0.146334	0.177727	0.514221	0.176933	0.218804	0.398908	0.535652	0.444882	0.615623	0.084860	0.178280	0.388753	0.342440	0.453356	0.840786	0.336462	0.360183	0.193202	0.305282	0.279635	0.187711	0.165202	0.220820	0.265939	0.396802	0.144907	0.269043	0.499293	0.499525	0.291299	0.274520	0.399763	0.330823	0.161686	0.380079	0.492666	0.453603
45	0.257792	0.359260	0.339773	0.322722	0.201155	0.477155	0.281735	0.291626	0.278607	0.221532	0.304922	0.356032	0.122547	0.089840	0.463043	0.221667	0.415743	0.419535	0.456476	0.531581	0.261012	0.771000	0.511481	0.248262	0.644149	0.568398	0.113553	0.152265	0.163403	0.439696	0.176625	0.206672	0.403215	0.608239	0.461244	0.657691	0.080359	0.198115	0.389574	0.335737	0.453470	0.840717	0.339671	0.422075	0.190857	0.276187	0.269159	0.167168	0.188135	0.376696	0.294554	0.504940	0.219380	0.482306	0.471986	0.458811	0.287781	0.213433	0.431856	0.312073	0.153673	0.396241	0.491235	0.438191
46	0.335494	0.381764	0.336185	0.328567	0.209567	0.494120	0.289661	0.220969	0.278741	0.217980	0.322174	0.401873	0.109892	0.080960	0.402735	0.224136	0.335858	0.318302	0.505649	0.573183	0.264797	0.775576	0.581655	0.255985	0.651597	0.571645	0.275573	0.298682	0.162617	0.387270	0.270796	0.212588	0.411943	0.673466	0.460159	0.672847	0.066876	0.200149	0.356022	0.344100	0.456626	0.844927	0.335544	0.521872	0.190220	0.260119	0.261950	0.148670	0.173595	0.403581	0.281888	0.523084	0.255380	0.554301	0.408751	0.352624	0.295387	0.247448	0.450933	0.318721	0.141678	0.395920	0.491767	0.379003
47	0.363787	0.381041	0.223864	0.327338	0.218632	0.555399	0.288200	0.218304	0.247563	0.203763	0.347547	0.366335	0.115335	0.115753	0.367680	0.260139	0.351102	0.336487	0.540330	0.576233	0.262885	0.769703	0.629338	0.305224	0.539033	0.488666	0.349468	0.592785	0.149719	0.371975	0.314957	0.250468	0.422854	0.689795	0.453593	0.676203	0.075577	0.268181	0.304891	0.322831	0.461727	0.847341	0.328961	0.541951	0.188799	0.156805	0.261293	0.129492	0.179290	0.435933	0.250619	0.507845	0.297466	0.697134	0.283675	0.258212	0.299754	0.284961	0.417432	0.305187	0.199069	0.404590	0.471653	0.377020
48	0.433150	0.409104	0.198856	0.328992	0.218888	0.551584	0.296581	0.219212	0.252798	0.203920	0.366594	0.312532	0.117573	0.113177	0.388890	0.257405	0.354195	0.344140	0.530696	0.577180	0.262585	0.746955	0.612641	0.295483	0.449582	0.400836	0.383339	0.670913	0.106958	0.250352	0.365993	0.370611	0.451467	0.697366	0.451630	0.677065	0.079513	0.304911	0.261256	0.289586	0.461976	0.832765	0.326104	0.586747	0.181566	0.145481	0.264199	0.115749	0.183077	0.442955	0.236506	0.496674	0.307772	0.711266	0.160016	0.148070	0.293842	0.262808	0.396667	0.268952	0.268157	0.414270	0.376067	0.365162
49	0.455422	0.386286	0.186656	0.342459	0.224588	0.550835	0.286110	0.265778	0.260872	0.206587	0.356333	0.311782	0.138999	0.143688	0.397729	0.283922	0.330147	0.332329	0.511116	0.581518	0.207469	0.631561	0.646453	0.329926	0.424254	0.336553	0.393253	0.680584	0.129604	0.283230	0.383427	0.561205	0.453028	0.676676	0.459002	0.673832	0.081281	0.312041	0.245999	0.291026	0.445574	0.736875	0.339816	0.693000	0.161322	0.151428	0.266204	0.108721	0.205231	0.456215	0.235771	0.492190	0.316773	0.742664	0.158236	0.189005	0.168293	0.261658	0.375241	0.220156	0.275282	0.465939	0.261394	0.276334
50	0.513937	0.422412	0.187849	0.360480	0.237934	0.539264	0.275724	0.320870	0.285420	0.193006	0.353315	0.321331	0.142630	0.158704	0.380373	0.288685	0.288715	0.278342	0.504265	0.579260	0.194074	0.575244	0.714673	0.400486	0.287301	0.237078	0.420720	0.725899	0.133858	0.289230	0.380167	0.576776	0.476628	0.645368	0.448761	0.641751	0.090723	0.370959	0.246192	0.214485	0.433703	0.725801	0.372669	0.768562	0.160747	0.155375	0.271328	0.096480	0.231576	0.468251	0.264732	0.525804	0.339107	0.769143	0.194301	0.272146	0.197960	0.296923	0.309052	0.173653	0.263712	0.437361	0.134673	0.146815
51	0.514538	0.401916	0.205707	0.372472	0.238567	0.498887	0.359095	0.322656	0.374798	0.147652	0.364028	0.343857	0.139616	0.167667	0.378700	0.289313	0.283872	0.290826	0.521290	0.578130	0.154288	0.225112	0.743787	0.423612	0.223942	0.216521	0.463780	0.781328	0.164341	0.260606	0.387701	0.596056	0.483034	0.628143	0.406959	0.629212	0.098401	0.420984	0.222954	0.198739	0.326279	0.524345	0.417358	0.808520	0.163288	0.144001	0.280375	0.097788	0.254381	0.491666	0.319557	0.544074	0.334330	0.754997	0.220507	0.300908	0.217979	0.321917	0.277900	0.159689	0.261183	0.446966	0.116807	0.120172
52	0.513982	0.388287	0.216324	0.345951	0.248719	0.487826	0.480042	0.404124	0.393869	0.174345	0.344612	0.341447	0.140466	0.175426	0.368796	0.267937	0.289019	0.423643	0.524530	0.559212	0.148616	0.178900	0.752906	0.428558	0.196026	0.206646	0.498284	0.823777	0.178478	0.254724	0.539367	0.730539	0.487855	0.617480	0.366396	0.657073	0.100474	0.433496	0.164956	0.207352	0.287768	0.438971	0.435858	0.832054	0.139074	0.129344	0.304140	0.180527	0.250241	0.489954	0.296153	0.509372	0.327587	0.750825	0.219055	0.302611	0.224580	0.325531	0.269310	0.158250	0.332565	0.441773	0.108400	0.137725
53	0.497009	0.372130	0.213187	0.285121	0.248984	0.442079	0.514402	0.416904	0.375428	0.167734	0.344497	0.327898	0.151462	0.221114	0.323544	0.260041	0.326921	0.526999	0.499560	0.485315	0.142961	0.202685	0.750162	0.428789	0.174972	0.173478	0.517199	0.851897	0.188515	0.244090	0.600359	0.921528	0.454808	0.580659	0.342671	0.629376	0.126363	0.441052	0.115256	0.185796	0.325006	0.433188	0.433896	0.850524	0.116077	0.128403	0.319430	0.248862	0.237205	0.422569	0.268343	0.389180	0.299020	0.712819	0.284434	0.458025	0.281546	0.405037	0.267201	0.179199	0.398664	0.374905	0.120264	0.133743
54	0.485535	0.371897	0.182422	0.229411	0.206551	0.327303	0.514796	0.417979	0.349928	0.168311	0.339672	0.313081	0.244205	0.353955	0.229004	0.262606	0.329286	0.529891	0.467456	0.470934	0.180517	0.285363	0.709369	0.426083	0.143032	0.176603	0.497616	0.846744	0.187126	0.253129	0.575184	0.972227	0.445764	0.561498	0.326334	0.626586	0.151069	0.454061	0.108964	0.178834	0.371307	0.427834	0.415556	0.856232	0.110750	0.128805	0.315742	0.264667	0.208035	0.304698	0.304375	0.362532	0.277263	0.617134	0.389210	0.816328	0.350263	0.523153	0.209831	0.208096	0.409165	0.389164	0.121269	0.131505
55	0.432877	0.350696	0.138990	0.218640	0.199369	0.263415	0.549288	0.427916	0.355519	0.199169	0.319140	0.249636	0.269987	0.404685	0.200407	0.255250	0.333134	0.552286	0.467722	0.489723	0.186954	0.327212	0.634709	0.412270	0.115836	0.198479	0.458316	0.686149	0.184723	0.243395	0.567603	0.976225	0.469160	0.566237	0.323378	0.662014	0.155149	0.445196	0.105583	0.181787	0.410483	0.446294	0.386840	0.847246	0.127926	0.128399	0.322590	0.325051	0.204471	0.265316	0.310694	0.362566	0.229951	0.493159	0.480855	0.846741	0.345860	0.517786	0.143476	0.196697	0.412555	0.394388	0.131060	0.144968
56	0.412356	0.400025	0.150865	0.217903	0.187763	0.103687	0.619442	0.450325	0.374564	0.253309	0.287978	0.291874	0.290022	0.484004	0.215473	0.232820	0.338010	0.606026	0.441561	0.462545	0.346162	0.496616	0.549875	0.401372	0.116660	0.202472	0.430995	0.602512	0.180600	0.231013	0.540173	0.948349	0.496545	0.568451	0.308375	0.650783	0.157624	0.440670	0.100066	0.182168	0.435920	0.393309	0.367216	0.824290	0.136302	0.130105	0.319680	0.327311	0.216208	0.249243	0.318915	0.393089	0.259731	0.429310	0.497102	0.858099	0.337169	0.516804	0.194588	0.259352	0.398980	0.385737	0.140392	0.153134
57	0.407016	0.568499	0.168913	0.215250	0.185882	0.129275	0.664406	0.477601	0.362320	0.301470	0.324358	0.321652	0.300994	0.479795	0.209637	0.219701	0.343706	0.611678	0.373079	0.331645	0.364034	0.529144	0.523032	0.394968	0.186206	0.219570	0.430494	0.631442	0.168005	0.200341	0.584506	0.936596	0.501254	0.566336	0.247527	0.592451	0.159268	0.406397	0.087099	0.191600	0.511488	0.382139	0.370525	0.807769	0.131308	0.126346	0.326931	0.328949	0.208226	0.232734	0.349113	0.424935	0.278257	0.410333	0.657187	0.977116	0.343050	0.512528	0.265925	0.386391	0.356736	0.379143	0.137623	0.152338
58	0.407703	0.577644	0.176924	0.197695	0.201479	0.140583	0.675234	0.457304	0.353836	0.313561	0.394441	0.406762	0.311432	0.480683	0.185921	0.233355	0.379361	0.593227	0.302145	0.289452	0.378015	0.553376	0.499782	0.442866	0.263957	0.299466	0.425472	0.680513	0.168954	0.179103	0.749572	0.994288	0.497155	0.488783	0.218810	0.533854	0.159790	0.390312	0.081569	0.193032	0.525462	0.381327	0.370149	0.781768	0.129537	0.125769	0.376727	0.336009	0.190945	0.205389	0.395245	0.407929	0.295409	0.411706	0.780871	1.182457	0.382592	0.608711	0.268268	0.496861	0.351572	0.314505	0.142318	0.154411
59	0.358720	0.577409	0.191528	0.158708	0.176456	0.139377	0.662117	0.427099	0.344641	0.316063	0.361525	0.419144	0.307252	0.485185	0.198652	0.398757	0.401409	0.580161	0.239675	0.302851	0.387706	0.574968	0.388950	0.451290	0.315630	0.383315	0.439546	0.686936	0.150925	0.180970	0.803349	1.040795	0.502375	0.380729	0.218953	0.531692	0.162706	0.404177	0.080914	0.219590	0.530420	0.374949	0.375807	0.715757	0.128621	0.131378	0.435156	0.338335	0.145006	0.144805	0.360648	0.375100	0.294651	0.354427	0.774302	1.197827	0.500582	0.671426	0.270411	0.500628	0.353314	0.309038	0.144331	0.162833
60	0.423686	0.571722	0.173538	0.125818	0.233834	0.138656	0.613650	0.405157	0.278352	0.354761	0.346006	0.414492	0.301500	0.479449	0.194451	0.436967	0.399236	0.583370	0.233318	0.359969	0.390522	0.584014	0.279922	0.405168	0.339616	0.424386	0.450352	0.777805	0.159546	0.190084	0.711973	0.935124	0.528926	0.419062	0.218951	0.556879	0.161482	0.360033	0.092605	0.243880	0.525301	0.368665	0.376538	0.693876	0.127452	0.148440	0.451537	0.347399	0.144247	0.118643	0.368652	0.396018	0.294549	0.339476	0.771315	1.195149	0.494755	0.659649	0.275040	0.554563	0.353830	0.280152	0.143565	0.165898
61	0.425430	0.566112	0.153887	0.130879	0.242853	0.134915	0.550274	0.343698	0.270402	0.363575	0.372153	0.432560	0.305235	0.477906	0.187760	0.445543	0.401202	0.586326	0.241821	0.427309	0.397126	0.603841	0.216933	0.382550	0.344954	0.428932	0.455600	0.762216	0.167153	0.177529	0.725485	0.775702	0.515421	0.474753	0.205763	0.574219	0.164809	0.314438	0.099944	0.250810	0.515418	0.366332	0.369896	0.669939	0.122149	0.165169	0.476247	0.346567	0.138397	0.150274	0.377881	0.406356	0.294709	0.339025	0.764037	1.198025	0.490633	0.679175	0.277782	0.574394	0.296300	0.261230	0.144917	0.197592
62	0.520389	0.573951	0.152599	0.130690	0.259736	0.135801	0.535624	0.322405	0.272172	0.360441	0.430325	0.469181	0.325855	0.474874	0.188377	0.439705	0.391639	0.593494	0.352792	0.467508	0.411337	0.629788	0.204165	0.422616	0.344091	0.419561	0.408632	0.743352	0.164856	0.167667	0.816149	0.757373	0.518901	0.489848	0.196744	0.582798	0.227400	0.339985	0.108553	0.300379	0.518128	0.382082	0.347710	0.582715	0.121307	0.164857	0.511823	0.345680	0.135976	0.155737	0.363617	0.387420	0.295419	0.338448	0.730087	1.054251	0.466009	0.645353	0.281515	0.582546	0.174579	0.235085	0.177400	0.247449
63	0.524447	0.583210	0.208977	0.163897	0.256513	0.140192	0.528155	0.328957	0.271728	0.358284	0.461419	0.532585	0.309310	0.420352	0.196951	0.433469	0.388209	0.599108	0.499611	0.516896	0.415691	0.646313	0.207820	0.479900	0.360223	0.408124	0.449524	0.783777	0.182008	0.172047	0.844957	0.757738	0.488090	0.485577	0.206486	0.579369	0.227082	0.330864	0.120117	0.328279	0.551601	0.512237	0.344430	0.497315	0.121458	0.159444	0.535272	0.346389	0.248611	0.171482	0.375199	0.369383	0.280757	0.319305	0.674970	0.912628	0.412234	0.542831	0.295075	0.578237	0.149279	0.152279	0.200345	0.278022
64	0.526057	0.581775	0.319139	0.309348	0.255313	0.140591	0.485708	0.331370	0.259469	0.370319	0.457270	0.522783	0.269795	0.361626	0.200988	0.451752	0.357144	0.497088	0.551754	0.553843	0.406922	0.640478	0.198372	0.501004	0.403926	0.459837	0.508700	0.822660	0.196765	0.168619	0.841878	0.701481	0.477294	0.483643	0.197570	0.537193	0.219306	0.294569	0.127829	0.331705	0.563088	0.627021	0.361829	0.456125	0.121486	0.172563	0.552797	0.346114	0.283793	0.171342	0.400241	0.367209	0.275623	0.299750	0.631587	0.909984	0.411159	0.536394	0.313400	0.577463	0.170899	0.153102	0.199564	0.279540
65	0.540579	0.588142	0.406338	0.353435	0.256843	0.131294	0.390736	0.302499	0.260539	0.332050	0.454991	0.494338	0.225002	0.220125	0.194964	0.482935	0.317787	0.433544	0.549564	0.558389	0.374449	0.620881	0.189160	0.500383	0.377623	0.468544	0.521773	0.804524	0.199180	0.160422	0.806780	0.604234	0.475950	0.489490	0.217941	0.497862	0.225310	0.333592	0.121528	0.338392	0.568489	0.637161	0.348811	0.453126	0.116022	0.170163	0.554588	0.342328	0.297822	0.170507	0.398734	0.324120	0.203272	0.226815	0.602842	0.874307	0.417523	0.517736	0.287196	0.595183	0.215745	0.184287	0.192275	0.267768
66	0.491781	0.437157	0.477285	0.387408	0.258276	0.106949	0.305518	0.257877	0.266337	0.309545	0.440605	0.514694	0.215683	0.152576	0.183960	0.495184	0.316822	0.427277	0.553031	0.602331	0.270321	0.553442	0.171194	0.501823	0.325394	0.428411	0.507456	0.724428	0.195907	0.146111	0.656305	0.484799	0.482495	0.523051	0.240427	0.548681	0.229890	0.350779	0.144214	0.335500	0.625516	0.750548	0.352613	0.443921	0.114640	0.161896	0.540182	0.296964	0.298418	0.172069	0.353428	0.297428	0.183693	0.221063	0.292152	0.602239	0.415932	0.518073	0.240574	0.582154	0.272289	0.184982	0.192794	0.271459
67	0.480944	0.520412	0.488565	0.463323	0.275704	0.253602	0.292695	0.244624	0.275983	0.301646	0.421120	0.448247	0.201670	0.162980	0.192631	0.492742	0.318552	0.391101	0.551348	0.746355	0.245688	0.527995	0.149695	0.537121	0.333657	0.429581	0.448727	0.657475	0.180790	0.133820	0.600235	0.350530	0.494272	0.614406	0.250053	0.598468	0.253128	0.371577	0.171352	0.329860	0.606220	0.817921	0.371287	0.428984	0.114027	0.162785	0.528358	0.256087	0.298529	0.172527	0.346736	0.249016	0.143247	0.215952	0.148571	0.234181	0.395740	0.420957	0.286400	0.488614	0.288135	0.185501	0.203102	0.289648
68	0.471714	0.489398	0.504393	0.465516	0.297472	0.328824	0.317394	0.231223	0.211418	0.292690	0.430610	0.468224	0.184240	0.184654	0.185685	0.454787	0.317682	0.320715	0.582577	0.890812	0.251650	0.580178	0.213865	0.528812	0.317954	0.395695	0.396305	0.476731	0.153869	0.125667	0.583235	0.337064	0.465917	0.656521	0.250811	0.583942	0.293439	0.357947	0.168815	0.327432	0.589814	0.810130	0.373385	0.432838	0.105809	0.188103	0.525965	0.233553	0.299479	0.172704	0.377493	0.236042	0.137478	0.216821	0.148445	0.240296	0.200392	0.257766	0.320449	0.486674	0.313616	0.184620	0.214639	0.298368
69	0.389858	0.529295	0.506711	0.475623	0.307058	0.516278	0.315966	0.207071	0.188989	0.218400	0.426164	0.485637	0.228272	0.171331	0.214383	0.336165	0.309915	0.306435	0.652102	0.984141	0.234627	0.603687	0.231583	0.490966	0.323535	0.412279	0.365913	0.459711	0.135338	0.118252	0.478580	0.279742	0.427251	0.717338	0.258443	0.571049	0.306826	0.340800	0.173199	0.302236	0.643114	0.844332	0.392195	0.437361	0.085878	0.198884	0.516769	0.152830	0.342033	0.190269	0.372363	0.196313	0.137452	0.216487	0.150509	0.244385	0.186725	0.252612	0.362245	0.422555	0.351801	0.176313	0.226560	0.306663
70	0.383366	0.545420	0.512209	0.481367	0.303218	0.527433	0.285580	0.213329	0.191378	0.212701	0.413730	0.468920	0.270162	0.206930	0.218942	0.327620	0.214266	0.312739	0.697383	1.015835	0.236204	0.623053	0.230777	0.508643	0.336205	0.439778	0.366710	0.435816	0.134543	0.127063	0.288739	0.157426	0.445468	0.847635	0.297342	0.591057	0.309819	0.333120	0.169592	0.274534	0.659337	0.910108	0.388143	0.476986	0.107989	0.237651	0.523255	0.150689	0.393514	0.180607	0.367590	0.217439	0.145794	0.226711	0.118380	0.217145	0.194152	0.185232	0.405457	0.392536	0.361301	0.178880	0.223639	0.285983
71	0.266175	0.540624	0.546874	0.550212	0.289985	0.528706	0.276904	0.244367	0.197650	0.220043	0.340509	0.430213	0.297230	0.229377	0.244097	0.320763	0.169851	0.316419	0.727943	1.014935	0.222589	0.603056	0.238307	0.527354	0.332907	0.444356	0.300516	0.336632	0.116159	0.140578	0.189999	0.089647	0.447891	0.863280	0.333446	0.728694	0.341872	0.321055	0.165185	0.266148	0.662012	0.928398	0.380415	0.500609	0.117623	0.253612	0.536188	0.145103	0.388053	0.194355	0.339789	0.245785	0.206244	0.370088	0.108147	0.195730	0.196678	0.151950	0.431612	0.401543	0.363475	0.178429	0.211543	0.241239
72	0.237770	0.524737	0.565458	0.623071	0.303944	0.528138	0.281369	0.240640	0.232027	0.226553	0.335777	0.371171	0.294219	0.234139	0.332016	0.371687	0.177347	0.313816	0.740445	0.993622	0.217487	0.562014	0.263448	0.515701	0.287524	0.491104	0.191238	0.237648	0.092537	0.135221	0.202334	0.089777	0.426704	0.854379	0.346466	0.777696	0.309037	0.272953	0.159404	0.206733	0.656400	0.943370	0.374624	0.507985	0.122760	0.253945	0.507452	0.138062	0.315324	0.197091	0.308459	0.229088	0.224997	0.398033	0.109583	0.168056	0.196544	0.139791	0.446483	0.393164	0.370182	0.178289	0.199753	0.212828
73	0.238227	0.527470	0.586879	0.631008	0.313115	0.528038	0.261560	0.213080	0.301939	0.369900	0.364544	0.387543	0.296574	0.237881	0.355848	0.398637	0.167700	0.297440	0.742404	0.964050	0.207863	0.527991	0.269534	0.486250	0.286355	0.488644	0.132609	0.193320	0.087383	0.137441	0.196691	0.163833	0.405517	0.831622	0.352760	0.757900	0.299643	0.269066	0.155539	0.160176	0.666498	0.968969	0.385418	0.549063	0.125074	0.258820	0.463234	0.122473	0.321752	0.222193	0.293798	0.230882	0.214303	0.404866	0.110852	0.174271	0.194205	0.137853	0.434911	0.391176	0.371633	0.169052	0.194618	0.196788
74	0.222937	0.522306	0.578911	0.614528	0.322728	0.527251	0.312278	0.213356	0.330707	0.498628	0.348203	0.354851	0.299162	0.247653	0.354444	0.369161	0.164903	0.258006	0.681131	0.937875	0.211203	0.518637	0.270352	0.481926	0.296020	0.497309	0.200636	0.183275	0.088245	0.161112	0.207582	0.275641	0.414704	0.793011	0.360446	0.757377	0.295792	0.261445	0.170505	0.161725	0.666640	0.987632	0.392808	0.617150	0.128688	0.255627	0.451391	0.097446	0.348679	0.340883	0.291692	0.242058	0.211368	0.387142	0.149824	0.189170	0.179398	0.124544	0.438407	0.340419	0.359470	0.133631	0.199497	0.198354
75	0.243706	0.538618	0.516612	0.612656	0.334600	0.526988	0.367238	0.285573	0.330687	0.543393	0.297657	0.302946	0.304581	0.251588	0.355877	0.337776	0.165084	0.204416	0.577255	0.912028	0.217380	0.496537	0.272662	0.482805	0.224104	0.433326	0.281840	0.200150	0.108284	0.166520	0.230472	0.393149	0.423063	0.784957	0.356868	0.788083	0.288179	0.204944	0.178687	0.162581	0.701906	0.994991	0.396661	0.655370	0.130320	0.267780	0.422945	0.097943	0.355051	0.358771	0.267525	0.245694	0.198321	0.366126	0.216107	0.199971	0.205715	0.237966	0.429204	0.225575	0.314669	0.123688	0.238215	0.202076
76	0.224211	0.445012	0.488958	0.556128	0.301323	0.459047	0.368410	0.295262	0.323466	0.607708	0.283786	0.303252	0.313437	0.253232	0.351827	0.327158	0.160534	0.180687	0.549679	0.893327	0.265507	0.468929	0.279833	0.461540	0.210622	0.425325	0.349106	0.258938	0.150425	0.179722	0.302208	0.400789	0.426969	0.784490	0.366455	0.849559	0.284472	0.175214	0.163068	0.162431	0.774846	0.942744	0.385884	0.688937	0.162453	0.270669	0.375620	0.102928	0.367765	0.445278	0.209175	0.236300	0.199201	0.370184	0.227466	0.178897	0.333956	0.393449	0.394276	0.216768	0.298629	0.116984	0.242119	0.176841
77	0.257334	0.467100	0.464526	0.546036	0.287425	0.417314	0.350879	0.298262	0.321947	0.607140	0.272878	0.248805	0.319078	0.253723	0.348709	0.323664	0.156107	0.176124	0.547110	0.913342	0.259564	0.453945	0.280418	0.395861	0.203003	0.415046	0.359186	0.275830	0.146418	0.178271	0.394088	0.428905	0.428531	0.783841	0.396675	0.932649	0.266647	0.123757	0.146436	0.160663	0.791646	0.852577	0.317250	0.702174	0.204812	0.271821	0.332901	0.118280	0.366583	0.466277	0.176228	0.235290	0.213608	0.390400	0.217419	0.148567	0.360489	0.469827	0.387723	0.235700	0.273692	0.114604	0.230304	0.149786
78	0.252458	0.447348	0.462664	0.537063	0.214311	0.121045	0.328686	0.298991	0.324269	0.606720	0.263035	0.226105	0.308903	0.237969	0.336286	0.300177	0.161055	0.173641	0.540826	0.871348	0.244458	0.339697	0.222366	0.386851	0.189390	0.390731	0.383803	0.318450	0.150075	0.173873	0.412567	0.431394	0.426428	0.781976	0.426955	0.969991	0.222819	0.137714	0.143582	0.164568	0.792580	0.837734	0.298520	0.680878	0.278675	0.276854	0.297854	0.134776	0.277261	0.465882	0.188636	0.289242	0.268328	0.390743	0.227013	0.141729	0.417684	0.566595	0.423181	0.306740	0.229841	0.111636	0.219158	0.133274
79	0.292870	0.467219	0.459225	0.534751	0.218615	0.103638	0.314965	0.280676	0.324675	0.605287	0.319925	0.227909	0.287544	0.233578	0.321998	0.286415	0.144155	0.172198	0.545125	0.736968	0.262396	0.274418	0.216136	0.378008	0.198432	0.386704	0.402987	0.370863	0.156175	0.160319	0.413704	0.445048	0.418415	0.763802	0.426052	0.946611	0.203772	0.132485	0.141603	0.169408	0.731882	0.740128	0.294014	0.721041	0.371180	0.321816	0.287521	0.142442	0.276636	0.468455	0.203223	0.330317	0.279298	0.354857	0.259769	0.166602	0.450196	0.574755	0.422464	0.371473	0.215873	0.108958	0.217552	0.123188
80	0.294700	0.484857	0.424696	0.481538	0.218334	0.101457	0.331307	0.260683	0.358088	0.632541	0.358040	0.236559	0.222575	0.189229	0.322004	0.286491	0.201044	0.193675	0.496022	0.596115	0.265314	0.236407	0.218992	0.338601	0.190819	0.248012	0.401814	0.367448	0.157265	0.159075	0.399685	0.444442	0.395281	0.686704	0.420953	0.925206	0.195815	0.130585	0.155573	0.168920	0.720572	0.655452	0.265968	0.773507	0.376114	0.342468	0.302854	0.162573	0.282956	0.464172	0.201832	0.320126	0.270716	0.266827	0.267145	0.183367	0.449918	0.577783	0.428990	0.363557	0.221256	0.115510	0.203108	0.130318
81	0.290416	0.493777	0.382239	0.382087	0.225621	0.106148	0.320348	0.256654	0.346390	0.631027	0.332776	0.222936	0.197168	0.205580	0.273112	0.260922	0.288581	0.197626	0.407176	0.467244	0.251920	0.228698	0.198143	0.291955	0.190062	0.217822	0.436835	0.368382	0.158381	0.157148	0.384569	0.428236	0.390188	0.635843	0.450364	0.970759	0.137255	0.138320	0.189462	0.168709	0.709628	0.646416	0.272720	0.787166	0.446113	0.355712	0.324582	0.197198	0.281121	0.477796	0.199189	0.344841	0.251331	0.249267	0.264884	0.182863	0.455649	0.585830	0.410082	0.366186	0.211680	0.108765	0.205253	0.165889
82	0.292880	0.537434	0.304138	0.267288	0.217179	0.110346	0.320550	0.265255	0.249190	0.497141	0.310609	0.205220	0.170393	0.257330	0.175544	0.191156	0.294663	0.187794	0.325859	0.436185	0.241079	0.222203	0.170014	0.241068	0.175007	0.209093	0.451444	0.370592	0.155631	0.138652	0.373110	0.338580	0.403162	0.584196	0.524359	1.068144	0.170771	0.233739	0.200964	0.157429	0.648047	0.600761	0.254339	0.788644	0.499011	0.365480	0.320811	0.213550	0.248783	0.474807	0.184215	0.367370	0.251901	0.248759	0.260965	0.174456	0.458705	0.587904	0.408585	0.374401	0.185118	0.097155	0.256141	0.222176
83	0.294382	0.532490	0.105000	0.194971	0.212085	0.124757	0.261864	0.265138	0.233634	0.428545	0.309053	0.218314	0.158976	0.261562	0.163613	0.156363	0.297857	0.179861	0.264489	0.492677	0.233717	0.212442	0.171761	0.222467	0.172910	0.206242	0.434752	0.366675	0.131611	0.125271	0.359767	0.255031	0.369355	0.348607	0.577900	1.180706	0.186576	0.246892	0.200845	0.143257	0.570785	0.488435	0.232609	0.758228	0.515753	0.368265	0.315977	0.222121	0.225347	0.425744	0.205161	0.351541	0.251739	0.248572	0.218519	0.154933	0.465013	0.593940	0.449243	0.371136	0.139592	0.098968	0.274497	0.229392
84	0.292411	0.503954	0.084038	0.176029	0.192041	0.129996	0.192159	0.177229	0.263713	0.380890	0.330332	0.248486	0.188916	0.264332	0.161517	0.176018	0.309974	0.168122	0.234583	0.534943	0.229885	0.209865	0.200378	0.247482	0.214094	0.366741	0.423123	0.327284	0.093077	0.105143	0.276561	0.250530	0.367506	0.287128	0.583161	1.194095	0.257997	0.335720	0.182303	0.155815	0.553913	0.443078	0.264378	0.741909	0.520192	0.345002	0.306125	0.239582	0.242256	0.433372	0.224865	0.350208	0.251392	0.247343	0.193941	0.148041	0.453603	0.564622	0.599251	0.410113	0.140012	0.094017	0.277476	0.239569
85	0.301096	0.496398	0.085045	0.146296	0.188680	0.148951	0.193276	0.171656	0.359153	0.482295	0.342377	0.256832	0.185593	0.264563	0.158081	0.175085	0.329366	0.171301	0.233563	0.539671	0.186927	0.141755	0.210178	0.254109	0.280886	0.610495	0.413314	0.303847	0.096422	0.115091	0.162358	0.208671	0.385963	0.277096	0.576334	1.163128	0.276079	0.352003	0.177995	0.133437	0.553326	0.407216	0.371708	0.764857	0.519701	0.338020	0.278547	0.251565	0.232217	0.380075	0.214880	0.364181	0.245567	0.194141	0.222210	0.160434	0.362400	0.466385	0.712353	0.421210	0.135824	0.094272	0.307347	0.245641
86	0.302766	0.436235	0.104518	0.145841	0.188753	0.169580	0.222054	0.162368	0.420051	0.583545	0.341399	0.239252	0.162044	0.252305	0.133919	0.185917	0.339243	0.173732	0.293891	0.563730	0.134301	0.110957	0.182365	0.229288	0.310720	0.687734	0.396882	0.364424	0.089742	0.139350	0.129367	0.203974	0.397886	0.260897	0.589215	1.163051	0.275880	0.353469	0.237300	0.116021	0.541829	0.351250	0.406080	0.754085	0.522563	0.335747	0.267673	0.246410	0.234753	0.375641	0.198196	0.407152	0.216202	0.202411	0.290978	0.214913	0.318168	0.389631	0.718149	0.413105	0.136003	0.087668	0.317841	0.246147
87	0.328932	0.389591	0.339170	0.146103	0.182833	0.179811	0.220474	0.149452	0.496571	0.692591	0.326077	0.230713	0.162897	0.255999	0.125442	0.187888	0.351072	0.186862	0.467705	0.566706	0.147220	0.114916	0.175521	0.185936	0.306111	0.761046	0.446511	0.404012	0.086334	0.158062	0.128357	0.188573	0.385116	0.237961	0.625974	1.168387	0.270810	0.349418	0.242970	0.112044	0.546633	0.296789	0.415703	0.719238	0.534889	0.330460	0.268028	0.249075	0.225531	0.375848	0.185964	0.377320	0.190299	0.212953	0.411871	0.238441	0.255379	0.207562	0.708144	0.370552	0.105583	0.069138	0.318993	0.242632
88	0.330772	0.335082	0.618159	0.139739	0.168833	0.173968	0.213857	0.149921	0.510140	0.698579	0.244189	0.268126	0.170627	0.278995	0.147872	0.185203	0.357812	0.189497	0.557520	0.555572	0.143633	0.160936	0.175954	0.165960	0.309743	0.759419	0.517065	0.453425	0.095534	0.167209	0.142663	0.185046	0.361719	0.215288	0.669287	1.163974	0.274618	0.341388	0.261264	0.104960	0.516012	0.263077	0.415761	0.675569	0.544818	0.322560	0.262009	0.253135	0.203156	0.364894	0.187210	0.450166	0.123627	0.197149	0.423516	0.267384	0.214928	0.185997	0.826940	0.361576	0.097826	0.064087	0.347528	0.242297
89	0.358869	0.285951	0.710280	0.241256	0.153794	0.175716	0.181467	0.157383	0.482426	0.680242	0.237465	0.324404	0.166042	0.280334	0.171699	0.183876	0.367452	0.189993	0.583174	0.515708	0.096762	0.164646	0.177910	0.161349	0.310553	0.761103	0.501677	0.510145	0.118495	0.173995	0.210362	0.187683	0.413978	0.235026	0.687240	1.154527	0.272994	0.339783	0.300832	0.097398	0.351779	0.241612	0.405606	0.621473	0.559439	0.307283	0.253704	0.261072	0.197672	0.375731	0.203012	0.479546	0.137609	0.176420	0.446721	0.265449	0.224254	0.179546	0.960006	0.482659	0.075902	0.052313	0.357098	0.238728
90	0.380120	0.300801	0.723042	0.277350	0.128685	0.189089	0.189839	0.164478	0.489824	0.755521	0.301618	0.367312	0.158493	0.279056	0.180880	0.185030	0.378419	0.191897	0.581650	0.492977	0.112157	0.166464	0.189145	0.183770	0.331670	0.758814	0.482433	0.529279	0.119212	0.180217	0.265205	0.215727	0.469959	0.250764	0.672325	1.101754	0.273789	0.340611	0.301445	0.106977	0.268359	0.237280	0.404566	0.585981	0.553573	0.312675	0.246541	0.322623	0.183562	0.317335	0.219492	0.495156	0.156029	0.166759	0.510591	0.269327	0.207181	0.151818	1.046038	0.541639	0.070916	0.053371	0.345725	0.208710
91	0.404638	0.227307	0.835895	0.300659	0.122707	0.201632	0.245188	0.167149	0.485585	0.791645	0.304171	0.422039	0.159640	0.231228	0.195039	0.176606	0.383062	0.180008	0.623959	0.478512	0.122532	0.166102	0.200689	0.210201	0.356280	0.775526	0.468010	0.554386	0.118364	0.189133	0.288103	0.208254	0.474816	0.248931	0.650073	1.058411	0.268558	0.336001	0.286525	0.110156	0.224379	0.219425	0.403577	0.592632	0.549685	0.317779	0.239301	0.385454	0.179474	0.312091	0.220343	0.500858	0.154631	0.172754	0.541247	0.273931	0.209410	0.146396	1.075147	0.538300	0.072462	0.064655	0.312300	0.142957
92	0.455961	0.259992	0.954219	0.314635	0.100614	0.193978	0.290727	0.225226	0.479802	0.787307	0.306961	0.418363	0.158669	0.205631	0.210612	0.167316	0.337388	0.151443	0.793249	0.446398	0.122569	0.166186	0.204888	0.210721	0.407758	0.724681	0.432531	0.557950	0.137777	0.209828	0.299167	0.200396	0.499195	0.247517	0.645218	1.058630	0.242260	0.279395	0.290333	0.137532	0.215453	0.225641	0.402806	0.531324	0.543037	0.304013	0.241279	0.386040	0.121776	0.285946	0.186689	0.501656	0.156364	0.175328	0.585351	0.288889	0.203613	0.121132	1.062624	0.538190	0.058703	0.060781	0.289874	0.126341
93	0.477684	0.257874	0.986324	0.344222	0.110134	0.192159	0.297772	0.257041	0.448970	0.747647	0.263913	0.405695	0.149703	0.181015	0.214030	0.156485	0.282001	0.148119	0.942973	0.448690	0.121301	0.163475	0.251637	0.248857	0.438852	0.644407	0.430400	0.585422	0.136751	0.202388	0.335041	0.195896	0.500522	0.237513	0.700657	1.050731	0.238233	0.272448	0.291649	0.139944	0.213065	0.226732	0.403448	0.444890	0.527934	0.250838	0.239525	0.405352	0.099661	0.242748	0.188992	0.503491	0.156179	0.168014	0.617116	0.313413	0.213053	0.115005	0.987963	0.514426	0.056238	0.060133	0.263091	0.087969
94	0.490896	0.239899	0.991195	0.352986	0.112552	0.182894	0.305437	0.254499	0.385431	0.679314	0.263319	0.404103	0.094847	0.176580	0.212018	0.143113	0.280614	0.148379	0.988837	0.436494	0.122021	0.154202	0.259335	0.268315	0.415399	0.566775	0.418521	0.534740	0.136989	0.186012	0.345190	0.191799	0.483239	0.220935	0.757084	0.998123	0.159790	0.151289	0.300188	0.124560	0.222943	0.242360	0.427671	0.429441	0.526312	0.233657	0.215834	0.432245	0.075787	0.198086	0.257162	0.464503	0.140411	0.150179	0.617492	0.308372	0.217610	0.114309	0.906011	0.503554	0.137024	0.072016	0.206352	0.059807
95	0.483489	0.233569	0.991470	0.376478	0.108148	0.177340	0.322957	0.264829	0.321535	0.532514	0.284046	0.410984	0.094076	0.176537	0.208915	0.139465	0.280922	0.147003	1.002101	0.383618	0.132334	0.148951	0.279590	0.270355	0.402983	0.459538	0.344262	0.491336	0.131723	0.167788	0.375980	0.210201	0.461568	0.211216	0.730108	0.887164	0.126396	0.104148	0.312862	0.155625	0.228804	0.255911	0.483629	0.431171	0.506411	0.227402	0.178055	0.446237	0.067718	0.193862	0.269465	0.436280	0.131653	0.139194	0.554929	0.266949	0.217148	0.111574	0.892364	0.500889	0.278971	0.112989	0.190559	0.058513
96	0.469116	0.235704	0.964769	0.445359	0.139675	0.207783	0.332679	0.267760	0.318275	0.481211	0.290603	0.446541	0.095200	0.177229	0.205669	0.123491	0.269706	0.137358	0.999413	0.427621	0.134280	0.168109	0.312372	0.338507	0.401473	0.459565	0.223716	0.461117	0.121636	0.161391	0.401913	0.258431	0.461034	0.204314	0.669823	0.716053	0.128926	0.113570	0.274153	0.162986	0.212676	0.256359	0.561703	0.433382	0.593894	0.245449	0.159330	0.444688	0.062823	0.173139	0.269952	0.359016	0.115906	0.132942	0.487393	0.200484	0.217793	0.111362	0.876670	0.509334	0.320883	0.118582	0.200409	0.067443
97	0.452361	0.246464	0.817082	0.474235	0.159401	0.230341	0.339388	0.265338	0.295613	0.457884	0.352752	0.406665	0.062808	0.119235	0.202955	0.141288	0.257108	0.120264	0.994833	0.438375	0.131020	0.163682	0.309694	0.415232	0.445203	0.464784	0.190647	0.417285	0.121666	0.152875	0.364808	0.255216	0.470826	0.203769	0.649744	0.572103	0.128779	0.136452	0.275115	0.167737	0.194990	0.251605	0.608841	0.442173	0.613382	0.247496	0.143290	0.458392	0.055521	0.155896	0.254469	0.261792	0.119011	0.148376	0.484375	0.179370	0.177595	0.087699	0.754178	0.499231	0.358677	0.131191	0.174262	0.073441
98	0.490496	0.274563	0.737771	0.450557	0.156476	0.224677	0.345297	0.269272	0.298797	0.457523	0.387516	0.377302	0.051549	0.097393	0.185924	0.145945	0.248440	0.108518	0.968233	0.432925	0.132691	0.122852	0.324694	0.418595	0.434649	0.457843	0.131395	0.386503	0.122670	0.134747	0.334220	0.234437	0.535323	0.213186	0.692093	0.568898	0.119340	0.145836	0.272181	0.198267	0.202000	0.265971	0.602158	0.431395	0.606615	0.243886	0.121090	0.466644	0.048034	0.125786	0.272791	0.256263	0.117636	0.232094	0.437585	0.180354	0.157246	0.081898	0.563904	0.371450	0.408472	0.140144	0.151940	0.081288
99	0.528345	0.300034	0.726306	0.413403	0.149215	0.220648	0.343980	0.261922	0.294951	0.274940	0.360441	0.319041	0.055655	0.097575	0.174227	0.138357	0.226127	0.102961	0.895716	0.474029	0.164750	0.156123	0.381857	0.438921	0.416037	0.427684	0.082551	0.351074	0.119821	0.116368	0.322079	0.235069	0.747151	0.288820	0.762438	0.577515	0.122543	0.157691	0.225451	0.207571	0.199311	0.282023	0.579751	0.402760	0.606672	0.245102	0.097920	0.462257	0.042194	0.057430	0.449509	0.329226	0.137764	0.254107	0.393555	0.178270	0.173500	0.088187	0.373837	0.256841	0.437700	0.142456	0.151124	0.082482
100	0.519360	0.291273	0.641929	0.392900	0.149404	0.207598	0.327878	0.252417	0.357949	0.229455	0.462906	0.287567	0.055718	0.097501	0.184231	0.144444	0.241969	0.113128	0.856273	0.477105	0.166749	0.164577	0.394659	0.430997	0.344027	0.412674	0.090830	0.350139	0.098470	0.062462	0.306184	0.252287	0.851236	0.364787	0.812236	0.551711	0.118631	0.158131	0.214667	0.202910	0.184051	0.270668	0.566811	0.459396	0.634369	0.258252	0.088321	0.469000	0.038671	0.060283	0.636406	0.341544	0.147379	0.254057	0.341844	0.188157	0.202596	0.136209	0.295478	0.284620	0.448601	0.139416	0.149398	0.083284
101	0.525811	0.267952	0.422126	0.377267	0.148463	0.220702	0.294603	0.186937	0.449079	0.338224	0.506474	0.307529	0.053995	0.094057	0.165863	0.140946	0.239361	0.113984	0.856220	0.481328	0.164133	0.174960	0.402682	0.433080	0.243195	0.224244	0.090022	0.310106	0.100955	0.071185	0.273009	0.257582	0.865578	0.370269	0.810642	0.514569	0.118448	0.160761	0.209797	0.202337	0.166073	0.261536	0.562966	0.459097	0.674262	0.267455	0.093930	0.495572	0.060381	0.069884	0.662701	0.349337	0.176374	0.252654	0.260775	0.154200	0.267490	0.193252	0.299783	0.297743	0.449752	0.154501	0.157728	0.094945
