	105_P_T1_sh_R_D_A_01.c3d	105_P_T1_sh_R_D_A_01.c3d	105_P_T1_sh_R_D_A_01.c3d	105_P_T1_sh_R_D_A_01.c3d	105_P_T1_sh_R_D_A_01.c3d	105_P_T1_sh_R_D_A_01.c3d	105_P_T1_sh_R_D_A_01.c3d	105_P_T1_sh_R_D_A_01.c3d	105_P_T1_sh_R_D_A_02.c3d	105_P_T1_sh_R_D_A_02.c3d	105_P_T1_sh_R_D_A_02.c3d	105_P_T1_sh_R_D_A_02.c3d	105_P_T1_sh_R_D_A_02.c3d	105_P_T1_sh_R_D_A_02.c3d	105_P_T1_sh_R_D_A_02.c3d	105_P_T1_sh_R_D_A_02.c3d	105_P_T1_sh_R_D_A_03.c3d	105_P_T1_sh_R_D_A_03.c3d	105_P_T1_sh_R_D_A_03.c3d	105_P_T1_sh_R_D_A_03.c3d	105_P_T1_sh_R_D_A_03.c3d	105_P_T1_sh_R_D_A_03.c3d	105_P_T1_sh_R_D_A_03.c3d	105_P_T1_sh_R_D_A_03.c3d	105_P_T1_sh_R_D_A_04.c3d	105_P_T1_sh_R_D_A_04.c3d	105_P_T1_sh_R_D_A_04.c3d	105_P_T1_sh_R_D_A_04.c3d	105_P_T1_sh_R_D_A_04.c3d	105_P_T1_sh_R_D_A_04.c3d	105_P_T1_sh_R_D_A_04.c3d	105_P_T1_sh_R_D_A_04.c3d	105_P_T1_sh_R_D_A_05.c3d	105_P_T1_sh_R_D_A_05.c3d	105_P_T1_sh_R_D_A_05.c3d	105_P_T1_sh_R_D_A_05.c3d	105_P_T1_sh_R_D_A_05.c3d	105_P_T1_sh_R_D_A_05.c3d	105_P_T1_sh_R_D_A_05.c3d	105_P_T1_sh_R_D_A_05.c3d	105_P_T1_sh_R_D_A_06.c3d	105_P_T1_sh_R_D_A_06.c3d	105_P_T1_sh_R_D_A_06.c3d	105_P_T1_sh_R_D_A_06.c3d	105_P_T1_sh_R_D_A_06.c3d	105_P_T1_sh_R_D_A_06.c3d	105_P_T1_sh_R_D_A_06.c3d	105_P_T1_sh_R_D_A_06.c3d	105_P_T1_sh_R_D_A_07.c3d	105_P_T1_sh_R_D_A_07.c3d	105_P_T1_sh_R_D_A_07.c3d	105_P_T1_sh_R_D_A_07.c3d	105_P_T1_sh_R_D_A_07.c3d	105_P_T1_sh_R_D_A_07.c3d	105_P_T1_sh_R_D_A_07.c3d	105_P_T1_sh_R_D_A_07.c3d	105_P_T1_sh_R_D_A_08.c3d	105_P_T1_sh_R_D_A_08.c3d	105_P_T1_sh_R_D_A_08.c3d	105_P_T1_sh_R_D_A_08.c3d	105_P_T1_sh_R_D_A_08.c3d	105_P_T1_sh_R_D_A_08.c3d	105_P_T1_sh_R_D_A_08.c3d	105_P_T1_sh_R_D_A_08.c3d	105_P_T1_sh_R_D_A_09.c3d	105_P_T1_sh_R_D_A_09.c3d	105_P_T1_sh_R_D_A_09.c3d	105_P_T1_sh_R_D_A_09.c3d	105_P_T1_sh_R_D_A_09.c3d	105_P_T1_sh_R_D_A_09.c3d	105_P_T1_sh_R_D_A_09.c3d	105_P_T1_sh_R_D_A_09.c3d
	Biceps femoris_lat	Semitendinosus_lat	Vastus lateralis_lat	Vastus medialis_lat	Biceps femoris_med	Semitendinosus_med	Vastus lateralis_med	Vastus medialis_med	Biceps femoris_lat	Semitendinosus_lat	Vastus lateralis_lat	Vastus medialis_lat	Biceps femoris_med	Semitendinosus_med	Vastus lateralis_med	Vastus medialis_med	Biceps femoris_lat	Semitendinosus_lat	Vastus lateralis_lat	Vastus medialis_lat	Biceps femoris_med	Semitendinosus_med	Vastus lateralis_med	Vastus medialis_med	Biceps femoris_lat	Semitendinosus_lat	Vastus lateralis_lat	Vastus medialis_lat	Biceps femoris_med	Semitendinosus_med	Vastus lateralis_med	Vastus medialis_med	Biceps femoris_lat	Semitendinosus_lat	Vastus lateralis_lat	Vastus medialis_lat	Biceps femoris_med	Semitendinosus_med	Vastus lateralis_med	Vastus medialis_med	Biceps femoris_lat	Semitendinosus_lat	Vastus lateralis_lat	Vastus medialis_lat	Biceps femoris_med	Semitendinosus_med	Vastus lateralis_med	Vastus medialis_med	Biceps femoris_lat	Semitendinosus_lat	Vastus lateralis_lat	Vastus medialis_lat	Biceps femoris_med	Semitendinosus_med	Vastus lateralis_med	Vastus medialis_med	Biceps femoris_lat	Semitendinosus_lat	Vastus lateralis_lat	Vastus medialis_lat	Biceps femoris_med	Semitendinosus_med	Vastus lateralis_med	Vastus medialis_med	Biceps femoris_lat	Semitendinosus_lat	Vastus lateralis_lat	Vastus medialis_lat	Biceps femoris_med	Semitendinosus_med	Vastus lateralis_med	Vastus medialis_med
	P2D	P2D	P2D	P2D	P2D	P2D	P2D	P2D	P2D	P2D	P2D	P2D	P2D	P2D	P2D	P2D	P2D	P2D	P2D	P2D	P2D	P2D	P2D	P2D	P2D	P2D	P2D	P2D	P2D	P2D	P2D	P2D	P2D	P2D	P2D	P2D	P2D	P2D	P2D	P2D	P2D	P2D	P2D	P2D	P2D	P2D	P2D	P2D	P2D	P2D	P2D	P2D	P2D	P2D	P2D	P2D	P2D	P2D	P2D	P2D	P2D	P2D	P2D	P2D	P2D	P2D	P2D	P2D	P2D	P2D	P2D	P2D
	EMG_lat	EMG_lat	EMG_lat	EMG_lat	EMG_med	EMG_med	EMG_med	EMG_med	EMG_lat	EMG_lat	EMG_lat	EMG_lat	EMG_med	EMG_med	EMG_med	EMG_med	EMG_lat	EMG_lat	EMG_lat	EMG_lat	EMG_med	EMG_med	EMG_med	EMG_med	EMG_lat	EMG_lat	EMG_lat	EMG_lat	EMG_med	EMG_med	EMG_med	EMG_med	EMG_lat	EMG_lat	EMG_lat	EMG_lat	EMG_med	EMG_med	EMG_med	EMG_med	EMG_lat	EMG_lat	EMG_lat	EMG_lat	EMG_med	EMG_med	EMG_med	EMG_med	EMG_lat	EMG_lat	EMG_lat	EMG_lat	EMG_med	EMG_med	EMG_med	EMG_med	EMG_lat	EMG_lat	EMG_lat	EMG_lat	EMG_med	EMG_med	EMG_med	EMG_med	EMG_lat	EMG_lat	EMG_lat	EMG_lat	EMG_med	EMG_med	EMG_med	EMG_med
ITEM	Y	Y	Y	Y	Y	Y	Y	Y	Y	Y	Y	Y	Y	Y	Y	Y	Y	Y	Y	Y	Y	Y	Y	Y	Y	Y	Y	Y	Y	Y	Y	Y	Y	Y	Y	Y	Y	Y	Y	Y	Y	Y	Y	Y	Y	Y	Y	Y	Y	Y	Y	Y	Y	Y	Y	Y	Y	Y	Y	Y	Y	Y	Y	Y	Y	Y	Y	Y	Y	Y	Y	Y
1	0.079071	0.259934	0.255130	0.342267	0.585910	0.532569	0.236774	0.221604	0.447220	0.612079	0.132471	0.226025	0.368333	0.279480	0.153687	0.172076	0.241139	0.158727	0.261935	0.123883	0.370418	0.281997	0.219341	0.103766	0.232178	0.437147	0.320408	0.464826	0.262470	0.262012	0.181169	0.119996	0.634899	0.803878	0.253330	0.250066	0.309584	0.283664	0.312674	0.156969	0.218026	0.389517	0.268308	0.376572	0.150563	0.082210	0.366972	0.182260	0.220051	0.316765	0.174756	0.612185	0.223794	0.336801	0.351999	0.156145	0.336014	0.582321	0.118993	0.306243	0.275596	0.192494	0.234518	0.158707	0.558373	0.727791	0.312301	0.480672	0.269488	0.197501	0.376436	0.200578
2	0.105222	0.252905	0.279290	0.352911	0.565166	0.526265	0.252531	0.222476	0.427914	0.606326	0.233756	0.277170	0.360721	0.288812	0.158999	0.175636	0.184293	0.155750	0.163549	0.094890	0.362018	0.279525	0.230867	0.107748	0.197587	0.413428	0.303947	0.457679	0.263302	0.264388	0.175343	0.134745	0.674281	0.901055	0.254491	0.243900	0.320054	0.261548	0.311132	0.158795	0.189160	0.330160	0.271383	0.405336	0.154033	0.114025	0.364722	0.179304	0.240539	0.315736	0.192493	0.606635	0.234774	0.333811	0.381778	0.166709	0.389453	0.571325	0.106293	0.336820	0.225587	0.196559	0.224674	0.163115	0.585230	0.750532	0.306341	0.480684	0.269335	0.198853	0.379710	0.202501
3	0.116485	0.190187	0.374302	0.324155	0.473307	0.480600	0.236957	0.233785	0.375016	0.579277	0.272105	0.280032	0.352317	0.307520	0.154612	0.173406	0.185766	0.156963	0.137034	0.115678	0.350043	0.282471	0.218922	0.114611	0.200091	0.414643	0.282274	0.398453	0.257094	0.275554	0.184514	0.136338	0.669535	0.941351	0.252342	0.225578	0.321402	0.223582	0.325874	0.150258	0.168488	0.292716	0.277076	0.414636	0.142879	0.119301	0.351541	0.174244	0.303567	0.321618	0.195837	0.457626	0.244025	0.351335	0.412071	0.153243	0.386707	0.567604	0.110012	0.356257	0.222149	0.198827	0.193519	0.208825	0.596829	0.765803	0.343732	0.500693	0.268028	0.198012	0.404469	0.192816
4	0.114978	0.166578	0.423895	0.260854	0.436411	0.463502	0.214545	0.229300	0.396293	0.551101	0.299672	0.291382	0.346715	0.325513	0.151339	0.187181	0.185402	0.168480	0.130868	0.183223	0.357384	0.297265	0.222660	0.106216	0.194183	0.407735	0.289587	0.382897	0.255887	0.317426	0.192409	0.133005	0.634696	0.926454	0.254829	0.228449	0.298753	0.166238	0.341261	0.138814	0.208998	0.309021	0.282067	0.513025	0.134281	0.140905	0.335731	0.168030	0.415687	0.391279	0.202228	0.423333	0.223943	0.338121	0.407381	0.138231	0.377514	0.561127	0.118892	0.353746	0.217175	0.202818	0.178284	0.212091	0.595210	0.767241	0.371854	0.512144	0.255846	0.197784	0.406977	0.175634
5	0.121198	0.134794	0.427410	0.262131	0.437640	0.480227	0.219221	0.182270	0.374651	0.513061	0.316950	0.313351	0.309175	0.333519	0.150631	0.172466	0.157316	0.168697	0.143580	0.199304	0.361382	0.315176	0.209735	0.093539	0.170156	0.387902	0.308994	0.320124	0.255564	0.391951	0.191372	0.124546	0.573098	0.889744	0.253314	0.245926	0.236770	0.176959	0.347438	0.146421	0.245707	0.282843	0.286842	0.516978	0.147063	0.156269	0.329320	0.144302	0.544570	0.392127	0.226745	0.401696	0.236734	0.300795	0.416402	0.122922	0.366360	0.500663	0.103208	0.273862	0.213123	0.214729	0.175283	0.208948	0.590320	0.715566	0.368872	0.560855	0.219887	0.203462	0.383600	0.161399
6	0.126000	0.140105	0.411649	0.218935	0.435125	0.479333	0.221710	0.160789	0.344295	0.508124	0.315309	0.335910	0.236507	0.325131	0.149960	0.157643	0.154430	0.165488	0.179112	0.197022	0.384434	0.308692	0.198116	0.097797	0.201577	0.396280	0.304622	0.277621	0.284356	0.454236	0.198850	0.121433	0.566894	0.866449	0.276594	0.248733	0.195881	0.250093	0.336492	0.141416	0.242833	0.258270	0.322184	0.518659	0.199311	0.188636	0.336504	0.139061	0.541059	0.404153	0.224656	0.318283	0.239300	0.286899	0.427152	0.127155	0.397961	0.452963	0.105946	0.267563	0.211170	0.205310	0.159763	0.204203	0.661627	0.618429	0.338581	0.583529	0.230397	0.235793	0.373042	0.173195
7	0.125885	0.150296	0.404798	0.223245	0.418417	0.451973	0.238569	0.180723	0.259158	0.490601	0.310582	0.339289	0.215803	0.297315	0.152364	0.160701	0.150789	0.164675	0.157664	0.328783	0.410313	0.312922	0.199847	0.098267	0.242100	0.485746	0.313484	0.283621	0.299042	0.505669	0.215364	0.115577	0.566008	0.848599	0.314522	0.234388	0.179809	0.288038	0.329029	0.141410	0.249642	0.236430	0.338204	0.588321	0.214122	0.224058	0.318717	0.168779	0.580047	0.412213	0.209801	0.241291	0.243973	0.298932	0.415496	0.142398	0.493612	0.490617	0.110162	0.329214	0.204472	0.173179	0.160897	0.216028	0.706602	0.573392	0.318024	0.594684	0.252577	0.252731	0.369028	0.205449
8	0.124784	0.155347	0.415462	0.233129	0.412792	0.408215	0.272723	0.169550	0.235017	0.349487	0.309542	0.321140	0.225027	0.290814	0.146965	0.161784	0.225501	0.236219	0.150789	0.445889	0.426958	0.354111	0.215062	0.098364	0.340779	0.533368	0.309750	0.289513	0.298496	0.499131	0.209907	0.111498	0.566033	0.855528	0.336961	0.262043	0.199479	0.312400	0.328932	0.135905	0.361348	0.217101	0.337145	0.562178	0.210186	0.258329	0.283776	0.197646	0.638994	0.427313	0.257830	0.234771	0.250005	0.303835	0.458449	0.144898	0.546813	0.440077	0.152224	0.387970	0.198118	0.150813	0.153116	0.218486	0.722969	0.568287	0.340481	0.593916	0.239551	0.237141	0.326076	0.214297
9	0.144930	0.153928	0.424748	0.262748	0.345312	0.376904	0.291912	0.156546	0.233169	0.251434	0.311203	0.294163	0.204030	0.358207	0.117397	0.170587	0.281929	0.300376	0.215560	0.456188	0.401916	0.365378	0.219734	0.110002	0.433034	0.530785	0.284517	0.286369	0.291023	0.508932	0.192853	0.122586	0.548310	0.874791	0.341937	0.282007	0.267089	0.316153	0.329711	0.121145	0.378595	0.183581	0.362929	0.621308	0.209166	0.287001	0.361804	0.206258	0.660806	0.424740	0.290449	0.260478	0.244953	0.300618	0.521307	0.154780	0.566390	0.302377	0.271692	0.390345	0.199769	0.156024	0.156967	0.218258	0.732478	0.541742	0.360413	0.563181	0.217756	0.223551	0.246652	0.211776
10	0.171600	0.207682	0.425031	0.299989	0.343465	0.339704	0.295322	0.154993	0.219496	0.278604	0.305971	0.274157	0.197106	0.414354	0.127516	0.190316	0.297083	0.303100	0.259027	0.524298	0.326164	0.324550	0.260429	0.126110	0.469937	0.474140	0.241649	0.288240	0.222633	0.548275	0.212810	0.128028	0.548200	0.893113	0.347368	0.258708	0.292108	0.325387	0.304978	0.123775	0.384575	0.178595	0.371213	0.612635	0.211212	0.291805	0.407201	0.194933	0.744892	0.437279	0.296600	0.258005	0.248793	0.261651	0.514428	0.168481	0.563618	0.278096	0.342625	0.390763	0.195932	0.161946	0.142695	0.218142	0.729920	0.429151	0.351609	0.496939	0.201459	0.219723	0.265323	0.204097
11	0.170981	0.211352	0.382284	0.337765	0.385621	0.319464	0.295997	0.150151	0.251241	0.359437	0.228969	0.225839	0.198814	0.510178	0.122903	0.227843	0.334523	0.297711	0.307568	0.579981	0.302767	0.301115	0.308518	0.130583	0.478187	0.462490	0.233456	0.292239	0.265539	0.582280	0.242965	0.155758	0.579538	0.876344	0.319500	0.256292	0.299955	0.320106	0.301334	0.135178	0.384612	0.177346	0.387239	0.588451	0.223850	0.318973	0.419394	0.206376	0.789154	0.453078	0.296090	0.207530	0.248837	0.205903	0.484609	0.172302	0.582309	0.313375	0.350063	0.400520	0.195162	0.162629	0.099707	0.213939	0.691431	0.408941	0.351983	0.490001	0.199517	0.218056	0.341313	0.206457
12	0.192826	0.209273	0.292123	0.395078	0.391807	0.308441	0.290716	0.145709	0.282788	0.402996	0.217380	0.223893	0.203378	0.547716	0.110760	0.234998	0.334128	0.274100	0.450032	0.594368	0.302043	0.318201	0.295510	0.129426	0.514359	0.504707	0.230324	0.290965	0.330568	0.585918	0.255073	0.241613	0.560139	0.735914	0.313053	0.258562	0.297490	0.312177	0.299894	0.142392	0.383004	0.194039	0.386214	0.583391	0.233783	0.335778	0.494597	0.245606	0.766689	0.454734	0.343645	0.208664	0.238533	0.216474	0.497099	0.170978	0.744399	0.330362	0.415904	0.404660	0.191145	0.159776	0.097130	0.202816	0.619236	0.382761	0.390241	0.499137	0.198484	0.216377	0.385762	0.210945
13	0.214749	0.229158	0.254353	0.413774	0.400281	0.303077	0.272158	0.167938	0.253593	0.401546	0.228358	0.212613	0.219113	0.552360	0.128212	0.228495	0.377890	0.273424	0.485303	0.597040	0.308793	0.330565	0.327582	0.127308	0.582172	0.540413	0.231707	0.282699	0.348204	0.577211	0.256932	0.261631	0.536409	0.658727	0.314517	0.267641	0.283656	0.319169	0.264984	0.139363	0.367864	0.164724	0.396656	0.524261	0.233180	0.326816	0.544445	0.265619	0.738231	0.408406	0.367804	0.209885	0.222664	0.222994	0.511541	0.154067	0.774303	0.339948	0.469896	0.398936	0.186695	0.137701	0.097180	0.197288	0.570220	0.311291	0.431733	0.510780	0.179599	0.230785	0.392031	0.208257
14	0.218278	0.288628	0.264321	0.405656	0.435374	0.304814	0.243112	0.148406	0.242962	0.404726	0.241432	0.181732	0.226999	0.561501	0.162442	0.228194	0.380253	0.273411	0.478107	0.598552	0.299392	0.333777	0.373301	0.132032	0.623606	0.542627	0.234446	0.281438	0.349680	0.576578	0.257231	0.256799	0.532037	0.632126	0.333264	0.272104	0.281343	0.329347	0.225518	0.149174	0.322352	0.148527	0.390411	0.491426	0.233840	0.324546	0.545274	0.266895	0.629835	0.344844	0.375080	0.231602	0.202857	0.200184	0.492642	0.144490	0.780318	0.359746	0.489113	0.396096	0.195295	0.144393	0.102312	0.193306	0.574516	0.257061	0.392046	0.509560	0.174818	0.258345	0.395686	0.209568
15	0.217835	0.297018	0.276388	0.408891	0.460168	0.305247	0.232252	0.168444	0.285202	0.414812	0.391403	0.161331	0.216328	0.643788	0.175375	0.223742	0.370498	0.272623	0.480429	0.529117	0.302267	0.367733	0.385063	0.132146	0.628445	0.540534	0.211779	0.278019	0.349831	0.587569	0.263669	0.260073	0.521906	0.635755	0.355903	0.254500	0.284390	0.330769	0.209454	0.155886	0.315380	0.147889	0.405193	0.489728	0.247531	0.313323	0.545177	0.267498	0.603273	0.337204	0.382406	0.245677	0.187956	0.195599	0.487111	0.141105	0.791317	0.359966	0.495488	0.395277	0.197208	0.144401	0.107920	0.144715	0.583791	0.245981	0.372230	0.502540	0.177940	0.272848	0.387994	0.205779
16	0.227070	0.294857	0.291877	0.398779	0.478197	0.317849	0.224432	0.182903	0.312709	0.419302	0.424545	0.167952	0.210909	0.699474	0.178576	0.254743	0.357076	0.205592	0.484455	0.577318	0.288135	0.398015	0.384680	0.172351	0.622204	0.540984	0.183766	0.240822	0.353392	0.582824	0.284598	0.278115	0.545932	0.672083	0.351438	0.250201	0.341294	0.331241	0.187543	0.150906	0.313729	0.146850	0.404062	0.443713	0.227437	0.309189	0.543451	0.270781	0.585403	0.293589	0.381933	0.246450	0.145416	0.201091	0.481433	0.138937	0.779059	0.344417	0.493841	0.395020	0.201472	0.136975	0.110680	0.142387	0.562052	0.243873	0.372155	0.427544	0.178985	0.280592	0.360960	0.205756
17	0.241182	0.302219	0.292328	0.399133	0.488154	0.354696	0.222834	0.183367	0.332176	0.425610	0.449393	0.167963	0.208380	0.722124	0.231502	0.259821	0.320991	0.123633	0.511927	0.629475	0.302571	0.418990	0.386882	0.212983	0.613829	0.507677	0.180693	0.275066	0.353959	0.552117	0.323450	0.303030	0.552942	0.700826	0.324832	0.301089	0.419454	0.302555	0.186350	0.144446	0.240575	0.139958	0.396646	0.393040	0.176333	0.281158	0.541298	0.269211	0.540980	0.248167	0.355957	0.240892	0.122345	0.198583	0.466381	0.137640	0.720794	0.278466	0.513191	0.381371	0.203883	0.122964	0.157869	0.157093	0.431670	0.185094	0.372196	0.404536	0.181121	0.282502	0.348788	0.201504
18	0.242099	0.291352	0.311888	0.329901	0.492528	0.364103	0.209778	0.165767	0.334034	0.410362	0.513739	0.184122	0.199359	0.733634	0.304184	0.259477	0.308410	0.125946	0.551018	0.573600	0.258504	0.394307	0.381202	0.214194	0.590915	0.427766	0.141833	0.240601	0.350349	0.504112	0.345845	0.317530	0.556679	0.706677	0.283033	0.407121	0.431643	0.258322	0.185192	0.143074	0.126717	0.146412	0.392240	0.303121	0.166460	0.258879	0.540195	0.243317	0.493963	0.236436	0.333839	0.198445	0.114923	0.183440	0.464004	0.118582	0.672192	0.276962	0.580868	0.358898	0.204427	0.120140	0.203698	0.153091	0.370701	0.156611	0.371522	0.401370	0.179922	0.272223	0.349627	0.203698
19	0.208641	0.252783	0.376208	0.312148	0.491095	0.359914	0.250128	0.163035	0.336841	0.380358	0.549846	0.186217	0.181655	0.712787	0.329190	0.259098	0.267263	0.120777	0.517381	0.530841	0.256000	0.355980	0.374332	0.218142	0.533879	0.383992	0.135933	0.212803	0.319606	0.463638	0.348286	0.323220	0.555665	0.680622	0.275289	0.397828	0.433309	0.227420	0.179264	0.143452	0.099003	0.156424	0.350133	0.171954	0.165821	0.221075	0.518052	0.231388	0.398377	0.192626	0.322468	0.196775	0.089430	0.166083	0.428371	0.110863	0.654204	0.267847	0.585602	0.374444	0.176530	0.139814	0.205014	0.134566	0.290342	0.174361	0.353769	0.446332	0.154360	0.237969	0.348360	0.185955
20	0.209579	0.250456	0.387519	0.244980	0.475517	0.399358	0.348341	0.162166	0.299480	0.313220	0.554833	0.199760	0.177308	0.679846	0.329264	0.257339	0.265798	0.109237	0.417070	0.532699	0.251869	0.349772	0.369602	0.209854	0.467892	0.374161	0.180276	0.207821	0.295232	0.429923	0.340393	0.327320	0.539120	0.635156	0.272784	0.411999	0.411874	0.206123	0.172727	0.162497	0.082688	0.159113	0.314995	0.129156	0.166041	0.197276	0.456015	0.223314	0.243729	0.111022	0.321367	0.207266	0.080575	0.166070	0.341984	0.119666	0.641918	0.255010	0.549394	0.378088	0.166063	0.159861	0.207388	0.136583	0.262938	0.175845	0.360520	0.483817	0.122582	0.215494	0.346205	0.145602
21	0.164977	0.247553	0.391272	0.164496	0.427390	0.421531	0.352847	0.171727	0.290954	0.255595	0.544133	0.210321	0.171374	0.619397	0.337579	0.256566	0.198047	0.123924	0.425286	0.541780	0.243582	0.348013	0.304487	0.222908	0.451694	0.369474	0.257125	0.213495	0.292745	0.433933	0.349632	0.355428	0.411361	0.525321	0.364323	0.412862	0.372011	0.201438	0.184353	0.178077	0.084383	0.140067	0.306369	0.145827	0.164720	0.188948	0.438252	0.225225	0.188939	0.089776	0.287863	0.214499	0.072160	0.167545	0.311014	0.154005	0.601305	0.209046	0.567580	0.360727	0.178125	0.183723	0.213618	0.147791	0.264001	0.209805	0.388017	0.491840	0.121387	0.214576	0.340682	0.125786
22	0.162316	0.202664	0.378993	0.138258	0.371473	0.423878	0.399833	0.172625	0.332502	0.258214	0.526033	0.207167	0.162092	0.553546	0.343309	0.333105	0.196850	0.135424	0.443042	0.540645	0.235566	0.340513	0.276046	0.226781	0.430623	0.320006	0.267970	0.229386	0.291628	0.401912	0.360330	0.363761	0.289035	0.427665	0.417071	0.413434	0.364752	0.179646	0.214110	0.173020	0.086856	0.142691	0.293251	0.138972	0.146306	0.124213	0.406837	0.191049	0.189780	0.090903	0.274547	0.219160	0.069387	0.166643	0.300088	0.155482	0.325127	0.169417	0.551294	0.351227	0.244241	0.222498	0.224518	0.147104	0.286226	0.282055	0.390428	0.467153	0.118469	0.215762	0.340901	0.115277
23	0.166500	0.117128	0.375627	0.139834	0.359076	0.422158	0.459743	0.175281	0.337883	0.252741	0.507800	0.194992	0.134387	0.530545	0.350206	0.347671	0.191719	0.149176	0.442163	0.519721	0.242421	0.320573	0.272206	0.252455	0.371381	0.221476	0.314700	0.234420	0.288232	0.341117	0.351656	0.361222	0.253011	0.374555	0.424270	0.427252	0.359859	0.178296	0.218368	0.169740	0.084094	0.144784	0.297624	0.170840	0.139666	0.098842	0.289673	0.129831	0.187541	0.090135	0.274300	0.221098	0.063355	0.180978	0.258002	0.155881	0.238518	0.195700	0.516102	0.356196	0.276001	0.232774	0.233546	0.149845	0.340729	0.302866	0.321425	0.447901	0.115220	0.216868	0.296666	0.125814
24	0.162520	0.098630	0.354768	0.140644	0.355045	0.423289	0.478638	0.185246	0.316062	0.227970	0.405362	0.190425	0.069304	0.520836	0.362124	0.396652	0.104508	0.169145	0.430883	0.365157	0.237154	0.317234	0.220716	0.252355	0.237788	0.128786	0.366453	0.233436	0.226315	0.303248	0.334086	0.342652	0.253516	0.361809	0.419334	0.454906	0.357147	0.177484	0.219019	0.231937	0.076570	0.144382	0.261050	0.173756	0.138397	0.150766	0.192026	0.186849	0.185999	0.095030	0.249667	0.189397	0.061416	0.191293	0.186970	0.158769	0.217733	0.201133	0.498827	0.361004	0.279128	0.233143	0.234929	0.150840	0.368152	0.304413	0.267727	0.439602	0.114642	0.217135	0.204858	0.155699
25	0.134799	0.090121	0.326889	0.139080	0.304444	0.422322	0.482378	0.195068	0.299450	0.186396	0.387501	0.188240	0.065462	0.436495	0.355491	0.396819	0.104152	0.174587	0.351829	0.336432	0.232303	0.274568	0.187627	0.269586	0.144048	0.110282	0.396450	0.227769	0.133774	0.312861	0.328565	0.288756	0.254465	0.362493	0.440068	0.501921	0.357678	0.200290	0.217101	0.254061	0.070075	0.138947	0.188118	0.184751	0.131514	0.156167	0.184559	0.230907	0.182063	0.101104	0.279693	0.174555	0.057930	0.221601	0.140776	0.170694	0.205403	0.214133	0.492340	0.363650	0.281917	0.235801	0.236372	0.147461	0.328506	0.311357	0.306908	0.434262	0.107252	0.217990	0.160066	0.193656
26	0.106338	0.064423	0.323127	0.136017	0.253351	0.405563	0.479209	0.182572	0.288836	0.184348	0.350902	0.201086	0.064269	0.305843	0.354429	0.392095	0.104171	0.182441	0.278661	0.356815	0.223689	0.197481	0.193047	0.277549	0.133852	0.108571	0.403175	0.227689	0.099380	0.317876	0.328223	0.295116	0.212765	0.313698	0.503642	0.520678	0.357202	0.222239	0.202445	0.268523	0.065380	0.126480	0.168710	0.238593	0.109433	0.177774	0.179092	0.233426	0.169033	0.141122	0.325211	0.186421	0.048632	0.217504	0.139043	0.200406	0.226878	0.213940	0.494294	0.362090	0.284870	0.254408	0.232054	0.152202	0.327552	0.310199	0.354805	0.420561	0.099100	0.201384	0.193076	0.201400
27	0.100891	0.056364	0.254957	0.140001	0.184252	0.368052	0.478001	0.172534	0.347103	0.240851	0.241244	0.185599	0.054965	0.219279	0.346241	0.391003	0.087236	0.294639	0.286051	0.349033	0.196578	0.132933	0.193085	0.233868	0.134961	0.118649	0.405112	0.215939	0.095548	0.287647	0.327259	0.311547	0.182307	0.220199	0.533805	0.506382	0.354785	0.227287	0.190937	0.268294	0.063617	0.117414	0.195779	0.250412	0.104899	0.191617	0.171250	0.248560	0.178003	0.163900	0.328763	0.238388	0.047665	0.208012	0.155639	0.207032	0.233337	0.222851	0.478172	0.322494	0.301658	0.324577	0.229056	0.159951	0.374824	0.325880	0.410091	0.438847	0.123068	0.175446	0.207074	0.202662
28	0.097951	0.059458	0.199749	0.141918	0.146062	0.325090	0.478719	0.176588	0.342916	0.246680	0.248693	0.186194	0.048628	0.194444	0.286315	0.394557	0.081445	0.349672	0.262196	0.298032	0.131770	0.109080	0.205392	0.245883	0.129578	0.143055	0.407915	0.214300	0.092109	0.266647	0.317525	0.311046	0.155044	0.148853	0.538018	0.436264	0.198699	0.238897	0.191015	0.272661	0.062813	0.111191	0.243740	0.252458	0.108565	0.193963	0.160009	0.269568	0.187753	0.172282	0.320114	0.266991	0.048490	0.206859	0.158243	0.205556	0.232134	0.245520	0.389584	0.333975	0.311883	0.357079	0.225786	0.164460	0.426793	0.356588	0.405212	0.429390	0.136098	0.173854	0.207408	0.217137
29	0.082728	0.124705	0.216878	0.105912	0.130129	0.303383	0.485414	0.172426	0.338766	0.233553	0.286612	0.173171	0.048509	0.180808	0.229752	0.394631	0.060699	0.347585	0.207207	0.288331	0.121894	0.139498	0.234635	0.242467	0.133043	0.172641	0.415446	0.229885	0.072695	0.264870	0.283723	0.293906	0.156901	0.129093	0.537820	0.402586	0.170815	0.235048	0.217346	0.289159	0.062994	0.102399	0.242709	0.317214	0.108934	0.228793	0.160725	0.274621	0.184948	0.176738	0.323026	0.256876	0.051446	0.208952	0.149227	0.205346	0.231070	0.258163	0.360206	0.334854	0.321458	0.362950	0.182656	0.164963	0.434400	0.353739	0.418246	0.426432	0.174550	0.213287	0.206888	0.238349
30	0.080533	0.135465	0.226082	0.109484	0.129773	0.299336	0.473274	0.175938	0.319931	0.232564	0.289159	0.187728	0.048523	0.177868	0.226687	0.404170	0.057604	0.345513	0.165996	0.297422	0.123832	0.188352	0.258686	0.247582	0.122244	0.210965	0.422701	0.229317	0.074658	0.263629	0.235140	0.268406	0.166127	0.127385	0.576355	0.414742	0.140272	0.241842	0.268324	0.307444	0.064565	0.100410	0.240716	0.418542	0.109787	0.278024	0.185192	0.274344	0.184173	0.174461	0.347831	0.251283	0.051310	0.224573	0.158448	0.213969	0.232939	0.257508	0.364919	0.329238	0.334829	0.387418	0.144483	0.201232	0.414670	0.345817	0.418431	0.378393	0.172768	0.215031	0.205387	0.264834
31	0.060923	0.166324	0.264980	0.111407	0.106448	0.237084	0.382917	0.178412	0.273077	0.226625	0.290851	0.190983	0.052063	0.179902	0.262454	0.414256	0.052996	0.342410	0.168991	0.313643	0.123337	0.190563	0.264305	0.242833	0.111641	0.282129	0.394313	0.226617	0.078086	0.248752	0.211486	0.252507	0.159223	0.127635	0.647129	0.449617	0.169694	0.243761	0.305097	0.311474	0.049186	0.084492	0.277084	0.438635	0.105677	0.276863	0.196991	0.274543	0.178694	0.171362	0.366279	0.247319	0.048624	0.235500	0.197407	0.229025	0.241256	0.271815	0.338402	0.349264	0.361989	0.388701	0.178373	0.204202	0.412599	0.343414	0.403476	0.362862	0.173932	0.223430	0.210030	0.275412
32	0.051861	0.184511	0.268602	0.099324	0.100718	0.192132	0.375779	0.168841	0.259976	0.240153	0.292740	0.206454	0.055779	0.188031	0.323570	0.334445	0.042027	0.337942	0.208904	0.310502	0.119380	0.190400	0.260220	0.236142	0.100312	0.293448	0.358356	0.198769	0.069407	0.218867	0.200815	0.262500	0.167449	0.133159	0.600961	0.450404	0.177369	0.246514	0.302833	0.300241	0.042462	0.072124	0.338875	0.483010	0.094929	0.274021	0.193427	0.271014	0.177389	0.176414	0.352186	0.267911	0.044363	0.249534	0.224613	0.198562	0.256855	0.284857	0.326543	0.349567	0.364819	0.381477	0.246494	0.202890	0.410951	0.308277	0.395758	0.352502	0.173746	0.227613	0.212360	0.277093
33	0.052093	0.188776	0.250702	0.172026	0.104729	0.166890	0.352390	0.166701	0.241795	0.248191	0.288965	0.215494	0.068867	0.266193	0.343522	0.324803	0.033276	0.339345	0.214633	0.256205	0.088280	0.204433	0.255517	0.236032	0.105658	0.303784	0.354540	0.208403	0.059082	0.192039	0.202780	0.292874	0.185863	0.162652	0.588869	0.444141	0.193351	0.269123	0.283975	0.296844	0.044576	0.079316	0.386508	0.513383	0.083816	0.273397	0.195528	0.271253	0.178452	0.179855	0.352627	0.293511	0.039176	0.252502	0.227936	0.213385	0.284492	0.256368	0.342628	0.337387	0.341607	0.366946	0.356619	0.210711	0.385230	0.253081	0.394976	0.386413	0.176099	0.235932	0.213686	0.287244
34	0.052927	0.189167	0.239904	0.215716	0.106470	0.162457	0.263809	0.163256	0.221094	0.249137	0.280891	0.221301	0.071589	0.277202	0.330045	0.264241	0.031344	0.330944	0.211522	0.212273	0.067387	0.214692	0.244380	0.398819	0.107326	0.311920	0.327623	0.212267	0.054155	0.181820	0.198478	0.260578	0.238376	0.209913	0.591902	0.419594	0.214990	0.281566	0.267862	0.296802	0.046252	0.086801	0.400677	0.532936	0.063686	0.264413	0.214417	0.288107	0.189015	0.184808	0.350690	0.327933	0.040177	0.237316	0.222461	0.218922	0.285660	0.233119	0.345712	0.323182	0.289376	0.366116	0.384162	0.212659	0.338293	0.243682	0.399324	0.408838	0.185249	0.244437	0.211066	0.290065
35	0.056784	0.186476	0.262323	0.221036	0.100397	0.161561	0.244979	0.157601	0.198637	0.237100	0.336245	0.237893	0.072075	0.285894	0.328374	0.235408	0.029435	0.211588	0.186829	0.189240	0.067230	0.215783	0.251952	0.502805	0.101524	0.312486	0.324272	0.212706	0.052583	0.191365	0.220692	0.251907	0.245705	0.232795	0.594588	0.366777	0.224155	0.283085	0.263616	0.274294	0.047680	0.090563	0.409105	0.512799	0.052221	0.244581	0.251944	0.249796	0.207349	0.177623	0.344268	0.329272	0.042228	0.211219	0.246744	0.233898	0.265229	0.233909	0.347784	0.323475	0.275608	0.379996	0.381041	0.223864	0.319967	0.245189	0.405701	0.409177	0.193579	0.247325	0.210238	0.289654
36	0.059071	0.187252	0.274108	0.223350	0.100685	0.166108	0.272559	0.135351	0.070135	0.181604	0.421469	0.247122	0.070778	0.285594	0.357420	0.240683	0.028632	0.147848	0.178060	0.203892	0.066201	0.216965	0.251505	0.499432	0.096284	0.313617	0.329771	0.260446	0.052939	0.197623	0.257138	0.252207	0.243463	0.229151	0.544571	0.320471	0.238893	0.272347	0.261379	0.226955	0.047957	0.091553	0.456017	0.523192	0.050157	0.244314	0.265173	0.230221	0.186163	0.159546	0.321051	0.319535	0.044944	0.171553	0.297405	0.260722	0.232209	0.239875	0.362190	0.324599	0.276963	0.381494	0.406442	0.230045	0.318119	0.246289	0.393393	0.403026	0.196130	0.262538	0.212481	0.287451
37	0.058923	0.184016	0.278641	0.227345	0.098366	0.176500	0.289385	0.168488	0.050125	0.154433	0.417474	0.256594	0.065158	0.295420	0.360878	0.244199	0.026858	0.138233	0.166335	0.192269	0.064569	0.213508	0.285266	0.506150	0.094587	0.313295	0.331105	0.284203	0.054790	0.185116	0.258875	0.252144	0.240913	0.228133	0.512231	0.312844	0.239708	0.225924	0.260060	0.195422	0.048444	0.083043	0.505650	0.526010	0.050208	0.224127	0.266941	0.246885	0.219519	0.145757	0.320554	0.305839	0.042761	0.160741	0.314060	0.287039	0.222143	0.233107	0.368334	0.318228	0.269955	0.379280	0.445088	0.225587	0.305539	0.243451	0.350997	0.367914	0.200024	0.263876	0.227275	0.333462
38	0.058404	0.201786	0.250573	0.261736	0.106123	0.177847	0.291333	0.205150	0.053495	0.155137	0.396077	0.287960	0.065646	0.275113	0.371204	0.240371	0.033665	0.148186	0.187910	0.177711	0.052969	0.215075	0.345356	0.514069	0.092606	0.312883	0.346974	0.305308	0.057588	0.168486	0.284018	0.251410	0.225666	0.226727	0.514109	0.303952	0.238384	0.225059	0.259103	0.179384	0.047329	0.077996	0.499060	0.519583	0.045967	0.218303	0.274297	0.343888	0.225480	0.138384	0.315639	0.415227	0.043361	0.165293	0.309442	0.282422	0.226149	0.209136	0.362138	0.256548	0.267420	0.353609	0.484414	0.242896	0.229044	0.200728	0.330892	0.349108	0.206047	0.279620	0.214154	0.325669
39	0.055937	0.212213	0.243198	0.275503	0.134296	0.165835	0.305447	0.210718	0.053995	0.156319	0.408618	0.273169	0.065378	0.263259	0.379320	0.240767	0.046551	0.137671	0.231048	0.248698	0.042537	0.234490	0.334233	0.604750	0.087720	0.296993	0.365902	0.308426	0.058623	0.160910	0.315870	0.232878	0.214711	0.227836	0.516808	0.296416	0.255703	0.253957	0.259670	0.177018	0.046141	0.089886	0.516002	0.461577	0.036663	0.214352	0.277424	0.347300	0.227655	0.136163	0.326827	0.461569	0.044861	0.189299	0.317032	0.288395	0.221423	0.191473	0.313385	0.226169	0.245432	0.291749	0.509718	0.282057	0.172771	0.162269	0.333299	0.348538	0.202299	0.299684	0.182572	0.329175
40	0.055552	0.216433	0.252121	0.340311	0.136914	0.153152	0.304026	0.216945	0.053871	0.151756	0.443947	0.270294	0.065995	0.267057	0.382246	0.246455	0.054947	0.112228	0.202697	0.259415	0.031020	0.199096	0.333556	0.649220	0.093387	0.286787	0.380341	0.321465	0.056966	0.153603	0.329572	0.217092	0.206682	0.228080	0.541432	0.280292	0.271021	0.266357	0.257084	0.159461	0.047732	0.094551	0.513437	0.450895	0.034381	0.147636	0.279762	0.348546	0.230070	0.131766	0.281083	0.463957	0.040825	0.197144	0.322645	0.291431	0.207348	0.189202	0.301772	0.226326	0.233919	0.261018	0.511089	0.303153	0.187940	0.167564	0.319130	0.373650	0.183591	0.301960	0.176106	0.346517
41	0.073761	0.239267	0.382741	0.371493	0.132876	0.143884	0.292687	0.221495	0.052121	0.122724	0.524266	0.566534	0.068043	0.267806	0.376493	0.234869	0.056095	0.091383	0.225717	0.296572	0.028546	0.242923	0.347121	0.647542	0.105295	0.243307	0.388557	0.335820	0.054807	0.148631	0.329907	0.231666	0.202803	0.228095	0.438901	0.173762	0.259116	0.288194	0.216478	0.133005	0.047747	0.093471	0.480084	0.407028	0.028350	0.072154	0.266024	0.416937	0.230083	0.128578	0.266098	0.454239	0.042717	0.180844	0.337807	0.292018	0.190685	0.165752	0.294698	0.188088	0.218215	0.249056	0.513346	0.296522	0.187134	0.168108	0.342454	0.439613	0.154583	0.280848	0.199441	0.342943
42	0.074711	0.238532	0.464124	0.344572	0.129835	0.109699	0.292353	0.225222	0.056081	0.104532	0.534728	0.607398	0.063066	0.267123	0.315650	0.256312	0.058076	0.091919	0.262756	0.313384	0.033536	0.262448	0.369698	0.646465	0.108130	0.168224	0.396297	0.346255	0.054247	0.141776	0.337525	0.250132	0.199461	0.227736	0.361686	0.134914	0.250283	0.294274	0.154082	0.183491	0.047336	0.093245	0.433618	0.354365	0.027305	0.070206	0.333266	0.432410	0.229877	0.119374	0.275156	0.459306	0.042819	0.167786	0.386674	0.317293	0.168252	0.138229	0.287068	0.142307	0.180558	0.211324	0.515957	0.285560	0.189541	0.168430	0.535464	0.454807	0.128813	0.252103	0.243305	0.340670
43	0.073282	0.240572	0.464879	0.396235	0.125589	0.131708	0.278410	0.230684	0.061527	0.096309	0.539457	0.678448	0.053556	0.237545	0.275735	0.298313	0.058972	0.092101	0.330792	0.313442	0.038957	0.254963	0.382626	0.646474	0.106604	0.173818	0.393459	0.347746	0.049927	0.147774	0.344752	0.314900	0.197886	0.222504	0.365098	0.132276	0.232607	0.297020	0.108213	0.281370	0.045207	0.084882	0.415115	0.316025	0.032042	0.079634	0.391862	0.472473	0.225225	0.113971	0.296278	0.446122	0.042284	0.158213	0.389954	0.341714	0.104543	0.134683	0.325313	0.134112	0.131548	0.218515	0.501442	0.287213	0.216290	0.174382	0.662928	0.458283	0.129236	0.250371	0.271246	0.349041
44	0.071774	0.240492	0.486601	0.470205	0.122355	0.137252	0.260050	0.231702	0.068426	0.093395	0.530852	0.698659	0.041324	0.207999	0.278243	0.314035	0.062819	0.092445	0.335396	0.341880	0.038956	0.245212	0.382718	0.614743	0.100457	0.167907	0.390451	0.335116	0.045027	0.149222	0.343785	0.327368	0.163063	0.186039	0.409948	0.139547	0.241746	0.296455	0.105498	0.293595	0.044682	0.085990	0.438475	0.303013	0.040669	0.097384	0.402075	0.539901	0.208212	0.095830	0.308007	0.444387	0.043295	0.170476	0.400888	0.340327	0.092030	0.117314	0.353685	0.139949	0.109650	0.228010	0.458286	0.283091	0.226908	0.197163	0.692837	0.426546	0.131555	0.240561	0.273134	0.363497
45	0.071853	0.239286	0.518189	0.487855	0.120547	0.171790	0.275966	0.235876	0.083719	0.118753	0.483639	0.696389	0.039388	0.253272	0.281862	0.353337	0.068900	0.100088	0.399949	0.374282	0.038402	0.252625	0.374436	0.490440	0.097890	0.161116	0.371519	0.373338	0.040144	0.147876	0.355122	0.400144	0.125586	0.135203	0.427619	0.150169	0.222121	0.275770	0.096678	0.354951	0.043665	0.084256	0.411949	0.299790	0.047030	0.099302	0.439137	0.583079	0.202574	0.116200	0.281576	0.461621	0.042615	0.172513	0.438781	0.373547	0.087443	0.084337	0.372554	0.139455	0.104270	0.217313	0.378082	0.276858	0.224851	0.217365	0.708626	0.422481	0.139863	0.245606	0.272645	0.372997
46	0.072377	0.223238	0.535103	0.511794	0.117963	0.191165	0.276120	0.298021	0.089932	0.143884	0.451557	0.699782	0.040464	0.253301	0.246358	0.363728	0.065558	0.076836	0.453659	0.401205	0.038392	0.253490	0.369387	0.477854	0.103093	0.162375	0.326296	0.510611	0.038784	0.146142	0.357083	0.415739	0.146484	0.126827	0.422161	0.142055	0.210482	0.269773	0.099605	0.376442	0.043448	0.084823	0.311471	0.302927	0.051839	0.129107	0.561784	0.592196	0.230004	0.182425	0.293256	0.477814	0.045350	0.171940	0.449992	0.407775	0.082351	0.061531	0.362834	0.155320	0.105317	0.204021	0.359394	0.308005	0.216058	0.216068	0.754737	0.458124	0.148794	0.237906	0.280261	0.377844
47	0.073229	0.176950	0.537707	0.515815	0.116734	0.204383	0.246741	0.323414	0.106201	0.159748	0.452701	0.701626	0.042566	0.292222	0.229614	0.344533	0.055595	0.069328	0.459620	0.423871	0.038449	0.253003	0.360920	0.470704	0.115317	0.176070	0.326940	0.502857	0.041523	0.144303	0.344800	0.415340	0.149084	0.127632	0.414072	0.131009	0.200375	0.269456	0.099604	0.388214	0.042530	0.084511	0.263114	0.331000	0.052225	0.142311	0.569999	0.592020	0.197985	0.207824	0.361583	0.423068	0.042247	0.172502	0.429453	0.419030	0.071451	0.061336	0.415608	0.154682	0.107578	0.209992	0.357403	0.358150	0.221693	0.205984	0.794210	0.477794	0.139115	0.230776	0.289264	0.382736
48	0.074979	0.167295	0.533904	0.557429	0.116669	0.209919	0.237059	0.311553	0.121577	0.171295	0.451840	0.708426	0.036934	0.279986	0.222313	0.339821	0.090629	0.133043	0.452502	0.428963	0.037371	0.251502	0.309781	0.461736	0.137216	0.191147	0.387032	0.498015	0.043164	0.126515	0.306626	0.418238	0.164295	0.128009	0.404177	0.236426	0.185410	0.269569	0.106339	0.437211	0.039369	0.079581	0.241640	0.304756	0.056077	0.149717	0.575115	0.567443	0.212234	0.214475	0.394072	0.358625	0.045310	0.176728	0.413655	0.392600	0.057321	0.065637	0.428838	0.158337	0.105747	0.207866	0.325742	0.362782	0.222272	0.200104	0.802727	0.501989	0.134318	0.227310	0.289669	0.385796
49	0.071956	0.110999	0.508502	0.554103	0.113449	0.215634	0.241934	0.306502	0.135815	0.179796	0.415815	0.773825	0.043072	0.282714	0.255941	0.343088	0.206394	0.314706	0.442527	0.405863	0.034558	0.229148	0.287250	0.410430	0.143653	0.175974	0.440726	0.482356	0.042220	0.139627	0.290443	0.419619	0.174808	0.145656	0.458980	0.254676	0.183725	0.272864	0.106871	0.463990	0.026199	0.064717	0.224744	0.286955	0.071824	0.167026	0.575107	0.513872	0.232210	0.232242	0.398950	0.390819	0.044790	0.176319	0.424820	0.410321	0.052264	0.069160	0.426352	0.164103	0.105697	0.244373	0.272827	0.400644	0.215307	0.199519	0.796636	0.509897	0.136524	0.216494	0.285627	0.373995
50	0.062686	0.076285	0.401740	0.567528	0.071861	0.262934	0.257200	0.309238	0.142301	0.178321	0.371953	0.638967	0.047560	0.292284	0.340970	0.339516	0.279841	0.339363	0.417140	0.394271	0.034858	0.224681	0.279944	0.310989	0.147617	0.184512	0.437084	0.503620	0.039539	0.160633	0.332120	0.438544	0.187387	0.171168	0.471799	0.338774	0.173432	0.252806	0.109539	0.464004	0.023961	0.059257	0.222108	0.267610	0.075208	0.167790	0.583477	0.510684	0.261017	0.280716	0.395233	0.414225	0.041645	0.155331	0.423843	0.435198	0.063918	0.069005	0.427918	0.177195	0.096987	0.263058	0.195568	0.393163	0.187997	0.188794	0.795319	0.537940	0.136869	0.216381	0.269523	0.363410
51	0.091659	0.171841	0.381650	0.561745	0.054204	0.264938	0.246174	0.310665	0.140717	0.176057	0.380841	0.608911	0.046296	0.306760	0.354198	0.348548	0.303044	0.340652	0.375626	0.389040	0.034031	0.195144	0.277721	0.285262	0.139694	0.187112	0.457831	0.528776	0.034643	0.153716	0.347215	0.460470	0.187970	0.179074	0.440691	0.400261	0.124416	0.196371	0.108482	0.463992	0.026485	0.061114	0.215335	0.266478	0.075594	0.169816	0.591568	0.512115	0.281842	0.301812	0.407640	0.423951	0.041279	0.136297	0.473373	0.433819	0.062801	0.072955	0.430481	0.188500	0.082793	0.270011	0.144531	0.355233	0.188331	0.179114	0.798488	0.652418	0.127661	0.178354	0.286373	0.367093
52	0.146169	0.403578	0.365041	0.507304	0.044952	0.269121	0.256557	0.345879	0.138832	0.184712	0.370637	0.524682	0.047157	0.309933	0.354302	0.373096	0.311564	0.345901	0.369120	0.345445	0.033278	0.128635	0.289247	0.284514	0.131451	0.188819	0.516377	0.532963	0.035608	0.192221	0.329797	0.461385	0.187552	0.179396	0.432830	0.424970	0.104007	0.183325	0.111094	0.461375	0.034702	0.060311	0.215690	0.269757	0.076525	0.168788	0.580448	0.519599	0.299314	0.316824	0.419164	0.418789	0.038393	0.136507	0.502576	0.431738	0.052390	0.076966	0.433780	0.189917	0.082677	0.269802	0.157950	0.348982	0.209734	0.186753	0.782231	0.656141	0.120188	0.144450	0.309077	0.369090
53	0.179379	0.419909	0.336164	0.474256	0.040399	0.269528	0.268932	0.368718	0.188172	0.273036	0.325748	0.487853	0.046219	0.318695	0.352363	0.360483	0.360042	0.353943	0.284043	0.374938	0.023367	0.118803	0.313548	0.282704	0.126564	0.188092	0.560935	0.541094	0.037310	0.204705	0.380854	0.453660	0.186300	0.178959	0.441072	0.427584	0.102787	0.110833	0.120278	0.461210	0.048165	0.063138	0.150908	0.303350	0.076113	0.168367	0.534622	0.527612	0.312109	0.324684	0.407864	0.427593	0.037777	0.135715	0.465722	0.412918	0.052909	0.075936	0.432379	0.189220	0.084254	0.272341	0.160359	0.351920	0.216471	0.191198	0.644770	0.663883	0.119896	0.190365	0.295881	0.347216
54	0.181935	0.442234	0.282612	0.442228	0.041076	0.261512	0.292563	0.376328	0.241760	0.313724	0.336760	0.494350	0.046131	0.322999	0.346160	0.358493	0.364184	0.369284	0.171521	0.381913	0.021758	0.114903	0.327794	0.281303	0.124254	0.176340	0.573051	0.540735	0.037755	0.218032	0.455248	0.445654	0.170045	0.170374	0.418541	0.431829	0.100913	0.113092	0.142423	0.444045	0.060887	0.058950	0.132337	0.324241	0.075121	0.162670	0.512672	0.479284	0.367578	0.333348	0.391586	0.512524	0.037787	0.127114	0.450650	0.380366	0.065920	0.074379	0.433806	0.191684	0.085406	0.267340	0.151418	0.348605	0.183351	0.178569	0.540080	0.739150	0.119856	0.200047	0.273527	0.349772
55	0.182677	0.470307	0.293612	0.434516	0.037851	0.254467	0.295614	0.378888	0.294460	0.313494	0.365375	0.496687	0.045535	0.289967	0.348517	0.315044	0.391849	0.401625	0.208917	0.335277	0.021297	0.100314	0.329921	0.298061	0.124287	0.167284	0.576299	0.542308	0.038418	0.231235	0.485215	0.433332	0.164351	0.160812	0.382626	0.454731	0.080465	0.082803	0.146625	0.428443	0.085771	0.070892	0.192966	0.380511	0.067613	0.162495	0.525756	0.394708	0.354075	0.301207	0.393353	0.498204	0.039785	0.107302	0.462456	0.374848	0.078851	0.076814	0.451266	0.186217	0.083227	0.250437	0.150165	0.347232	0.196366	0.145491	0.543224	0.803591	0.119186	0.211964	0.234200	0.355768
56	0.187054	0.477115	0.334695	0.416538	0.027003	0.246302	0.307366	0.380217	0.301969	0.318935	0.369273	0.486986	0.045596	0.298941	0.344493	0.295197	0.448343	0.504340	0.249900	0.320798	0.021576	0.095072	0.327274	0.308158	0.124502	0.165828	0.615122	0.479859	0.034573	0.227151	0.488943	0.422598	0.163325	0.154399	0.394107	0.454043	0.056003	0.075627	0.139966	0.417660	0.104390	0.086301	0.221699	0.463483	0.065821	0.160436	0.437606	0.321432	0.334190	0.278146	0.357926	0.495190	0.043370	0.098497	0.441026	0.343487	0.080519	0.076686	0.564087	0.227383	0.081707	0.244490	0.172938	0.354669	0.324933	0.175299	0.510784	0.793539	0.116954	0.229736	0.205136	0.332908
57	0.190532	0.487775	0.330746	0.287452	0.029528	0.222793	0.322830	0.347534	0.322739	0.327385	0.359579	0.473282	0.045325	0.313738	0.342340	0.316483	0.423256	0.450594	0.257289	0.356025	0.024542	0.117776	0.322636	0.302198	0.122181	0.167347	0.641503	0.405970	0.031216	0.228295	0.513432	0.401348	0.150549	0.151445	0.425117	0.468319	0.042627	0.074150	0.140003	0.392848	0.123477	0.088027	0.229161	0.450391	0.063090	0.128815	0.299720	0.316868	0.326330	0.276898	0.298843	0.510052	0.041937	0.098955	0.415801	0.312000	0.101198	0.090037	0.598941	0.262460	0.083199	0.252658	0.206479	0.358730	0.502021	0.242587	0.419516	0.767243	0.111365	0.232946	0.214908	0.316922
58	0.193165	0.515566	0.302090	0.254557	0.032448	0.214517	0.319115	0.298486	0.388720	0.389369	0.368226	0.353997	0.048598	0.309923	0.341174	0.361666	0.384223	0.584869	0.279306	0.366781	0.025593	0.121429	0.316987	0.306661	0.126140	0.157640	0.627936	0.503655	0.032626	0.230059	0.514622	0.300023	0.154785	0.158137	0.421343	0.471877	0.028568	0.079408	0.144039	0.384747	0.163704	0.085544	0.229280	0.459184	0.064951	0.115963	0.334431	0.317402	0.311212	0.290653	0.272291	0.493470	0.042876	0.131309	0.407825	0.271699	0.149852	0.101556	0.599922	0.355506	0.083614	0.258333	0.206548	0.312037	0.543790	0.256840	0.331506	0.760532	0.097718	0.225224	0.220402	0.327256
59	0.194646	0.527334	0.306733	0.250851	0.031204	0.193762	0.303892	0.304197	0.486553	0.479224	0.291470	0.277918	0.048207	0.309446	0.328690	0.393558	0.375029	0.683109	0.281030	0.384491	0.028159	0.122515	0.311708	0.310316	0.133646	0.158623	0.578635	0.529149	0.031779	0.230697	0.519426	0.290765	0.154006	0.176259	0.373875	0.451898	0.022023	0.083971	0.154312	0.371316	0.165289	0.084422	0.231595	0.511167	0.054571	0.103026	0.333661	0.318739	0.310753	0.269759	0.295231	0.460155	0.043786	0.173343	0.402289	0.267105	0.226707	0.158338	0.605062	0.440044	0.073013	0.249914	0.239113	0.269789	0.543722	0.256198	0.315429	0.751745	0.076828	0.224014	0.210603	0.318576
60	0.183651	0.541840	0.300238	0.233817	0.030937	0.213439	0.300173	0.301690	0.504178	0.501840	0.317595	0.305005	0.042364	0.306679	0.247514	0.400188	0.369543	0.761482	0.327921	0.385549	0.030947	0.117242	0.310003	0.257452	0.142971	0.157643	0.540916	0.550268	0.027867	0.232148	0.520879	0.298134	0.187979	0.177400	0.349680	0.458409	0.041730	0.078896	0.172725	0.311344	0.168602	0.096095	0.233832	0.547903	0.041679	0.082810	0.329847	0.322510	0.303092	0.240340	0.285733	0.457562	0.043547	0.173179	0.391485	0.248140	0.297545	0.194038	0.618477	0.454291	0.067876	0.248896	0.265284	0.238296	0.549887	0.267194	0.329390	0.799223	0.072616	0.227548	0.200868	0.321525
61	0.162969	0.619735	0.290655	0.222095	0.028437	0.166829	0.301077	0.287469	0.565858	0.514465	0.339822	0.324315	0.041513	0.300620	0.158344	0.399016	0.324399	0.763068	0.345121	0.338819	0.036225	0.175919	0.294042	0.251806	0.142154	0.137855	0.537475	0.615112	0.025874	0.229247	0.520122	0.293020	0.189863	0.161599	0.453892	0.563421	0.056277	0.065890	0.179219	0.337038	0.168701	0.171966	0.235909	0.558750	0.039898	0.086923	0.318829	0.335032	0.289956	0.228673	0.243528	0.432058	0.046106	0.175669	0.381360	0.173042	0.349949	0.200919	0.621691	0.525165	0.081193	0.203699	0.271644	0.173561	0.618733	0.307454	0.353346	0.807202	0.060316	0.227936	0.198478	0.337414
62	0.152349	0.607830	0.279283	0.217683	0.026520	0.159764	0.330391	0.320287	0.672965	0.536276	0.364630	0.349264	0.039256	0.307651	0.152469	0.362042	0.320322	0.757535	0.368850	0.295932	0.040257	0.205201	0.268397	0.258677	0.150191	0.135616	0.498762	0.608868	0.025989	0.212464	0.511283	0.292021	0.193377	0.164945	0.462191	0.564233	0.066771	0.064729	0.182426	0.345484	0.192377	0.322991	0.258863	0.552501	0.040088	0.086566	0.299701	0.320567	0.284481	0.217802	0.199361	0.442012	0.047051	0.176380	0.335912	0.167317	0.354858	0.201939	0.606065	0.544511	0.092740	0.196722	0.272216	0.168497	0.644222	0.329640	0.336642	0.738622	0.052070	0.228727	0.198263	0.340528
63	0.169645	0.610755	0.298700	0.192694	0.026676	0.159164	0.329015	0.308198	0.721234	0.653885	0.443931	0.334333	0.043387	0.327936	0.162109	0.321741	0.290302	0.734883	0.349083	0.278393	0.039671	0.255852	0.217498	0.258778	0.153601	0.132625	0.443439	0.652015	0.025319	0.202343	0.478453	0.252465	0.192538	0.185602	0.534246	0.598771	0.075740	0.063926	0.181635	0.361716	0.260482	0.390074	0.285490	0.536250	0.038789	0.086682	0.293666	0.226298	0.216284	0.198318	0.235386	0.377100	0.053372	0.182741	0.286557	0.173039	0.438448	0.261925	0.568667	0.679955	0.104556	0.222726	0.292524	0.162676	0.648996	0.331097	0.423335	0.752114	0.041653	0.221889	0.193698	0.294461
64	0.190922	0.621501	0.246378	0.214769	0.027051	0.157939	0.349213	0.264355	0.706569	0.685290	0.457606	0.375518	0.077286	0.319428	0.160653	0.307443	0.206075	0.661002	0.343319	0.273428	0.042438	0.269157	0.156276	0.259632	0.155427	0.133516	0.399085	0.654545	0.024968	0.188414	0.455059	0.229859	0.190538	0.198530	0.639001	0.620434	0.076275	0.065333	0.179373	0.364730	0.272784	0.453296	0.330515	0.514339	0.038211	0.088827	0.284316	0.207673	0.195684	0.197157	0.398885	0.355682	0.061057	0.228083	0.282828	0.179012	0.497087	0.302670	0.546831	0.841939	0.114491	0.255857	0.319274	0.162900	0.657304	0.340283	0.436617	0.732970	0.046534	0.216398	0.149132	0.291005
65	0.189472	0.619491	0.241383	0.201303	0.031115	0.165110	0.342411	0.255235	0.718702	0.721263	0.464477	0.457152	0.103755	0.323181	0.139025	0.303434	0.194533	0.650925	0.344124	0.227070	0.069032	0.311874	0.163800	0.245551	0.155716	0.138521	0.428005	0.663114	0.023662	0.140970	0.448088	0.236111	0.252499	0.224517	0.650474	0.601635	0.076226	0.063801	0.177709	0.337159	0.337748	0.621020	0.301486	0.404031	0.043470	0.089821	0.259775	0.216301	0.192623	0.196649	0.468146	0.346572	0.062468	0.296303	0.274942	0.176646	0.523298	0.318637	0.520901	0.844567	0.120883	0.256575	0.321316	0.148752	0.661129	0.350722	0.541737	0.689441	0.052977	0.206670	0.121121	0.282492
66	0.182903	0.614881	0.261140	0.295031	0.032468	0.167389	0.339946	0.251026	0.744927	0.795989	0.458853	0.516725	0.121601	0.293792	0.146836	0.301610	0.187732	0.478545	0.328123	0.221684	0.131064	0.323379	0.165437	0.216877	0.212110	0.160808	0.445697	0.661325	0.030337	0.198065	0.384585	0.252916	0.333937	0.232822	0.643384	0.594219	0.077664	0.069888	0.177654	0.297711	0.393558	0.681309	0.360021	0.364735	0.060358	0.105575	0.227094	0.233697	0.193096	0.197798	0.529896	0.341652	0.060648	0.378354	0.252969	0.177834	0.535035	0.335698	0.390743	0.851058	0.120649	0.256702	0.320725	0.151949	0.647785	0.345975	0.563657	0.708027	0.055074	0.171612	0.126287	0.284314
67	0.179680	0.585736	0.287313	0.349997	0.032548	0.158584	0.328847	0.245864	0.727976	0.763688	0.489173	0.517971	0.164677	0.276274	0.144023	0.289845	0.174925	0.379125	0.324117	0.202730	0.161878	0.329057	0.269863	0.209768	0.323659	0.192154	0.386552	0.665916	0.035603	0.202223	0.318836	0.297516	0.358244	0.235043	0.620106	0.637148	0.081313	0.070256	0.179167	0.300855	0.427323	0.690774	0.404348	0.370805	0.064999	0.140828	0.220022	0.245009	0.179824	0.181127	0.554486	0.349952	0.058811	0.383405	0.226761	0.175417	0.535093	0.337456	0.246039	0.853460	0.124022	0.257814	0.318517	0.156141	0.568333	0.309906	0.581180	0.737469	0.060045	0.184217	0.127255	0.268475
68	0.175251	0.568595	0.287921	0.374205	0.030318	0.158702	0.285461	0.245164	0.682595	0.722942	0.586598	0.497877	0.210485	0.230259	0.154825	0.243798	0.172510	0.173074	0.278675	0.201829	0.173183	0.352367	0.314120	0.223895	0.327723	0.194417	0.363893	0.637101	0.039763	0.199424	0.301648	0.316030	0.361339	0.235302	0.666182	0.629678	0.088744	0.097923	0.193617	0.283281	0.433651	0.692834	0.410267	0.327697	0.065674	0.148436	0.208181	0.240304	0.183136	0.168605	0.549341	0.367024	0.062362	0.392028	0.221617	0.145906	0.525309	0.337905	0.210594	0.882359	0.131932	0.262612	0.305001	0.138419	0.434330	0.267254	0.602827	0.736133	0.064628	0.172430	0.145426	0.239996
69	0.155790	0.377839	0.363847	0.390398	0.026918	0.162077	0.281593	0.297011	0.683449	0.704880	0.587756	0.492276	0.256944	0.317599	0.167431	0.162611	0.169525	0.168920	0.270282	0.151946	0.175416	0.367496	0.316365	0.222482	0.339075	0.202208	0.375841	0.682761	0.040862	0.200715	0.293285	0.334492	0.354106	0.222129	0.724337	0.632918	0.096641	0.131686	0.271734	0.268431	0.436871	0.693071	0.411241	0.246960	0.087697	0.167392	0.141309	0.254684	0.202303	0.211806	0.545042	0.357772	0.062341	0.415999	0.223534	0.137353	0.557221	0.383281	0.202108	0.914252	0.133095	0.247342	0.288778	0.132364	0.427424	0.291859	0.605613	0.730082	0.064338	0.155808	0.165349	0.247589
70	0.141775	0.258945	0.390637	0.392975	0.026834	0.219097	0.289184	0.397556	0.655866	0.695101	0.579947	0.529214	0.370869	0.335493	0.169858	0.102051	0.166194	0.161221	0.213184	0.143762	0.198172	0.406478	0.342332	0.220359	0.384070	0.230798	0.407009	0.748771	0.040014	0.205630	0.251148	0.350032	0.344046	0.208279	0.734183	0.652768	0.098080	0.131414	0.324702	0.270824	0.436017	0.694279	0.418311	0.194882	0.117608	0.166772	0.147741	0.254352	0.273368	0.224236	0.555983	0.359625	0.060987	0.436066	0.232466	0.101146	0.598032	0.428002	0.216070	0.927492	0.156391	0.216841	0.285381	0.131551	0.476078	0.396356	0.603098	0.715386	0.064115	0.159244	0.153636	0.248110
71	0.141110	0.259542	0.366343	0.394962	0.027449	0.282128	0.289844	0.419428	0.524009	0.647904	0.569684	0.573798	0.376673	0.377625	0.165903	0.108649	0.133255	0.151904	0.205390	0.170607	0.229282	0.444545	0.398617	0.225253	0.432948	0.245701	0.419167	0.705318	0.038969	0.297888	0.237790	0.346181	0.353191	0.215614	0.675632	0.618850	0.111802	0.158899	0.322841	0.264696	0.438881	0.685276	0.407060	0.170836	0.127192	0.213648	0.131371	0.248607	0.327712	0.219614	0.563417	0.408519	0.060214	0.439339	0.232741	0.104025	0.607220	0.465821	0.201290	0.905649	0.239783	0.222861	0.252222	0.141742	0.505503	0.454658	0.594046	0.647988	0.064322	0.159647	0.178213	0.227433
72	0.103874	0.167051	0.358907	0.420993	0.027747	0.301771	0.281646	0.429765	0.455244	0.532828	0.549625	0.596407	0.378036	0.404994	0.167256	0.109220	0.086581	0.136989	0.182039	0.172996	0.230104	0.425737	0.443961	0.228919	0.464276	0.245835	0.437951	0.675678	0.039760	0.377958	0.222813	0.335987	0.451961	0.250216	0.656155	0.519292	0.133745	0.175610	0.325828	0.220183	0.413915	0.651892	0.395262	0.171265	0.126331	0.291400	0.126439	0.217818	0.339752	0.225415	0.558907	0.386408	0.062137	0.529189	0.234727	0.107309	0.612471	0.472887	0.203592	0.911484	0.267698	0.222245	0.219758	0.158859	0.487951	0.452846	0.582420	0.581212	0.064607	0.158436	0.244553	0.227933
73	0.095373	0.149570	0.374008	0.437877	0.027675	0.370380	0.253786	0.438937	0.454699	0.501943	0.581746	0.558225	0.381445	0.430777	0.164563	0.121832	0.040178	0.138793	0.183973	0.166153	0.230287	0.411040	0.452372	0.236395	0.514240	0.259963	0.425553	0.696981	0.039983	0.379982	0.235355	0.332962	0.586418	0.293615	0.671934	0.497104	0.142860	0.198120	0.343810	0.226944	0.404425	0.638612	0.374997	0.168761	0.125985	0.358575	0.122593	0.185127	0.443957	0.253660	0.543973	0.465152	0.066410	0.540948	0.225909	0.106335	0.617009	0.489236	0.203990	0.835514	0.270810	0.221850	0.208946	0.166613	0.478103	0.444932	0.562526	0.522764	0.069083	0.149617	0.275512	0.211267
74	0.091940	0.128333	0.357761	0.435679	0.050321	0.376317	0.257612	0.425013	0.423251	0.428716	0.576105	0.529354	0.380004	0.482564	0.160000	0.127814	0.042161	0.135406	0.201980	0.158252	0.230243	0.390181	0.454732	0.267275	0.554854	0.302228	0.447165	0.669496	0.044812	0.422681	0.273422	0.332944	0.648518	0.285120	0.586984	0.459886	0.142366	0.215076	0.357476	0.216509	0.362681	0.501896	0.357490	0.170856	0.130969	0.372816	0.123791	0.183401	0.503530	0.263773	0.451503	0.567791	0.063913	0.586889	0.193072	0.098687	0.723920	0.536716	0.197478	0.663654	0.270999	0.206016	0.206621	0.171734	0.479806	0.458139	0.489398	0.484527	0.085096	0.154740	0.278256	0.188547
75	0.090665	0.101637	0.346760	0.362706	0.087214	0.376020	0.223467	0.420326	0.360347	0.294593	0.573030	0.511960	0.373873	0.496129	0.155716	0.130704	0.042592	0.133977	0.209505	0.158639	0.230955	0.364288	0.466582	0.271775	0.658303	0.307455	0.504331	0.677194	0.057749	0.530898	0.275207	0.332483	0.664863	0.282294	0.522525	0.464334	0.141712	0.242622	0.377855	0.208271	0.324107	0.362704	0.338545	0.187772	0.144985	0.484128	0.125110	0.181617	0.514243	0.259929	0.422625	0.584002	0.059656	0.579191	0.161784	0.088665	0.733347	0.540717	0.226804	0.667458	0.300874	0.163924	0.159995	0.167704	0.501085	0.488288	0.463150	0.469175	0.094910	0.163016	0.279239	0.193002
76	0.092205	0.100721	0.327926	0.340059	0.102599	0.382579	0.202180	0.420751	0.322443	0.291603	0.542402	0.512910	0.368170	0.510740	0.144465	0.132334	0.046132	0.127040	0.201435	0.159453	0.215803	0.352351	0.480380	0.258317	0.678589	0.302687	0.532827	0.670719	0.073807	0.593279	0.295031	0.330597	0.617635	0.285090	0.525590	0.466583	0.199400	0.248002	0.386854	0.201689	0.210773	0.314462	0.232526	0.193455	0.151885	0.516374	0.122498	0.164007	0.529346	0.251853	0.356703	0.563942	0.058940	0.556859	0.149035	0.086104	0.727478	0.535105	0.242708	0.699319	0.363139	0.113136	0.082696	0.158140	0.532412	0.498095	0.321595	0.370182	0.092685	0.163818	0.305247	0.200067
77	0.094180	0.102637	0.330023	0.452575	0.102932	0.401670	0.198224	0.419439	0.302306	0.297962	0.433856	0.508994	0.361305	0.516111	0.152681	0.160683	0.044770	0.122633	0.218808	0.244436	0.188735	0.332436	0.452496	0.240021	0.646052	0.292434	0.534147	0.671254	0.084644	0.603718	0.330351	0.333595	0.602552	0.295574	0.536661	0.447788	0.243354	0.248228	0.381667	0.200636	0.177985	0.306703	0.236726	0.176172	0.147169	0.532645	0.120435	0.146451	0.527631	0.247710	0.349811	0.560014	0.060351	0.501950	0.117860	0.087069	0.726839	0.531985	0.246112	0.710648	0.414446	0.113172	0.069212	0.166937	0.532804	0.498008	0.288084	0.249272	0.109286	0.176734	0.351487	0.200332
78	0.089338	0.097621	0.349174	0.447823	0.104039	0.418801	0.196393	0.418235	0.268448	0.299261	0.405624	0.494487	0.332418	0.555107	0.162311	0.156273	0.046241	0.116806	0.307234	0.422282	0.172060	0.312607	0.408041	0.260794	0.613549	0.284968	0.523100	0.665539	0.087297	0.598604	0.357628	0.329652	0.680150	0.299949	0.500606	0.397547	0.268233	0.255552	0.379505	0.193103	0.163511	0.307650	0.405080	0.503787	0.146538	0.566536	0.109722	0.136588	0.510355	0.210529	0.368887	0.603716	0.059688	0.499845	0.112776	0.086117	0.728617	0.532295	0.255244	0.633815	0.425404	0.220022	0.070284	0.173921	0.551700	0.502060	0.207298	0.188611	0.113837	0.166664	0.363224	0.196936
79	0.080505	0.097233	0.367463	0.452461	0.110749	0.420278	0.207495	0.420424	0.211443	0.293949	0.418149	0.432467	0.327559	0.546565	0.171677	0.167242	0.047473	0.103539	0.428287	0.463550	0.168339	0.286668	0.407942	0.247584	0.612189	0.284795	0.532963	0.626884	0.087231	0.581623	0.370130	0.311457	0.784934	0.299831	0.427684	0.396534	0.277017	0.254119	0.377342	0.180119	0.159296	0.300458	0.498559	0.603306	0.168703	0.565923	0.108542	0.128400	0.486507	0.170189	0.380585	0.632240	0.055840	0.495156	0.113863	0.104592	0.686330	0.491889	0.265473	0.562471	0.427251	0.375754	0.067801	0.172722	0.563965	0.506687	0.199027	0.187268	0.114836	0.162267	0.367770	0.194241
80	0.076822	0.108829	0.420033	0.474844	0.129626	0.421390	0.220105	0.411075	0.203538	0.249177	0.508767	0.377424	0.199373	0.518622	0.190167	0.209754	0.049055	0.087361	0.473740	0.516317	0.160791	0.272741	0.446975	0.242817	0.597338	0.264617	0.565943	0.509211	0.085480	0.576835	0.361213	0.262011	0.819396	0.298709	0.419014	0.370154	0.276893	0.240561	0.353112	0.163079	0.158104	0.247212	0.503546	0.617561	0.164035	0.590165	0.095897	0.103921	0.439347	0.157263	0.378579	0.617742	0.055035	0.479066	0.118656	0.112821	0.621710	0.439327	0.226308	0.623689	0.429086	0.379656	0.057600	0.169104	0.548247	0.474963	0.193641	0.187119	0.112339	0.142174	0.367416	0.192723
81	0.073316	0.107860	0.470644	0.447250	0.137558	0.412207	0.211479	0.361182	0.169177	0.197226	0.595950	0.370609	0.153457	0.492264	0.193722	0.200081	0.049055	0.073169	0.533547	0.618037	0.093593	0.139875	0.435329	0.236957	0.557496	0.233453	0.577012	0.447457	0.086152	0.580699	0.348656	0.200215	0.853092	0.298340	0.429839	0.332490	0.287828	0.238451	0.285771	0.146396	0.133100	0.169563	0.558001	0.626655	0.150370	0.612346	0.087178	0.107263	0.415837	0.158499	0.404666	0.607715	0.054365	0.436488	0.161345	0.116526	0.583171	0.394250	0.254622	0.752666	0.432364	0.439057	0.089837	0.165398	0.508081	0.388724	0.220984	0.175949	0.111661	0.144347	0.360141	0.186275
82	0.083834	0.121422	0.464077	0.457420	0.140519	0.377793	0.209100	0.302123	0.157947	0.195219	0.554376	0.366439	0.151838	0.516331	0.226551	0.216325	0.046443	0.072881	0.742033	0.621077	0.071041	0.059939	0.382217	0.212224	0.536404	0.226953	0.568694	0.431144	0.091429	0.583662	0.340845	0.147419	0.849164	0.291497	0.427847	0.300767	0.296121	0.239357	0.257557	0.143610	0.098466	0.129935	0.594909	0.661635	0.153489	0.592016	0.101927	0.111559	0.374643	0.122682	0.440730	0.569634	0.053806	0.430690	0.187929	0.131486	0.577037	0.383956	0.273392	0.815293	0.417126	0.458719	0.125530	0.161099	0.470843	0.346091	0.275570	0.229759	0.122699	0.176736	0.357463	0.173310
83	0.091264	0.122953	0.461988	0.453664	0.143411	0.396513	0.202301	0.298663	0.154848	0.165719	0.617227	0.305557	0.149149	0.463903	0.241428	0.221965	0.039318	0.084802	0.829605	0.618936	0.079232	0.060345	0.344861	0.212280	0.506836	0.225955	0.552792	0.382482	0.095014	0.586072	0.341033	0.115913	0.782535	0.238067	0.377864	0.332729	0.290383	0.220959	0.255231	0.144033	0.076166	0.134030	0.589463	0.736520	0.166077	0.550939	0.102144	0.108210	0.218381	0.068865	0.404408	0.466029	0.053630	0.337834	0.190088	0.151868	0.515875	0.327794	0.286197	0.800075	0.400888	0.456154	0.132943	0.143003	0.420236	0.362218	0.305345	0.358904	0.136138	0.199219	0.362551	0.162574
84	0.097632	0.122063	0.467110	0.482359	0.143722	0.327046	0.172017	0.260454	0.138313	0.129779	0.676746	0.252595	0.175918	0.438034	0.242314	0.230977	0.036539	0.086554	0.833433	0.625933	0.090191	0.124645	0.341151	0.189315	0.495598	0.190632	0.548716	0.356047	0.095676	0.528200	0.340461	0.109642	0.707758	0.215030	0.437684	0.339576	0.298308	0.221666	0.232914	0.140669	0.078922	0.101588	0.588774	0.772449	0.171376	0.524713	0.101607	0.108617	0.162741	0.067596	0.413660	0.403285	0.051129	0.306825	0.192049	0.168754	0.261628	0.184826	0.285912	0.803451	0.493622	0.457805	0.133227	0.135361	0.410296	0.361712	0.323027	0.368305	0.142761	0.203451	0.341914	0.153374
85	0.096539	0.115571	0.483595	0.404745	0.140763	0.320051	0.151268	0.255258	0.111994	0.105665	0.690447	0.257150	0.204133	0.392979	0.245836	0.231514	0.034907	0.084437	0.842045	0.620403	0.096169	0.152257	0.327398	0.166334	0.455276	0.147539	0.526528	0.334901	0.096036	0.501494	0.338872	0.109278	0.678200	0.213366	0.484758	0.330994	0.316065	0.189833	0.219840	0.137012	0.083888	0.101666	0.589167	0.772051	0.166515	0.505273	0.095958	0.108651	0.096648	0.072323	0.452781	0.398367	0.050983	0.235116	0.202258	0.173919	0.149754	0.149804	0.259708	0.823433	0.615609	0.457832	0.136348	0.143460	0.394740	0.332943	0.326696	0.370358	0.143442	0.212001	0.301808	0.151205
86	0.121062	0.117175	0.440093	0.358312	0.122194	0.342265	0.139455	0.259407	0.092768	0.085759	0.691094	0.350561	0.207850	0.386090	0.247548	0.235187	0.029156	0.082887	0.824556	0.531565	0.089609	0.160293	0.300871	0.175996	0.327541	0.144857	0.469671	0.415825	0.095951	0.522725	0.317590	0.106762	0.685219	0.195651	0.495825	0.405580	0.316734	0.173450	0.202970	0.131865	0.092084	0.114079	0.588025	0.772114	0.174535	0.394709	0.090648	0.107447	0.076152	0.092340	0.484940	0.438137	0.047555	0.204195	0.214555	0.173532	0.136694	0.146120	0.250424	0.827751	0.668965	0.460308	0.140086	0.159199	0.341025	0.311345	0.326017	0.434126	0.140585	0.213630	0.284366	0.150010
87	0.129851	0.121914	0.370045	0.374818	0.106401	0.340903	0.133237	0.288903	0.078451	0.082697	0.690972	0.380735	0.269847	0.360734	0.244361	0.242687	0.028611	0.077458	0.771653	0.502622	0.090247	0.184707	0.299787	0.196683	0.350007	0.143531	0.435563	0.477951	0.092452	0.467119	0.288597	0.105939	0.690712	0.176639	0.498324	0.437411	0.308631	0.157761	0.182586	0.134907	0.092345	0.112678	0.545252	0.840486	0.189620	0.378310	0.087732	0.099809	0.079660	0.105667	0.484825	0.479856	0.044976	0.205584	0.227476	0.172357	0.198084	0.151512	0.247581	0.845298	0.661484	0.467589	0.140351	0.160650	0.328153	0.339586	0.321719	0.429195	0.153483	0.202120	0.284636	0.139892
88	0.136613	0.120211	0.356289	0.368232	0.103428	0.320715	0.123445	0.290138	0.065029	0.084105	0.695105	0.488285	0.311581	0.344914	0.238923	0.248837	0.034648	0.078636	0.759928	0.492475	0.091146	0.191043	0.301570	0.173810	0.385874	0.135059	0.440191	0.481137	0.083530	0.352586	0.285321	0.099307	0.658216	0.166297	0.493128	0.498898	0.303027	0.215927	0.188374	0.158474	0.099212	0.114237	0.421056	0.737563	0.246319	0.326993	0.087179	0.079316	0.082273	0.109754	0.475890	0.428953	0.042556	0.177088	0.234235	0.171190	0.278970	0.149280	0.238001	0.848755	0.676679	0.487915	0.139683	0.159286	0.326749	0.358238	0.340867	0.428072	0.167920	0.210579	0.282561	0.103849
89	0.143014	0.130180	0.276091	0.338576	0.104214	0.294020	0.124368	0.299861	0.056262	0.091001	0.623308	0.505391	0.331485	0.292388	0.227927	0.254471	0.060266	0.084872	0.701311	0.400909	0.088882	0.190659	0.309966	0.159587	0.403915	0.137768	0.439782	0.482246	0.069780	0.266571	0.254820	0.082427	0.518014	0.163829	0.500120	0.607386	0.306992	0.221923	0.193983	0.184583	0.130392	0.112990	0.406278	0.734356	0.247052	0.283515	0.087826	0.078142	0.084050	0.118169	0.511716	0.418627	0.040290	0.177367	0.234821	0.175848	0.295571	0.134251	0.233961	0.835864	0.686400	0.515476	0.139676	0.145627	0.275170	0.365434	0.347948	0.429306	0.167669	0.210743	0.236953	0.100259
90	0.145125	0.138754	0.228451	0.318606	0.100029	0.305455	0.112896	0.305653	0.051755	0.091347	0.527239	0.490849	0.327158	0.302666	0.207662	0.226941	0.075622	0.113340	0.464195	0.399040	0.089328	0.189798	0.273318	0.156300	0.418762	0.169287	0.413215	0.482194	0.058549	0.271230	0.201711	0.072363	0.421161	0.164190	0.488710	0.620078	0.291116	0.218345	0.216640	0.187564	0.140380	0.109913	0.394004	0.734355	0.226840	0.272669	0.090031	0.086457	0.082736	0.117620	0.541902	0.431254	0.037610	0.167468	0.233813	0.183688	0.310179	0.161497	0.225001	0.769866	0.720644	0.467914	0.142112	0.153222	0.270685	0.366294	0.505237	0.452319	0.158724	0.215491	0.173704	0.102496
91	0.149711	0.151965	0.234163	0.322533	0.083729	0.314516	0.083040	0.306915	0.060836	0.094212	0.698503	0.494009	0.326941	0.299174	0.193482	0.216087	0.077720	0.108188	0.335424	0.401514	0.089418	0.220351	0.200661	0.153576	0.419353	0.179635	0.343004	0.471779	0.054236	0.273888	0.175242	0.230291	0.382263	0.178699	0.514844	0.636077	0.288506	0.227426	0.227017	0.193187	0.156679	0.122540	0.367050	0.743909	0.226676	0.187384	0.095222	0.135337	0.093171	0.125148	0.511409	0.468320	0.034935	0.179403	0.236921	0.184197	0.346814	0.187493	0.186349	0.667239	0.742877	0.389172	0.145538	0.188944	0.273114	0.368696	0.684548	0.480310	0.155688	0.219427	0.147386	0.103962
92	0.150942	0.155746	0.243397	0.357615	0.059826	0.308823	0.070269	0.251456	0.072397	0.098547	0.686681	0.516000	0.322112	0.257620	0.190026	0.217467	0.078127	0.107673	0.331333	0.399092	0.089490	0.282492	0.178172	0.153032	0.417526	0.182803	0.309806	0.505558	0.050257	0.273073	0.155824	0.334885	0.356378	0.216100	0.534474	0.651242	0.279928	0.230267	0.224713	0.194673	0.166475	0.139989	0.366587	0.726593	0.229078	0.134481	0.088924	0.142367	0.126611	0.202388	0.557190	0.477895	0.039363	0.178850	0.206031	0.186705	0.403612	0.212659	0.154305	0.574209	0.754232	0.407883	0.143484	0.199229	0.258257	0.370092	0.731119	0.697162	0.155095	0.220501	0.138973	0.104365
93	0.151414	0.155943	0.282363	0.440220	0.053980	0.297792	0.082608	0.247446	0.071469	0.085758	0.692152	0.631969	0.322124	0.216559	0.158558	0.191253	0.079161	0.112663	0.309374	0.365796	0.085575	0.295656	0.177272	0.148625	0.405441	0.196402	0.311215	0.544097	0.049747	0.267787	0.139811	0.343169	0.381981	0.219220	0.536503	0.665473	0.265800	0.224441	0.222189	0.197260	0.161367	0.133375	0.367462	0.703072	0.232321	0.138280	0.075408	0.147076	0.168727	0.220610	0.609460	0.556414	0.044687	0.182122	0.172759	0.179393	0.452724	0.229878	0.123028	0.610558	0.754655	0.370318	0.121504	0.198568	0.267798	0.373911	0.713177	0.755195	0.154803	0.221888	0.139341	0.104669
94	0.140527	0.159629	0.276078	0.460990	0.048704	0.322279	0.082757	0.246374	0.066246	0.079982	0.688323	0.637990	0.319408	0.222309	0.145585	0.244388	0.079960	0.115629	0.365278	0.374643	0.073920	0.325136	0.183893	0.136268	0.391166	0.200034	0.309895	0.536407	0.044391	0.264329	0.149036	0.369393	0.410853	0.217082	0.537526	0.711651	0.262265	0.227714	0.223482	0.200479	0.156066	0.128855	0.373697	0.690166	0.235415	0.140599	0.083326	0.165202	0.170738	0.219853	0.613588	0.586516	0.042937	0.183486	0.163970	0.160509	0.460032	0.230205	0.151379	0.624342	0.753569	0.363694	0.091628	0.198904	0.423370	0.378214	0.700200	0.830800	0.153423	0.214693	0.132670	0.102486
95	0.129285	0.162369	0.280699	0.438848	0.047495	0.345713	0.112794	0.232795	0.068128	0.070886	0.688243	0.600050	0.332058	0.203650	0.137485	0.288701	0.084705	0.120230	0.459913	0.482108	0.061864	0.332218	0.204932	0.126666	0.354786	0.199962	0.318754	0.516664	0.031999	0.250711	0.151403	0.422442	0.420916	0.223868	0.536509	0.717929	0.250205	0.253146	0.227735	0.199114	0.149882	0.125937	0.402564	0.688917	0.244023	0.122913	0.096483	0.172036	0.177998	0.223991	0.619972	0.586690	0.038430	0.155949	0.163637	0.148936	0.478112	0.288872	0.240357	0.610515	0.733038	0.362146	0.085316	0.198347	0.600694	0.390452	0.694769	0.977547	0.142093	0.178842	0.113277	0.093192
96	0.127812	0.174469	0.282995	0.420208	0.052943	0.386603	0.153215	0.220394	0.087613	0.078579	0.723917	0.589182	0.358711	0.199342	0.129525	0.295991	0.130874	0.125726	0.462745	0.455418	0.059003	0.332017	0.222919	0.126702	0.314254	0.189428	0.331233	0.520815	0.024185	0.240581	0.148912	0.434931	0.439377	0.252865	0.540918	0.701181	0.222573	0.266745	0.224682	0.184039	0.145993	0.118033	0.446203	0.641306	0.244276	0.119244	0.097479	0.194392	0.200409	0.220270	0.615315	0.486223	0.035790	0.141653	0.154800	0.153675	0.556362	0.386159	0.241827	0.541986	0.653263	0.362011	0.084508	0.191045	0.662268	0.389287	0.698124	0.998738	0.133750	0.166211	0.089826	0.081923
97	0.128928	0.184245	0.268696	0.433550	0.063560	0.404886	0.158781	0.217015	0.094567	0.079818	0.784297	0.517098	0.355794	0.202891	0.115028	0.300805	0.139866	0.106273	0.496315	0.454410	0.045198	0.327990	0.222059	0.112522	0.293587	0.189059	0.332086	0.517451	0.021831	0.255865	0.165447	0.482676	0.435590	0.256876	0.532688	0.654554	0.211086	0.303418	0.209752	0.164554	0.146003	0.112413	0.443675	0.451553	0.223046	0.125586	0.097502	0.212077	0.232525	0.222712	0.625555	0.495416	0.048373	0.131640	0.140885	0.163663	0.605264	0.422109	0.262338	0.491575	0.547554	0.379609	0.077804	0.177608	0.663780	0.353477	0.753297	0.973277	0.132257	0.159499	0.074801	0.081054
98	0.126597	0.169337	0.257907	0.451706	0.062432	0.404382	0.165562	0.174894	0.123641	0.079295	0.779795	0.496214	0.307537	0.202327	0.146805	0.286646	0.134393	0.076699	0.569238	0.458210	0.049054	0.321121	0.205515	0.099756	0.261504	0.199343	0.402596	0.487167	0.020255	0.235750	0.173771	0.548226	0.457875	0.263737	0.537835	0.649935	0.213129	0.335000	0.197658	0.158258	0.124554	0.111005	0.478652	0.448890	0.199308	0.125439	0.102504	0.213314	0.261084	0.247191	0.645634	0.773751	0.055035	0.120994	0.121344	0.166359	0.589233	0.425732	0.269610	0.500708	0.514973	0.390087	0.076650	0.165051	0.680940	0.326954	0.835099	0.986865	0.145132	0.214217	0.084653	0.080476
99	0.172406	0.151443	0.333690	0.476469	0.062259	0.404451	0.178208	0.166300	0.204007	0.111773	0.809675	0.533153	0.285849	0.187081	0.171604	0.279168	0.139191	0.073803	0.585222	0.483517	0.058986	0.325405	0.192547	0.095032	0.270236	0.201028	0.525727	0.492480	0.022457	0.257559	0.176422	0.603370	0.481928	0.263974	0.537313	0.551100	0.207128	0.316046	0.172218	0.152906	0.111134	0.110718	0.496526	0.455780	0.148552	0.112053	0.113477	0.213541	0.289296	0.251364	0.614905	0.834495	0.057663	0.122572	0.110376	0.166328	0.581854	0.433550	0.258886	0.489432	0.525243	0.383175	0.082314	0.169997	0.710826	0.305056	0.850144	0.996969	0.155102	0.239257	0.087204	0.071214
100	0.232450	0.139677	0.338819	0.501567	0.061713	0.404509	0.191619	0.152804	0.214004	0.118550	0.690898	0.543606	0.302311	0.166155	0.170471	0.275239	0.152352	0.075138	0.581016	0.483090	0.061770	0.327205	0.204503	0.096028	0.255509	0.184843	0.532577	0.492235	0.024109	0.292239	0.187267	0.618869	0.498520	0.261694	0.528456	0.498192	0.093504	0.301135	0.156837	0.108152	0.098558	0.113151	0.471354	0.401996	0.147271	0.097672	0.144186	0.213164	0.422274	0.335191	0.601748	0.825588	0.058666	0.108272	0.112305	0.181874	0.585797	0.436986	0.275917	0.480214	0.484747	0.354764	0.081682	0.168186	0.753443	0.301082	0.853019	0.999288	0.128896	0.237327	0.089578	0.060460
101	0.308844	0.149802	0.362617	0.469682	0.059164	0.396438	0.227965	0.143512	0.213783	0.128165	0.669098	0.579278	0.324673	0.158713	0.178509	0.273650	0.159375	0.073242	0.575940	0.516033	0.068300	0.324930	0.207221	0.100126	0.234691	0.166268	0.568520	0.505922	0.029727	0.300299	0.191288	0.625434	0.496127	0.266789	0.475283	0.490954	0.077455	0.341934	0.147882	0.095055	0.152781	0.110119	0.508550	0.396216	0.158100	0.111088	0.203536	0.205719	0.700638	0.430080	0.605424	0.841287	0.058712	0.102792	0.112798	0.190067	0.564061	0.431229	0.285226	0.500348	0.473847	0.312239	0.080362	0.167279	0.800866	0.335037	0.743250	0.983002	0.112888	0.245127	0.117947	0.050802
