	106_P_T2_sh_R_D_A_01.c3d	106_P_T2_sh_R_D_A_01.c3d	106_P_T2_sh_R_D_A_01.c3d	106_P_T2_sh_R_D_A_01.c3d	106_P_T2_sh_R_D_A_01.c3d	106_P_T2_sh_R_D_A_01.c3d	106_P_T2_sh_R_D_A_01.c3d	106_P_T2_sh_R_D_A_01.c3d	106_P_T2_sh_R_D_A_03.c3d	106_P_T2_sh_R_D_A_03.c3d	106_P_T2_sh_R_D_A_03.c3d	106_P_T2_sh_R_D_A_03.c3d	106_P_T2_sh_R_D_A_03.c3d	106_P_T2_sh_R_D_A_03.c3d	106_P_T2_sh_R_D_A_03.c3d	106_P_T2_sh_R_D_A_03.c3d	106_P_T2_sh_R_D_A_04.c3d	106_P_T2_sh_R_D_A_04.c3d	106_P_T2_sh_R_D_A_04.c3d	106_P_T2_sh_R_D_A_04.c3d	106_P_T2_sh_R_D_A_04.c3d	106_P_T2_sh_R_D_A_04.c3d	106_P_T2_sh_R_D_A_04.c3d	106_P_T2_sh_R_D_A_04.c3d	106_P_T2_sh_R_D_A_05.c3d	106_P_T2_sh_R_D_A_05.c3d	106_P_T2_sh_R_D_A_05.c3d	106_P_T2_sh_R_D_A_05.c3d	106_P_T2_sh_R_D_A_05.c3d	106_P_T2_sh_R_D_A_05.c3d	106_P_T2_sh_R_D_A_05.c3d	106_P_T2_sh_R_D_A_05.c3d	106_P_T2_sh_R_D_A_06.c3d	106_P_T2_sh_R_D_A_06.c3d	106_P_T2_sh_R_D_A_06.c3d	106_P_T2_sh_R_D_A_06.c3d	106_P_T2_sh_R_D_A_06.c3d	106_P_T2_sh_R_D_A_06.c3d	106_P_T2_sh_R_D_A_06.c3d	106_P_T2_sh_R_D_A_06.c3d	106_P_T2_sh_R_D_A_07.c3d	106_P_T2_sh_R_D_A_07.c3d	106_P_T2_sh_R_D_A_07.c3d	106_P_T2_sh_R_D_A_07.c3d	106_P_T2_sh_R_D_A_07.c3d	106_P_T2_sh_R_D_A_07.c3d	106_P_T2_sh_R_D_A_07.c3d	106_P_T2_sh_R_D_A_07.c3d	106_P_T2_sh_R_D_A_08.c3d	106_P_T2_sh_R_D_A_08.c3d	106_P_T2_sh_R_D_A_08.c3d	106_P_T2_sh_R_D_A_08.c3d	106_P_T2_sh_R_D_A_08.c3d	106_P_T2_sh_R_D_A_08.c3d	106_P_T2_sh_R_D_A_08.c3d	106_P_T2_sh_R_D_A_08.c3d	106_P_T2_sh_R_D_A_09.c3d	106_P_T2_sh_R_D_A_09.c3d	106_P_T2_sh_R_D_A_09.c3d	106_P_T2_sh_R_D_A_09.c3d	106_P_T2_sh_R_D_A_09.c3d	106_P_T2_sh_R_D_A_09.c3d	106_P_T2_sh_R_D_A_09.c3d	106_P_T2_sh_R_D_A_09.c3d	106_P_T2_sh_R_D_A_10.c3d	106_P_T2_sh_R_D_A_10.c3d	106_P_T2_sh_R_D_A_10.c3d	106_P_T2_sh_R_D_A_10.c3d	106_P_T2_sh_R_D_A_10.c3d	106_P_T2_sh_R_D_A_10.c3d	106_P_T2_sh_R_D_A_10.c3d	106_P_T2_sh_R_D_A_10.c3d
	Biceps femoris_lat	Semitendinosus_lat	Vastus lateralis_lat	Vastus medialis_lat	Biceps femoris_med	Semitendinosus_med	Vastus lateralis_med	Vastus medialis_med	Biceps femoris_lat	Semitendinosus_lat	Vastus lateralis_lat	Vastus medialis_lat	Biceps femoris_med	Semitendinosus_med	Vastus lateralis_med	Vastus medialis_med	Biceps femoris_lat	Semitendinosus_lat	Vastus lateralis_lat	Vastus medialis_lat	Biceps femoris_med	Semitendinosus_med	Vastus lateralis_med	Vastus medialis_med	Biceps femoris_lat	Semitendinosus_lat	Vastus lateralis_lat	Vastus medialis_lat	Biceps femoris_med	Semitendinosus_med	Vastus lateralis_med	Vastus medialis_med	Biceps femoris_lat	Semitendinosus_lat	Vastus lateralis_lat	Vastus medialis_lat	Biceps femoris_med	Semitendinosus_med	Vastus lateralis_med	Vastus medialis_med	Biceps femoris_lat	Semitendinosus_lat	Vastus lateralis_lat	Vastus medialis_lat	Biceps femoris_med	Semitendinosus_med	Vastus lateralis_med	Vastus medialis_med	Biceps femoris_lat	Semitendinosus_lat	Vastus lateralis_lat	Vastus medialis_lat	Biceps femoris_med	Semitendinosus_med	Vastus lateralis_med	Vastus medialis_med	Biceps femoris_lat	Semitendinosus_lat	Vastus lateralis_lat	Vastus medialis_lat	Biceps femoris_med	Semitendinosus_med	Vastus lateralis_med	Vastus medialis_med	Biceps femoris_lat	Semitendinosus_lat	Vastus lateralis_lat	Vastus medialis_lat	Biceps femoris_med	Semitendinosus_med	Vastus lateralis_med	Vastus medialis_med
	P2D	P2D	P2D	P2D	P2D	P2D	P2D	P2D	P2D	P2D	P2D	P2D	P2D	P2D	P2D	P2D	P2D	P2D	P2D	P2D	P2D	P2D	P2D	P2D	P2D	P2D	P2D	P2D	P2D	P2D	P2D	P2D	P2D	P2D	P2D	P2D	P2D	P2D	P2D	P2D	P2D	P2D	P2D	P2D	P2D	P2D	P2D	P2D	P2D	P2D	P2D	P2D	P2D	P2D	P2D	P2D	P2D	P2D	P2D	P2D	P2D	P2D	P2D	P2D	P2D	P2D	P2D	P2D	P2D	P2D	P2D	P2D
	EMG_lat	EMG_lat	EMG_lat	EMG_lat	EMG_med	EMG_med	EMG_med	EMG_med	EMG_lat	EMG_lat	EMG_lat	EMG_lat	EMG_med	EMG_med	EMG_med	EMG_med	EMG_lat	EMG_lat	EMG_lat	EMG_lat	EMG_med	EMG_med	EMG_med	EMG_med	EMG_lat	EMG_lat	EMG_lat	EMG_lat	EMG_med	EMG_med	EMG_med	EMG_med	EMG_lat	EMG_lat	EMG_lat	EMG_lat	EMG_med	EMG_med	EMG_med	EMG_med	EMG_lat	EMG_lat	EMG_lat	EMG_lat	EMG_med	EMG_med	EMG_med	EMG_med	EMG_lat	EMG_lat	EMG_lat	EMG_lat	EMG_med	EMG_med	EMG_med	EMG_med	EMG_lat	EMG_lat	EMG_lat	EMG_lat	EMG_med	EMG_med	EMG_med	EMG_med	EMG_lat	EMG_lat	EMG_lat	EMG_lat	EMG_med	EMG_med	EMG_med	EMG_med
ITEM	Y	Y	Y	Y	Y	Y	Y	Y	Y	Y	Y	Y	Y	Y	Y	Y	Y	Y	Y	Y	Y	Y	Y	Y	Y	Y	Y	Y	Y	Y	Y	Y	Y	Y	Y	Y	Y	Y	Y	Y	Y	Y	Y	Y	Y	Y	Y	Y	Y	Y	Y	Y	Y	Y	Y	Y	Y	Y	Y	Y	Y	Y	Y	Y	Y	Y	Y	Y	Y	Y	Y	Y
1	0.146176	0.260750	0.100465	0.102872	0.129058	0.097913	0.103261	0.169618	0.053596	0.057825	0.169535	0.090077	0.073143	0.295779	0.108866	0.185703	0.287948	0.366141	0.089309	0.132005	0.082648	0.986997	0.053532	0.043438	0.106746	0.055121	0.084415	0.119297	0.065167	0.128476	0.063944	0.245189	0.072376	0.110287	0.250685	0.175009	0.218485	0.472986	0.094873	0.080217	0.175170	0.133135	0.158746	0.137156	0.269245	0.137344	0.219446	0.438657	0.150336	0.054289	0.112109	0.130653	0.136542	0.536984	0.073142	0.218281	0.075148	0.074139	0.066418	0.075112	0.067680	0.035781	0.106618	0.131585	0.034158	0.203359	0.095391	0.296384	0.061465	0.076779	0.103206	0.170212
2	0.147999	0.253466	0.070922	0.108957	0.081165	0.090142	0.107363	0.164411	0.055758	0.047634	0.155233	0.114163	0.070598	0.281821	0.107325	0.162550	0.301519	0.383389	0.118258	0.249497	0.083266	0.975871	0.060804	0.070767	0.106908	0.057924	0.102109	0.115460	0.064098	0.114356	0.054906	0.242912	0.073992	0.115911	0.301050	0.177094	0.206088	0.459592	0.093578	0.086527	0.170352	0.132998	0.165433	0.123110	0.228587	0.120993	0.217206	0.395322	0.149609	0.055738	0.168774	0.135370	0.138260	0.527443	0.071549	0.223440	0.074851	0.073548	0.070157	0.162936	0.067419	0.029536	0.103091	0.076656	0.036264	0.211817	0.089356	0.254509	0.050271	0.079928	0.102235	0.177215
3	0.140180	0.253600	0.075668	0.117290	0.067661	0.098661	0.131606	0.157199	0.042791	0.045912	0.139492	0.118953	0.068811	0.266453	0.096565	0.158048	0.305983	0.390684	0.173890	0.295931	0.086976	1.038626	0.066542	0.076619	0.106957	0.058751	0.116987	0.121794	0.066868	0.120935	0.054191	0.183882	0.088371	0.111971	0.305630	0.180168	0.207583	0.453583	0.085574	0.098331	0.166682	0.133875	0.171948	0.125293	0.089448	0.069349	0.214665	0.285946	0.150456	0.059367	0.307103	0.221512	0.138626	0.467367	0.064583	0.229964	0.067736	0.068540	0.160229	0.159518	0.066413	0.027735	0.113692	0.071144	0.040522	0.286021	0.156888	0.250362	0.049528	0.151476	0.130282	0.182467
4	0.145217	0.185436	0.092752	0.140168	0.068688	0.103045	0.166640	0.170088	0.038122	0.062685	0.129878	0.142274	0.062244	0.141397	0.089181	0.173831	0.277684	0.348787	0.174933	0.337193	0.084236	1.002966	0.075176	0.089763	0.110262	0.069938	0.117064	0.110826	0.070270	0.122583	0.057288	0.110004	0.109707	0.112802	0.319716	0.204867	0.204459	0.350476	0.075529	0.144633	0.125501	0.091723	0.194654	0.136339	0.077206	0.058365	0.185618	0.110383	0.153177	0.056429	0.333561	0.219534	0.139085	0.453952	0.064342	0.212281	0.062421	0.065236	0.167994	0.186899	0.071313	0.051684	0.111446	0.111162	0.043787	0.283470	0.182305	0.293308	0.062555	0.151166	0.124210	0.172652
5	0.217503	0.164734	0.100295	0.137123	0.073260	0.094279	0.179698	0.182753	0.052157	0.063386	0.118039	0.144520	0.065936	0.129132	0.090343	0.170908	0.249823	0.277848	0.196811	0.397768	0.084785	0.848970	0.076824	0.090109	0.103595	0.070605	0.126725	0.139085	0.078943	0.129235	0.072012	0.088297	0.143437	0.113621	0.285088	0.239129	0.196606	0.259291	0.087832	0.239912	0.081259	0.074022	0.194266	0.189853	0.058044	0.080928	0.139448	0.085309	0.149697	0.077004	0.397905	0.218769	0.127278	0.388461	0.061442	0.208183	0.062411	0.070146	0.186032	0.207322	0.085241	0.073652	0.112391	0.149690	0.041752	0.282924	0.215507	0.267361	0.074557	0.208911	0.125127	0.171725
6	0.244939	0.144933	0.120294	0.141549	0.066738	0.090491	0.183335	0.187845	0.077924	0.137655	0.105826	0.146591	0.089444	0.136679	0.103920	0.151920	0.284456	0.317363	0.228811	0.424752	0.085338	0.807123	0.093448	0.095740	0.093720	0.065370	0.157867	0.192445	0.090459	0.195415	0.114533	0.084659	0.173437	0.122329	0.232926	0.243235	0.174420	0.249696	0.107196	0.267840	0.088136	0.077750	0.194476	0.194911	0.063906	0.105552	0.085556	0.080773	0.126475	0.096053	0.406454	0.237668	0.111543	0.225141	0.069172	0.209306	0.067769	0.062752	0.196050	0.240680	0.083979	0.081310	0.141968	0.178525	0.061248	0.282027	0.232801	0.291970	0.076608	0.266662	0.126684	0.155509
7	0.240441	0.169032	0.127815	0.147827	0.061605	0.091863	0.181616	0.174876	0.078220	0.152651	0.099537	0.146826	0.187138	0.167094	0.178592	0.140217	0.276979	0.311609	0.231480	0.434735	0.086915	0.709589	0.122981	0.095892	0.080390	0.065715	0.163368	0.252255	0.086521	0.314616	0.189023	0.263289	0.175103	0.098208	0.244015	0.237458	0.156875	0.256712	0.146342	0.298625	0.101896	0.079065	0.218610	0.197916	0.077509	0.127520	0.101522	0.089452	0.119656	0.094960	0.396654	0.237542	0.098944	0.168997	0.065331	0.228930	0.068799	0.066554	0.218671	0.232200	0.080324	0.102386	0.225078	0.190803	0.105214	0.261473	0.239217	0.308839	0.093644	0.313610	0.128672	0.113452
8	0.245809	0.130211	0.132253	0.200580	0.062554	0.104234	0.207520	0.303305	0.078480	0.157428	0.076600	0.129655	0.198493	0.181805	0.187761	0.137812	0.245346	0.297264	0.229042	0.460456	0.102195	0.637773	0.143243	0.097400	0.055933	0.074181	0.169750	0.299812	0.082030	0.320079	0.207774	0.320568	0.172302	0.094804	0.241199	0.216250	0.157538	0.261352	0.172476	0.309672	0.103098	0.082026	0.217126	0.216317	0.073558	0.132774	0.099355	0.136369	0.081675	0.094922	0.403866	0.244641	0.097059	0.131332	0.065746	0.231127	0.068946	0.068191	0.210866	0.220004	0.079124	0.103520	0.253271	0.208799	0.115318	0.255441	0.239225	0.318501	0.093772	0.339159	0.152188	0.104891
9	0.283663	0.146621	0.190545	0.207048	0.065087	0.111946	0.231607	0.347201	0.085921	0.155206	0.088016	0.131088	0.203634	0.196382	0.229406	0.139656	0.224402	0.278424	0.234289	0.458297	0.117829	0.617429	0.150364	0.138875	0.067160	0.085900	0.177408	0.298638	0.099973	0.331949	0.234933	0.366956	0.169401	0.087841	0.196739	0.214270	0.126512	0.258878	0.193677	0.368981	0.102104	0.077947	0.214380	0.235066	0.070222	0.133461	0.109546	0.199335	0.078632	0.113499	0.327049	0.229145	0.063165	0.080412	0.094610	0.225192	0.064534	0.061493	0.213747	0.228644	0.081542	0.107469	0.268642	0.210189	0.124617	0.178059	0.232996	0.304110	0.095159	0.314777	0.151842	0.095657
10	0.289515	0.165773	0.215503	0.231990	0.072015	0.159234	0.226257	0.345439	0.085469	0.152074	0.093054	0.141870	0.213971	0.201708	0.257044	0.133036	0.226904	0.250847	0.254512	0.414179	0.173200	0.586674	0.166621	0.209296	0.070453	0.091088	0.154327	0.300088	0.106579	0.470473	0.265905	0.391790	0.155744	0.080460	0.208817	0.212799	0.098257	0.229337	0.193900	0.370769	0.098706	0.094021	0.194353	0.228255	0.081529	0.146739	0.112723	0.200774	0.080194	0.125103	0.302814	0.189881	0.066106	0.076362	0.113225	0.235507	0.055779	0.059874	0.214606	0.204304	0.080109	0.110055	0.261598	0.217672	0.145567	0.207111	0.229769	0.271188	0.155715	0.311576	0.198961	0.085939
11	0.293161	0.169461	0.218907	0.244436	0.082380	0.159969	0.221114	0.351216	0.073707	0.136450	0.095938	0.131235	0.218145	0.203675	0.263867	0.122378	0.230889	0.243857	0.266916	0.552801	0.195249	0.498654	0.182967	0.223933	0.072593	0.087983	0.156624	0.305379	0.108709	0.475609	0.283836	0.394919	0.145359	0.077886	0.185409	0.194171	0.108827	0.279508	0.200012	0.368606	0.093995	0.095786	0.186241	0.181743	0.085467	0.156794	0.118218	0.200471	0.078612	0.123010	0.221426	0.195156	0.071099	0.086978	0.114366	0.215956	0.051607	0.050545	0.197396	0.195868	0.063818	0.098769	0.262679	0.232482	0.148140	0.198400	0.234795	0.262316	0.191907	0.265338	0.189483	0.096666
12	0.293108	0.169544	0.231482	0.252399	0.093841	0.153010	0.198317	0.349535	0.076432	0.091712	0.096407	0.122556	0.223230	0.204453	0.277975	0.147194	0.233545	0.248963	0.292390	0.572778	0.207063	0.245376	0.185654	0.253570	0.073603	0.083587	0.154944	0.296896	0.106612	0.488404	0.291378	0.397040	0.098202	0.081203	0.193461	0.151637	0.109303	0.285262	0.226800	0.352974	0.113537	0.103903	0.184742	0.162473	0.200330	0.145498	0.111778	0.200678	0.075630	0.103884	0.176456	0.167793	0.074910	0.085801	0.118061	0.201177	0.023591	0.048553	0.186358	0.160072	0.044321	0.087207	0.260491	0.220619	0.162660	0.227576	0.239016	0.223521	0.244848	0.204423	0.181290	0.152751
13	0.294168	0.171924	0.239997	0.256033	0.089945	0.152365	0.192407	0.365913	0.275024	0.079039	0.094953	0.121327	0.222720	0.201578	0.295383	0.155694	0.211052	0.227808	0.276206	0.647473	0.226646	0.216146	0.207525	0.259386	0.091474	0.098442	0.133319	0.281979	0.098667	0.491492	0.308898	0.411753	0.065589	0.071737	0.198892	0.144844	0.108527	0.286232	0.231398	0.317101	0.186576	0.157147	0.145155	0.176868	0.240220	0.127338	0.097645	0.202178	0.075669	0.101900	0.179177	0.160116	0.073433	0.082954	0.124696	0.199678	0.176779	0.099696	0.175771	0.151645	0.089076	0.072527	0.189229	0.191588	0.306667	0.210497	0.231213	0.200539	0.402544	0.137117	0.176988	0.170620
14	0.271037	0.174886	0.237127	0.253652	0.094412	0.153741	0.234316	0.367409	0.372834	0.071485	0.122412	0.132120	0.215906	0.185513	0.314852	0.177095	0.165357	0.170740	0.261026	0.635237	0.226323	0.204855	0.213551	0.265939	0.108548	0.120863	0.111585	0.254196	0.089614	0.457089	0.293885	0.414257	0.063909	0.070848	0.181638	0.136635	0.108323	0.277683	0.272914	0.292627	0.198406	0.184244	0.129985	0.154742	0.238478	0.116012	0.084147	0.184929	0.070453	0.120781	0.160506	0.151110	0.071532	0.075165	0.126487	0.189389	0.514212	0.300690	0.153623	0.114167	0.128348	0.129007	0.160686	0.186806	0.331066	0.216634	0.229227	0.189981	0.590744	0.137255	0.157307	0.167797
15	0.211874	0.171217	0.225241	0.255800	0.098792	0.154466	0.244376	0.368465	0.381101	0.081186	0.139543	0.141924	0.149423	0.153307	0.291068	0.201719	0.171137	0.175321	0.268755	0.632967	0.224758	0.206273	0.224136	0.266110	0.115971	0.119097	0.107916	0.163467	0.088718	0.391034	0.276184	0.306956	0.077184	0.073464	0.132646	0.136301	0.106419	0.253355	0.278276	0.260742	0.209343	0.198473	0.139492	0.145283	0.240087	0.114462	0.090584	0.107036	0.100557	0.218304	0.146405	0.140351	0.070095	0.076208	0.152010	0.153812	0.588623	0.449074	0.106040	0.096463	0.170373	0.137943	0.110919	0.175367	0.380581	0.522972	0.197504	0.173835	0.616125	0.166553	0.123251	0.165165
16	0.210998	0.139297	0.219548	0.253350	0.098828	0.145883	0.285928	0.360560	0.442895	0.133157	0.141690	0.154440	0.139567	0.130868	0.285631	0.210234	0.169553	0.172893	0.271014	0.614029	0.210471	0.210285	0.209546	0.266484	0.116526	0.123848	0.072745	0.117332	0.086563	0.385523	0.268619	0.272697	0.077109	0.077240	0.122504	0.141691	0.104836	0.236201	0.269224	0.246370	0.245341	0.291518	0.153463	0.175176	0.248300	0.111546	0.083258	0.131221	0.208443	0.230364	0.110304	0.124648	0.093595	0.088397	0.176253	0.129764	0.601363	0.605044	0.088015	0.078270	0.183072	0.166833	0.123965	0.180689	0.409369	0.553582	0.171193	0.154811	0.611406	0.172926	0.057052	0.187749
17	0.199151	0.134381	0.218634	0.225155	0.090953	0.136054	0.261602	0.237109	0.452622	0.137235	0.249949	0.156697	0.132296	0.104964	0.255691	0.224408	0.151019	0.160219	0.262619	0.612014	0.203422	0.209148	0.216691	0.259438	0.109192	0.154853	0.059063	0.122056	0.062114	0.362104	0.250308	0.190440	0.077842	0.100456	0.112137	0.144164	0.101858	0.220736	0.267024	0.146483	0.283994	0.300766	0.155424	0.186314	0.280263	0.093373	0.095159	0.263383	0.222367	0.243299	0.103329	0.094279	0.115414	0.082237	0.175501	0.125541	0.657501	0.743459	0.085146	0.088106	0.245960	0.244346	0.125230	0.122447	0.436979	0.672616	0.126172	0.150951	0.606751	0.208155	0.086269	0.233582
18	0.152698	0.124973	0.186730	0.241080	0.084172	0.109630	0.249510	0.229609	0.423346	0.133857	0.271540	0.173139	0.115270	0.105127	0.228986	0.249716	0.123572	0.154217	0.202123	0.591441	0.170244	0.180119	0.217033	0.189442	0.108205	0.176594	0.055317	0.112838	0.157999	0.166211	0.214065	0.160626	0.100597	0.112747	0.128195	0.194785	0.091714	0.185262	0.268029	0.143758	0.271173	0.296966	0.141941	0.192239	0.232713	0.083069	0.142851	0.360267	0.250676	0.288822	0.064443	0.092104	0.269228	0.107710	0.197480	0.142121	0.660209	0.769232	0.078217	0.109509	0.270168	0.257637	0.126373	0.099184	0.443286	0.747106	0.082954	0.139914	0.568897	0.281547	0.110398	0.208024
19	0.125398	0.097917	0.156655	0.270779	0.076186	0.078054	0.253016	0.221477	0.332709	0.143263	0.273600	0.227394	0.103745	0.101168	0.215678	0.251714	0.129471	0.136094	0.163682	0.460790	0.173151	0.109271	0.199464	0.182634	0.105765	0.183859	0.044892	0.091293	0.204380	0.156639	0.198244	0.155974	0.098240	0.109457	0.152232	0.213286	0.078632	0.092729	0.265819	0.143366	0.218502	0.272610	0.133599	0.200742	0.238121	0.096917	0.171104	0.382352	0.253824	0.297093	0.023755	0.086055	0.345343	0.100130	0.204048	0.148130	0.578418	0.758849	0.073170	0.147379	0.275021	0.268532	0.126530	0.094050	0.348419	0.754196	0.112921	0.241843	0.480326	0.314673	0.126210	0.219230
20	0.091267	0.087309	0.162184	0.278232	0.099249	0.098480	0.258335	0.231904	0.308834	0.141934	0.248499	0.212121	0.113785	0.104841	0.198033	0.226424	0.167044	0.126913	0.122261	0.365164	0.245022	0.101241	0.194053	0.126635	0.177149	0.215310	0.045433	0.083951	0.270158	0.145864	0.180630	0.147067	0.091184	0.110464	0.169757	0.246473	0.179360	0.073628	0.243287	0.140926	0.208144	0.252023	0.208167	0.201687	0.236886	0.105773	0.239786	0.450960	0.267544	0.297742	0.029079	0.097770	0.384599	0.107598	0.201481	0.147672	0.413729	0.686040	0.132757	0.285133	0.266302	0.275024	0.131282	0.105274	0.326693	0.756014	0.187459	0.269582	0.226299	0.290040	0.160419	0.248082
21	0.089353	0.086195	0.149352	0.298224	0.184193	0.125335	0.258019	0.210326	0.303828	0.118111	0.266780	0.257103	0.134491	0.103713	0.163557	0.215376	0.197603	0.125843	0.113947	0.154729	0.237105	0.116417	0.170711	0.109905	0.460450	0.214190	0.062111	0.099455	0.307953	0.132397	0.157488	0.098922	0.090913	0.133013	0.190162	0.262898	0.224617	0.117562	0.233789	0.088446	0.199120	0.245642	0.200843	0.208129	0.252674	0.164760	0.261070	0.547755	0.277498	0.258653	0.052121	0.094945	0.389137	0.143151	0.196846	0.152611	0.307955	0.619362	0.181667	0.304857	0.250294	0.266530	0.181648	0.142615	0.264660	0.592423	0.203779	0.293423	0.146108	0.285530	0.164191	0.278271
22	0.073982	0.081472	0.133712	0.314137	0.220013	0.146675	0.229581	0.173619	0.259044	0.110193	0.241584	0.261189	0.171351	0.104445	0.101835	0.201902	0.226958	0.109301	0.091925	0.128274	0.243558	0.122186	0.152847	0.082424	0.523520	0.223781	0.115692	0.189033	0.392229	0.132390	0.149790	0.122592	0.108874	0.164962	0.192729	0.267866	0.239217	0.161798	0.170186	0.080248	0.171818	0.127685	0.187338	0.372627	0.256312	0.170893	0.268237	0.554381	0.238034	0.211464	0.097976	0.200233	0.408829	0.164899	0.222400	0.206143	0.228344	0.399918	0.252143	0.310055	0.239745	0.262298	0.248658	0.210093	0.217833	0.559050	0.208886	0.320536	0.098837	0.295322	0.170767	0.261142
23	0.060557	0.073391	0.132709	0.332330	0.320312	0.173070	0.195591	0.180340	0.344996	0.132640	0.238990	0.266088	0.167035	0.114715	0.064507	0.181707	0.221635	0.129309	0.066276	0.116916	0.262428	0.113944	0.113090	0.081700	0.641553	0.244639	0.173723	0.230098	0.455597	0.138421	0.129854	0.129208	0.114257	0.174745	0.192718	0.264957	0.258746	0.202512	0.114515	0.080113	0.080677	0.096128	0.304734	0.389978	0.243199	0.169948	0.269960	0.524936	0.189057	0.207743	0.152009	0.408183	0.418129	0.203640	0.221669	0.245945	0.149868	0.193191	0.270611	0.312723	0.234311	0.213628	0.266539	0.271713	0.152573	0.424429	0.209029	0.309069	0.065618	0.265608	0.170078	0.224975
24	0.057237	0.070732	0.132264	0.334459	0.337672	0.345551	0.163775	0.238306	0.356475	0.130066	0.231780	0.245216	0.163506	0.113168	0.070757	0.183553	0.237901	0.137798	0.041530	0.077311	0.269940	0.100127	0.110131	0.078358	0.670199	0.273915	0.241295	0.226970	0.508879	0.136503	0.121316	0.157169	0.115702	0.172742	0.184146	0.264442	0.271111	0.204043	0.099125	0.080388	0.080344	0.101251	0.329989	0.393610	0.231247	0.193871	0.273210	0.499923	0.163051	0.150580	0.220410	0.443619	0.419349	0.232487	0.212647	0.249363	0.074087	0.153797	0.270320	0.313048	0.141177	0.180945	0.292626	0.316907	0.110786	0.202717	0.224517	0.305785	0.048226	0.170675	0.208558	0.270431
25	0.061425	0.069264	0.132133	0.332854	0.338045	0.382205	0.085869	0.250530	0.344872	0.135807	0.258997	0.266536	0.220795	0.112093	0.063822	0.174847	0.241261	0.136018	0.046388	0.045936	0.294945	0.098472	0.088499	0.074026	0.676928	0.277617	0.260200	0.225245	0.510129	0.143459	0.132287	0.187578	0.101165	0.175020	0.174567	0.202265	0.333739	0.198820	0.081857	0.066950	0.118786	0.154689	0.339012	0.436556	0.257817	0.195839	0.256869	0.457056	0.147274	0.132397	0.289357	0.495459	0.444446	0.233319	0.201614	0.263291	0.103195	0.141852	0.323122	0.298952	0.149083	0.178498	0.371242	0.403446	0.111824	0.173806	0.214184	0.235397	0.045897	0.129072	0.269943	0.332938
26	0.064200	0.075071	0.130769	0.333263	0.338115	0.392167	0.084496	0.239245	0.295374	0.134165	0.266511	0.243483	0.242255	0.108898	0.063032	0.136297	0.247370	0.139855	0.051864	0.043679	0.308056	0.097267	0.037480	0.068633	0.677883	0.280779	0.266616	0.273599	0.486089	0.153085	0.134608	0.190594	0.098650	0.174534	0.178417	0.194115	0.334276	0.199015	0.103425	0.112088	0.134104	0.174734	0.355954	0.436318	0.334050	0.227260	0.237290	0.411564	0.142701	0.143153	0.304258	0.740499	0.373458	0.221781	0.175464	0.248208	0.111955	0.142056	0.342600	0.330442	0.102892	0.147445	0.388442	0.415989	0.095739	0.156118	0.206742	0.202493	0.053142	0.127787	0.297851	0.391466
27	0.062478	0.075406	0.128666	0.317367	0.338748	0.394770	0.082399	0.239287	0.279402	0.146941	0.258058	0.218366	0.269185	0.119048	0.103863	0.156365	0.247297	0.147505	0.052485	0.051826	0.294843	0.104542	0.034219	0.097880	0.678786	0.295152	0.269843	0.282704	0.477590	0.117920	0.137681	0.188415	0.104696	0.173276	0.220034	0.172512	0.335330	0.200666	0.108483	0.175187	0.130894	0.168002	0.381589	0.429428	0.404880	0.227752	0.224998	0.257093	0.139350	0.190158	0.326204	0.821172	0.306574	0.222936	0.197878	0.244786	0.122685	0.156627	0.300212	0.349824	0.110011	0.175360	0.387033	0.414243	0.087455	0.124102	0.227552	0.208449	0.072778	0.130891	0.303892	0.407670
28	0.063094	0.069910	0.110168	0.273013	0.337920	0.394853	0.059170	0.232448	0.210324	0.121796	0.244145	0.218575	0.275259	0.110814	0.144365	0.192860	0.244465	0.150387	0.065633	0.096553	0.236411	0.122033	0.042760	0.111513	0.635262	0.285839	0.273137	0.282690	0.444667	0.108566	0.133492	0.193722	0.120355	0.176527	0.210703	0.180633	0.299224	0.203835	0.175192	0.234274	0.120109	0.161475	0.442402	0.278881	0.399083	0.294413	0.245578	0.219643	0.146450	0.205987	0.363985	0.819525	0.257404	0.219880	0.215253	0.251540	0.114327	0.148643	0.268995	0.350742	0.108583	0.173310	0.312938	0.369400	0.061418	0.090533	0.292772	0.177449	0.089134	0.123802	0.310114	0.409951
29	0.064698	0.065915	0.092616	0.238719	0.317843	0.386921	0.060175	0.237412	0.055376	0.115041	0.204462	0.183241	0.269499	0.097709	0.152304	0.225633	0.209010	0.160719	0.078335	0.098905	0.236388	0.130888	0.069136	0.187418	0.475886	0.280876	0.270285	0.273992	0.414483	0.116478	0.122115	0.270959	0.119143	0.160431	0.210128	0.192911	0.267752	0.179949	0.244574	0.259853	0.120391	0.166104	0.391156	0.252093	0.403669	0.359927	0.254405	0.149291	0.147315	0.210388	0.354083	0.763584	0.251620	0.199978	0.270353	0.259750	0.112811	0.158401	0.266223	0.336738	0.107342	0.164106	0.313024	0.367819	0.049694	0.086124	0.315378	0.179174	0.094081	0.119557	0.315022	0.414055
30	0.070454	0.065101	0.091298	0.222273	0.284037	0.392511	0.061607	0.238317	0.075457	0.098471	0.189390	0.138288	0.257482	0.105452	0.198422	0.248199	0.184753	0.149376	0.083304	0.119573	0.236926	0.114168	0.114865	0.257238	0.367031	0.254000	0.238834	0.205041	0.358686	0.117419	0.122900	0.360775	0.116023	0.145969	0.215263	0.223412	0.254823	0.139214	0.251440	0.307306	0.125924	0.163278	0.366351	0.252122	0.397188	0.368116	0.314116	0.127839	0.143019	0.212920	0.327403	0.738576	0.216960	0.185677	0.282056	0.368678	0.107362	0.155105	0.250962	0.332125	0.099179	0.165405	0.285419	0.310080	0.052354	0.097710	0.319086	0.171397	0.093667	0.118890	0.279036	0.369724
31	0.073809	0.059775	0.056583	0.169946	0.220532	0.398118	0.088133	0.242354	0.096125	0.151801	0.138046	0.121759	0.254957	0.099248	0.217744	0.246163	0.187882	0.125623	0.133940	0.228168	0.210016	0.114040	0.128946	0.328467	0.202307	0.235982	0.190173	0.200411	0.253186	0.181045	0.148266	0.473444	0.112995	0.133425	0.247381	0.226985	0.236455	0.072895	0.260551	0.309272	0.123345	0.132572	0.356464	0.184801	0.386546	0.366172	0.319117	0.143677	0.147234	0.205737	0.279179	0.716767	0.208397	0.138295	0.302189	0.362992	0.143017	0.170208	0.189110	0.285480	0.076702	0.155790	0.220483	0.207211	0.059076	0.108160	0.323904	0.181391	0.090495	0.113759	0.230849	0.309185
32	0.077311	0.065448	0.066419	0.116486	0.144384	0.375814	0.099387	0.213531	0.259572	0.189913	0.126590	0.133968	0.254278	0.102612	0.291372	0.246016	0.157777	0.113533	0.171333	0.336994	0.202915	0.114854	0.187809	0.352208	0.105741	0.193423	0.146297	0.208832	0.192363	0.249264	0.161587	0.466241	0.110129	0.125734	0.275349	0.282899	0.222126	0.066310	0.320898	0.362916	0.151215	0.126405	0.308161	0.178803	0.320093	0.367233	0.304720	0.143316	0.148809	0.198367	0.232541	0.569382	0.199402	0.085976	0.318246	0.366087	0.191291	0.198124	0.058179	0.136734	0.077083	0.153639	0.158981	0.137033	0.071988	0.107831	0.294418	0.175203	0.090312	0.114727	0.174099	0.214152
33	0.086191	0.088330	0.198377	0.302480	0.144717	0.222044	0.094522	0.182460	0.303541	0.247105	0.111916	0.112298	0.205847	0.107357	0.307489	0.271075	0.150788	0.130139	0.263794	0.341080	0.166054	0.121876	0.207733	0.448747	0.096828	0.177039	0.102422	0.209094	0.195850	0.258533	0.175162	0.479636	0.115899	0.150893	0.226658	0.323689	0.110495	0.095430	0.390791	0.399497	0.282265	0.143454	0.272964	0.177206	0.242871	0.381616	0.280071	0.138721	0.140479	0.163234	0.228276	0.272184	0.117144	0.095057	0.339616	0.400966	0.273298	0.180403	0.047834	0.114890	0.064710	0.105044	0.152510	0.129506	0.352305	0.224513	0.264857	0.127805	0.079560	0.123363	0.163490	0.144095
34	0.086757	0.094263	0.236619	0.448787	0.151988	0.202223	0.151035	0.245008	0.324672	0.323951	0.152450	0.141402	0.181439	0.105999	0.339291	0.288702	0.151680	0.139617	0.276620	0.379430	0.134898	0.148008	0.223099	0.456210	0.087290	0.145983	0.123378	0.171514	0.186210	0.255792	0.207568	0.515123	0.110273	0.141643	0.204510	0.301390	0.100961	0.105574	0.473193	0.408098	0.352436	0.144317	0.151683	0.175796	0.250791	0.346457	0.240348	0.136143	0.229482	0.123812	0.142767	0.228389	0.117143	0.118084	0.354822	0.431605	0.356538	0.170343	0.050876	0.097857	0.053624	0.119320	0.152379	0.128340	0.550242	0.345063	0.184675	0.106690	0.059995	0.271088	0.124640	0.143692
35	0.084733	0.095337	0.252503	0.454441	0.199867	0.203234	0.192548	0.261790	0.348713	0.329269	0.153233	0.147665	0.148074	0.115071	0.337318	0.299066	0.110053	0.170725	0.339946	0.391213	0.135926	0.158138	0.234660	0.477053	0.076453	0.101737	0.120138	0.172871	0.194177	0.283443	0.252540	0.530867	0.085794	0.118077	0.201627	0.293038	0.090593	0.116768	0.473117	0.417108	0.351306	0.152905	0.092380	0.171030	0.305098	0.244041	0.231397	0.128239	0.261836	0.165322	0.099682	0.182900	0.117099	0.137486	0.368241	0.434807	0.556543	0.229065	0.097479	0.139759	0.074657	0.156458	0.150089	0.116950	0.712469	0.486662	0.138141	0.109494	0.054504	0.381497	0.131354	0.114485
36	0.108752	0.122669	0.254603	0.454944	0.214818	0.213078	0.243124	0.371474	0.343071	0.325815	0.368622	0.158259	0.121642	0.146131	0.353445	0.311323	0.091581	0.178641	0.407838	0.397087	0.119606	0.194504	0.248518	0.583018	0.076820	0.100951	0.114555	0.177381	0.186593	0.292290	0.269144	0.533233	0.078467	0.105994	0.199451	0.272281	0.077254	0.155500	0.461748	0.394730	0.350546	0.151361	0.099187	0.160595	0.364663	0.229800	0.120924	0.123189	0.352474	0.194656	0.089976	0.121020	0.127288	0.165481	0.385478	0.447062	0.796412	0.246348	0.262715	0.230092	0.107105	0.180027	0.260403	0.110476	0.741320	0.511735	0.105293	0.102829	0.076331	0.481747	0.113820	0.086483
37	0.115882	0.130430	0.313026	0.516768	0.251727	0.211345	0.430490	0.390858	0.306370	0.303149	0.476759	0.210397	0.115332	0.171398	0.351312	0.301800	0.094392	0.164089	0.439441	0.421580	0.093986	0.188069	0.248848	0.580756	0.083232	0.120372	0.121466	0.198139	0.183672	0.295718	0.276993	0.491382	0.340094	0.145766	0.188222	0.258213	0.087534	0.189112	0.448068	0.443251	0.345364	0.137292	0.107791	0.109470	0.383191	0.201933	0.090145	0.135091	0.363891	0.258168	0.092429	0.116545	0.129719	0.165091	0.375788	0.440097	0.804147	0.220221	0.305377	0.384941	0.182123	0.200040	0.277305	0.162251	0.742472	0.512157	0.090127	0.081787	0.127770	1.171176	0.166206	0.254455
38	0.156041	0.167264	0.346024	0.591040	0.251148	0.207556	0.455155	0.400432	0.224195	0.277127	0.468824	0.221381	0.098978	0.172720	0.419175	0.280901	0.132875	0.167278	0.455346	0.505914	0.086265	0.194647	0.237479	0.561174	0.074106	0.122702	0.118202	0.202690	0.172992	0.294738	0.277130	0.436981	0.411087	0.246898	0.138767	0.257538	0.103816	0.197534	0.447875	0.416130	0.327538	0.126788	0.348301	0.129304	0.378377	0.207174	0.249489	0.208266	0.395920	0.274344	0.124021	0.108565	0.131951	0.163816	0.355885	0.328559	0.784216	0.218306	0.305132	0.449127	0.272265	0.202626	0.303316	0.217382	0.751389	0.511500	0.093831	0.080196	0.133720	1.326911	0.200852	0.286454
39	0.165161	0.181606	0.348096	0.598236	0.244691	0.168354	0.495335	0.416215	0.173726	0.222637	0.557846	0.293137	0.105622	0.168503	0.439887	0.285837	0.130617	0.186752	0.458295	0.602443	0.088105	0.199919	0.233069	0.535837	0.059788	0.124093	0.107827	0.189282	0.159544	0.263376	0.274058	0.346963	0.492196	0.251194	0.084123	0.233309	0.101318	0.196119	0.455269	0.420991	0.242150	0.172803	0.636744	0.234409	0.354081	0.162248	0.255529	0.241112	0.418976	0.279417	0.131952	0.086763	0.119806	0.173887	0.329588	0.306889	0.774230	0.235189	0.343671	0.458824	0.274138	0.201654	0.320189	0.258715	0.728749	0.478696	0.096142	0.071731	0.131583	1.413378	0.299232	0.396157
40	0.169116	0.201429	0.365093	0.613025	0.228171	0.168236	0.493288	0.528608	0.115279	0.135352	0.576767	0.355148	0.106944	0.166371	0.422602	0.278335	0.134681	0.214197	0.446992	0.565890	0.095061	0.211501	0.187861	0.529497	0.052879	0.122027	0.107058	0.185004	0.131693	0.213972	0.283902	0.353151	0.492913	0.258772	0.114610	0.222130	0.103784	0.200027	0.415518	0.383909	0.090426	0.196414	0.690591	0.290864	0.351189	0.164507	0.270005	0.329687	0.405907	0.275584	0.141199	0.084533	0.117424	0.178368	0.308131	0.301129	0.661007	0.217144	0.409091	0.491138	0.282036	0.196317	0.334204	0.290989	0.642139	0.391143	0.093269	0.095355	0.133619	1.421773	0.565300	0.635603
41	0.170369	0.209838	0.372826	0.621572	0.227617	0.170562	0.504530	0.540764	0.111535	0.151168	0.611503	0.375043	0.103965	0.171029	0.432629	0.249740	0.130365	0.210841	0.403705	0.564116	0.104519	0.221447	0.176710	0.461929	0.042634	0.112532	0.102488	0.168891	0.126434	0.201285	0.270059	0.330198	0.510951	0.266961	0.122904	0.227579	0.140246	0.196330	0.347083	0.349193	0.106834	0.207472	0.859452	0.296404	0.293664	0.186629	0.365767	0.605505	0.361346	0.266997	0.148229	0.100939	0.115466	0.196474	0.283288	0.230243	0.505075	0.153709	0.401311	0.469154	0.279384	0.175729	0.391169	0.301536	0.461740	0.217879	0.092548	0.106045	0.131976	1.402949	0.617079	0.747554
42	0.164891	0.203800	0.336878	0.585757	0.216131	0.182031	0.501500	0.542524	0.113292	0.149800	0.426848	0.370818	0.101290	0.193149	0.409419	0.240062	0.467508	0.218513	0.390659	0.537556	0.101739	0.209568	0.149911	0.451798	0.061545	0.101157	0.068747	0.138963	0.121507	0.197728	0.240808	0.290378	0.513897	0.283976	0.140595	0.238436	0.168011	0.196907	0.212541	0.329136	0.144845	0.251518	0.904431	0.298492	0.244456	0.186707	0.496244	0.633671	0.313304	0.230788	0.488416	0.156691	0.105591	0.187612	0.259454	0.155759	0.199941	0.148203	0.322946	0.471693	0.280839	0.185380	0.480667	0.369532	0.413107	0.123601	0.141092	0.115693	0.117345	1.345332	0.741535	0.909038
43	0.160640	0.199349	0.294523	0.463774	0.200139	0.180991	0.483422	0.522556	0.111371	0.139334	0.423420	0.348754	0.089601	0.185485	0.402252	0.214733	1.148685	0.194920	0.344512	0.535940	0.091980	0.203960	0.128476	0.431303	0.066673	0.117010	0.098473	0.207576	0.090541	0.153232	0.187261	0.266819	0.520347	0.306387	0.141611	0.266488	0.179445	0.228056	0.208518	0.292657	0.150610	0.261136	0.905911	0.289543	0.205867	0.187801	0.608223	0.719341	0.260485	0.206993	0.527642	0.159348	0.110785	0.200696	0.215767	0.148952	0.130137	0.144173	0.366687	0.287763	0.253838	0.173950	0.463820	0.373762	0.408555	0.159581	0.439338	0.375347	0.099489	0.817482	0.870442	0.878560
44	0.160818	0.198626	0.285183	0.443777	0.157967	0.159805	0.476781	0.514657	0.119753	0.130342	0.379149	0.316545	0.099645	0.163886	0.374680	0.189681	1.330573	0.202201	0.240637	0.527536	0.079206	0.215532	0.102012	0.265502	0.087414	0.191486	0.111643	0.254216	0.085237	0.137662	0.170513	0.263509	0.380856	0.403272	0.141037	0.289641	0.187409	0.201365	0.186891	0.284531	0.154407	0.256763	0.868300	0.288690	0.202339	0.236755	0.634109	0.719439	0.226996	0.179617	0.544559	0.242264	0.110575	0.245837	0.163486	0.099978	0.132478	0.100179	0.370305	0.280999	0.147280	0.176177	0.478274	0.364218	0.393906	0.208573	0.536652	0.471245	0.102730	0.595801	0.884750	0.871504
45	0.160908	0.182739	0.285757	0.448440	0.114721	0.140203	0.383819	0.458158	0.100849	0.110896	0.311056	0.284025	0.101234	0.154006	0.373405	0.183410	1.571064	0.213692	0.196156	0.513759	0.074925	0.210331	0.086971	0.229735	0.099015	0.197915	0.157121	0.302674	0.096522	0.150872	0.151375	0.241857	0.298785	0.494289	0.140729	0.287492	0.554790	0.170122	0.139138	0.164776	0.151675	0.218690	0.733252	0.223329	0.212122	0.233957	0.631176	0.704976	0.176108	0.165929	0.777232	0.318388	0.169022	0.265090	0.090593	0.097198	0.128163	0.078499	0.321823	0.249705	0.135503	0.176673	0.444924	0.324237	0.286252	0.230073	0.612722	0.517863	0.101509	0.321698	0.858780	0.826870
46	0.191152	0.174812	0.245224	0.417456	0.066615	0.144557	0.256976	0.447609	0.158617	0.131593	0.215693	0.167588	0.087837	0.157259	0.265866	0.181628	1.648994	0.221075	0.147261	0.384501	0.137806	0.209218	0.059627	0.196040	0.110239	0.197438	0.291603	0.306454	0.140558	0.200354	0.146190	0.201473	0.197043	0.541534	0.144453	0.227612	0.758272	0.171083	0.128253	0.160523	0.142496	0.192430	0.693240	0.120426	0.179356	0.212059	0.630533	0.667643	0.198415	0.188946	0.899550	0.341211	0.190596	0.280686	0.089346	0.084989	0.120701	0.076104	0.261986	0.169768	0.126481	0.182191	0.456883	0.339586	0.140670	0.265060	0.843872	0.531707	0.099112	0.188859	0.716562	0.620320
47	0.204322	0.172291	0.175763	0.267234	0.072212	0.147305	0.198226	0.451959	0.173549	0.134617	0.159818	0.142543	0.091518	0.163300	0.279797	0.190174	1.657981	0.205028	0.071629	0.144900	0.234711	0.241932	0.055983	0.159702	0.112336	0.200553	0.311428	0.338022	0.137876	0.213440	0.105976	0.185194	0.177572	0.588111	0.136163	0.325941	0.927152	0.201233	0.073125	0.158763	0.134268	0.227051	0.473736	0.114731	0.176292	0.197951	0.595213	0.504465	0.203937	0.195972	0.903074	0.356774	0.211602	0.279488	0.097191	0.084442	0.106755	0.077077	0.251891	0.152560	0.113521	0.178606	0.454448	0.364004	0.138114	0.280901	0.907764	0.560683	0.097833	0.156675	0.663605	0.522424
48	0.272554	0.194576	0.169728	0.254225	0.146340	0.135960	0.144741	0.387440	0.382109	0.155269	0.155330	0.136742	0.101896	0.206233	0.270288	0.189125	1.660897	0.231385	0.061984	0.132651	0.327615	0.328905	0.052559	0.142360	0.116929	0.220824	0.315803	0.345023	0.160052	0.229672	0.053378	0.162091	0.137641	0.611654	0.184419	0.338828	1.073491	0.209090	0.125820	0.148548	0.086696	0.251688	0.369199	0.112545	0.158311	0.190160	0.542896	0.419165	0.192525	0.197759	0.848798	0.353064	0.258517	0.276336	0.098640	0.076847	0.084610	0.068752	0.215488	0.099809	0.106053	0.138012	0.338619	0.335562	0.142700	0.289596	0.910296	0.564293	0.099206	0.139776	0.501815	0.121919
49	0.585042	0.178099	0.150104	0.218822	0.155038	0.117513	0.115499	0.263723	0.539474	0.200531	0.126221	0.063831	0.107266	0.236876	0.233646	0.189353	1.662681	0.233107	0.068398	0.129662	0.434762	0.533667	0.042495	0.094617	0.131030	0.259578	0.321033	0.363531	0.198835	0.232396	0.087324	0.116149	0.131633	0.620293	0.370051	0.334959	1.077099	0.204379	0.142097	0.164989	0.063364	0.245464	0.360214	0.111541	0.132386	0.189777	0.358064	0.266460	0.176957	0.184761	0.754497	0.332704	0.270573	0.269906	0.181166	0.109771	0.062918	0.067210	0.127328	0.075256	0.090080	0.098132	0.250042	0.261654	0.141799	0.270324	0.840003	0.460638	0.051352	0.066417	0.311089	0.108084
50	0.636475	0.162692	0.121031	0.191763	0.175417	0.129398	0.128927	0.262932	0.560566	0.250276	0.079399	0.043373	0.134258	0.242154	0.252452	0.172905	1.566743	0.231577	0.077934	0.124152	0.621472	0.626006	0.046546	0.076990	0.136579	0.273665	0.326476	0.361298	0.258785	0.240880	0.112083	0.095139	0.058004	0.607064	0.417381	0.303228	1.087024	0.210160	0.480731	0.291184	0.113713	0.393992	0.325016	0.089347	0.120683	0.151733	0.156724	0.166437	0.171436	0.174374	0.744584	0.297987	0.275112	0.267462	0.400795	0.358715	0.100963	0.069075	0.123857	0.058003	0.092647	0.075677	0.209605	0.256608	0.155331	0.230320	0.775931	0.346922	0.041565	0.063447	0.243175	0.099143
51	0.730017	0.163045	0.116828	0.177450	0.174534	0.126712	0.410113	0.260189	0.562520	0.462279	0.071242	0.038358	0.145545	0.272729	0.274889	0.165520	1.165027	0.235738	0.090482	0.121470	0.717207	0.627828	0.062172	0.071387	0.137824	0.255153	0.325793	0.320434	0.317062	0.262584	0.311013	0.212624	0.067097	0.517190	0.486068	0.337592	1.091595	0.193321	0.739560	0.519125	0.157862	0.464114	0.140883	0.083004	0.088785	0.065791	0.127697	0.137487	0.168873	0.253042	0.653938	0.244333	0.285669	0.264846	0.517544	0.377707	0.154789	0.085905	0.099126	0.154010	0.083096	0.067788	0.200424	0.255237	0.164274	0.206453	0.725456	0.281835	0.051857	0.075614	0.248513	0.168990
52	0.742596	0.163167	0.117403	0.180573	0.177335	0.155295	0.488838	0.306013	0.560990	0.466430	0.125750	0.076940	0.185756	0.270930	0.301252	0.131546	0.949039	0.237717	0.089289	0.110394	0.816925	0.623537	0.235613	0.188401	0.125432	0.208277	0.333509	0.272300	0.362480	0.262507	0.482966	0.368867	0.075793	0.426500	0.680581	0.377585	1.090660	0.217591	0.773179	0.582371	0.207126	0.465341	0.100283	0.082134	0.078237	0.062446	0.090023	0.129403	0.120498	0.267427	0.301636	0.195651	0.309329	0.269707	0.611548	0.377668	0.238557	0.087929	0.074137	0.264326	0.108895	0.091183	0.170662	0.238020	0.180724	0.159601	0.444884	0.252562	0.069847	0.098490	0.245391	0.232938
53	0.748300	0.168118	0.118978	0.179150	0.203410	0.202403	0.495924	0.294543	0.520826	0.466824	0.160437	0.117692	0.236453	0.263950	0.327941	0.135744	0.529231	0.242360	0.124920	0.105251	0.826847	0.636965	0.317799	0.213410	0.104564	0.206997	0.287224	0.233451	0.495716	0.254777	0.567049	0.405818	0.089282	0.352019	0.719495	0.380480	0.954115	0.228994	0.872675	0.667757	0.234169	0.449367	0.076776	0.082605	0.087586	0.092162	0.082748	0.121135	0.082706	0.321908	0.162286	0.092728	0.283294	0.262882	0.639235	0.389398	0.254842	0.083094	0.079103	0.317317	0.156345	0.106147	0.120304	0.095869	0.191349	0.097539	0.277321	0.177470	0.081766	0.111503	0.259664	0.284586
54	0.824911	0.178348	0.115289	0.182683	0.205150	0.216884	0.609838	0.339792	0.421913	0.456081	0.178891	0.158147	0.256634	0.261482	0.359877	0.189288	0.332923	0.229780	0.132204	0.113546	0.827069	0.638079	0.347726	0.228829	0.101234	0.209247	0.255997	0.196632	0.514423	0.225580	0.578663	0.449596	0.090289	0.276036	0.710689	0.268586	0.817624	0.278442	1.077296	0.711834	0.277393	0.415511	0.178892	0.089517	0.112069	0.092988	0.074610	0.101437	0.073760	0.408129	0.159817	0.092892	0.269798	0.256075	0.671813	0.460875	0.253420	0.095145	0.094496	0.327473	0.158516	0.111365	0.321019	0.146383	0.286701	0.140436	0.250269	0.161146	0.080904	0.116674	0.273010	0.321655
55	0.849379	0.197721	0.106657	0.161191	0.209106	0.241609	0.661861	0.352650	0.193569	0.430283	0.215379	0.188887	0.256977	0.259616	0.406672	0.195133	0.295386	0.224758	0.152628	0.127213	0.804334	0.654488	0.397423	0.252345	0.096407	0.206495	0.240658	0.168919	0.515583	0.234995	0.720847	0.576376	0.083538	0.213774	0.701411	0.303330	0.633193	0.283336	1.112715	0.778443	0.352868	0.412757	0.229468	0.104430	0.179254	0.098014	0.078011	0.108858	0.087599	0.495440	0.139342	0.099622	0.252528	0.265308	0.773546	0.478290	0.253236	0.080346	0.114912	0.391054	0.160085	0.112100	0.347292	0.187507	0.346473	0.196893	0.169929	0.130400	0.080348	0.114526	0.357323	0.342912
56	0.847284	0.206523	0.108513	0.162768	0.213968	0.245998	0.749315	0.695475	0.196042	0.410099	0.268545	0.196785	0.322189	0.230138	0.513635	0.399042	0.279757	0.174001	0.171381	0.165504	0.782038	0.643138	0.423474	0.287935	0.092024	0.172725	0.260050	0.153038	0.509798	0.270281	0.919051	0.647998	0.088449	0.172987	0.618193	0.347720	0.345213	0.275704	1.128338	0.845471	0.343522	0.287009	0.241571	0.229362	0.225297	0.094697	0.102625	0.126323	0.109869	0.502180	0.156505	0.095022	0.224638	0.306006	0.886596	0.492940	0.225707	0.082259	0.167787	0.422146	0.163277	0.254381	0.442304	0.282789	0.400083	0.222626	0.289157	0.139213	0.076993	0.117089	0.363041	0.337024
57	0.842565	0.168291	0.151195	0.155215	0.181820	0.259111	0.824572	0.885735	0.182586	0.143712	0.279525	0.213834	0.328223	0.210087	0.567170	0.442924	0.271593	0.171909	0.186335	0.193824	0.728831	0.466346	0.441523	0.317149	0.064497	0.121060	0.253452	0.125279	0.492264	0.287230	0.988230	0.658678	0.149582	0.166502	0.608406	0.357982	0.327383	0.283190	1.141581	0.856384	0.332645	0.192581	0.325250	0.277028	0.228799	0.106202	0.202408	0.202497	0.197537	0.481127	0.185673	0.121206	0.224714	0.317798	0.879399	0.504194	0.167305	0.068559	0.184503	0.441499	0.156337	0.274938	0.465756	0.290059	0.494214	0.243853	0.314990	0.155235	0.074580	0.111986	0.415769	0.312109
58	0.699068	0.159679	0.303771	0.231516	0.179348	0.272894	0.847107	0.919891	0.199094	0.146256	0.323932	0.207948	0.320149	0.185270	0.596430	0.606700	0.244455	0.151028	0.196783	0.304978	0.572215	0.319577	0.465735	0.376237	0.041355	0.107545	0.271162	0.128602	0.473986	0.275029	1.000256	0.679372	0.178511	0.155566	0.527191	0.322316	0.284600	0.280802	1.045299	0.819811	0.326178	0.241400	0.328161	0.296406	0.227787	0.126415	0.304794	0.210890	0.210509	0.456205	0.181243	0.181285	0.222015	0.319638	0.814393	0.381532	0.074310	0.071602	0.342845	0.357584	0.153223	0.272877	0.479794	0.299237	0.506826	0.257318	0.386156	0.151676	0.063957	0.096068	0.481173	0.290922
59	0.592945	0.162575	0.320418	0.247707	0.167169	0.272846	0.926486	1.040181	0.188351	0.150087	0.327545	0.206469	0.318849	0.133492	0.716882	0.660026	0.226446	0.144938	0.197238	0.334825	0.480204	0.314546	0.523071	0.400142	0.038324	0.107828	0.304309	0.133474	0.425568	0.259665	0.954531	0.638336	0.228291	0.133960	0.255285	0.290183	0.261949	0.264416	0.887722	0.702176	0.308102	0.237110	0.326851	0.292611	0.231785	0.128116	0.339935	0.224325	0.253017	0.457210	0.185376	0.289446	0.204602	0.305762	0.746984	0.363872	0.066330	0.062485	0.382853	0.422782	0.110529	0.266838	0.610383	0.434251	0.498513	0.261816	0.397822	0.149651	0.049909	0.082792	0.474951	0.237638
60	0.485387	0.164992	0.334763	0.262338	0.172598	0.284048	0.977428	1.122889	0.177091	0.164634	0.306750	0.200383	0.295395	0.177780	0.817917	0.659971	0.221949	0.115087	0.204827	0.363660	0.211491	0.294360	0.554534	0.382474	0.037808	0.107649	0.300924	0.137487	0.397073	0.261407	0.898832	0.586328	0.289407	0.084950	0.175400	0.287309	0.257697	0.244467	0.862060	0.649229	0.274819	0.224651	0.289373	0.287524	0.231131	0.123804	0.494385	0.445718	0.260001	0.364403	0.194905	0.350717	0.154765	0.249727	0.677546	0.361874	0.076213	0.081972	0.424400	0.450782	0.109062	0.260247	0.556514	0.481998	0.453881	0.230793	0.397979	0.143291	0.063773	0.093439	0.452442	0.205266
61	0.462265	0.167559	0.409904	0.260053	0.169840	0.296141	1.060608	1.156873	0.194794	0.142715	0.301791	0.179192	0.266373	0.190487	0.811919	0.654628	0.183101	0.160774	0.184916	0.376930	0.165008	0.258112	0.516314	0.374767	0.048692	0.161510	0.297997	0.133066	0.176760	0.245643	0.857773	0.575770	0.389186	0.096999	0.246608	0.311533	0.254746	0.233736	0.760977	0.565869	0.159565	0.225348	0.245976	0.284883	0.211968	0.163788	0.604012	0.493414	0.270556	0.215443	0.211390	0.363314	0.148670	0.236661	0.657123	0.349477	0.100984	0.119476	0.465924	0.441048	0.108676	0.264241	0.597679	0.485739	0.406232	0.185800	0.387186	0.158016	0.062904	0.085889	0.367946	0.191291
62	0.447841	0.164267	0.521987	0.481447	0.161395	0.268581	1.057017	1.151163	0.214897	0.133909	0.301616	0.164150	0.251610	0.188132	0.798205	0.642018	0.183769	0.194973	0.225603	0.381962	0.141670	0.261323	0.497425	0.374095	0.053026	0.175214	0.264033	0.131173	0.122588	0.237671	0.846576	0.535810	0.407570	0.110410	0.413112	0.273262	0.206061	0.162051	0.433733	0.510212	0.149402	0.227519	0.241263	0.202689	0.145695	0.165199	0.816319	0.581255	0.256980	0.172255	0.219433	0.368203	0.147449	0.225195	0.633064	0.248782	0.121219	0.123520	0.474902	0.413308	0.122256	0.247224	0.577418	0.436860	0.349764	0.176653	0.303275	0.150448	0.061280	0.080374	0.362667	0.196922
63	0.347110	0.163297	0.551680	0.514498	0.163889	0.255072	0.990292	1.139846	0.213907	0.107009	0.295258	0.143458	0.249793	0.192077	0.753103	0.636533	0.185982	0.249290	0.270080	0.388865	0.139173	0.180853	0.469708	0.363807	0.053085	0.318491	0.243700	0.119854	0.119163	0.201837	0.721006	0.388079	0.428353	0.130521	0.454416	0.227618	0.143839	0.112181	0.340468	0.395904	0.135405	0.177125	0.143471	0.137805	0.135376	0.194992	0.866213	0.564986	0.221005	0.156225	0.149904	0.362089	0.144214	0.207339	0.502709	0.225420	0.127343	0.124125	0.463622	0.393351	0.124979	0.161555	0.549500	0.491937	0.189073	0.157319	0.278537	0.137762	0.054390	0.075422	0.275013	0.218840
64	0.194395	0.137653	0.562018	0.562670	0.149524	0.243825	0.966924	1.122348	0.243322	0.111831	0.329261	0.162973	0.148805	0.187957	0.691032	0.531791	0.185667	0.265946	0.272950	0.381952	0.145703	0.128868	0.457463	0.341811	0.054372	0.540000	0.239458	0.113242	0.108603	0.110748	0.445217	0.293339	0.418707	0.133501	0.524016	0.208621	0.114379	0.108787	0.265633	0.219547	0.087351	0.094734	0.132638	0.093211	0.140112	0.195480	0.822704	0.557206	0.205758	0.136756	0.191530	0.376344	0.102904	0.131973	0.260664	0.204949	0.134181	0.140028	0.340812	0.392044	0.120367	0.133190	0.552882	0.494858	0.090132	0.143595	0.130533	0.119271	0.049981	0.083865	0.209127	0.240915
65	0.155232	0.105421	0.611788	0.618940	0.123726	0.234388	0.972204	0.873392	0.281555	0.154617	0.331088	0.173163	0.131898	0.168706	0.656386	0.495076	0.183855	0.324569	0.261094	0.356575	0.149794	0.120662	0.443225	0.320115	0.060640	0.554984	0.251185	0.120783	0.102568	0.067887	0.323229	0.256220	0.407148	0.134632	0.571716	0.225561	0.096013	0.077679	0.193874	0.154916	0.110322	0.071125	0.133863	0.089677	0.139998	0.186798	0.821838	0.554491	0.147073	0.133795	0.198078	0.294811	0.068483	0.076073	0.243960	0.165853	0.258318	0.137633	0.325400	0.289704	0.097892	0.132063	0.426255	0.459588	0.089618	0.138352	0.087625	0.110393	0.048516	0.157758	0.207689	0.278254
66	0.136826	0.095032	0.623468	0.622137	0.120767	0.214597	0.959455	0.772888	0.272026	0.168166	0.354036	0.179934	0.129395	0.163588	0.621464	0.266395	0.178121	0.322578	0.249948	0.280717	0.153733	0.118991	0.436492	0.264071	0.062303	0.620441	0.208530	0.120413	0.095848	0.070432	0.276458	0.205902	0.365697	0.154287	0.609784	0.232341	0.073409	0.058180	0.184173	0.146422	0.209186	0.088622	0.153899	0.095760	0.121972	0.183375	0.747918	0.470394	0.166847	0.124062	0.190628	0.225632	0.059457	0.074169	0.205659	0.148090	0.350565	0.154415	0.232494	0.186640	0.091506	0.131925	0.387409	0.336216	0.095919	0.203244	0.127350	0.121459	0.160201	0.170712	0.199194	0.344841
67	0.128619	0.093387	0.571525	0.607007	0.110147	0.203642	0.978311	0.703700	0.259893	0.170745	0.350349	0.183891	0.118174	0.164029	0.463856	0.104604	0.163038	0.344291	0.250232	0.217939	0.152004	0.106664	0.371401	0.206694	0.065151	0.761045	0.162688	0.213542	0.090400	0.063424	0.230114	0.194049	0.338783	0.159400	0.618088	0.255259	0.060352	0.055845	0.155125	0.124233	0.235522	0.106303	0.178414	0.091923	0.107330	0.159375	0.705100	0.369029	0.179067	0.121759	0.166746	0.182591	0.049567	0.070032	0.199293	0.145887	0.446645	0.127825	0.144066	0.090628	0.088720	0.129176	0.315415	0.309118	0.098754	0.364736	0.125184	0.106200	0.233678	0.441194	0.174544	0.339269
68	0.129778	0.089662	0.556230	0.589984	0.108975	0.183796	0.892568	0.538072	0.233258	0.184694	0.364437	0.417225	0.114421	0.111681	0.231911	0.123443	0.147347	0.365632	0.246737	0.179709	0.137463	0.093094	0.239831	0.186300	0.091804	0.848963	0.186033	0.380213	0.079070	0.047019	0.197092	0.186901	0.231371	0.165796	0.582340	0.234471	0.064252	0.075570	0.148336	0.131549	0.246530	0.124920	0.180577	0.093049	0.114395	0.149826	0.458926	0.164148	0.193700	0.114510	0.157899	0.167244	0.049973	0.076356	0.213786	0.146217	0.494318	0.145819	0.131939	0.170024	0.079575	0.098584	0.172001	0.322814	0.184324	0.387929	0.203067	0.119025	0.304655	0.459010	0.168950	0.343777
69	0.130807	0.095283	0.563790	0.589630	0.080879	0.101693	0.759569	0.341240	0.254429	0.192870	0.299773	0.479348	0.088127	0.082944	0.309784	0.216458	0.130422	0.343830	0.247105	0.148602	0.121117	0.081228	0.213442	0.150417	0.214791	0.857226	0.166140	0.397843	0.082537	0.075248	0.183442	0.149162	0.187401	0.153832	0.474338	0.214715	0.092518	0.083470	0.133700	0.119062	0.337924	0.125009	0.152585	0.089436	0.113433	0.118137	0.245778	0.157285	0.218841	0.135629	0.153850	0.153077	0.046556	0.084570	0.308043	0.159651	0.528377	0.156572	0.336204	0.216410	0.049824	0.069941	0.230690	0.251360	0.255824	0.419304	0.221540	0.108395	0.317789	0.460690	0.139854	0.416324
70	0.130827	0.104645	0.582896	0.587375	0.057579	0.068654	0.732106	0.274580	0.232425	0.192389	0.290941	0.557661	0.082741	0.105800	0.331398	0.334869	0.111138	0.323860	0.194233	0.133598	0.102155	0.070488	0.199682	0.140911	0.288469	0.865628	0.173332	0.409521	0.126198	0.109365	0.189244	0.205429	0.114229	0.139896	0.444924	0.211061	0.092827	0.082295	0.127551	0.145368	0.368416	0.144848	0.256818	0.069409	0.101332	0.075977	0.231332	0.185811	0.274508	0.150186	0.114241	0.087558	0.088162	0.103204	0.289654	0.172816	0.524363	0.154892	0.345549	0.226321	0.049289	0.079352	0.258987	0.234987	0.278491	0.422896	0.221106	0.105801	0.328280	0.457583	0.243971	0.412559
71	0.120827	0.104974	0.506957	0.504891	0.059339	0.064609	0.736045	0.274740	0.216530	0.150186	0.326179	0.552639	0.089118	0.146374	0.333269	0.357002	0.136738	0.286278	0.112857	0.082674	0.086012	0.068330	0.188454	0.109320	0.341774	0.794360	0.180920	0.423259	0.131987	0.115687	0.159648	0.242088	0.103349	0.134715	0.366458	0.201831	0.098528	0.081435	0.132731	0.143046	0.374186	0.159216	0.430336	0.082947	0.107094	0.073985	0.235742	0.192620	0.332932	0.154594	0.156543	0.047408	0.124326	0.121347	0.286474	0.260077	0.459350	0.158794	0.405710	0.318636	0.054237	0.087234	0.256651	0.226282	0.276973	0.426869	0.221959	0.135796	0.328588	0.438073	0.281745	0.489024
72	0.107276	0.100799	0.459593	0.414100	0.202130	0.055458	0.727778	0.277628	0.215251	0.133028	0.320436	0.629568	0.096882	0.150322	0.323517	0.431229	0.164319	0.256057	0.087829	0.048910	0.082165	0.072251	0.157174	0.106731	0.363409	0.734673	0.188828	0.447397	0.134427	0.118428	0.135027	0.268166	0.104759	0.132516	0.380655	0.143348	0.104098	0.083166	0.181003	0.190434	0.374364	0.170724	0.431041	0.118756	0.156191	0.070816	0.217882	0.205284	0.346531	0.166376	0.422904	0.062043	0.141295	0.126280	0.293843	0.264020	0.429278	0.173056	0.433893	0.332199	0.051305	0.089089	0.253337	0.206550	0.311339	0.407356	0.217649	0.211481	0.279733	0.437111	0.321681	0.626507
73	0.102071	0.091620	0.452940	0.366173	0.287977	0.070468	0.699499	0.286502	0.218922	0.130292	0.313147	0.681070	0.097527	0.161248	0.323178	0.436895	0.243809	0.197952	0.090279	0.047696	0.079855	0.073174	0.138943	0.076935	0.370154	0.754488	0.197181	0.466472	0.192458	0.126616	0.115085	0.266401	0.106413	0.105967	0.331872	0.150587	0.133623	0.102807	0.466360	0.242859	0.358885	0.175975	0.447031	0.169749	0.213883	0.058600	0.195178	0.196635	0.334416	0.182289	0.447494	0.093569	0.193734	0.141867	0.303860	0.337189	0.282659	0.168777	0.436368	0.449461	0.052533	0.093753	0.253292	0.220802	0.344515	0.265635	0.258087	0.219944	0.222773	0.165676	0.444708	0.636036
74	0.076857	0.092430	0.396371	0.260598	0.366365	0.098962	0.612721	0.273607	0.206275	0.164129	0.309222	0.634040	0.110884	0.160073	0.333204	0.442558	0.339469	0.198699	0.103230	0.048411	0.079187	0.078407	0.085465	0.124693	0.378577	0.678611	0.198985	0.472199	0.221016	0.131581	0.314558	0.272113	0.089907	0.076747	0.346280	0.164267	0.147780	0.109918	0.469274	0.308889	0.362904	0.171399	0.489200	0.189943	0.224064	0.047071	0.196741	0.186666	0.384887	0.235526	0.501968	0.147461	0.216142	0.137696	0.311943	0.353351	0.192647	0.149736	0.595440	0.461283	0.056233	0.092523	0.273630	0.227210	0.317393	0.213985	0.229982	0.263486	0.149264	0.156227	0.449269	0.625010
75	0.082158	0.120630	0.364818	0.205170	0.380505	0.100964	0.540739	0.260747	0.123481	0.152006	0.295605	0.524108	0.133145	0.159710	0.334168	0.450780	0.387587	0.141865	0.094228	0.048168	0.075163	0.081813	0.081622	0.160339	0.419367	0.503366	0.184396	0.384558	0.259350	0.157983	0.663247	0.336507	0.100896	0.042334	0.365748	0.160245	0.194466	0.109577	0.474383	0.337009	0.282378	0.172976	0.517797	0.201482	0.234923	0.079124	0.200215	0.203647	0.415123	0.230863	0.581833	0.171633	0.245587	0.136554	0.372974	0.360127	0.134729	0.163655	0.662465	0.505599	0.091657	0.110851	0.356688	0.237772	0.258786	0.124965	0.241946	0.271824	0.120216	0.150213	0.459252	0.576563
76	0.218321	0.145281	0.374029	0.214191	0.408144	0.103889	0.418553	0.288876	0.113899	0.144868	0.291162	0.508794	0.164718	0.165207	0.332045	0.458399	0.390568	0.071355	0.086819	0.089198	0.122465	0.089136	0.259936	0.164056	0.417299	0.401774	0.176033	0.314087	0.302736	0.162278	0.686207	0.364265	0.112720	0.077869	0.393153	0.169728	0.194575	0.147134	0.594311	0.341644	0.236288	0.156370	0.497877	0.208997	0.236914	0.112671	0.444897	0.277607	0.386594	0.208898	0.612292	0.177270	0.244914	0.136503	0.459325	0.374633	0.128722	0.161489	0.799014	0.476138	0.103790	0.106727	0.323200	0.244204	0.243249	0.106138	0.318144	0.314780	0.090229	0.149516	0.398234	0.536283
77	0.269043	0.196907	0.362423	0.214424	0.432002	0.101132	0.366433	0.213519	0.113562	0.137514	0.247658	0.461744	0.210868	0.164926	0.267495	0.426368	0.388726	0.064997	0.086034	0.092328	0.161977	0.116969	0.281568	0.173572	0.407282	0.368819	0.219672	0.291196	0.313320	0.163266	0.776333	0.431406	0.161085	0.104478	0.392250	0.184401	0.185931	0.164055	0.632641	0.357316	0.218476	0.150068	0.362597	0.217645	0.233120	0.131412	0.459639	0.285229	0.352936	0.201353	0.618666	0.227655	0.245422	0.141277	0.427194	0.373990	0.127349	0.172119	0.796844	0.455565	0.113437	0.116958	0.391036	0.242140	0.264730	0.085183	0.347784	0.314282	0.088520	0.146442	0.412469	0.452251
78	0.281817	0.220718	0.348971	0.212684	0.443807	0.115155	0.304979	0.254888	0.118315	0.149597	0.134898	0.396385	0.222301	0.145906	0.283018	0.341792	0.388456	0.067096	0.203268	0.286315	0.174267	0.127050	0.314615	0.176318	0.394710	0.361403	0.225786	0.288703	0.308299	0.208123	0.926875	0.429668	0.167358	0.129473	0.412144	0.191789	0.186491	0.164253	0.658100	0.381203	0.133160	0.134718	0.365361	0.200132	0.215923	0.180016	0.486240	0.279535	0.287621	0.174327	0.512466	0.226202	0.238115	0.135940	0.422714	0.370227	0.102431	0.165888	0.790684	0.445195	0.111378	0.108432	0.506150	0.250923	0.225516	0.084139	0.431354	0.268206	0.087872	0.123890	0.412395	0.122045
79	0.285348	0.213001	0.290006	0.231018	0.446815	0.125894	0.249964	0.466214	0.145170	0.118640	0.132202	0.118180	0.221036	0.116601	0.324478	0.347884	0.379184	0.061930	0.234959	0.350496	0.173792	0.119807	0.350999	0.179815	0.372482	0.328740	0.212367	0.274352	0.330172	0.277423	0.961092	0.414952	0.169331	0.134986	0.369127	0.199382	0.186492	0.169909	0.681009	0.380873	0.137558	0.111511	0.339109	0.168455	0.180908	0.185793	0.511871	0.329846	0.285469	0.184343	0.455463	0.233667	0.250285	0.125436	0.421389	0.351178	0.094648	0.165420	0.785736	0.283807	0.112490	0.111730	0.511676	0.254914	0.171184	0.111250	0.414928	0.293444	0.063708	0.118390	0.296109	0.123402
80	0.292464	0.215151	0.245524	0.196666	0.443748	0.144169	0.257617	0.519862	0.234640	0.091695	0.156686	0.102674	0.241327	0.131331	0.300386	0.280948	0.366692	0.058127	0.290695	0.369766	0.175041	0.139495	0.395097	0.187246	0.353109	0.246202	0.199842	0.219402	0.339279	0.305140	0.979580	0.414282	0.170802	0.134197	0.403893	0.292476	0.183413	0.171137	0.677199	0.387923	0.114757	0.087914	0.271908	0.146600	0.146701	0.192802	0.657323	0.507150	0.266449	0.101065	0.463809	0.212578	0.254909	0.125236	0.426274	0.361710	0.096280	0.155910	0.567037	0.242875	0.123900	0.119895	0.507000	0.250063	0.164066	0.121651	0.460678	0.243421	0.037157	0.133812	0.289676	0.167989
81	0.311279	0.220148	0.263984	0.207468	0.377861	0.158377	0.345361	0.573502	0.359914	0.101906	0.235119	0.165225	0.253026	0.117460	0.293216	0.370385	0.317494	0.051023	0.354779	0.399435	0.179371	0.155775	0.405270	0.197865	0.349487	0.140256	0.200730	0.180816	0.315315	0.307150	0.982854	0.431014	0.161305	0.133081	0.383899	0.348978	0.159175	0.158387	0.537067	0.380015	0.116416	0.081489	0.208943	0.131571	0.126185	0.202264	0.745327	0.535506	0.148697	0.094095	0.345507	0.217967	0.222435	0.106162	0.424965	0.308523	0.094894	0.151664	0.401107	0.091526	0.107971	0.099711	0.494559	0.271897	0.173048	0.123687	0.462796	0.238657	0.054205	0.201085	0.272600	0.170690
82	0.357218	0.246485	0.278996	0.250330	0.351214	0.145659	0.346700	0.606641	0.363301	0.105868	0.236093	0.200104	0.246205	0.122736	0.282545	0.381274	0.192871	0.050160	0.368267	0.431602	0.177756	0.155823	0.495948	0.236880	0.340511	0.110565	0.200857	0.165792	0.304987	0.303103	0.917030	0.424312	0.148591	0.131107	0.369892	0.377692	0.142205	0.150819	0.551785	0.344245	0.112229	0.072516	0.168024	0.121676	0.102369	0.194548	0.647517	0.515290	0.139767	0.108051	0.269751	0.234564	0.206334	0.117090	0.524918	0.287057	0.106347	0.126005	0.201098	0.078049	0.106406	0.094831	0.437247	0.215330	0.160503	0.143314	0.419879	0.202067	0.089509	0.399920	0.273874	0.176677
83	0.390867	0.249705	0.321969	0.279050	0.264408	0.138373	0.346870	0.650774	0.370701	0.196594	0.306430	0.205927	0.237103	0.122750	0.281443	0.375714	0.103774	0.052688	0.399934	0.446790	0.177803	0.167054	0.523958	0.285397	0.291956	0.119918	0.200846	0.155163	0.268510	0.293089	0.750449	0.369794	0.120182	0.119767	0.343441	0.413905	0.067096	0.150596	0.548209	0.320112	0.102962	0.056139	0.132294	0.096637	0.101967	0.185738	0.623635	0.487866	0.148004	0.112092	0.251676	0.217393	0.180031	0.126041	0.516556	0.279964	0.253023	0.086432	0.136064	0.032404	0.076118	0.077959	0.427836	0.254178	0.119552	0.171086	0.399291	0.199104	0.094115	0.426586	0.216453	0.182879
84	0.405259	0.244716	0.348001	0.320253	0.247983	0.137274	0.357803	0.655838	0.372155	0.202438	0.338137	0.297535	0.214083	0.115213	0.279911	0.366350	0.071993	0.067176	0.408463	0.526697	0.160576	0.183772	0.489455	0.311792	0.291023	0.122176	0.201200	0.133807	0.228229	0.292576	0.728217	0.340322	0.096803	0.117824	0.373163	0.407114	0.061379	0.104144	0.411082	0.318377	0.099984	0.067820	0.112758	0.088207	0.099518	0.146025	0.612556	0.490105	0.152668	0.113044	0.233346	0.210928	0.187554	0.133383	0.430471	0.261281	0.337105	0.094030	0.130845	0.068255	0.074434	0.074162	0.225837	0.264102	0.120011	0.165373	0.295561	0.200888	0.103047	0.533248	0.171676	0.200137
85	0.368779	0.227262	0.347146	0.334742	0.201447	0.139768	0.416816	0.641233	0.354488	0.266052	0.340820	0.339846	0.180170	0.126602	0.266222	0.366450	0.057454	0.074212	0.418127	0.534227	0.114460	0.174790	0.522723	0.341489	0.231167	0.139424	0.151978	0.117859	0.204667	0.285378	0.615815	0.225218	0.109671	0.127355	0.389893	0.405803	0.051295	0.085062	0.351209	0.299794	0.112160	0.108156	0.120247	0.067373	0.087256	0.128310	0.598934	0.462621	0.140246	0.093429	0.254373	0.225724	0.188628	0.123991	0.411339	0.254554	0.338747	0.096938	0.147980	0.099419	0.074540	0.072916	0.213422	0.256061	0.111671	0.148148	0.286882	0.148055	0.114479	0.566198	0.279303	0.196596
86	0.321650	0.204133	0.352496	0.362222	0.151513	0.140305	0.425858	0.642441	0.269939	0.307251	0.555458	0.331041	0.174861	0.133887	0.220584	0.366582	0.088693	0.105356	0.425280	0.438594	0.112569	0.192111	0.615950	0.339302	0.239386	0.154698	0.149591	0.096209	0.185387	0.228236	0.365645	0.204832	0.109391	0.129198	0.384234	0.400617	0.050802	0.090873	0.299777	0.254292	0.104452	0.109112	0.129698	0.059135	0.064737	0.134455	0.505687	0.337503	0.129819	0.087561	0.257419	0.238577	0.182502	0.116902	0.420106	0.249973	0.339200	0.101647	0.151311	0.109583	0.063557	0.053174	0.209137	0.232700	0.113177	0.139406	0.215551	0.146888	0.135843	0.593793	0.312834	0.251745
87	0.318471	0.157583	0.381059	0.382309	0.124391	0.124254	0.452549	0.594243	0.205422	0.310286	0.578085	0.300670	0.187495	0.112972	0.158842	0.339172	0.113536	0.158279	0.448078	0.416618	0.118757	0.203358	0.625392	0.343151	0.214414	0.149202	0.194746	0.109235	0.138549	0.144084	0.290396	0.191084	0.106789	0.131874	0.407891	0.297156	0.038776	0.078718	0.245830	0.264760	0.103927	0.108137	0.122614	0.067560	0.064395	0.111894	0.312168	0.232597	0.120247	0.084971	0.233537	0.241120	0.140903	0.111904	0.422346	0.183530	0.337372	0.095964	0.169307	0.119174	0.056131	0.047305	0.153034	0.217192	0.111711	0.143659	0.219660	0.163791	0.130535	0.565689	0.324366	0.262232
88	0.318450	0.189196	0.434696	0.404671	0.118908	0.119529	0.438541	0.467305	0.195154	0.309546	0.658746	0.302768	0.160896	0.095338	0.136408	0.315194	0.140258	0.176557	0.406225	0.407584	0.116447	0.188575	0.597970	0.344367	0.216168	0.148344	0.269283	0.131343	0.104686	0.086814	0.222159	0.153222	0.115562	0.156285	0.471564	0.259079	0.038287	0.074708	0.219513	0.216306	0.150960	0.108343	0.165754	0.129270	0.056032	0.090881	0.260149	0.225128	0.108227	0.073419	0.302454	0.232458	0.115277	0.102740	0.410948	0.135364	0.304215	0.097514	0.172449	0.128781	0.044441	0.039478	0.147404	0.196475	0.116458	0.134669	0.224347	0.153333	0.114839	0.457060	0.412819	0.272596
89	0.326149	0.222409	0.434153	0.412696	0.107982	0.087615	0.405981	0.436196	0.186716	0.289576	0.733135	0.285738	0.141188	0.104460	0.244435	0.222865	0.150239	0.178055	0.356301	0.383569	0.103931	0.173451	0.604505	0.341763	0.220558	0.142409	0.268282	0.198890	0.056756	0.075115	0.205172	0.118552	0.122331	0.166079	0.514072	0.286767	0.036022	0.093753	0.187359	0.189307	0.225064	0.106010	0.218430	0.145001	0.071438	0.106831	0.257819	0.278142	0.096004	0.067111	0.306552	0.219792	0.103927	0.101148	0.401376	0.075918	0.226927	0.093037	0.183050	0.137631	0.041925	0.046127	0.296784	0.213858	0.102086	0.098005	0.232354	0.212678	0.123105	0.446961	0.459052	0.276192
90	0.310582	0.222801	0.416344	0.428553	0.088518	0.078151	0.411342	0.357222	0.171335	0.263429	0.746476	0.194899	0.155537	0.103054	0.358981	0.223189	0.151431	0.181484	0.345694	0.349453	0.101001	0.171284	0.546214	0.324477	0.223325	0.142061	0.346623	0.211929	0.030776	0.076030	0.163741	0.120427	0.120466	0.168681	0.582587	0.293855	0.031740	0.205914	0.176292	0.158883	0.278802	0.110086	0.216164	0.167376	0.069919	0.113365	0.307551	0.296772	0.085698	0.080627	0.306993	0.290742	0.090608	0.100123	0.267753	0.093691	0.088853	0.095084	0.336221	0.135710	0.044152	0.049881	0.312343	0.232372	0.102371	0.093478	0.248066	0.221118	0.114457	0.303761	0.452754	0.259220
91	0.290026	0.203857	0.405754	0.408742	0.080352	0.098421	0.430984	0.322844	0.103876	0.213198	0.828728	0.219191	0.152042	0.102569	0.373167	0.202371	0.150346	0.183725	0.357922	0.312620	0.099617	0.161044	0.511922	0.245706	0.213668	0.137714	0.459019	0.252807	0.031166	0.066258	0.196333	0.182686	0.115817	0.163168	0.588534	0.390531	0.034799	0.241200	0.184314	0.153359	0.277095	0.074468	0.224522	0.190189	0.071972	0.121154	0.303686	0.297886	0.092165	0.107653	0.335882	0.320191	0.083550	0.102811	0.238909	0.141334	0.085014	0.090645	0.408759	0.217546	0.054158	0.063211	0.316895	0.239467	0.106813	0.098756	0.293126	0.264673	0.101042	0.226725	0.387519	0.238732
92	0.212253	0.192634	0.458781	0.405752	0.062655	0.109000	0.438162	0.288413	0.090281	0.163935	0.743004	0.358966	0.155789	0.104059	0.453559	0.191322	0.158780	0.188628	0.465751	0.186608	0.094714	0.145561	0.489856	0.217046	0.197383	0.148691	0.465795	0.409388	0.028358	0.055236	0.228390	0.204593	0.108582	0.146823	0.537167	0.408914	0.039983	0.240101	0.198330	0.136892	0.279450	0.097769	0.299730	0.575202	0.071663	0.119845	0.254752	0.293072	0.105105	0.140029	0.362142	0.326145	0.081793	0.093579	0.236246	0.147654	0.103326	0.229667	0.418122	0.294525	0.073880	0.060382	0.344182	0.262860	0.099382	0.105761	0.303540	0.266781	0.072448	0.145252	0.369134	0.183339
93	0.182353	0.206634	0.443938	0.367975	0.054230	0.112416	0.415306	0.343804	0.080196	0.145144	0.712206	0.417881	0.141376	0.090067	0.492027	0.182943	0.177304	0.236793	0.466210	0.203065	0.094884	0.182266	0.462762	0.239767	0.138189	0.120866	0.532900	0.424185	0.032754	0.073747	0.236866	0.222778	0.104499	0.143101	0.524920	0.437429	0.036102	0.254637	0.319822	0.165410	0.279321	0.110740	0.318107	0.626475	0.074626	0.116989	0.274280	0.266136	0.110094	0.153417	0.380888	0.332786	0.081244	0.100200	0.225917	0.174151	0.123056	0.283950	0.465970	0.335284	0.070531	0.061926	0.354696	0.274419	0.090140	0.098263	0.268712	0.256273	0.071959	0.139209	0.361056	0.178020
94	0.166893	0.204728	0.418588	0.373957	0.056432	0.112441	0.440411	0.347170	0.084934	0.135880	0.623248	0.467431	0.125837	0.085040	0.493599	0.194862	0.212810	0.280744	0.408730	0.375203	0.078580	0.195626	0.300396	0.298925	0.124040	0.098942	0.559298	0.473596	0.057892	0.081006	0.240519	0.298761	0.104740	0.139397	0.479008	0.457375	0.037175	0.441748	0.357974	0.195970	0.262723	0.159568	0.342493	0.672021	0.082337	0.115882	0.262456	0.220268	0.098077	0.159119	0.444606	0.335989	0.087786	0.099597	0.212139	0.181857	0.109949	0.339604	0.496789	0.519857	0.072565	0.071102	0.368714	0.295869	0.090243	0.078328	0.456050	0.249042	0.084058	0.136502	0.311339	0.157459
95	0.156755	0.201870	0.417993	0.419370	0.055444	0.121764	0.420242	0.337443	0.093273	0.120955	0.664697	0.549334	0.098805	0.088750	0.519161	0.191126	0.222353	0.276875	0.405906	0.432718	0.207621	0.226773	0.218767	0.322139	0.083637	0.102266	0.549795	0.474104	0.091128	0.104521	0.245844	0.429579	0.092852	0.110395	0.460339	0.442016	0.042768	0.457620	0.404368	0.212959	0.205850	0.198840	0.326017	0.674751	0.109655	0.108202	0.319192	0.242112	0.091219	0.164872	0.532881	0.380368	0.101609	0.099824	0.219963	0.196259	0.116010	0.402666	0.496746	0.531349	0.111821	0.096446	0.360682	0.280392	0.122503	0.151772	0.717744	0.296484	0.072614	0.119890	0.255642	0.155182
96	0.150225	0.203720	0.404352	0.399211	0.054212	0.124828	0.390896	0.308535	0.094715	0.120677	0.607642	0.569521	0.096877	0.092658	0.526971	0.204340	0.204486	0.269740	0.434425	0.537108	0.276068	0.236394	0.214450	0.413146	0.085688	0.126413	0.554125	0.459046	0.095468	0.176136	0.254508	0.447088	0.113347	0.122530	0.392940	0.392142	0.050518	0.461055	0.431490	0.228369	0.110446	0.188386	0.375081	0.670481	0.133385	0.113292	0.359578	0.345964	0.092104	0.200140	0.541686	0.400938	0.102397	0.186345	0.224970	0.215205	0.117868	0.401812	0.383118	0.541271	0.123130	0.100992	0.465846	0.349496	0.185299	0.183720	0.775195	0.349234	0.079392	0.096889	0.312662	0.157827
97	0.149233	0.190001	0.363897	0.382758	0.054616	0.123426	0.384962	0.307145	0.112664	0.135387	0.573341	0.609881	0.104423	0.099542	0.480783	0.173896	0.201275	0.273650	0.466780	0.543911	0.301371	0.375260	0.189657	0.416795	0.075146	0.127423	0.550546	0.448892	0.097404	0.216495	0.266422	0.482680	0.119114	0.130776	0.326222	0.395811	0.052568	0.460717	0.430783	0.219266	0.116079	0.187812	0.365841	0.705013	0.195575	0.092726	0.469386	0.482419	0.101146	0.206967	0.615646	0.395642	0.108379	0.251112	0.226147	0.232190	0.113589	0.397085	0.368068	0.508928	0.133652	0.100005	0.483108	0.430312	0.188847	0.223648	0.953403	0.335209	0.095639	0.096002	0.327564	0.166544
98	0.118166	0.132592	0.369036	0.372384	0.054889	0.121121	0.347496	0.306608	0.112662	0.137277	0.575818	0.558762	0.087905	0.099960	0.409786	0.389982	0.200224	0.271398	0.474922	0.545085	0.311973	0.424933	0.173572	0.416570	0.076437	0.148207	0.481884	0.453614	0.097443	0.241692	0.353393	0.535131	0.114053	0.131010	0.582830	0.407802	0.052816	0.450166	0.428984	0.255722	0.119387	0.180506	0.304867	0.504563	0.194782	0.151580	0.616827	0.495057	0.092887	0.189669	0.622607	0.475736	0.114627	0.252577	0.212214	0.253372	0.085264	0.310520	0.320559	0.518545	0.118545	0.112299	0.539600	0.500096	0.189132	0.225617	0.968416	0.350476	0.109612	0.090087	0.327609	0.157865
99	0.099352	0.123930	0.381685	0.459265	0.051782	0.108482	0.281536	0.277972	0.120394	0.163910	0.624506	0.764447	0.090036	0.101842	0.403971	0.433746	0.202824	0.274447	0.457011	0.545220	0.337282	0.479688	0.277893	0.421145	0.077134	0.152110	0.458382	0.415860	0.094857	0.257471	0.339482	0.527303	0.127444	0.124881	0.675730	0.538509	0.050565	0.456730	0.468902	0.270280	0.130981	0.173104	0.322819	0.488456	0.197286	0.323153	0.629309	0.496499	0.090809	0.177482	0.624376	0.513427	0.107926	0.251131	0.207543	0.238792	0.095778	0.300490	0.275949	0.473783	0.122559	0.122030	0.561644	0.499086	0.187438	0.230296	0.967645	0.350728	0.119317	0.089653	0.321825	0.144398
100	0.087638	0.137622	0.419471	0.587840	0.049435	0.095582	0.267198	0.265392	0.132452	0.190280	0.598498	0.775968	0.081433	0.100460	0.309615	0.515286	0.203486	0.289695	0.360540	0.545206	0.449344	0.533842	0.291396	0.420696	0.079349	0.144599	0.464218	0.380226	0.094248	0.258097	0.332908	0.521691	0.129418	0.130785	0.864108	0.528737	0.058020	0.460028	0.484282	0.279013	0.128118	0.133871	0.294862	0.403873	0.198232	0.419741	0.633886	0.496260	0.098772	0.184983	0.632369	0.726730	0.107972	0.359937	0.412588	0.308346	0.133127	0.201973	0.234123	0.325716	0.121781	0.120880	0.565467	0.493169	0.189383	0.230657	0.900866	0.352708	0.106082	0.068014	0.262284	0.143329
101	0.091603	0.140279	0.405026	0.641488	0.046130	0.083326	0.262084	0.204162	0.137162	0.191091	0.534374	0.927726	0.074770	0.101842	0.242857	0.521219	0.191077	0.266574	0.439685	0.543566	0.527186	0.536868	0.305539	0.393339	0.115247	0.157193	0.433653	0.366352	0.094629	0.253595	0.320417	0.508736	0.154066	0.227388	0.883011	0.535139	0.061318	0.448998	0.415428	0.269961	0.176876	0.063455	0.270546	0.394145	0.181453	0.442410	0.635786	0.493180	0.099416	0.173900	0.662598	0.735963	0.117757	0.378931	0.424931	0.307186	0.207743	0.140637	0.231680	0.330004	0.104483	0.106672	0.559074	0.489468	0.180870	0.189832	0.703463	0.344500	0.104394	0.067110	0.244645	0.147223
