	107_P_T3_sh_L_ND_A_02.c3d	107_P_T3_sh_L_ND_A_02.c3d	107_P_T3_sh_L_ND_A_02.c3d	107_P_T3_sh_L_ND_A_02.c3d	107_P_T3_sh_L_ND_A_02.c3d	107_P_T3_sh_L_ND_A_02.c3d	107_P_T3_sh_L_ND_A_02.c3d	107_P_T3_sh_L_ND_A_02.c3d	107_P_T3_sh_L_ND_A_03.c3d	107_P_T3_sh_L_ND_A_03.c3d	107_P_T3_sh_L_ND_A_03.c3d	107_P_T3_sh_L_ND_A_03.c3d	107_P_T3_sh_L_ND_A_03.c3d	107_P_T3_sh_L_ND_A_03.c3d	107_P_T3_sh_L_ND_A_03.c3d	107_P_T3_sh_L_ND_A_03.c3d	107_P_T3_sh_L_ND_A_06.c3d	107_P_T3_sh_L_ND_A_06.c3d	107_P_T3_sh_L_ND_A_06.c3d	107_P_T3_sh_L_ND_A_06.c3d	107_P_T3_sh_L_ND_A_06.c3d	107_P_T3_sh_L_ND_A_06.c3d	107_P_T3_sh_L_ND_A_06.c3d	107_P_T3_sh_L_ND_A_06.c3d	107_P_T3_sh_L_ND_A_07.c3d	107_P_T3_sh_L_ND_A_07.c3d	107_P_T3_sh_L_ND_A_07.c3d	107_P_T3_sh_L_ND_A_07.c3d	107_P_T3_sh_L_ND_A_07.c3d	107_P_T3_sh_L_ND_A_07.c3d	107_P_T3_sh_L_ND_A_07.c3d	107_P_T3_sh_L_ND_A_07.c3d	107_P_T3_sh_L_ND_A_08.c3d	107_P_T3_sh_L_ND_A_08.c3d	107_P_T3_sh_L_ND_A_08.c3d	107_P_T3_sh_L_ND_A_08.c3d	107_P_T3_sh_L_ND_A_08.c3d	107_P_T3_sh_L_ND_A_08.c3d	107_P_T3_sh_L_ND_A_08.c3d	107_P_T3_sh_L_ND_A_08.c3d	107_P_T3_sh_L_ND_A_09.c3d	107_P_T3_sh_L_ND_A_09.c3d	107_P_T3_sh_L_ND_A_09.c3d	107_P_T3_sh_L_ND_A_09.c3d	107_P_T3_sh_L_ND_A_09.c3d	107_P_T3_sh_L_ND_A_09.c3d	107_P_T3_sh_L_ND_A_09.c3d	107_P_T3_sh_L_ND_A_09.c3d
	Biceps femoris_lat	Semitendinosus_lat	Vastus lateralis_lat	Vastus medialis_lat	Biceps femoris_med	Semitendinosus_med	Vastus lateralis_med	Vastus medialis_med	Biceps femoris_lat	Semitendinosus_lat	Vastus lateralis_lat	Vastus medialis_lat	Biceps femoris_med	Semitendinosus_med	Vastus lateralis_med	Vastus medialis_med	Biceps femoris_lat	Semitendinosus_lat	Vastus lateralis_lat	Vastus medialis_lat	Biceps femoris_med	Semitendinosus_med	Vastus lateralis_med	Vastus medialis_med	Biceps femoris_lat	Semitendinosus_lat	Vastus lateralis_lat	Vastus medialis_lat	Biceps femoris_med	Semitendinosus_med	Vastus lateralis_med	Vastus medialis_med	Biceps femoris_lat	Semitendinosus_lat	Vastus lateralis_lat	Vastus medialis_lat	Biceps femoris_med	Semitendinosus_med	Vastus lateralis_med	Vastus medialis_med	Biceps femoris_lat	Semitendinosus_lat	Vastus lateralis_lat	Vastus medialis_lat	Biceps femoris_med	Semitendinosus_med	Vastus lateralis_med	Vastus medialis_med
	P2D	P2D	P2D	P2D	P2D	P2D	P2D	P2D	P2D	P2D	P2D	P2D	P2D	P2D	P2D	P2D	P2D	P2D	P2D	P2D	P2D	P2D	P2D	P2D	P2D	P2D	P2D	P2D	P2D	P2D	P2D	P2D	P2D	P2D	P2D	P2D	P2D	P2D	P2D	P2D	P2D	P2D	P2D	P2D	P2D	P2D	P2D	P2D
	EMG_lat	EMG_lat	EMG_lat	EMG_lat	EMG_med	EMG_med	EMG_med	EMG_med	EMG_lat	EMG_lat	EMG_lat	EMG_lat	EMG_med	EMG_med	EMG_med	EMG_med	EMG_lat	EMG_lat	EMG_lat	EMG_lat	EMG_med	EMG_med	EMG_med	EMG_med	EMG_lat	EMG_lat	EMG_lat	EMG_lat	EMG_med	EMG_med	EMG_med	EMG_med	EMG_lat	EMG_lat	EMG_lat	EMG_lat	EMG_med	EMG_med	EMG_med	EMG_med	EMG_lat	EMG_lat	EMG_lat	EMG_lat	EMG_med	EMG_med	EMG_med	EMG_med
ITEM	Y	Y	Y	Y	Y	Y	Y	Y	Y	Y	Y	Y	Y	Y	Y	Y	Y	Y	Y	Y	Y	Y	Y	Y	Y	Y	Y	Y	Y	Y	Y	Y	Y	Y	Y	Y	Y	Y	Y	Y	Y	Y	Y	Y	Y	Y	Y	Y
1	0.102015	0.313032	0.311903	0.058806	0.172574	0.352268	0.407552	0.214782	0.168551	0.211907	0.208294	0.288313	0.122805	0.154233	0.709276	0.222187	0.070211	0.057320	0.274765	0.193674	0.123562	0.272824	0.487355	0.276102	0.090559	0.227917	0.309759	0.313500	0.299099	0.476738	0.336545	0.129988	0.051222	0.067048	0.139356	0.064312	0.113647	0.182574	0.275252	0.107556	0.170480	0.215929	0.154489	0.043110	0.077609	0.123295	0.258407	0.200724
2	0.093731	0.309771	0.313733	0.067471	0.165299	0.426154	0.294516	0.200838	0.156707	0.210647	0.230740	0.283609	0.120512	0.156107	0.711153	0.215333	0.070454	0.058904	0.282001	0.177410	0.134830	0.275007	0.491034	0.262368	0.114061	0.229034	0.355174	0.324168	0.286163	0.476655	0.317457	0.135959	0.048363	0.054258	0.153527	0.063787	0.118506	0.202096	0.308052	0.105457	0.128586	0.194479	0.222656	0.044404	0.064156	0.147406	0.230361	0.200172
3	0.084205	0.280950	0.314453	0.099046	0.167392	0.447428	0.204617	0.181767	0.150730	0.221555	0.235156	0.273788	0.117634	0.157282	0.664294	0.217211	0.061977	0.054614	0.285970	0.176802	0.138099	0.276854	0.485233	0.246951	0.129305	0.325102	0.367472	0.328478	0.275066	0.384863	0.292361	0.142894	0.046429	0.043903	0.167293	0.063130	0.118571	0.214786	0.335770	0.103995	0.103557	0.140874	0.234059	0.044697	0.062481	0.153068	0.224295	0.201015
4	0.031085	0.107295	0.292446	0.125810	0.164791	0.449351	0.178361	0.154501	0.167280	0.356999	0.249840	0.241534	0.117190	0.157097	0.578679	0.208352	0.060593	0.053516	0.228329	0.175819	0.137777	0.299748	0.477316	0.232128	0.160402	0.408227	0.338273	0.329813	0.215957	0.334946	0.300287	0.143404	0.046588	0.039258	0.162294	0.059903	0.100684	0.161056	0.343720	0.114873	0.103604	0.139507	0.253062	0.042489	0.070218	0.213257	0.223111	0.203507
5	0.033573	0.071484	0.282015	0.136630	0.152712	0.435407	0.168237	0.119488	0.174461	0.394856	0.253817	0.218194	0.118729	0.159253	0.530883	0.192569	0.049822	0.080576	0.174914	0.176326	0.137350	0.327703	0.465935	0.222091	0.161444	0.408514	0.307300	0.323157	0.142369	0.339818	0.330347	0.147026	0.046519	0.037450	0.163497	0.054821	0.085506	0.148666	0.357515	0.139590	0.096945	0.133422	0.280052	0.054639	0.072074	0.259277	0.203220	0.198770
6	0.055419	0.083738	0.280926	0.137002	0.131321	0.428870	0.164471	0.104641	0.135491	0.391935	0.240917	0.205147	0.119435	0.158859	0.531039	0.186326	0.056675	0.141080	0.181398	0.176826	0.137320	0.336924	0.446636	0.210134	0.165689	0.409438	0.306954	0.300657	0.139761	0.333788	0.357698	0.153471	0.047676	0.026569	0.151530	0.051976	0.087317	0.153951	0.394569	0.151374	0.075927	0.099739	0.290741	0.074262	0.071753	0.263479	0.166598	0.183117
7	0.057685	0.081172	0.273616	0.146186	0.125000	0.424209	0.166103	0.108450	0.139073	0.391206	0.214095	0.170079	0.121184	0.167772	0.480922	0.190226	0.085027	0.165622	0.174790	0.165061	0.137806	0.335004	0.425101	0.202535	0.177293	0.406227	0.300260	0.261661	0.122608	0.319270	0.367008	0.156083	0.057122	0.022382	0.144296	0.055727	0.091335	0.156345	0.406894	0.154988	0.077664	0.097890	0.292694	0.080096	0.070326	0.265511	0.135686	0.170753
8	0.062765	0.079776	0.259925	0.156886	0.120076	0.396289	0.167672	0.113779	0.135500	0.386408	0.218648	0.141135	0.116738	0.160574	0.382170	0.188672	0.106251	0.166062	0.210589	0.143042	0.145125	0.334454	0.419036	0.201231	0.184620	0.381465	0.300586	0.244546	0.106573	0.307758	0.367259	0.158275	0.058224	0.025550	0.143989	0.056544	0.099236	0.192221	0.409635	0.160718	0.073384	0.092708	0.319972	0.132592	0.063697	0.265466	0.131602	0.172434
9	0.067896	0.090820	0.235745	0.169348	0.122256	0.354863	0.160417	0.111791	0.140540	0.364167	0.226489	0.117771	0.106186	0.163386	0.285290	0.174034	0.112103	0.191066	0.237403	0.137850	0.153602	0.326879	0.414902	0.195720	0.183995	0.360764	0.367343	0.249178	0.100947	0.278475	0.366920	0.162512	0.057696	0.047344	0.176269	0.059241	0.098693	0.213207	0.427837	0.179909	0.083057	0.095880	0.362222	0.276819	0.059012	0.265584	0.142522	0.172586
10	0.068878	0.138464	0.229457	0.183326	0.122175	0.344545	0.156633	0.108620	0.141612	0.370777	0.210301	0.136080	0.105895	0.166863	0.219724	0.152916	0.143002	0.249627	0.242950	0.142602	0.146112	0.288952	0.412722	0.176107	0.181348	0.357160	0.403299	0.226018	0.094675	0.277158	0.366990	0.162717	0.060000	0.102061	0.182088	0.066872	0.096287	0.220965	0.434261	0.190308	0.102230	0.091353	0.347339	0.350560	0.059465	0.266108	0.322899	0.171932
11	0.071550	0.148007	0.167067	0.185931	0.086914	0.332084	0.178711	0.106816	0.144204	0.370981	0.212585	0.145709	0.108416	0.212945	0.211701	0.135758	0.153637	0.260131	0.311466	0.142992	0.130683	0.264621	0.416278	0.142822	0.174123	0.354098	0.382155	0.208637	0.088628	0.277380	0.366856	0.161985	0.075438	0.120314	0.206668	0.067841	0.093452	0.218730	0.404342	0.193650	0.102360	0.096068	0.329768	0.367476	0.065197	0.267959	0.471554	0.184845
12	0.071732	0.151508	0.186571	0.213083	0.077450	0.319016	0.184442	0.104732	0.127721	0.249489	0.209447	0.146900	0.114361	0.280606	0.213947	0.126083	0.165213	0.260579	0.340428	0.153319	0.130899	0.268716	0.403340	0.115886	0.162420	0.353384	0.388972	0.198791	0.083351	0.277705	0.363345	0.162510	0.079425	0.129532	0.240797	0.074915	0.093137	0.226159	0.376583	0.194163	0.109603	0.114636	0.334376	0.468561	0.072416	0.268597	0.490404	0.194714
13	0.072213	0.179393	0.188419	0.239304	0.082577	0.225824	0.179933	0.110426	0.115445	0.164003	0.181387	0.152597	0.113398	0.346911	0.206525	0.126755	0.167351	0.260993	0.339990	0.163313	0.131156	0.276745	0.341560	0.117215	0.137008	0.214032	0.420431	0.197282	0.081805	0.263804	0.352779	0.162379	0.089884	0.165233	0.247281	0.103390	0.093817	0.253529	0.371417	0.196943	0.112107	0.116959	0.350355	0.538701	0.083370	0.267343	0.495371	0.202158
14	0.074622	0.221918	0.175915	0.233489	0.089483	0.132295	0.199317	0.174048	0.106696	0.153129	0.195194	0.155764	0.110167	0.407141	0.205328	0.119326	0.167709	0.263446	0.362593	0.164678	0.122126	0.271678	0.280707	0.130901	0.113096	0.115881	0.428059	0.211177	0.075038	0.188903	0.311847	0.160495	0.097825	0.184505	0.343092	0.169956	0.106469	0.257347	0.372302	0.224965	0.116943	0.116317	0.340794	0.543656	0.101996	0.258449	0.534324	0.232764
15	0.075346	0.234264	0.152142	0.221551	0.105974	0.129163	0.347999	0.286143	0.091866	0.156632	0.201603	0.149673	0.110408	0.404097	0.220683	0.105836	0.170969	0.254397	0.381066	0.191267	0.128555	0.288128	0.263022	0.144330	0.110923	0.139199	0.428906	0.225465	0.074030	0.139429	0.287111	0.152881	0.098391	0.202568	0.427096	0.260956	0.115263	0.257604	0.371773	0.266842	0.116017	0.113060	0.371698	0.565360	0.122090	0.243423	0.570507	0.290547
16	0.070221	0.230719	0.150247	0.216747	0.109467	0.119410	0.422802	0.410142	0.106057	0.143374	0.214742	0.143822	0.108400	0.408849	0.204034	0.107078	0.167453	0.226721	0.376061	0.247123	0.145964	0.299436	0.258586	0.148509	0.105476	0.149862	0.428287	0.224997	0.062796	0.138777	0.289537	0.189666	0.098176	0.213719	0.430963	0.321280	0.110804	0.245601	0.363985	0.290109	0.128980	0.096823	0.394862	0.593100	0.128142	0.240800	0.591226	0.320150
17	0.066687	0.231897	0.158060	0.217910	0.110757	0.122737	0.429796	0.496152	0.104988	0.136120	0.208165	0.169824	0.108240	0.424582	0.224492	0.128855	0.152581	0.213170	0.375118	0.259047	0.162370	0.283377	0.259553	0.138272	0.089764	0.147691	0.445172	0.219628	0.048474	0.134207	0.355121	0.319705	0.099096	0.216628	0.430968	0.342213	0.110072	0.265959	0.369421	0.288180	0.132553	0.096087	0.402398	0.600918	0.124279	0.194282	0.591536	0.324238
18	0.075559	0.243636	0.214400	0.213442	0.119523	0.135134	0.485144	0.504858	0.102779	0.126618	0.208366	0.207985	0.108859	0.452978	0.269807	0.151710	0.140163	0.210244	0.351900	0.271217	0.169498	0.251989	0.269301	0.130647	0.097532	0.152929	0.481632	0.211393	0.045003	0.129436	0.454903	0.504462	0.095755	0.219381	0.429478	0.348170	0.102765	0.274706	0.463354	0.273937	0.129868	0.092934	0.375811	0.556997	0.122073	0.137401	0.590575	0.330915
19	0.078754	0.248673	0.245241	0.208967	0.150317	0.155997	0.512167	0.534545	0.099161	0.118722	0.198018	0.208284	0.108144	0.477549	0.282087	0.167843	0.143457	0.178999	0.338648	0.311360	0.175642	0.242107	0.277602	0.144713	0.103692	0.156758	0.421322	0.200555	0.058904	0.125112	0.532275	0.649864	0.088743	0.220236	0.430037	0.381933	0.100574	0.274299	0.560087	0.265292	0.123690	0.094542	0.390811	0.524460	0.120216	0.134061	0.594466	0.350419
20	0.074905	0.241129	0.251446	0.218577	0.164314	0.147138	0.518359	0.636409	0.098530	0.118087	0.199226	0.227257	0.107749	0.479456	0.278703	0.178378	0.118772	0.091355	0.324970	0.339347	0.179849	0.245283	0.282966	0.171615	0.101874	0.152301	0.395781	0.184311	0.102890	0.113913	0.533662	0.693660	0.101600	0.223094	0.430848	0.406572	0.099030	0.273363	0.592768	0.261903	0.129962	0.088756	0.399767	0.558658	0.118366	0.148086	0.598751	0.353083
21	0.075727	0.219810	0.252051	0.237032	0.163861	0.144210	0.538193	0.696047	0.096716	0.115942	0.223029	0.231481	0.106081	0.477169	0.291142	0.180905	0.109813	0.079770	0.253384	0.351690	0.174959	0.244689	0.284434	0.187794	0.134030	0.150604	0.425562	0.154253	0.121652	0.110621	0.557329	0.701360	0.104516	0.228489	0.422229	0.424554	0.103326	0.257132	0.593841	0.262053	0.132152	0.074432	0.388983	0.531454	0.120997	0.185846	0.597210	0.351263
22	0.081408	0.217553	0.249111	0.254126	0.166118	0.143916	0.564085	0.702452	0.106678	0.115815	0.255426	0.237519	0.098700	0.474581	0.308825	0.177686	0.107771	0.095457	0.226288	0.348098	0.176418	0.234434	0.284362	0.191658	0.152522	0.156542	0.411476	0.173945	0.153614	0.113585	0.590029	0.808393	0.103809	0.220391	0.428657	0.437296	0.126221	0.254886	0.613418	0.254567	0.140343	0.075684	0.356394	0.483401	0.129368	0.205208	0.594936	0.348847
23	0.102260	0.210178	0.257028	0.224601	0.166078	0.148478	0.576633	0.705869	0.116854	0.104897	0.262430	0.314724	0.104608	0.471618	0.313069	0.177909	0.107409	0.102420	0.225853	0.344491	0.191494	0.217128	0.286182	0.192654	0.154883	0.152788	0.382951	0.186976	0.160539	0.112972	0.612355	0.966090	0.094438	0.217124	0.425840	0.454762	0.134329	0.256131	0.646587	0.248422	0.137283	0.075129	0.344431	0.477098	0.131566	0.205737	0.529946	0.348826
24	0.119094	0.177890	0.288242	0.211605	0.172667	0.149634	0.579660	0.719146	0.101762	0.103326	0.298612	0.395352	0.113763	0.470285	0.322247	0.179844	0.106106	0.108961	0.174581	0.343574	0.194194	0.199440	0.288318	0.198098	0.157424	0.141042	0.377618	0.171151	0.163879	0.136246	0.628094	1.056253	0.092821	0.217852	0.409260	0.469462	0.136405	0.261301	0.676401	0.254159	0.132547	0.077150	0.300887	0.446835	0.130529	0.201758	0.393413	0.344425
25	0.122725	0.128940	0.302397	0.213201	0.170639	0.151653	0.576426	0.726275	0.106780	0.120942	0.320189	0.399201	0.134207	0.460936	0.321930	0.190253	0.102906	0.119341	0.136885	0.323487	0.193845	0.190758	0.275217	0.201135	0.161928	0.111388	0.377338	0.156953	0.164520	0.163195	0.636058	1.085883	0.089676	0.194807	0.406414	0.479611	0.142229	0.260817	0.693273	0.264042	0.109034	0.084628	0.266368	0.408688	0.128538	0.200278	0.355822	0.363860
26	0.125193	0.121649	0.306582	0.217934	0.163222	0.157707	0.505583	0.697735	0.109373	0.110422	0.321796	0.373230	0.130841	0.423200	0.351731	0.208192	0.102012	0.122518	0.128170	0.285643	0.193029	0.176740	0.228654	0.208865	0.162459	0.093207	0.376313	0.157633	0.164800	0.177735	0.637721	1.089919	0.084838	0.175667	0.338606	0.465575	0.142559	0.232709	0.703025	0.274374	0.105831	0.154544	0.215512	0.381090	0.122237	0.198929	0.348847	0.412524
27	0.125891	0.121167	0.309129	0.233637	0.164556	0.164858	0.427072	0.638925	0.111888	0.166007	0.317512	0.370056	0.125687	0.380107	0.380965	0.212861	0.104670	0.147888	0.146284	0.279628	0.188268	0.173704	0.213396	0.229155	0.158464	0.091368	0.345442	0.156066	0.164824	0.181396	0.637687	1.089524	0.088264	0.155480	0.185706	0.423591	0.133438	0.228160	0.704848	0.268996	0.120560	0.188648	0.206438	0.371124	0.112189	0.192962	0.290683	0.424096
28	0.118444	0.101711	0.325354	0.236768	0.167489	0.162681	0.414282	0.566271	0.111428	0.204401	0.302488	0.359501	0.129793	0.290871	0.385777	0.212310	0.120969	0.198595	0.191832	0.253933	0.180505	0.143402	0.248756	0.254619	0.145838	0.082732	0.284133	0.156589	0.164700	0.181320	0.635043	1.088606	0.089994	0.137841	0.169281	0.380791	0.118665	0.212355	0.693495	0.238628	0.128798	0.189100	0.137828	0.365872	0.091395	0.198306	0.206155	0.389310
29	0.112769	0.072324	0.296486	0.236478	0.163360	0.150806	0.369089	0.549630	0.114862	0.239496	0.285906	0.358316	0.147129	0.278725	0.379273	0.216517	0.129483	0.204465	0.193704	0.186039	0.165187	0.113609	0.275851	0.269647	0.140943	0.074558	0.275520	0.157484	0.164834	0.180026	0.628551	1.079336	0.092856	0.133059	0.160813	0.365313	0.116382	0.212023	0.682311	0.208238	0.128683	0.206950	0.057452	0.275574	0.079881	0.201402	0.129262	0.360341
30	0.111685	0.065264	0.278137	0.233206	0.144230	0.122364	0.308806	0.535913	0.106051	0.316772	0.233386	0.355517	0.204765	0.273329	0.379146	0.224239	0.123588	0.224439	0.204659	0.147276	0.147854	0.102600	0.289290	0.273201	0.140149	0.085778	0.258600	0.153204	0.163946	0.173331	0.565325	1.038536	0.108991	0.129726	0.167528	0.365070	0.115510	0.205745	0.677636	0.201749	0.156144	0.255300	0.036405	0.150413	0.080179	0.204633	0.117351	0.354768
31	0.114472	0.076176	0.273722	0.212757	0.114531	0.112590	0.296530	0.430691	0.108025	0.319082	0.226450	0.308620	0.211018	0.254132	0.371737	0.220583	0.160827	0.229926	0.200466	0.131308	0.139381	0.095814	0.282213	0.271642	0.106111	0.103661	0.200815	0.145946	0.163654	0.163783	0.457224	0.953450	0.119472	0.128581	0.170196	0.333209	0.115948	0.219503	0.620437	0.207662	0.150940	0.255617	0.038575	0.110544	0.086629	0.199654	0.120717	0.352081
32	0.116203	0.084963	0.273313	0.176716	0.113447	0.112343	0.267217	0.293536	0.110209	0.313582	0.166486	0.180677	0.215727	0.204073	0.344739	0.205322	0.202466	0.265787	0.193128	0.133094	0.132108	0.082442	0.273398	0.265526	0.097321	0.095094	0.154199	0.109321	0.154049	0.162341	0.360926	0.871246	0.121127	0.128070	0.169408	0.301976	0.119296	0.232255	0.508403	0.211093	0.156960	0.264081	0.086255	0.110018	0.094920	0.193322	0.107913	0.333163
33	0.111037	0.086592	0.263763	0.158260	0.111454	0.118167	0.193329	0.265712	0.090994	0.305677	0.100836	0.135234	0.215963	0.123242	0.330624	0.190430	0.217394	0.274752	0.190665	0.154505	0.125570	0.066295	0.266844	0.249948	0.129440	0.116433	0.141009	0.075363	0.128734	0.166095	0.351829	0.851894	0.133540	0.118011	0.161661	0.275504	0.138542	0.282094	0.447693	0.211687	0.162084	0.275869	0.091125	0.109987	0.103968	0.204903	0.079036	0.325822
34	0.115740	0.119597	0.235518	0.154625	0.120273	0.123793	0.119188	0.261496	0.087333	0.307397	0.084373	0.136739	0.215815	0.091608	0.329602	0.181118	0.219952	0.278837	0.194552	0.166225	0.125893	0.052278	0.265355	0.238058	0.197361	0.158226	0.139492	0.067049	0.115086	0.166716	0.296363	0.832174	0.133351	0.098786	0.135048	0.252172	0.151308	0.298072	0.444360	0.208907	0.162268	0.273417	0.108822	0.108846	0.111871	0.221212	0.073266	0.320902
35	0.142703	0.141619	0.195845	0.136622	0.177177	0.158948	0.093643	0.232764	0.087313	0.288328	0.082422	0.132032	0.215965	0.091455	0.317338	0.174953	0.232791	0.307506	0.199892	0.168092	0.114066	0.050599	0.266400	0.235389	0.252119	0.197346	0.165120	0.063792	0.069649	0.177557	0.229432	0.697165	0.132951	0.078985	0.110616	0.217339	0.135835	0.287406	0.404270	0.202626	0.160864	0.237525	0.125194	0.101670	0.105005	0.250110	0.075027	0.320796
36	0.147369	0.150177	0.195669	0.135933	0.189619	0.166437	0.089212	0.172901	0.092885	0.253885	0.097644	0.123603	0.214630	0.091151	0.306924	0.172895	0.289332	0.307564	0.224662	0.180136	0.074586	0.054397	0.266611	0.236034	0.256602	0.198447	0.182459	0.061525	0.051781	0.180765	0.168794	0.462668	0.131954	0.062794	0.104889	0.180132	0.129078	0.287802	0.330061	0.196680	0.140254	0.216137	0.136706	0.086906	0.101740	0.255188	0.074546	0.322175
37	0.148317	0.156174	0.191374	0.124394	0.192811	0.182470	0.090037	0.154922	0.088339	0.234625	0.112242	0.118007	0.209758	0.090454	0.316404	0.172747	0.327949	0.290355	0.215734	0.184730	0.062818	0.090743	0.260121	0.231336	0.255733	0.198806	0.183410	0.062377	0.045470	0.169633	0.105370	0.264496	0.130088	0.057616	0.100950	0.132701	0.138597	0.302932	0.258201	0.185551	0.130146	0.213824	0.141957	0.072744	0.099610	0.255157	0.074054	0.322296
38	0.147861	0.158445	0.171117	0.095626	0.253894	0.182417	0.088065	0.168132	0.084750	0.125727	0.180195	0.109740	0.207847	0.091760	0.305692	0.169256	0.335548	0.265086	0.186465	0.181525	0.063856	0.134100	0.261150	0.228040	0.254109	0.199992	0.181096	0.057341	0.067958	0.286548	0.060461	0.168791	0.127740	0.058395	0.098442	0.117070	0.164280	0.373486	0.195354	0.171627	0.121243	0.186546	0.147337	0.059430	0.097568	0.255218	0.073904	0.295611
39	0.147480	0.160982	0.125658	0.137305	0.260287	0.217543	0.082706	0.172281	0.069735	0.112516	0.198202	0.101430	0.199031	0.084304	0.312374	0.160442	0.338110	0.262670	0.194559	0.171876	0.065295	0.143886	0.257047	0.221808	0.253680	0.203900	0.169390	0.053568	0.182264	0.480991	0.049715	0.156534	0.133144	0.064623	0.099382	0.115501	0.179922	0.420427	0.142480	0.154776	0.069173	0.115777	0.162086	0.050593	0.096243	0.256812	0.073925	0.213427
40	0.155829	0.160858	0.137501	0.172142	0.259173	0.233327	0.074197	0.165970	0.061649	0.111571	0.289222	0.084720	0.193689	0.084843	0.305992	0.136468	0.354959	0.244184	0.189124	0.160734	0.061789	0.149709	0.227675	0.194825	0.252945	0.201587	0.165984	0.060668	0.211171	0.507317	0.048508	0.157216	0.136795	0.067929	0.102209	0.104619	0.180243	0.423020	0.117228	0.128807	0.066639	0.112257	0.176609	0.100550	0.093166	0.253102	0.073049	0.139647
41	0.172394	0.157721	0.146307	0.184736	0.260435	0.235360	0.063006	0.162889	0.064513	0.105655	0.327933	0.084242	0.196301	0.090101	0.268545	0.122117	0.334833	0.237999	0.193020	0.163835	0.052520	0.175658	0.180903	0.147537	0.249954	0.196865	0.141114	0.068057	0.222781	0.519097	0.049223	0.152794	0.184948	0.073847	0.098247	0.081842	0.180177	0.422854	0.111128	0.107719	0.070787	0.082441	0.191662	0.173447	0.091833	0.247515	0.070709	0.121424
42	0.171226	0.151425	0.171987	0.184409	0.259901	0.243886	0.055564	0.166087	0.074001	0.105249	0.331786	0.080530	0.197177	0.090411	0.250613	0.120534	0.314309	0.192961	0.208898	0.168033	0.052704	0.208393	0.135621	0.102001	0.247671	0.195682	0.130675	0.074377	0.223023	0.522109	0.049361	0.146011	0.209679	0.074481	0.085547	0.058856	0.180112	0.422249	0.111555	0.102455	0.106564	0.048610	0.235001	0.221024	0.092738	0.244854	0.069180	0.121752
43	0.169616	0.146774	0.183920	0.222867	0.269118	0.254953	0.050953	0.164886	0.074011	0.104285	0.338247	0.079862	0.198822	0.096081	0.241532	0.117149	0.313692	0.183392	0.295329	0.153798	0.061171	0.221811	0.091607	0.074006	0.224468	0.179454	0.131998	0.081733	0.232595	0.535069	0.048987	0.138025	0.204867	0.079074	0.150451	0.053115	0.182000	0.421951	0.103666	0.102261	0.113204	0.058756	0.272863	0.226468	0.092992	0.242460	0.065685	0.118515
44	0.169708	0.146292	0.185571	0.275449	0.270022	0.255013	0.046178	0.161673	0.071252	0.105178	0.418805	0.128446	0.141568	0.096596	0.237039	0.098671	0.315700	0.154693	0.408787	0.228792	0.118104	0.258247	0.076427	0.071693	0.176609	0.139015	0.128743	0.090456	0.251891	0.541264	0.047778	0.128463	0.201584	0.082166	0.151923	0.088190	0.184612	0.419648	0.086627	0.090440	0.113202	0.077851	0.273602	0.246560	0.087532	0.237957	0.058827	0.111923
45	0.138950	0.109091	0.184648	0.302012	0.278513	0.254125	0.045893	0.157484	0.072330	0.113020	0.447992	0.226603	0.161179	0.096959	0.235713	0.073811	0.307726	0.093363	0.413510	0.298791	0.146036	0.268458	0.076552	0.070464	0.064605	0.104762	0.097299	0.096417	0.261835	0.546934	0.045543	0.116787	0.190040	0.088895	0.151931	0.133340	0.184231	0.416513	0.070112	0.071925	0.116587	0.087302	0.324344	0.253511	0.077948	0.237106	0.047661	0.102990
46	0.113658	0.088970	0.170407	0.309465	0.250101	0.239118	0.044665	0.152695	0.073384	0.092827	0.428418	0.259222	0.162615	0.097721	0.224791	0.059911	0.250540	0.098842	0.418323	0.309798	0.155179	0.268847	0.075827	0.067567	0.060769	0.115718	0.119632	0.099435	0.269163	0.555188	0.042257	0.103916	0.189633	0.093989	0.155205	0.168894	0.174000	0.393770	0.057600	0.066326	0.130159	0.115564	0.578574	0.270242	0.066106	0.221065	0.033989	0.093177
47	0.105291	0.066678	0.159796	0.311277	0.227207	0.227267	0.051427	0.145163	0.086215	0.092075	0.432779	0.267737	0.230124	0.099295	0.216362	0.058376	0.204557	0.109777	0.423456	0.327759	0.161826	0.268767	0.073183	0.063624	0.080674	0.117898	0.139033	0.144618	0.279203	0.561846	0.038096	0.090555	0.191461	0.094112	0.163833	0.176231	0.153070	0.375333	0.050957	0.065692	0.183821	0.137180	0.615253	0.272269	0.044183	0.173431	0.027058	0.083326
48	0.103311	0.055841	0.233071	0.310825	0.225340	0.214065	0.054239	0.134619	0.118451	0.138284	0.483473	0.283844	0.276265	0.099980	0.216100	0.053921	0.200830	0.107984	0.425880	0.388626	0.161465	0.268665	0.068525	0.058854	0.104420	0.123891	0.194519	0.238954	0.285958	0.560435	0.033235	0.077236	0.192094	0.095141	0.166872	0.176416	0.149860	0.374205	0.048946	0.064691	0.193374	0.146710	0.666782	0.285538	0.055318	0.083858	0.021816	0.073504
49	0.104387	0.048740	0.293063	0.317007	0.163116	0.204107	0.071448	0.122930	0.132558	0.143211	0.516914	0.320519	0.277504	0.100137	0.215470	0.045927	0.194692	0.122075	0.422483	0.440442	0.160859	0.267059	0.062225	0.053217	0.111398	0.134249	0.442772	0.353312	0.289287	0.558693	0.028346	0.064507	0.194650	0.117819	0.167125	0.183158	0.147142	0.367018	0.048378	0.064566	0.192499	0.165016	0.726050	0.271067	0.088293	0.050383	0.020201	0.064187
50	0.110587	0.058309	0.386463	0.387026	0.121252	0.178558	0.092270	0.115473	0.160499	0.141842	0.525240	0.361521	0.289831	0.101916	0.210029	0.039662	0.171203	0.136070	0.424499	0.460773	0.161908	0.258828	0.054944	0.047767	0.148136	0.201943	0.500179	0.413823	0.291319	0.552173	0.024290	0.053387	0.193882	0.121793	0.183016	0.204270	0.140099	0.356277	0.047471	0.062419	0.196074	0.173965	0.779663	0.233610	0.102439	0.068838	0.022090	0.056233
51	0.083388	0.075411	0.413376	0.445960	0.127758	0.144620	0.095015	0.117840	0.166183	0.149271	0.636484	0.403196	0.299949	0.103606	0.187709	0.036064	0.170819	0.169373	0.450113	0.462057	0.176796	0.239817	0.047822	0.042612	0.229241	0.254541	0.522995	0.417438	0.278215	0.451648	0.021259	0.043972	0.188693	0.120640	0.190751	0.229591	0.123091	0.285881	0.045660	0.057147	0.178280	0.199847	0.815741	0.204032	0.116534	0.098935	0.024021	0.048840
52	0.063081	0.080778	0.420085	0.446860	0.126835	0.157059	0.095581	0.118301	0.163729	0.163388	0.673869	0.515567	0.301747	0.104385	0.182330	0.035909	0.171978	0.179327	0.545168	0.459802	0.186860	0.236266	0.041371	0.038038	0.236265	0.258489	0.574858	0.450236	0.227515	0.288617	0.019502	0.036857	0.184669	0.120315	0.189651	0.248218	0.104200	0.203975	0.043382	0.050483	0.178065	0.224725	0.822555	0.236417	0.128883	0.125054	0.025468	0.042383
53	0.065569	0.081739	0.461487	0.460392	0.126914	0.150295	0.094135	0.102736	0.163460	0.259840	0.683655	0.562160	0.303157	0.100482	0.176218	0.034568	0.170137	0.180466	0.507656	0.474904	0.190329	0.235867	0.036596	0.033390	0.239064	0.258195	0.629495	0.472018	0.206416	0.271890	0.019453	0.032108	0.141486	0.116602	0.190384	0.254908	0.122552	0.199241	0.042200	0.044450	0.179861	0.228244	0.823288	0.248304	0.131752	0.124470	0.026958	0.036902
54	0.122670	0.086907	0.482993	0.453452	0.113029	0.147910	0.095102	0.117825	0.166450	0.307756	0.694881	0.556622	0.304357	0.099094	0.140997	0.031712	0.164030	0.181199	0.450492	0.486702	0.191385	0.218274	0.034207	0.029616	0.243979	0.255554	0.748511	0.473087	0.198893	0.314937	0.021396	0.029350	0.069994	0.115822	0.193238	0.262096	0.146363	0.199610	0.042482	0.040660	0.180862	0.225512	0.792457	0.257009	0.132419	0.124551	0.029871	0.033190
55	0.145361	0.087112	0.485719	0.432963	0.118038	0.161212	0.117364	0.138629	0.191612	0.423727	0.724869	0.552540	0.314409	0.086636	0.098784	0.030742	0.158349	0.193712	0.501009	0.502046	0.190231	0.187764	0.032500	0.028144	0.245136	0.255251	0.779491	0.472725	0.196796	0.329113	0.025196	0.029483	0.071040	0.111736	0.292421	0.323828	0.153002	0.201370	0.043816	0.038985	0.168795	0.210684	0.633380	0.240974	0.132063	0.124594	0.032966	0.034142
56	0.145021	0.105608	0.489580	0.421356	0.098568	0.160897	0.174901	0.144453	0.198474	0.517450	0.814680	0.543048	0.348444	0.086591	0.076250	0.030177	0.161623	0.204428	0.543788	0.524357	0.186986	0.168165	0.031552	0.028969	0.243716	0.258109	0.909645	0.472281	0.183951	0.307637	0.028538	0.030185	0.067879	0.106755	0.413178	0.389680	0.151598	0.187489	0.046213	0.038534	0.108834	0.201975	0.608790	0.243152	0.139871	0.123970	0.035758	0.038466
57	0.156726	0.138768	0.505302	0.419069	0.117852	0.162619	0.204581	0.144833	0.197512	0.554082	0.792143	0.537006	0.350495	0.114748	0.072423	0.027390	0.164912	0.199528	0.550366	0.508150	0.162595	0.114123	0.030998	0.031311	0.243137	0.271778	1.102936	0.455396	0.167140	0.302232	0.031151	0.030203	0.069304	0.101223	0.443185	0.416913	0.150760	0.162273	0.049261	0.040220	0.097193	0.195268	0.545038	0.234914	0.141074	0.125012	0.039052	0.044215
58	0.164884	0.162540	0.538383	0.421154	0.127094	0.163485	0.212790	0.147523	0.206138	0.609601	0.843880	0.547365	0.347460	0.120180	0.072215	0.024185	0.157214	0.198754	0.548439	0.493547	0.132681	0.084017	0.034642	0.034252	0.247217	0.286633	1.142427	0.413324	0.167479	0.292185	0.034198	0.035310	0.069258	0.101014	0.490629	0.412100	0.165501	0.139813	0.053758	0.043486	0.094878	0.195465	0.461979	0.237092	0.145512	0.131675	0.043154	0.049743
59	0.165646	0.175119	0.515257	0.423089	0.128677	0.157602	0.214459	0.149361	0.206475	0.625900	0.775371	0.609099	0.335651	0.124138	0.070855	0.023344	0.143387	0.187302	0.546385	0.526939	0.121497	0.097161	0.124618	0.035722	0.258808	0.290828	1.074055	0.310729	0.161501	0.273205	0.034285	0.040419	0.065810	0.101022	0.514526	0.416863	0.170013	0.128749	0.057506	0.050003	0.068097	0.210759	0.353366	0.237617	0.151001	0.138987	0.047633	0.054794
60	0.166167	0.184395	0.488781	0.407234	0.129532	0.156938	0.212137	0.146240	0.207839	0.628609	0.700131	0.545624	0.326245	0.139281	0.069582	0.025235	0.141814	0.169921	0.546416	0.541641	0.116663	0.103530	0.188818	0.057399	0.233358	0.250931	1.059780	0.253315	0.148016	0.258684	0.036604	0.041544	0.091634	0.100811	0.526744	0.450163	0.172196	0.124795	0.087213	0.054983	0.070969	0.190415	0.228220	0.229696	0.153349	0.140997	0.053803	0.060305
61	0.166350	0.198532	0.412180	0.294120	0.135073	0.166426	0.203336	0.146285	0.208014	0.599450	0.661955	0.461657	0.312639	0.149622	0.069716	0.028923	0.135920	0.134963	0.510815	0.542277	0.124956	0.143524	0.218974	0.084797	0.167662	0.235061	1.040909	0.252411	0.139993	0.261115	0.041524	0.057911	0.112710	0.075198	0.599343	0.483309	0.175578	0.120537	0.189311	0.059990	0.069307	0.162896	0.160798	0.187619	0.148907	0.141179	0.066252	0.068055
62	0.165908	0.197147	0.402753	0.220015	0.139648	0.168237	0.218354	0.146597	0.210343	0.568483	0.660743	0.480775	0.251464	0.153673	0.074420	0.034862	0.131036	0.126240	0.449854	0.541447	0.147940	0.237193	0.239171	0.112401	0.205158	0.236860	1.022809	0.225716	0.137727	0.295017	0.051514	0.084502	0.131177	0.070696	0.693225	0.500553	0.175851	0.114755	0.298206	0.078832	0.065405	0.152912	0.153236	0.145802	0.131154	0.141769	0.080574	0.077785
63	0.165168	0.201133	0.380976	0.211684	0.133678	0.156536	0.300339	0.144257	0.195614	0.509599	0.644845	0.528096	0.247035	0.156859	0.090076	0.040588	0.117787	0.126867	0.456844	0.531006	0.162837	0.315220	0.242913	0.139183	0.226957	0.259655	0.980008	0.284628	0.134038	0.307057	0.067619	0.102735	0.152965	0.071776	0.768627	0.513497	0.175369	0.102845	0.371201	0.097732	0.061074	0.168069	0.150173	0.122831	0.123278	0.137952	0.083418	0.080392
64	0.157369	0.204523	0.315849	0.161545	0.133425	0.154482	0.336175	0.144891	0.173752	0.376572	0.431241	0.533899	0.241144	0.161323	0.107849	0.041568	0.120985	0.133120	0.466394	0.507184	0.151196	0.322641	0.284005	0.158066	0.227679	0.267504	0.898263	0.342763	0.136729	0.306959	0.079223	0.109771	0.157383	0.093799	0.818039	0.528009	0.162557	0.108382	0.380971	0.112794	0.059148	0.173350	0.142242	0.121456	0.115793	0.128276	0.208215	0.080358
65	0.113872	0.206228	0.297356	0.117990	0.141444	0.146322	0.340464	0.129336	0.169167	0.339945	0.390364	0.528849	0.230805	0.162737	0.118493	0.044597	0.123839	0.152829	0.407244	0.492557	0.139757	0.327779	0.355446	0.161514	0.227162	0.263071	0.880693	0.360376	0.142495	0.304131	0.250711	0.111690	0.161384	0.126349	0.834248	0.540279	0.158531	0.145926	0.409903	0.115686	0.076713	0.171695	0.134565	0.108842	0.102912	0.104990	0.327174	0.081602
66	0.099800	0.208490	0.289219	0.094958	0.153144	0.149907	0.367742	0.097743	0.121598	0.193966	0.243255	0.497892	0.229443	0.182614	0.124486	0.064508	0.114183	0.164791	0.347199	0.487655	0.138087	0.350869	0.411428	0.176570	0.225613	0.253796	0.682136	0.364967	0.155325	0.276718	0.424014	0.112056	0.163423	0.136013	0.836193	0.544865	0.150121	0.173771	0.479133	0.116338	0.118822	0.171311	0.143505	0.090452	0.136879	0.114326	0.395274	0.088106
67	0.098788	0.202379	0.285315	0.088891	0.184374	0.227687	0.368998	0.083739	0.114457	0.147005	0.226423	0.393059	0.233319	0.205786	0.124726	0.098979	0.098798	0.172811	0.340558	0.487109	0.137962	0.372356	0.438839	0.228874	0.220745	0.236981	0.348964	0.365204	0.165189	0.209499	0.442387	0.112555	0.162064	0.137520	0.802832	0.513720	0.126741	0.178915	0.505090	0.122322	0.152429	0.150462	0.199453	0.131602	0.237895	0.139229	0.417318	0.095842
68	0.078954	0.182082	0.239310	0.076962	0.188789	0.255720	0.361837	0.093694	0.118100	0.107352	0.221698	0.338888	0.233584	0.216920	0.124460	0.118442	0.093725	0.195266	0.349078	0.467961	0.140623	0.380687	0.448020	0.273384	0.215973	0.223720	0.173887	0.378628	0.170072	0.189378	0.489939	0.112731	0.163027	0.138167	0.743289	0.459328	0.120684	0.182923	0.508768	0.122347	0.162426	0.116147	0.237803	0.211940	0.257899	0.154965	0.422224	0.117156
69	0.069482	0.163262	0.154209	0.050877	0.231562	0.266672	0.382452	0.102172	0.121742	0.104867	0.222076	0.337105	0.231521	0.235207	0.133242	0.134034	0.133657	0.197988	0.350556	0.421982	0.142223	0.381810	0.448752	0.298078	0.217947	0.223865	0.189303	0.426660	0.169524	0.189769	0.587149	0.112953	0.166112	0.134478	0.725759	0.429238	0.122271	0.204184	0.509122	0.121187	0.164150	0.109856	0.274799	0.261525	0.255434	0.165074	0.471976	0.155986
70	0.069541	0.152345	0.116876	0.031771	0.246353	0.300473	0.464336	0.100850	0.121320	0.105210	0.177072	0.281783	0.200251	0.268796	0.204132	0.139737	0.139057	0.200353	0.345326	0.446232	0.143656	0.381845	0.449499	0.306012	0.219265	0.245990	0.342255	0.510471	0.159428	0.186187	0.635625	0.125993	0.174074	0.130113	0.699640	0.444369	0.119679	0.229237	0.512059	0.120956	0.179023	0.129683	0.348973	0.271930	0.255765	0.206853	0.528274	0.181706
71	0.063467	0.143139	0.107887	0.040669	0.343725	0.301434	0.471715	0.103588	0.116949	0.199744	0.198980	0.176760	0.182873	0.266166	0.251606	0.140609	0.162185	0.208903	0.330919	0.505029	0.150825	0.381423	0.453799	0.311201	0.220830	0.236028	0.387956	0.599771	0.145187	0.184533	0.665016	0.164012	0.181886	0.131381	0.679700	0.466299	0.099312	0.237348	0.516568	0.131824	0.223887	0.145871	0.372625	0.333969	0.254346	0.210534	0.531547	0.183819
72	0.059846	0.121190	0.115110	0.067824	0.462558	0.299786	0.498680	0.098444	0.114807	0.292659	0.235610	0.237391	0.180629	0.259188	0.258639	0.144586	0.191561	0.212635	0.290328	0.511799	0.156320	0.379740	0.447771	0.314375	0.183735	0.243054	0.518365	0.645277	0.148170	0.184424	0.694694	0.193494	0.172716	0.138876	0.675707	0.453957	0.091323	0.237396	0.517040	0.148085	0.236062	0.132697	0.396790	0.341986	0.266906	0.247480	0.532141	0.182457
73	0.059544	0.119468	0.114722	0.093753	0.517916	0.344956	0.514171	0.117130	0.115599	0.302146	0.243323	0.315629	0.190666	0.262306	0.259793	0.144467	0.218505	0.215807	0.327380	0.504174	0.158559	0.381905	0.426931	0.311771	0.161975	0.237054	0.522099	0.613208	0.157351	0.184508	0.699107	0.248393	0.155809	0.149750	0.619518	0.432692	0.114838	0.247940	0.522819	0.154916	0.236500	0.164482	0.433879	0.343295	0.277382	0.359284	0.535030	0.180800
74	0.062091	0.109425	0.141142	0.097137	0.637201	0.378248	0.492513	0.149586	0.116214	0.334763	0.223966	0.327473	0.191379	0.261154	0.270411	0.144301	0.224222	0.206648	0.411451	0.509206	0.152163	0.371989	0.432113	0.316833	0.159194	0.237367	0.595783	0.630152	0.154801	0.163659	0.748555	0.307493	0.142261	0.154294	0.518206	0.410888	0.118533	0.258661	0.502231	0.155571	0.230727	0.185991	0.444055	0.362124	0.296435	0.474702	0.539659	0.195853
75	0.099804	0.109701	0.196423	0.163392	0.643384	0.389474	0.470573	0.184726	0.110399	0.346170	0.216978	0.455425	0.182553	0.266427	0.270595	0.144966	0.222804	0.173499	0.414044	0.552272	0.132661	0.337767	0.451665	0.351585	0.170533	0.237299	0.661666	0.673059	0.163733	0.116643	0.824470	0.322418	0.130722	0.155218	0.407967	0.380473	0.123862	0.262179	0.453839	0.171832	0.216201	0.234033	0.448385	0.377114	0.304220	0.503395	0.538321	0.254514
76	0.133799	0.116057	0.212679	0.333132	0.644040	0.400090	0.517564	0.200182	0.103344	0.347294	0.223078	0.531953	0.177532	0.280113	0.270244	0.149879	0.232348	0.165135	0.470127	0.583715	0.112160	0.268849	0.484481	0.396593	0.186028	0.237020	0.699876	0.695862	0.179320	0.143658	0.961190	0.323991	0.130586	0.146411	0.321142	0.347692	0.137214	0.265158	0.395592	0.205827	0.204470	0.258243	0.427634	0.367087	0.349283	0.517757	0.538244	0.301838
77	0.170722	0.128888	0.352604	0.531741	0.639987	0.423272	0.586309	0.206570	0.106779	0.368123	0.222513	0.536869	0.179218	0.292396	0.269035	0.160507	0.235919	0.154417	0.479228	0.583583	0.119701	0.258034	0.569677	0.446111	0.185005	0.236565	0.710387	0.697113	0.176009	0.154573	1.146426	0.327083	0.126115	0.118952	0.272578	0.321803	0.162654	0.261475	0.397347	0.244892	0.197925	0.260424	0.400330	0.323445	0.400699	0.542864	0.533761	0.319577
78	0.174152	0.143191	0.412361	0.720813	0.638633	0.395864	0.619202	0.211236	0.100479	0.374168	0.289166	0.536203	0.255598	0.315571	0.283118	0.162062	0.232968	0.129408	0.474017	0.578513	0.128502	0.253273	0.572596	0.477550	0.178058	0.222275	0.726918	0.705861	0.175366	0.157395	1.149627	0.336585	0.126045	0.105202	0.269629	0.309237	0.191105	0.246798	0.382295	0.287467	0.196518	0.261163	0.386609	0.310093	0.444074	0.560342	0.522041	0.320830
79	0.198045	0.164390	0.454192	0.812426	0.644321	0.381340	0.630276	0.208696	0.109146	0.341151	0.372968	0.542178	0.365554	0.353472	0.301127	0.173908	0.210715	0.128378	0.471357	0.557300	0.133363	0.222954	0.535312	0.483716	0.194377	0.197965	0.730472	0.722102	0.183002	0.157319	1.123957	0.344074	0.126942	0.102988	0.271196	0.312486	0.198136	0.225485	0.296164	0.328133	0.176398	0.255238	0.327548	0.310942	0.492257	0.592102	0.477161	0.330665
80	0.290430	0.174224	0.533677	0.824482	0.636582	0.392699	0.648513	0.217113	0.098816	0.258560	0.358016	0.561754	0.421331	0.379617	0.297974	0.181573	0.213073	0.120460	0.473498	0.514729	0.132849	0.182000	0.516914	0.464674	0.213552	0.154890	0.682079	0.683727	0.177396	0.177517	1.215423	0.346407	0.122863	0.101231	0.272486	0.329315	0.198495	0.223774	0.240236	0.350987	0.125602	0.247342	0.309808	0.276561	0.511127	0.615090	0.467536	0.376920
81	0.314913	0.179842	0.548095	0.838007	0.631526	0.368293	0.691114	0.247242	0.090554	0.242826	0.369978	0.667576	0.429296	0.368563	0.297670	0.167999	0.193973	0.102510	0.475151	0.491085	0.144779	0.160438	0.523556	0.440500	0.212413	0.141079	0.642855	0.607479	0.175212	0.204399	1.297364	0.382048	0.123624	0.101088	0.354149	0.342428	0.209538	0.221794	0.230629	0.356615	0.136734	0.243386	0.274235	0.279849	0.511341	0.615128	0.479557	0.421153
82	0.332781	0.188608	0.554219	0.910321	0.599220	0.432395	0.749408	0.255061	0.109020	0.199859	0.457578	0.714136	0.427568	0.360585	0.298467	0.153235	0.162401	0.086177	0.464795	0.500517	0.163696	0.157349	0.539205	0.436758	0.216174	0.109695	0.577423	0.579701	0.188382	0.216869	1.322026	0.492071	0.112735	0.100755	0.374628	0.321621	0.237737	0.202009	0.229151	0.363281	0.144087	0.219565	0.270160	0.291665	0.563087	0.615304	0.440233	0.452752
83	0.334609	0.215394	0.574092	1.036722	0.513248	0.473697	0.766548	0.261822	0.118532	0.162658	0.563907	0.656179	0.425161	0.351977	0.315865	0.145836	0.129239	0.080941	0.412317	0.509425	0.180837	0.160825	0.556863	0.470235	0.240658	0.066992	0.563688	0.580629	0.203278	0.222936	1.323548	0.603771	0.100318	0.100690	0.383242	0.280491	0.248048	0.172321	0.223981	0.405498	0.144458	0.201296	0.257213	0.337366	0.570825	0.607667	0.371757	0.484920
84	0.342721	0.263955	0.576999	1.157792	0.549931	0.486080	0.759129	0.259546	0.165262	0.156375	0.586285	0.618676	0.417707	0.327313	0.393074	0.152567	0.117273	0.083956	0.341422	0.553049	0.182690	0.160950	0.566352	0.520155	0.261963	0.081438	0.478264	0.524218	0.211203	0.224657	1.312334	0.659577	0.095405	0.099495	0.410173	0.281250	0.249252	0.158377	0.212817	0.461767	0.132958	0.134486	0.235630	0.377850	0.570800	0.613700	0.366121	0.508468
85	0.343827	0.289837	0.562043	1.207784	0.377287	0.464129	0.749224	0.242406	0.180226	0.145986	0.635396	0.635048	0.416766	0.325176	0.400773	0.174481	0.111195	0.069422	0.397502	0.537037	0.177742	0.195622	0.567218	0.558696	0.264530	0.086850	0.404340	0.463595	0.200132	0.224425	1.300409	0.672740	0.114628	0.142206	0.430944	0.329160	0.248394	0.169100	0.210144	0.531042	0.123924	0.092513	0.246657	0.384553	0.564394	0.611375	0.364685	0.514519
86	0.334567	0.302814	0.560534	1.206901	0.370159	0.486944	0.748332	0.218015	0.222359	0.145165	0.628117	0.665200	0.427524	0.326501	0.394229	0.187742	0.093702	0.072849	0.473227	0.506048	0.172614	0.272850	0.566454	0.579001	0.258920	0.090799	0.354932	0.447077	0.199832	0.225115	1.297026	0.653550	0.133643	0.141719	0.424505	0.388474	0.238265	0.168257	0.192327	0.592037	0.125546	0.081646	0.257226	0.385849	0.558049	0.556544	0.361232	0.516479
87	0.321564	0.300985	0.552392	1.171396	0.364213	0.482029	0.725203	0.200450	0.233823	0.144245	0.582999	0.686086	0.430259	0.352638	0.429576	0.189334	0.086749	0.071604	0.488795	0.537684	0.171169	0.323737	0.552075	0.579971	0.259209	0.089447	0.386802	0.452875	0.204830	0.223683	1.262758	0.629715	0.196388	0.142327	0.411294	0.431339	0.234717	0.152548	0.174866	0.620966	0.136958	0.073524	0.240184	0.374774	0.549011	0.463134	0.352451	0.514037
88	0.306112	0.292980	0.482954	1.088497	0.366041	0.464299	0.668117	0.197792	0.231520	0.143174	0.599044	0.669752	0.448538	0.489369	0.488010	0.237193	0.103080	0.081840	0.539156	0.559648	0.173800	0.316182	0.528070	0.557543	0.255007	0.098085	0.361095	0.409970	0.220102	0.204010	1.215703	0.623806	0.229031	0.141583	0.450786	0.440672	0.234523	0.146698	0.169484	0.621398	0.150555	0.041622	0.226422	0.425491	0.543565	0.422707	0.351014	0.491218
89	0.306200	0.279963	0.474673	0.981655	0.363359	0.454797	0.615653	0.197030	0.233192	0.155196	0.589675	0.520491	0.476288	0.649915	0.541086	0.348936	0.114871	0.080411	0.600983	0.559864	0.178917	0.312885	0.499017	0.521088	0.274304	0.123620	0.500694	0.332357	0.231640	0.182235	1.074101	0.624058	0.229391	0.167881	0.475691	0.444265	0.227314	0.141474	0.156332	0.609601	0.146007	0.045490	0.223568	0.466354	0.518938	0.413772	0.350491	0.463769
90	0.274074	0.270020	0.406657	0.932872	0.347462	0.447482	0.591418	0.203003	0.231477	0.158272	0.573394	0.469851	0.489479	0.649251	0.576514	0.434141	0.116558	0.079844	0.626227	0.556830	0.193641	0.316339	0.380725	0.473833	0.323998	0.156841	0.711568	0.340493	0.236278	0.176257	0.910363	0.622821	0.236281	0.182027	0.475984	0.475325	0.211859	0.143887	0.118889	0.592463	0.120192	0.045633	0.226304	0.468314	0.478958	0.377888	0.322465	0.450398
91	0.189609	0.269540	0.317974	0.939919	0.327583	0.431334	0.580940	0.203410	0.235936	0.161401	0.536063	0.511911	0.491266	0.654338	0.597863	0.464314	0.120027	0.088590	0.641836	0.549304	0.231103	0.333954	0.297410	0.439223	0.344571	0.171716	0.775481	0.385366	0.227381	0.174129	0.887642	0.618441	0.252405	0.235932	0.490967	0.511733	0.183034	0.133975	0.081987	0.573497	0.119755	0.066195	0.291141	0.481163	0.436619	0.349188	0.215541	0.451114
92	0.153754	0.265840	0.309856	0.930984	0.324071	0.428606	0.465106	0.172570	0.207905	0.162317	0.581046	0.494682	0.479358	0.654856	0.603972	0.466246	0.150360	0.105945	0.641891	0.555817	0.232449	0.341704	0.290672	0.429043	0.342934	0.174969	0.801623	0.374962	0.216059	0.171536	0.845815	0.615262	0.276592	0.288567	0.504779	0.527688	0.170109	0.126255	0.057355	0.553942	0.131315	0.077054	0.473758	0.445138	0.380484	0.292610	0.199308	0.449036
93	0.119752	0.258509	0.288058	0.853143	0.323839	0.374545	0.325719	0.167744	0.198265	0.138825	0.520515	0.461067	0.389333	0.646267	0.592516	0.463371	0.176748	0.108966	0.632463	0.532402	0.238168	0.342631	0.281817	0.429210	0.365859	0.252690	0.860020	0.365343	0.217776	0.143657	0.675391	0.615230	0.277853	0.298039	0.462655	0.525692	0.167637	0.122338	0.056360	0.541775	0.132246	0.091004	0.481890	0.412288	0.284928	0.227453	0.169103	0.417640
94	0.114771	0.230304	0.249293	0.686237	0.310526	0.310546	0.217276	0.157019	0.150469	0.108524	0.515884	0.426019	0.323591	0.642874	0.591132	0.458856	0.224733	0.109770	0.640947	0.450705	0.230244	0.343043	0.252337	0.431441	0.409102	0.272397	0.875623	0.374761	0.217913	0.112510	0.453486	0.581590	0.290424	0.303536	0.459677	0.525766	0.155457	0.126074	0.054746	0.541861	0.130791	0.104640	0.486019	0.435229	0.268517	0.232989	0.115599	0.374639
95	0.087498	0.175656	0.247103	0.488010	0.203851	0.244181	0.175257	0.149470	0.126975	0.109334	0.510170	0.450889	0.287989	0.646832	0.590849	0.459545	0.327696	0.118932	0.619467	0.501209	0.219748	0.349923	0.215239	0.422385	0.417666	0.277016	0.906398	0.413922	0.205019	0.090819	0.275551	0.479737	0.309049	0.309975	0.458355	0.532408	0.103558	0.127902	0.053484	0.543740	0.145900	0.105918	0.548831	0.437494	0.118160	0.233817	0.097794	0.329196
96	0.081285	0.137130	0.240415	0.397387	0.123250	0.222890	0.173167	0.154780	0.172076	0.126236	0.535328	0.459170	0.285995	0.646767	0.591287	0.461941	0.356970	0.113362	0.625193	0.536489	0.217072	0.352766	0.161150	0.383389	0.416058	0.275731	0.900273	0.436129	0.189885	0.101025	0.198566	0.333691	0.324202	0.317092	0.455947	0.521293	0.069916	0.132333	0.049045	0.520553	0.136854	0.106371	0.625573	0.445232	0.050393	0.230082	0.071836	0.271452
97	0.075632	0.109038	0.289008	0.366339	0.094246	0.118070	0.162681	0.161400	0.181603	0.120975	0.560392	0.462245	0.284180	0.650421	0.589115	0.464190	0.380363	0.122268	0.661062	0.494129	0.221971	0.351987	0.108330	0.310212	0.415497	0.276409	0.888032	0.447295	0.183838	0.108607	0.182745	0.219169	0.356514	0.296941	0.444024	0.489143	0.061441	0.132826	0.046365	0.475055	0.131237	0.110280	0.639067	0.383407	0.046224	0.207083	0.058453	0.225606
98	0.078810	0.104637	0.298739	0.355335	0.085532	0.092941	0.134845	0.169358	0.191155	0.118205	0.742065	0.450023	0.284150	0.659023	0.544993	0.463421	0.388408	0.221984	0.624847	0.467280	0.226128	0.356038	0.059699	0.228067	0.409437	0.270790	0.881954	0.458746	0.184494	0.121545	0.181964	0.174142	0.355480	0.293572	0.441337	0.452329	0.062845	0.137345	0.046063	0.396885	0.129937	0.114703	0.696700	0.326688	0.046775	0.178044	0.057693	0.217943
99	0.080523	0.104869	0.278894	0.365541	0.079618	0.071457	0.108491	0.174436	0.198548	0.107934	0.850556	0.401774	0.281717	0.661478	0.496931	0.459746	0.389072	0.284960	0.603760	0.465060	0.231245	0.322616	0.041941	0.166616	0.382503	0.263011	0.782806	0.452010	0.176169	0.130228	0.170684	0.172597	0.327678	0.303343	0.441224	0.411260	0.065780	0.132490	0.041470	0.295004	0.134340	0.113129	0.755212	0.370067	0.048896	0.176309	0.054723	0.219494
100	0.073310	0.105025	0.322457	0.373540	0.047258	0.032874	0.081953	0.174267	0.217794	0.107454	0.794440	0.374942	0.263560	0.660690	0.497560	0.456344	0.390795	0.285878	0.595730	0.464363	0.231196	0.276100	0.039048	0.144557	0.334928	0.247994	0.610464	0.431600	0.167395	0.131304	0.144607	0.176228	0.302191	0.308367	0.386859	0.400299	0.066771	0.132715	0.034706	0.222447	0.128466	0.102079	0.775700	0.373905	0.051982	0.179748	0.051440	0.218045
101	0.068585	0.108443	0.347736	0.363328	0.013713	0.036483	0.060538	0.172644	0.227380	0.106601	0.873698	0.409556	0.254125	0.654460	0.482868	0.457792	0.392192	0.284098	0.588840	0.447142	0.229251	0.269567	0.040440	0.140721	0.320375	0.240826	0.557979	0.384788	0.122974	0.129792	0.121191	0.171630	0.315517	0.295403	0.364084	0.397575	0.083644	0.156144	0.030192	0.205132	0.134923	0.098639	0.733631	0.366105	0.056695	0.201680	0.051801	0.212821
