	108_P_T3_sh_L_ND_A_02.c3d	108_P_T3_sh_L_ND_A_02.c3d	108_P_T3_sh_L_ND_A_02.c3d	108_P_T3_sh_L_ND_A_02.c3d	108_P_T3_sh_L_ND_A_02.c3d	108_P_T3_sh_L_ND_A_02.c3d	108_P_T3_sh_L_ND_A_02.c3d	108_P_T3_sh_L_ND_A_02.c3d	108_P_T3_sh_L_ND_A_05.c3d	108_P_T3_sh_L_ND_A_05.c3d	108_P_T3_sh_L_ND_A_05.c3d	108_P_T3_sh_L_ND_A_05.c3d	108_P_T3_sh_L_ND_A_05.c3d	108_P_T3_sh_L_ND_A_05.c3d	108_P_T3_sh_L_ND_A_05.c3d	108_P_T3_sh_L_ND_A_05.c3d	108_P_T3_sh_L_ND_A_06.c3d	108_P_T3_sh_L_ND_A_06.c3d	108_P_T3_sh_L_ND_A_06.c3d	108_P_T3_sh_L_ND_A_06.c3d	108_P_T3_sh_L_ND_A_06.c3d	108_P_T3_sh_L_ND_A_06.c3d	108_P_T3_sh_L_ND_A_06.c3d	108_P_T3_sh_L_ND_A_06.c3d	108_P_T3_sh_L_ND_A_07.c3d	108_P_T3_sh_L_ND_A_07.c3d	108_P_T3_sh_L_ND_A_07.c3d	108_P_T3_sh_L_ND_A_07.c3d	108_P_T3_sh_L_ND_A_07.c3d	108_P_T3_sh_L_ND_A_07.c3d	108_P_T3_sh_L_ND_A_07.c3d	108_P_T3_sh_L_ND_A_07.c3d	108_P_T3_sh_L_ND_A_08.c3d	108_P_T3_sh_L_ND_A_08.c3d	108_P_T3_sh_L_ND_A_08.c3d	108_P_T3_sh_L_ND_A_08.c3d	108_P_T3_sh_L_ND_A_08.c3d	108_P_T3_sh_L_ND_A_08.c3d	108_P_T3_sh_L_ND_A_08.c3d	108_P_T3_sh_L_ND_A_08.c3d	108_P_T3_sh_L_ND_A_10.c3d	108_P_T3_sh_L_ND_A_10.c3d	108_P_T3_sh_L_ND_A_10.c3d	108_P_T3_sh_L_ND_A_10.c3d	108_P_T3_sh_L_ND_A_10.c3d	108_P_T3_sh_L_ND_A_10.c3d	108_P_T3_sh_L_ND_A_10.c3d	108_P_T3_sh_L_ND_A_10.c3d
	Biceps femoris_lat	Semitendinosus_lat	Vastus lateralis_lat	Vastus medialis_lat	Biceps femoris_med	Semitendinosus_med	Vastus lateralis_med	Vastus medialis_med	Biceps femoris_lat	Semitendinosus_lat	Vastus lateralis_lat	Vastus medialis_lat	Biceps femoris_med	Semitendinosus_med	Vastus lateralis_med	Vastus medialis_med	Biceps femoris_lat	Semitendinosus_lat	Vastus lateralis_lat	Vastus medialis_lat	Biceps femoris_med	Semitendinosus_med	Vastus lateralis_med	Vastus medialis_med	Biceps femoris_lat	Semitendinosus_lat	Vastus lateralis_lat	Vastus medialis_lat	Biceps femoris_med	Semitendinosus_med	Vastus lateralis_med	Vastus medialis_med	Biceps femoris_lat	Semitendinosus_lat	Vastus lateralis_lat	Vastus medialis_lat	Biceps femoris_med	Semitendinosus_med	Vastus lateralis_med	Vastus medialis_med	Biceps femoris_lat	Semitendinosus_lat	Vastus lateralis_lat	Vastus medialis_lat	Biceps femoris_med	Semitendinosus_med	Vastus lateralis_med	Vastus medialis_med
	P2D	P2D	P2D	P2D	P2D	P2D	P2D	P2D	P2D	P2D	P2D	P2D	P2D	P2D	P2D	P2D	P2D	P2D	P2D	P2D	P2D	P2D	P2D	P2D	P2D	P2D	P2D	P2D	P2D	P2D	P2D	P2D	P2D	P2D	P2D	P2D	P2D	P2D	P2D	P2D	P2D	P2D	P2D	P2D	P2D	P2D	P2D	P2D
	EMG_lat	EMG_lat	EMG_lat	EMG_lat	EMG_med	EMG_med	EMG_med	EMG_med	EMG_lat	EMG_lat	EMG_lat	EMG_lat	EMG_med	EMG_med	EMG_med	EMG_med	EMG_lat	EMG_lat	EMG_lat	EMG_lat	EMG_med	EMG_med	EMG_med	EMG_med	EMG_lat	EMG_lat	EMG_lat	EMG_lat	EMG_med	EMG_med	EMG_med	EMG_med	EMG_lat	EMG_lat	EMG_lat	EMG_lat	EMG_med	EMG_med	EMG_med	EMG_med	EMG_lat	EMG_lat	EMG_lat	EMG_lat	EMG_med	EMG_med	EMG_med	EMG_med
ITEM	Y	Y	Y	Y	Y	Y	Y	Y	Y	Y	Y	Y	Y	Y	Y	Y	Y	Y	Y	Y	Y	Y	Y	Y	Y	Y	Y	Y	Y	Y	Y	Y	Y	Y	Y	Y	Y	Y	Y	Y	Y	Y	Y	Y	Y	Y	Y	Y
1	0.121751	0.035838	0.243575	0.243424	0.212495	0.220339	0.218961	0.181157	0.282024	0.057836	1.093575	0.113806	0.155470	0.348374	0.307236	0.069132	0.296337	0.270655	0.308866	0.257879	0.152710	0.182285	0.588743	0.161874	0.459847	0.073747	0.494847	0.211295	0.205932	0.316098	0.328840	0.064775	0.249130	0.108831	0.623991	0.226441	0.193504	0.273451	0.438710	0.128681	0.341361	0.092081	0.482116	0.248861	0.138153	0.174760	0.229728	0.212193
2	0.120176	0.035378	0.309758	0.250379	0.214272	0.275113	0.220364	0.157886	0.287877	0.053698	1.093583	0.123852	0.192861	0.316889	0.314590	0.061559	0.298417	0.286199	0.267841	0.260189	0.199256	0.205231	0.522630	0.151595	0.431568	0.063317	0.495799	0.212293	0.210999	0.310510	0.304092	0.066445	0.226094	0.113186	0.764596	0.240596	0.206896	0.260360	0.377399	0.124154	0.395599	0.112728	0.468774	0.258491	0.137205	0.182141	0.228449	0.192997
3	0.126498	0.043254	0.361690	0.302985	0.231522	0.286826	0.259282	0.150216	0.310493	0.050597	1.089364	0.139814	0.239707	0.310257	0.315761	0.056442	0.298193	0.286738	0.318177	0.253466	0.203610	0.218686	0.395873	0.126097	0.413724	0.065015	0.393933	0.215637	0.200686	0.270042	0.259767	0.065094	0.222337	0.110072	0.823336	0.267822	0.222419	0.261408	0.298567	0.111549	0.486872	0.139844	0.458303	0.259141	0.138515	0.201932	0.223491	0.162335
4	0.097337	0.043922	0.366327	0.325022	0.253396	0.308357	0.301753	0.152231	0.366985	0.051307	1.074939	0.151202	0.274756	0.305138	0.317829	0.047102	0.293951	0.287481	0.367544	0.243311	0.202469	0.220245	0.362266	0.119533	0.334728	0.056307	0.344612	0.215047	0.218473	0.210142	0.234475	0.065711	0.234452	0.109772	0.826622	0.268469	0.222027	0.258440	0.299753	0.125887	0.574011	0.157866	0.474697	0.259172	0.120133	0.253384	0.260211	0.160465
5	0.094706	0.064521	0.364326	0.326590	0.250081	0.318314	0.322213	0.143581	0.384269	0.054455	1.038337	0.156336	0.286280	0.281383	0.325967	0.042237	0.326717	0.287596	0.525305	0.260925	0.199840	0.218607	0.194101	0.118043	0.278118	0.066880	0.372140	0.212880	0.230604	0.186806	0.229621	0.064678	0.213259	0.117892	0.826871	0.261635	0.249540	0.226059	0.281481	0.157473	0.636376	0.170146	0.518497	0.249747	0.116895	0.275411	0.361438	0.153681
6	0.097336	0.096809	0.489164	0.341203	0.245041	0.322150	0.322708	0.115982	0.386707	0.081829	0.884381	0.154366	0.327107	0.274620	0.356372	0.037209	0.418730	0.290406	0.727780	0.304792	0.199257	0.233290	0.214849	0.118892	0.351433	0.168792	0.434060	0.203054	0.213323	0.184444	0.379649	0.062714	0.217262	0.284383	0.818795	0.259301	0.290297	0.185934	0.307998	0.180207	0.643412	0.171562	0.539700	0.242477	0.125941	0.280127	0.471985	0.122589
7	0.098593	0.122521	0.518269	0.309567	0.298240	0.352988	0.318771	0.086797	0.386617	0.144880	0.830438	0.146568	0.339679	0.291080	0.347407	0.031103	0.475894	0.288880	0.746761	0.311478	0.217175	0.254181	0.441969	0.106255	0.363615	0.212080	0.446074	0.231811	0.270511	0.186867	0.424404	0.083994	0.352050	0.597812	0.793950	0.266303	0.286922	0.181568	0.317231	0.190667	0.653696	0.173765	0.548939	0.239726	0.138544	0.282338	0.488819	0.106309
8	0.183827	0.143360	0.605955	0.270504	0.360972	0.472633	0.307429	0.088351	0.387366	0.173225	0.837553	0.147668	0.351140	0.315469	0.296161	0.060649	0.477853	0.255334	0.784055	0.307572	0.235483	0.275758	0.552090	0.097807	0.352971	0.226489	0.501143	0.214327	0.369682	0.186253	0.460728	0.104972	0.373308	0.751625	0.759923	0.250220	0.277625	0.202558	0.327130	0.189914	0.680596	0.172163	0.522764	0.234674	0.202293	0.285052	0.477785	0.097144
9	0.208999	0.194691	0.579579	0.260128	0.363867	0.512460	0.290634	0.145765	0.399790	0.174689	0.761674	0.164536	0.364616	0.332482	0.296896	0.066976	0.494111	0.222476	0.869478	0.295621	0.261324	0.292198	0.552876	0.096866	0.465954	0.372225	0.495484	0.219289	0.383272	0.157764	0.488728	0.119526	0.405690	0.778255	0.730344	0.217090	0.273467	0.236189	0.326744	0.189795	0.707041	0.168982	0.510307	0.232765	0.248730	0.287857	0.469086	0.083382
10	0.203080	0.205796	0.564312	0.191234	0.365762	0.510942	0.349208	0.241006	0.412495	0.175577	0.572623	0.189518	0.376383	0.350467	0.308281	0.066789	0.531119	0.227711	0.906749	0.323985	0.270219	0.285860	0.622513	0.108654	0.485709	0.437084	0.487986	0.251499	0.393954	0.114765	0.490025	0.122499	0.542815	0.852145	0.690245	0.205703	0.280378	0.270171	0.368645	0.220076	0.752919	0.165944	0.506902	0.231370	0.267914	0.289178	0.475126	0.078876
11	0.205572	0.204805	0.569630	0.163704	0.344603	0.496037	0.391687	0.260506	0.410927	0.210808	0.327075	0.210429	0.373036	0.405836	0.292983	0.066395	0.522627	0.239850	0.914636	0.354266	0.270243	0.275921	0.753917	0.134669	0.486641	0.439961	0.489974	0.254114	0.400814	0.115451	0.491123	0.140530	0.664172	1.121351	0.653917	0.205621	0.315450	0.272328	0.501574	0.260797	0.759947	0.163706	0.486417	0.216516	0.269887	0.289447	0.538667	0.087838
12	0.218674	0.202174	0.569009	0.163834	0.356746	0.457830	0.422359	0.272457	0.454149	0.258459	0.280428	0.220098	0.342345	0.476632	0.289824	0.066306	0.517479	0.229737	0.912177	0.363502	0.250746	0.272632	0.810696	0.160999	0.478513	0.439684	0.490534	0.252283	0.398845	0.131223	0.493489	0.142831	0.668825	1.184679	0.467134	0.191932	0.328191	0.263873	0.540117	0.275114	0.760786	0.167042	0.476402	0.189063	0.266712	0.283646	0.599831	0.099114
13	0.225367	0.188024	0.482004	0.152122	0.375705	0.450653	0.491602	0.341326	0.556666	0.279555	0.277673	0.219205	0.300892	0.495378	0.288450	0.068045	0.520931	0.179397	0.907905	0.363536	0.227171	0.255689	0.818108	0.163772	0.482342	0.439692	0.469063	0.252304	0.379862	0.138176	0.495084	0.153230	0.667372	1.187988	0.272229	0.158816	0.334368	0.263455	0.568080	0.277907	0.767037	0.169691	0.457244	0.161514	0.263957	0.267665	0.634767	0.102791
14	0.224846	0.175682	0.460962	0.153580	0.364767	0.451737	0.662545	0.425850	0.615793	0.282797	0.282592	0.218982	0.278068	0.486763	0.287939	0.077257	0.524425	0.165746	0.905928	0.360817	0.226056	0.243025	0.818684	0.164962	0.451401	0.421620	0.327211	0.240857	0.369713	0.134022	0.489259	0.164506	0.661258	1.188919	0.208219	0.114738	0.323727	0.262109	0.585298	0.279547	0.745073	0.159562	0.481149	0.164673	0.267232	0.251704	0.669936	0.101360
15	0.183035	0.167976	0.342034	0.157113	0.377128	0.431969	0.721936	0.461613	0.624613	0.284796	0.289526	0.217194	0.243833	0.472050	0.266115	0.082311	0.530674	0.164406	0.885849	0.359631	0.228776	0.241066	0.818491	0.166015	0.428238	0.398285	0.319630	0.199555	0.369077	0.134696	0.391952	0.163590	0.656704	1.188613	0.222028	0.104610	0.321392	0.261087	0.580865	0.272467	0.688488	0.138431	0.494599	0.170560	0.278955	0.241024	0.692719	0.103231
16	0.160832	0.106582	0.399751	0.171235	0.405292	0.432378	0.736915	0.466109	0.587354	0.286711	0.289382	0.219172	0.224880	0.439369	0.233778	0.084421	0.528675	0.175065	0.874476	0.360008	0.226645	0.240719	0.822459	0.166866	0.429434	0.387193	0.205990	0.200083	0.336698	0.135429	0.288551	0.153729	0.657776	1.183934	0.228048	0.116668	0.291280	0.239352	0.563045	0.251996	0.630619	0.119294	0.473908	0.168717	0.290667	0.238918	0.694874	0.104801
17	0.187909	0.150050	0.399837	0.186943	0.427316	0.432794	0.741680	0.465618	0.571043	0.286491	0.292897	0.224052	0.212351	0.409402	0.233397	0.103763	0.512756	0.199371	0.736873	0.322534	0.223985	0.226471	0.813047	0.164996	0.309756	0.321478	0.137900	0.187150	0.233178	0.169650	0.220528	0.147332	0.618390	1.098516	0.260127	0.142466	0.249814	0.221633	0.545213	0.231409	0.625806	0.115173	0.436582	0.175621	0.288799	0.194126	0.691171	0.104201
18	0.235979	0.272990	0.391096	0.189288	0.376720	0.340565	0.738821	0.466290	0.564999	0.285663	0.300282	0.224491	0.211670	0.399797	0.229393	0.108725	0.421555	0.205047	0.572564	0.285048	0.218695	0.224037	0.706124	0.163142	0.143753	0.113066	0.135537	0.127917	0.198839	0.176308	0.174229	0.149971	0.578618	0.966268	0.314833	0.218896	0.251973	0.225556	0.546651	0.223205	0.629707	0.117097	0.406633	0.191856	0.288548	0.132844	0.663951	0.091146
19	0.242557	0.344929	0.380503	0.186731	0.367274	0.198922	0.738594	0.462174	0.567267	0.276737	0.305106	0.224418	0.211937	0.415036	0.217627	0.110325	0.358046	0.200693	0.551946	0.287120	0.196374	0.222916	0.628619	0.159934	0.140770	0.113483	0.128937	0.111516	0.215124	0.193268	0.173244	0.153349	0.572590	0.905198	0.332336	0.244939	0.272284	0.233856	0.554925	0.224996	0.678775	0.123365	0.395910	0.209125	0.285164	0.112794	0.596482	0.085848
20	0.312812	0.359573	0.332140	0.164077	0.365059	0.182112	0.723698	0.432363	0.629279	0.266197	0.271411	0.220152	0.196235	0.403963	0.165661	0.114352	0.362844	0.200804	0.473688	0.300550	0.165316	0.223531	0.629448	0.161408	0.152971	0.169460	0.111135	0.134741	0.212528	0.211267	0.174533	0.146720	0.516084	0.895334	0.303182	0.251236	0.300169	0.244628	0.580349	0.222647	0.703861	0.137350	0.333311	0.217262	0.284348	0.102641	0.564799	0.101843
21	0.338428	0.419826	0.302943	0.190800	0.363485	0.180438	0.742789	0.413911	0.710620	0.272352	0.241698	0.206987	0.206037	0.333681	0.157425	0.129383	0.323498	0.202049	0.305817	0.288068	0.173196	0.224427	0.562824	0.160386	0.138092	0.183785	0.117829	0.139888	0.247632	0.342442	0.182681	0.144972	0.309300	0.639230	0.303862	0.294602	0.322699	0.279685	0.590755	0.200586	0.716419	0.151694	0.294453	0.217539	0.258145	0.091911	0.606744	0.140440
22	0.339200	0.468681	0.307252	0.215986	0.358551	0.186144	0.794482	0.431443	0.715921	0.284741	0.246259	0.189627	0.242566	0.259190	0.162823	0.132406	0.285723	0.179274	0.226430	0.238608	0.197545	0.232166	0.416625	0.153294	0.122567	0.186589	0.125106	0.141075	0.244905	0.415410	0.189099	0.160125	0.247149	0.208931	0.343554	0.345618	0.291953	0.305080	0.539157	0.157456	0.691611	0.153451	0.292611	0.217878	0.209648	0.075933	0.710651	0.174865
23	0.338651	0.474368	0.232444	0.197674	0.333844	0.214466	0.816858	0.417302	0.711218	0.277284	0.229455	0.182771	0.265094	0.249994	0.188497	0.130198	0.296929	0.170401	0.224135	0.200489	0.204968	0.236192	0.382994	0.138510	0.129296	0.237215	0.143690	0.172453	0.272609	0.435697	0.186845	0.168567	0.354594	0.124102	0.370772	0.378167	0.308317	0.303787	0.493632	0.134521	0.682111	0.156138	0.288599	0.219621	0.164750	0.062748	0.785664	0.198841
24	0.319084	0.456188	0.236390	0.198945	0.327856	0.229367	0.720287	0.339391	0.695734	0.238234	0.207312	0.173236	0.264638	0.248118	0.246221	0.126137	0.297614	0.170051	0.227839	0.200062	0.196258	0.240598	0.383249	0.134626	0.135970	0.262296	0.158745	0.211307	0.288202	0.506932	0.168366	0.172765	0.363809	0.122539	0.382154	0.387669	0.323504	0.301551	0.462321	0.131677	0.681725	0.152979	0.284932	0.218111	0.165096	0.060426	0.781927	0.210167
25	0.301890	0.395898	0.265067	0.206777	0.322310	0.239263	0.589042	0.253308	0.616778	0.208868	0.236229	0.171537	0.256041	0.249440	0.248473	0.126074	0.295269	0.170799	0.237593	0.222800	0.195960	0.246120	0.382202	0.139701	0.145133	0.275155	0.171092	0.205155	0.289941	0.584453	0.173593	0.182933	0.365814	0.117676	0.373219	0.389792	0.347238	0.326814	0.473013	0.136216	0.677500	0.147972	0.286535	0.216083	0.174602	0.065155	0.730965	0.211117
26	0.318696	0.347436	0.294378	0.225021	0.337873	0.237189	0.573016	0.246390	0.497194	0.202500	0.249732	0.171427	0.255738	0.252713	0.297216	0.120969	0.290381	0.171066	0.236027	0.239546	0.195279	0.256957	0.387673	0.138761	0.148575	0.277137	0.182346	0.229046	0.286539	0.602404	0.172936	0.179684	0.408468	0.117708	0.371881	0.387701	0.363013	0.387511	0.497597	0.143563	0.704535	0.153176	0.223089	0.200141	0.204359	0.127408	0.702515	0.208251
27	0.256041	0.331220	0.313604	0.282248	0.299535	0.231555	0.588525	0.255548	0.468469	0.200596	0.236167	0.181060	0.248161	0.248790	0.329962	0.097471	0.281803	0.170956	0.230370	0.242934	0.195122	0.281719	0.417485	0.161574	0.187832	0.277572	0.212974	0.235128	0.284733	0.608066	0.136792	0.171117	0.415477	0.118155	0.361765	0.382043	0.353912	0.440298	0.503083	0.148599	0.738392	0.159076	0.179425	0.195533	0.255525	0.191571	0.689352	0.222860
28	0.226080	0.243543	0.372494	0.264077	0.274619	0.225360	0.594978	0.259405	0.464107	0.203025	0.239743	0.197829	0.225267	0.224192	0.327903	0.099885	0.275811	0.162878	0.223896	0.240337	0.223926	0.292799	0.472688	0.203249	0.227607	0.265129	0.231664	0.228978	0.262943	0.606597	0.140718	0.178997	0.416638	0.117145	0.321021	0.363835	0.351868	0.468181	0.499131	0.150875	0.759183	0.159416	0.166122	0.207911	0.296509	0.235963	0.697591	0.248810
29	0.233621	0.130056	0.390889	0.254361	0.271314	0.226690	0.594491	0.257665	0.464995	0.210526	0.244866	0.202155	0.206641	0.176921	0.304922	0.103795	0.247686	0.139113	0.221129	0.237696	0.283481	0.267628	0.526981	0.238220	0.234796	0.251800	0.281397	0.245989	0.259853	0.600767	0.143394	0.179791	0.417236	0.124007	0.286348	0.342758	0.347867	0.479652	0.490769	0.149830	0.718896	0.158727	0.126223	0.213976	0.320148	0.260500	0.718035	0.274388
30	0.237220	0.107045	0.456800	0.261335	0.272192	0.223941	0.591092	0.253996	0.480513	0.212278	0.242627	0.206091	0.205284	0.152318	0.302390	0.101239	0.245263	0.157932	0.227532	0.239990	0.313012	0.231375	0.541878	0.250056	0.253426	0.247918	0.293816	0.307662	0.205204	0.535272	0.125151	0.181562	0.418610	0.134408	0.289467	0.349128	0.331000	0.469378	0.473986	0.145912	0.704483	0.181007	0.135153	0.206997	0.322432	0.262321	0.729298	0.292989
31	0.233977	0.103001	0.449636	0.269594	0.272072	0.252924	0.572129	0.241860	0.518653	0.232171	0.234774	0.209275	0.174656	0.152938	0.298994	0.099003	0.222150	0.196258	0.237047	0.265013	0.317463	0.209310	0.538068	0.249801	0.261129	0.241527	0.389463	0.313712	0.202468	0.472980	0.112407	0.209013	0.403442	0.136091	0.367643	0.371486	0.303384	0.447408	0.439462	0.138632	0.629691	0.198097	0.137754	0.195656	0.323291	0.273613	0.732411	0.305040
32	0.208826	0.089512	0.447693	0.286713	0.284696	0.261082	0.467353	0.205510	0.501533	0.253749	0.236911	0.209472	0.122778	0.109511	0.294552	0.128279	0.200295	0.207579	0.234527	0.277802	0.305633	0.207302	0.526627	0.245103	0.254470	0.199052	0.547663	0.280556	0.178410	0.456614	0.159759	0.292704	0.396357	0.135084	0.598488	0.403206	0.272846	0.407586	0.383740	0.118853	0.534119	0.198436	0.138702	0.185763	0.336313	0.295399	0.728028	0.309928
33	0.157723	0.050796	0.452033	0.283946	0.290266	0.243919	0.373702	0.160674	0.376996	0.256929	0.279068	0.210735	0.093731	0.098958	0.277570	0.228963	0.200703	0.201013	0.227690	0.268955	0.292219	0.198049	0.487796	0.236785	0.248835	0.177798	0.564949	0.282907	0.156999	0.386116	0.179973	0.309108	0.320060	0.119193	0.591029	0.389829	0.317016	0.413076	0.288778	0.102683	0.475334	0.192628	0.147904	0.192949	0.369602	0.298327	0.718747	0.309671
34	0.140352	0.042120	0.439410	0.226714	0.281970	0.202887	0.306902	0.147108	0.384137	0.243656	0.270991	0.221582	0.105226	0.098444	0.334406	0.346391	0.159718	0.206716	0.212699	0.285547	0.286602	0.209558	0.424915	0.229569	0.246545	0.169534	0.688148	0.336788	0.151277	0.273434	0.176537	0.307727	0.261855	0.096274	0.640933	0.375565	0.347962	0.477926	0.295073	0.100854	0.430488	0.220238	0.157159	0.232886	0.387232	0.298608	0.699403	0.298988
35	0.177106	0.044308	0.377135	0.216598	0.276943	0.176950	0.296666	0.144796	0.421001	0.263108	0.303612	0.280264	0.099563	0.090609	0.321301	0.545223	0.152233	0.232123	0.202471	0.320137	0.300544	0.249838	0.413229	0.227093	0.327459	0.179191	0.723339	0.435663	0.150982	0.247000	0.198967	0.308505	0.282722	0.109929	0.739315	0.382011	0.338125	0.555598	0.293053	0.100773	0.424346	0.230150	0.159593	0.305020	0.393701	0.298833	0.624014	0.280350
36	0.366484	0.077047	0.342613	0.208881	0.230360	0.171896	0.259677	0.123803	0.431898	0.313541	0.326041	0.330933	0.090346	0.092039	0.274450	0.581004	0.144883	0.265086	0.202962	0.344133	0.298915	0.285405	0.416422	0.222457	0.410886	0.186939	0.721158	0.502638	0.149894	0.238720	0.210340	0.313233	0.243539	0.119877	0.790895	0.423462	0.315578	0.571420	0.303457	0.147601	0.424451	0.235318	0.164786	0.338440	0.395524	0.305359	0.494910	0.260844
37	0.395358	0.078147	0.230604	0.205117	0.189466	0.163708	0.177345	0.118035	0.432016	0.322185	0.443011	0.359457	0.113594	0.084006	0.305506	0.617695	0.144310	0.271707	0.213774	0.334249	0.326680	0.277130	0.410348	0.222829	0.414533	0.191316	0.703772	0.507855	0.152174	0.236058	0.264861	0.322179	0.181453	0.119579	0.791737	0.433436	0.318930	0.533787	0.347235	0.238502	0.431963	0.241363	0.180943	0.340832	0.396657	0.319096	0.426739	0.248428
38	0.474928	0.161855	0.210754	0.175296	0.189114	0.161326	0.163781	0.199447	0.432212	0.324282	0.591261	0.363307	0.125531	0.076004	0.325578	0.751968	0.142951	0.276020	0.214783	0.358429	0.389672	0.262123	0.379145	0.217897	0.411403	0.206769	0.698342	0.485135	0.156489	0.271721	0.267606	0.317066	0.158762	0.120422	0.791044	0.481871	0.366523	0.518389	0.387049	0.259494	0.385562	0.240340	0.286243	0.339833	0.391917	0.328525	0.420355	0.240847
39	0.475605	0.172747	0.153708	0.129656	0.185150	0.154344	0.365561	0.246434	0.434685	0.326877	0.642537	0.365039	0.166846	0.074128	0.387130	0.886228	0.146056	0.284627	0.250336	0.428759	0.412971	0.251746	0.311338	0.268159	0.415352	0.186858	0.672656	0.501729	0.152800	0.297151	0.368144	0.316718	0.158751	0.121858	0.825919	0.475833	0.401778	0.541175	0.405369	0.259205	0.308768	0.235846	0.291355	0.361987	0.387973	0.324173	0.422273	0.243652
40	0.488820	0.232043	0.086601	0.098036	0.202452	0.150688	0.423649	0.299192	0.435228	0.325512	0.644648	0.365837	0.204787	0.063472	0.452860	0.930133	0.161685	0.298858	0.263719	0.464392	0.399146	0.264726	0.252942	0.313997	0.434131	0.171789	0.543483	0.539485	0.152205	0.313258	0.439205	0.292487	0.154645	0.113407	0.866582	0.518064	0.423544	0.557720	0.407328	0.268925	0.219987	0.234861	0.331348	0.376407	0.357696	0.295565	0.414156	0.253466
41	0.518378	0.325151	0.050347	0.094049	0.224601	0.128907	0.435094	0.306253	0.443902	0.320703	0.651077	0.359502	0.249748	0.079052	0.472933	0.933828	0.169985	0.309319	0.316858	0.473671	0.383507	0.280405	0.443840	0.324286	0.493595	0.208732	0.508170	0.559384	0.174861	0.319148	0.427639	0.199626	0.150963	0.107892	0.867943	0.606830	0.436668	0.561115	0.420599	0.270486	0.214602	0.233605	0.364708	0.370901	0.320983	0.262504	0.368694	0.244109
42	0.505524	0.333903	0.037649	0.092866	0.221037	0.068705	0.438215	0.363655	0.461370	0.321468	0.707414	0.360624	0.254951	0.089034	0.478628	0.925797	0.179878	0.293179	0.316267	0.471442	0.380592	0.289406	0.522026	0.326009	0.530479	0.282405	0.381973	0.539214	0.233844	0.359164	0.451726	0.166090	0.197399	0.107008	0.760565	0.658853	0.437763	0.564570	0.423931	0.281349	0.214807	0.216850	0.360647	0.386335	0.274705	0.225662	0.274305	0.213961
43	0.537191	0.380570	0.122600	0.185519	0.209326	0.094044	0.438718	0.433903	0.452723	0.318452	0.726164	0.360349	0.253523	0.091138	0.446897	0.907957	0.195440	0.270997	0.365478	0.446421	0.381319	0.291476	0.526511	0.361769	0.507172	0.290498	0.185511	0.472793	0.247753	0.431576	0.500677	0.168339	0.255926	0.107297	0.728639	0.663344	0.440465	0.563897	0.431646	0.284915	0.247376	0.197970	0.392318	0.389299	0.251475	0.214340	0.212743	0.186812
44	0.612896	0.540064	0.211305	0.245003	0.211614	0.110030	0.442075	0.468776	0.446114	0.290889	0.726371	0.362573	0.256322	0.100858	0.415882	0.837284	0.208773	0.265768	0.371888	0.431438	0.380446	0.291062	0.585340	0.404448	0.399707	0.276767	0.177526	0.404137	0.400977	0.525619	0.498189	0.183278	0.288911	0.105410	0.731747	0.661162	0.406086	0.543842	0.446210	0.286047	0.268885	0.184191	0.402985	0.399783	0.247219	0.220377	0.191169	0.167729
45	0.562747	0.521268	0.416789	0.247161	0.219719	0.130142	0.496643	0.474475	0.446185	0.271414	0.733325	0.399486	0.259902	0.124495	0.412347	0.750344	0.207487	0.262945	0.462840	0.431397	0.381757	0.277233	0.652215	0.420173	0.427206	0.297106	0.171742	0.384198	0.546626	0.607682	0.509342	0.190435	0.293803	0.100389	0.646748	0.660020	0.378144	0.490263	0.481487	0.297130	0.275423	0.179903	0.429722	0.398809	0.242279	0.205257	0.186006	0.151824
46	0.571223	0.520774	0.451938	0.249031	0.217017	0.135963	0.514157	0.508444	0.399912	0.268906	0.738335	0.420910	0.264214	0.135498	0.406774	0.741677	0.271246	0.258155	0.623043	0.433094	0.384063	0.235967	0.689797	0.429069	0.621339	0.471923	0.160680	0.380333	0.559859	0.647225	0.486679	0.162348	0.282125	0.072281	0.554814	0.643616	0.401858	0.416529	0.514603	0.304796	0.295525	0.142497	0.439404	0.405442	0.199609	0.208550	0.179570	0.146713
47	0.596842	0.494844	0.453393	0.249348	0.215978	0.145473	0.529577	0.529425	0.383374	0.265369	0.734641	0.396799	0.252214	0.149944	0.364868	0.675013	0.363010	0.233199	0.690385	0.466061	0.396912	0.187930	0.725964	0.433948	0.660043	0.579423	0.160772	0.344053	0.639063	0.712962	0.484801	0.160658	0.284755	0.093427	0.532455	0.632519	0.417099	0.409759	0.476074	0.282531	0.302675	0.119809	0.449195	0.408840	0.168161	0.210209	0.187802	0.145113
48	0.598913	0.452644	0.458929	0.249264	0.216098	0.151289	0.544759	0.518611	0.396967	0.197642	0.713593	0.345840	0.247691	0.164427	0.350612	0.481404	0.364053	0.200283	0.690468	0.511739	0.376060	0.185041	0.729227	0.434397	0.656074	0.587418	0.149144	0.283702	0.715205	0.856331	0.420757	0.158266	0.297520	0.228779	0.531990	0.616058	0.399089	0.422289	0.417102	0.207145	0.333466	0.108222	0.451533	0.404637	0.198855	0.220338	0.211455	0.148811
49	0.619430	0.451521	0.471006	0.263269	0.216768	0.155647	0.492319	0.491987	0.406082	0.153746	0.692116	0.331928	0.217746	0.168609	0.255977	0.233809	0.370969	0.193752	0.685742	0.569584	0.313346	0.169558	0.724258	0.430117	0.637211	0.597500	0.131772	0.224302	0.747526	0.894369	0.333715	0.154633	0.367133	0.382263	0.514040	0.613945	0.360173	0.395196	0.372950	0.177940	0.313141	0.095077	0.468038	0.411837	0.194906	0.222747	0.219575	0.179264
50	0.477283	0.396381	0.484933	0.200808	0.191904	0.153671	0.412471	0.489633	0.475610	0.137462	0.584152	0.379941	0.173940	0.171232	0.197756	0.130161	0.432322	0.205937	0.693494	0.574245	0.267976	0.166078	0.726991	0.392898	0.609658	0.600371	0.086725	0.195787	0.785085	0.940943	0.331589	0.144611	0.431819	0.457315	0.424222	0.625577	0.343457	0.363968	0.352940	0.175180	0.357324	0.099974	0.425805	0.417151	0.212057	0.206720	0.220160	0.206603
51	0.368887	0.178731	0.499581	0.146379	0.160520	0.150779	0.409844	0.508195	0.499789	0.127951	0.491279	0.426195	0.149306	0.217059	0.196986	0.142506	0.501231	0.249670	0.692379	0.537945	0.315908	0.212770	0.731606	0.345622	0.677858	0.625822	0.082694	0.182635	0.780257	0.932766	0.307786	0.151168	0.485283	0.471049	0.387232	0.564353	0.319743	0.329849	0.350578	0.158936	0.401774	0.100923	0.417884	0.401327	0.209059	0.187391	0.242104	0.216452
52	0.369322	0.179603	0.345680	0.152594	0.152425	0.150581	0.393976	0.513879	0.498985	0.124178	0.484003	0.429482	0.160059	0.226026	0.218462	0.160636	0.632644	0.392288	0.696359	0.514013	0.364717	0.281645	0.640371	0.328246	0.760703	0.730380	0.076052	0.128399	0.784409	0.905771	0.238281	0.201429	0.651665	0.500950	0.393952	0.453545	0.321126	0.331232	0.334221	0.156365	0.413461	0.099647	0.389619	0.381675	0.210108	0.181434	0.324957	0.218782
53	0.377878	0.169605	0.312249	0.221972	0.147414	0.140722	0.394894	0.460286	0.495877	0.124085	0.521842	0.424075	0.219768	0.266317	0.237424	0.226963	0.766042	0.588983	0.690358	0.509531	0.368671	0.326075	0.585458	0.329371	0.758386	0.823724	0.055809	0.073594	0.726840	0.849737	0.258939	0.229476	0.759532	0.578004	0.335393	0.391370	0.348925	0.360036	0.330420	0.135672	0.407864	0.094283	0.355227	0.382544	0.210916	0.180730	0.364899	0.209794
54	0.369043	0.182019	0.324630	0.255010	0.136333	0.124913	0.395551	0.409945	0.478093	0.119445	0.472718	0.420131	0.268139	0.277879	0.281567	0.361891	0.788911	0.700050	0.686026	0.512978	0.384451	0.339712	0.588790	0.295755	0.654124	0.830065	0.042620	0.057943	0.646409	0.794846	0.236099	0.216878	0.820820	0.659516	0.425237	0.396451	0.359861	0.398250	0.319785	0.129311	0.413140	0.090110	0.361763	0.363987	0.232227	0.180695	0.361454	0.188961
55	0.406636	0.239754	0.324571	0.258464	0.152120	0.151124	0.366682	0.395356	0.452700	0.107873	0.406564	0.415766	0.334927	0.318268	0.500229	0.385566	0.810647	0.715913	0.657419	0.534929	0.433775	0.382155	0.530199	0.241662	0.564193	0.767020	0.041212	0.050882	0.648413	0.769641	0.242452	0.224911	0.828763	0.697520	0.414756	0.397764	0.358749	0.409887	0.297831	0.135608	0.448395	0.087300	0.337992	0.356290	0.274074	0.180589	0.367386	0.194402
56	0.365354	0.275767	0.310824	0.245160	0.233623	0.226808	0.296203	0.372140	0.426902	0.090152	0.402455	0.415939	0.357018	0.340341	0.673930	0.419956	0.930552	0.749239	0.652289	0.569522	0.436835	0.403615	0.446206	0.215388	0.550589	0.764575	0.173720	0.043493	0.574070	0.711701	0.249127	0.226622	0.825246	0.702045	0.444531	0.408208	0.330902	0.407055	0.212933	0.124778	0.444385	0.083982	0.324596	0.344126	0.304312	0.181491	0.385776	0.211426
57	0.364081	0.271296	0.253039	0.242705	0.235980	0.270565	0.287039	0.324243	0.412068	0.080019	0.394564	0.398454	0.363937	0.344997	0.676979	0.442953	1.005185	0.835519	0.573682	0.585244	0.424430	0.403860	0.387755	0.198028	0.555474	0.757192	0.203724	0.061231	0.469938	0.510134	0.278649	0.233058	0.826861	0.701570	0.480858	0.416485	0.281055	0.389101	0.112784	0.105759	0.446568	0.084576	0.291331	0.341450	0.306221	0.175095	0.401741	0.219737
58	0.631491	0.455030	0.158565	0.246878	0.254466	0.281750	0.241648	0.301068	0.415438	0.076010	0.351265	0.360736	0.376744	0.339690	0.680139	0.528807	1.004065	0.886398	0.449171	0.598595	0.412362	0.403964	0.315415	0.186780	0.544771	0.740368	0.394584	0.105691	0.414681	0.420186	0.330277	0.237484	0.825646	0.687830	0.497985	0.421678	0.263026	0.361628	0.105538	0.098193	0.434820	0.084366	0.265228	0.316779	0.318826	0.161950	0.412791	0.239032
59	0.742031	0.507659	0.249451	0.267313	0.313275	0.338125	0.229275	0.297311	0.393984	0.071487	0.347317	0.354242	0.402211	0.346107	0.693960	0.642083	0.980017	0.894124	0.378861	0.657627	0.408636	0.407063	0.308209	0.184199	0.509691	0.727445	0.443308	0.127562	0.324757	0.299174	0.332853	0.241379	0.809452	0.630508	0.504015	0.410057	0.268756	0.346819	0.171009	0.099801	0.440066	0.084932	0.267592	0.261909	0.352046	0.140642	0.454383	0.250196
60	1.192110	0.653517	0.414743	0.263728	0.314768	0.366718	0.162973	0.282470	0.340902	0.072288	0.347665	0.353777	0.427807	0.353500	0.810065	0.695482	0.982966	0.897845	0.380054	0.648677	0.412240	0.413551	0.313483	0.184515	0.309820	0.621007	0.450962	0.128841	0.289646	0.265508	0.367011	0.247825	0.773731	0.561909	0.514886	0.368644	0.262722	0.339418	0.184844	0.099511	0.420978	0.085436	0.270944	0.307835	0.397025	0.131701	0.524494	0.252577
61	1.244887	0.811676	0.450730	0.240869	0.328572	0.370343	0.101936	0.218708	0.326807	0.074714	0.345382	0.347414	0.454001	0.351358	0.904800	0.709357	0.986951	0.908192	0.374513	0.604850	0.418460	0.417579	0.304372	0.166202	0.289074	0.500454	0.467191	0.131361	0.280879	0.248366	0.385305	0.220886	0.758435	0.526203	0.511517	0.345611	0.232849	0.297883	0.234663	0.097012	0.433007	0.083355	0.238765	0.439515	0.408760	0.129303	0.549360	0.256712
62	1.238454	0.790483	0.478748	0.241360	0.326062	0.374151	0.097372	0.145974	0.309413	0.076026	0.322878	0.376707	0.442504	0.344876	0.914483	0.707418	0.977332	0.921449	0.356599	0.584458	0.378743	0.403697	0.262490	0.163481	0.361223	0.347753	0.584706	0.143728	0.328891	0.236193	0.367217	0.183762	0.668954	0.516487	0.497362	0.346520	0.234978	0.287658	0.299736	0.103879	0.406376	0.067648	0.205923	0.547598	0.426674	0.110869	0.542327	0.257930
63	1.242437	0.778113	0.510441	0.250970	0.340152	0.391847	0.095405	0.113105	0.320875	0.086224	0.349391	0.558678	0.418396	0.334945	0.910148	0.664979	0.946333	0.908931	0.351551	0.578799	0.345532	0.366257	0.257766	0.188898	0.455552	0.279939	0.680554	0.169771	0.431425	0.307108	0.365477	0.190133	0.566854	0.464804	0.478606	0.344045	0.206048	0.273777	0.315872	0.148629	0.370069	0.069818	0.277178	0.592176	0.453230	0.111046	0.544902	0.237868
64	1.253827	0.827035	0.642449	0.247804	0.392020	0.411439	0.105047	0.125195	0.419985	0.100858	0.382001	0.668337	0.368687	0.304183	0.885084	0.619449	0.848849	0.838142	0.333015	0.627393	0.339494	0.325617	0.264526	0.214774	0.462492	0.313400	0.667591	0.171163	0.439994	0.357713	0.360728	0.181313	0.557105	0.395128	0.427436	0.313763	0.174805	0.228712	0.315619	0.164774	0.356956	0.079589	0.442504	0.622089	0.465591	0.110039	0.547333	0.225358
65	1.205915	0.737608	0.740915	0.278408	0.412075	0.413707	0.152268	0.138687	0.440908	0.106327	0.561942	0.686419	0.328665	0.260678	0.731539	0.615478	0.744541	0.704478	0.318002	0.698380	0.318536	0.311479	0.246975	0.211960	0.494388	0.325868	0.684545	0.170363	0.452984	0.366890	0.349925	0.178594	0.593638	0.339105	0.334818	0.303117	0.203803	0.188079	0.315811	0.166218	0.355279	0.086377	0.588845	0.625274	0.465474	0.105758	0.523055	0.225059
66	1.140892	0.721328	0.735900	0.267162	0.377912	0.378058	0.185925	0.159185	0.449514	0.109777	0.732241	0.691037	0.309239	0.225750	0.666714	0.580201	0.738035	0.617977	0.318467	0.747700	0.254734	0.256995	0.240399	0.206152	0.568020	0.318905	0.633373	0.196370	0.485783	0.386108	0.329364	0.171836	0.595138	0.331012	0.309809	0.374007	0.228073	0.210235	0.318439	0.163052	0.338881	0.085065	0.639768	0.666232	0.468704	0.115886	0.482759	0.251424
67	0.670740	0.583596	0.679424	0.233202	0.361726	0.342976	0.199000	0.163652	0.457581	0.111533	0.770272	0.702652	0.306031	0.222206	0.670124	0.568438	0.702749	0.610923	0.318075	0.774866	0.250726	0.227076	0.240998	0.220823	0.579124	0.311862	0.573375	0.224639	0.487350	0.395690	0.287295	0.168317	0.609438	0.335131	0.243565	0.442943	0.233739	0.235677	0.323928	0.174457	0.262732	0.076783	0.650103	0.717930	0.465896	0.164250	0.472840	0.272918
68	0.584161	0.444008	0.656000	0.228701	0.384209	0.336029	0.200426	0.165168	0.462007	0.111126	0.782534	0.716941	0.274048	0.214426	0.669371	0.442345	0.541939	0.552579	0.325978	0.775820	0.271351	0.236620	0.256306	0.255540	0.581145	0.316369	0.571379	0.231369	0.489509	0.431952	0.285122	0.168813	0.684918	0.383591	0.265622	0.446827	0.247919	0.239550	0.327705	0.197846	0.246154	0.079060	0.676251	0.761537	0.447318	0.221682	0.472460	0.288260
69	0.579803	0.460019	0.629311	0.224278	0.394679	0.325745	0.200391	0.167462	0.507595	0.127172	0.808064	0.736361	0.241793	0.201388	0.618366	0.288303	0.443517	0.411098	0.324963	0.771746	0.346715	0.271614	0.271167	0.278729	0.580353	0.323763	0.578184	0.232610	0.493014	0.434267	0.246641	0.152390	0.744286	0.410144	0.299259	0.470437	0.251201	0.239586	0.336456	0.212354	0.255752	0.090302	0.683931	0.802306	0.430621	0.256863	0.463724	0.284061
70	0.629967	0.486443	0.607479	0.219909	0.438537	0.312057	0.209445	0.169955	0.523907	0.138778	0.824584	0.755937	0.185753	0.167257	0.399538	0.180206	0.418930	0.324037	0.275150	0.734752	0.383558	0.300289	0.281314	0.285845	0.731361	0.472387	0.512818	0.225218	0.489765	0.434002	0.189843	0.130229	0.765670	0.418947	0.286424	0.472435	0.253094	0.249349	0.312968	0.215924	0.337110	0.102811	0.683795	0.837227	0.455609	0.265252	0.447188	0.272479
71	0.603499	0.410962	0.448007	0.248971	0.480039	0.398620	0.233273	0.176894	0.522088	0.142412	0.850524	0.771050	0.143859	0.163950	0.239012	0.126075	0.419119	0.308729	0.273090	0.639884	0.385257	0.305951	0.280578	0.281412	0.792973	0.744073	0.314444	0.212343	0.474531	0.429151	0.187098	0.105703	0.769770	0.420852	0.295265	0.481160	0.255231	0.255273	0.306586	0.215500	0.356587	0.104965	0.678977	0.852104	0.502098	0.270820	0.438062	0.261003
72	0.465419	0.393824	0.286377	0.312187	0.481788	0.427475	0.234697	0.180818	0.525262	0.143424	0.900530	0.774960	0.143484	0.163296	0.260257	0.137842	0.414266	0.298064	0.271514	0.621206	0.376612	0.302691	0.272626	0.272124	0.814118	0.793559	0.295000	0.208558	0.366199	0.374992	0.175963	0.086433	0.766812	0.422222	0.309885	0.475762	0.275068	0.256466	0.266439	0.214980	0.361921	0.104923	0.674149	0.840284	0.538204	0.307371	0.413894	0.252653
73	0.439875	0.380815	0.410262	0.302183	0.482696	0.444718	0.272016	0.177633	0.555152	0.151438	0.924850	0.773833	0.192653	0.174338	0.272595	0.152704	0.393425	0.251664	0.267605	0.628543	0.352799	0.302969	0.261778	0.271683	0.893205	1.005248	0.239449	0.208565	0.303231	0.300476	0.162483	0.079004	0.745275	0.417550	0.349567	0.465821	0.312034	0.265218	0.190691	0.211924	0.345141	0.105074	0.680162	0.782503	0.519287	0.344809	0.341394	0.256897
74	0.428286	0.375416	0.438810	0.312473	0.560909	0.434759	0.292948	0.174834	0.566736	0.156490	0.920449	0.760087	0.229308	0.188311	0.346088	0.158402	0.346454	0.185437	0.266703	0.639916	0.336179	0.295468	0.216811	0.282364	0.850159	1.068471	0.216675	0.185897	0.287285	0.279844	0.161595	0.078589	0.683125	0.393371	0.391552	0.473300	0.361247	0.280756	0.165208	0.184041	0.343739	0.105251	0.682364	0.705324	0.486589	0.353266	0.230806	0.255407
75	0.511553	0.267175	0.491709	0.318015	0.793849	0.547373	0.276042	0.170383	0.523293	0.154694	0.909211	0.657119	0.229193	0.199813	0.372765	0.174768	0.338929	0.152964	0.248849	0.661499	0.338297	0.290751	0.200411	0.269239	0.835655	1.086001	0.238368	0.108514	0.226575	0.268298	0.161468	0.076262	0.565016	0.332731	0.396949	0.469598	0.355314	0.279444	0.165604	0.171014	0.329803	0.100465	0.661977	0.665729	0.467978	0.352745	0.213955	0.252198
76	0.543313	0.309210	0.655347	0.393439	0.935034	0.678994	0.253135	0.151574	0.443320	0.145760	0.904521	0.481557	0.229392	0.215351	0.373429	0.175324	0.347697	0.146536	0.263292	0.647601	0.340974	0.292092	0.220017	0.263043	0.835103	1.087322	0.257291	0.091716	0.220942	0.274271	0.144340	0.065057	0.541942	0.294159	0.411632	0.456137	0.326880	0.274017	0.165340	0.169933	0.329757	0.092766	0.569958	0.649956	0.441897	0.353722	0.211415	0.254528
77	0.483247	0.258138	0.683960	0.492913	0.944476	0.704970	0.231429	0.136903	0.399478	0.144365	0.832942	0.415365	0.232956	0.241974	0.370042	0.173072	0.347742	0.145772	0.295146	0.633316	0.338625	0.332873	0.248116	0.263394	0.834221	1.086459	0.241597	0.092545	0.219276	0.269182	0.156893	0.043566	0.576455	0.287885	0.413692	0.366105	0.317153	0.242406	0.160353	0.165407	0.342120	0.084913	0.423493	0.695066	0.421324	0.358677	0.202426	0.255600
78	0.599440	0.245331	0.801977	0.527841	0.965987	0.702187	0.232412	0.140837	0.413372	0.143245	0.658570	0.416078	0.233441	0.244709	0.364765	0.172074	0.336571	0.140405	0.362352	0.578785	0.342904	0.365264	0.244385	0.255240	0.746712	1.059570	0.245545	0.092315	0.211110	0.271834	0.130858	0.030168	0.571806	0.255365	0.402202	0.372706	0.318938	0.221574	0.142218	0.140298	0.342500	0.079466	0.426671	0.823116	0.417951	0.375093	0.189299	0.254761
79	0.720902	0.258548	0.834990	0.479682	0.958293	0.692360	0.241202	0.145581	0.468400	0.149795	0.543221	0.395677	0.225366	0.238988	0.372599	0.202835	0.329910	0.130375	0.367702	0.522526	0.327994	0.403211	0.233959	0.225523	0.516965	0.898445	0.242801	0.089406	0.200563	0.267219	0.166097	0.048266	0.506789	0.187180	0.340212	0.360765	0.370618	0.216685	0.124859	0.102874	0.342083	0.079441	0.570792	1.002971	0.418894	0.384336	0.161692	0.236644
80	0.738350	0.249269	0.769484	0.494939	0.943052	0.690973	0.272663	0.163001	0.500250	0.152318	0.539774	0.380839	0.218800	0.227938	0.404839	0.222109	0.321559	0.111879	0.371356	0.494558	0.244996	0.407389	0.226868	0.197323	0.486566	0.781816	0.248336	0.085586	0.182814	0.277924	0.219010	0.139319	0.483057	0.149895	0.546218	0.344397	0.418132	0.207111	0.100266	0.090973	0.346836	0.083553	0.573298	1.033143	0.420242	0.378761	0.126427	0.211757
81	0.760354	0.225582	0.740427	0.485278	0.911036	0.644729	0.289793	0.163727	0.506933	0.145295	0.632963	0.386093	0.222541	0.219538	0.420235	0.229868	0.308066	0.092040	0.356445	0.506894	0.232974	0.383880	0.221291	0.187304	0.245448	0.534175	0.253471	0.079657	0.154746	0.331058	0.230873	0.186180	0.557248	0.141571	0.574701	0.329616	0.424135	0.211232	0.100141	0.091069	0.354427	0.088711	0.775450	1.004118	0.424513	0.353186	0.115188	0.193672
82	0.734028	0.226524	0.702435	0.498081	0.906061	0.607588	0.287410	0.151262	0.528598	0.129821	0.664516	0.450666	0.215089	0.191186	0.409327	0.226433	0.305822	0.081021	0.389929	0.514128	0.260305	0.377282	0.220708	0.186547	0.163009	0.292319	0.251237	0.073201	0.157852	0.385225	0.232186	0.189263	0.559296	0.133843	0.596745	0.346193	0.428133	0.232276	0.141796	0.091565	0.306202	0.093991	0.812019	0.985398	0.428040	0.321458	0.111575	0.180048
83	0.720203	0.130104	0.562953	0.473319	0.905466	0.589723	0.275735	0.145846	0.535121	0.142200	0.659339	0.575118	0.185498	0.200581	0.373976	0.220124	0.299066	0.084294	0.399686	0.513666	0.251531	0.444699	0.220078	0.186039	0.110270	0.203407	0.208165	0.069905	0.200423	0.419249	0.244227	0.215949	0.552493	0.130173	0.619414	0.407832	0.423490	0.245035	0.172838	0.093122	0.277042	0.095011	0.811833	1.003795	0.404182	0.308036	0.117547	0.176959
84	0.714787	0.123341	0.591797	0.417021	0.890712	0.585190	0.236688	0.144089	0.631701	0.183315	0.627753	0.689560	0.214937	0.217531	0.302130	0.210358	0.290553	0.083114	0.408645	0.504673	0.251725	0.494408	0.212911	0.168741	0.100513	0.155655	0.175314	0.065369	0.208299	0.422216	0.254977	0.238319	0.550766	0.129130	0.614533	0.434152	0.413110	0.247688	0.197852	0.091781	0.308094	0.107868	0.809292	1.057150	0.360620	0.306113	0.120378	0.175801
85	0.613355	0.111281	0.722010	0.394909	0.737990	0.539488	0.241490	0.135829	0.799088	0.210926	0.654055	0.735731	0.235429	0.235503	0.285682	0.195011	0.273740	0.076827	0.410138	0.491109	0.259844	0.504200	0.213817	0.115632	0.107504	0.154435	0.189622	0.069457	0.261123	0.427268	0.253010	0.252639	0.535344	0.117213	0.655800	0.445198	0.377176	0.234430	0.231572	0.096401	0.344155	0.117592	0.805740	1.076035	0.260805	0.284101	0.113252	0.166730
86	0.458351	0.072078	0.774534	0.400799	0.443409	0.342967	0.240804	0.131387	0.852991	0.219786	0.832921	0.738466	0.235999	0.214378	0.274652	0.194704	0.272695	0.073669	0.415325	0.504082	0.409410	0.520617	0.214934	0.096057	0.138543	0.143009	0.233714	0.093703	0.314765	0.509531	0.269065	0.253532	0.555020	0.121997	0.678103	0.447655	0.372982	0.231145	0.232340	0.103333	0.342404	0.117074	0.813695	1.075015	0.221830	0.241210	0.119150	0.151878
87	0.431746	0.075240	0.891372	0.383651	0.306247	0.143178	0.244357	0.141156	0.886141	0.224545	0.921176	0.770854	0.235700	0.203679	0.272718	0.193404	0.292391	0.073632	0.411604	0.520989	0.641959	0.533715	0.196593	0.100339	0.149591	0.137987	0.378651	0.109298	0.316010	0.524641	0.282477	0.253875	0.548485	0.116576	0.679604	0.478403	0.371805	0.210555	0.233715	0.103866	0.340507	0.118355	0.825586	1.074450	0.223046	0.218256	0.120839	0.143191
88	0.367394	0.083233	0.965657	0.381717	0.265135	0.129588	0.261060	0.145316	0.929084	0.227243	0.922631	0.845348	0.235828	0.214098	0.258848	0.184206	0.302321	0.074899	0.417069	0.508386	0.663819	0.508421	0.161465	0.097488	0.149018	0.117075	0.385931	0.123306	0.314809	0.527489	0.269263	0.254035	0.498995	0.105924	0.691420	0.559462	0.379970	0.215460	0.238119	0.105404	0.345327	0.123363	0.828824	1.070144	0.210366	0.243884	0.120442	0.140927
89	0.256870	0.077042	0.992447	0.427296	0.193636	0.130474	0.267377	0.145325	0.937325	0.227950	0.950801	0.898643	0.242758	0.214628	0.245230	0.189495	0.354483	0.088372	0.395853	0.472844	0.659414	0.487325	0.159577	0.080759	0.164171	0.123055	0.393246	0.151036	0.309230	0.516878	0.255021	0.227979	0.447518	0.107670	0.724801	0.595205	0.400197	0.227649	0.238362	0.106778	0.338467	0.124992	0.829255	1.046060	0.205257	0.259249	0.126701	0.123316
90	0.184291	0.071306	1.015741	0.515981	0.245648	0.155651	0.242855	0.128879	0.937599	0.235016	1.007195	0.937344	0.261954	0.236486	0.201850	0.202463	0.401373	0.104833	0.351414	0.471931	0.658050	0.454217	0.136077	0.064162	0.194716	0.166712	0.473375	0.170843	0.292874	0.485631	0.277963	0.192265	0.454834	0.117750	0.699216	0.610840	0.362660	0.243091	0.237031	0.104125	0.335711	0.124964	0.789033	0.941604	0.191842	0.260711	0.126756	0.100916
91	0.183844	0.073464	0.985719	0.511927	0.300537	0.237174	0.196542	0.111662	0.915398	0.238934	1.022297	0.957413	0.296925	0.280789	0.225808	0.187711	0.384586	0.104372	0.350098	0.505257	0.659266	0.438536	0.114738	0.079362	0.210411	0.225472	0.579624	0.196441	0.295473	0.438901	0.280726	0.201994	0.392572	0.129624	0.694354	0.627635	0.304203	0.241698	0.237046	0.085649	0.343515	0.126146	0.680524	0.700216	0.174221	0.239181	0.123700	0.101982
92	0.196403	0.075166	0.793505	0.530147	0.299582	0.295717	0.172537	0.109410	0.894603	0.239957	1.022582	0.962952	0.317903	0.300068	0.303552	0.186533	0.363167	0.105058	0.335160	0.659715	0.663754	0.452068	0.103331	0.093175	0.216753	0.242428	0.591911	0.198012	0.280856	0.405700	0.316889	0.182728	0.444540	0.151123	0.709092	0.639999	0.290078	0.227353	0.236156	0.075006	0.370229	0.123700	0.749181	0.585925	0.172844	0.217868	0.123375	0.105595
93	0.184508	0.076779	0.830971	0.576276	0.293552	0.327164	0.171118	0.117400	0.879197	0.243800	0.989720	0.954072	0.296035	0.286315	0.334899	0.205298	0.354611	0.112213	0.400849	0.775847	0.686051	0.460343	0.091019	0.100609	0.231496	0.283102	0.592516	0.194880	0.277584	0.393677	0.348503	0.155297	0.465716	0.154139	0.693353	0.616500	0.282307	0.207777	0.218138	0.073403	0.367198	0.112847	0.577545	0.594114	0.166159	0.203944	0.120155	0.111576
94	0.162759	0.062866	0.746166	0.580976	0.301353	0.331906	0.165716	0.120212	0.856137	0.247260	0.908005	0.923899	0.259264	0.252804	0.335035	0.240145	0.386247	0.133651	0.615231	0.798919	0.691165	0.396995	0.091573	0.101576	0.257793	0.287980	0.592035	0.186935	0.254132	0.381323	0.353500	0.128039	0.466433	0.152537	0.738526	0.612040	0.287389	0.191377	0.216959	0.071787	0.349179	0.095829	0.510440	0.603678	0.152294	0.201451	0.117502	0.120301
95	0.141701	0.051065	0.760204	0.598824	0.305059	0.331602	0.151098	0.128721	0.837827	0.245763	0.904423	0.852819	0.256942	0.247201	0.333876	0.252793	0.465381	0.161379	0.674003	0.802893	0.692204	0.315741	0.088775	0.103047	0.261036	0.291598	0.503905	0.174643	0.192988	0.210850	0.335128	0.127766	0.475546	0.155690	0.700356	0.636505	0.310664	0.175117	0.220497	0.070932	0.338445	0.089914	0.530422	0.555213	0.148158	0.213432	0.128021	0.113687
96	0.151560	0.060883	0.759765	0.547684	0.312041	0.349492	0.150525	0.143878	0.816256	0.222955	0.878585	0.759743	0.257726	0.243068	0.336658	0.257789	0.545158	0.181390	0.710995	0.839201	0.689293	0.317699	0.109441	0.107963	0.353501	0.305899	0.488812	0.175019	0.187239	0.132703	0.321646	0.129898	0.507097	0.156844	0.663139	0.650103	0.315660	0.169659	0.198697	0.060468	0.319596	0.079580	0.545963	0.421260	0.235779	0.214891	0.175627	0.110234
97	0.159332	0.067618	0.740797	0.438839	0.312166	0.355328	0.150815	0.136432	0.655863	0.185577	0.853753	0.704561	0.263042	0.235861	0.341474	0.258754	0.633873	0.188475	0.822750	0.905181	0.603652	0.297727	0.204844	0.112219	0.385384	0.305009	0.480425	0.158852	0.190531	0.125298	0.314607	0.129434	0.519056	0.149017	0.652090	0.665557	0.379579	0.170704	0.198009	0.045232	0.302628	0.064644	0.544713	0.359294	0.332318	0.212968	0.181227	0.117810
98	0.184733	0.080183	0.904119	0.480999	0.313640	0.380324	0.133970	0.131707	0.495221	0.159530	0.706935	0.703804	0.263193	0.230852	0.339196	0.250057	0.637922	0.199208	0.855738	0.910060	0.349537	0.273709	0.222188	0.111778	0.380729	0.296750	0.449434	0.138845	0.212232	0.171669	0.297714	0.128288	0.553837	0.153930	0.641104	0.610222	0.437185	0.171008	0.208380	0.043089	0.299528	0.064319	0.533522	0.384970	0.355283	0.212443	0.189317	0.128897
99	0.186662	0.096586	1.145308	0.431066	0.316690	0.386054	0.103654	0.136186	0.415812	0.144852	0.516650	0.690312	0.257628	0.236340	0.325774	0.206862	0.668314	0.215759	0.856953	0.880997	0.313088	0.274210	0.222876	0.110690	0.432564	0.253976	0.326007	0.117275	0.216200	0.217029	0.275623	0.128023	0.571234	0.157338	0.628489	0.522768	0.435368	0.158300	0.251380	0.043393	0.298945	0.063767	0.514952	0.397855	0.353946	0.207093	0.202535	0.137777
100	0.244514	0.119579	1.135293	0.361667	0.368934	0.402325	0.100890	0.140844	0.324652	0.135588	0.461850	0.606537	0.230543	0.201710	0.281388	0.190682	0.701316	0.220389	0.862845	0.883494	0.316818	0.269233	0.226711	0.108693	0.531509	0.228762	0.290228	0.186208	0.285897	0.232253	0.277674	0.107314	0.561717	0.152422	0.593868	0.512122	0.429584	0.130028	0.281484	0.046426	0.331362	0.057053	0.513979	0.391276	0.356749	0.196201	0.201979	0.140891
101	0.255103	0.119105	1.119256	0.352111	0.430391	0.471237	0.104472	0.142548	0.285401	0.134491	0.437507	0.499112	0.181697	0.152687	0.264530	0.186728	0.670891	0.214326	0.897817	0.904127	0.319770	0.267998	0.238860	0.106212	0.607117	0.193250	0.358468	0.227526	0.304762	0.266813	0.230087	0.093659	0.545032	0.141373	0.502696	0.568364	0.435022	0.098065	0.285410	0.060541	0.337455	0.053490	0.510003	0.391103	0.358279	0.165476	0.202646	0.141489
