	109_P_T2_sh_R_D_A_01.c3d	109_P_T2_sh_R_D_A_01.c3d	109_P_T2_sh_R_D_A_01.c3d	109_P_T2_sh_R_D_A_01.c3d	109_P_T2_sh_R_D_A_01.c3d	109_P_T2_sh_R_D_A_01.c3d	109_P_T2_sh_R_D_A_01.c3d	109_P_T2_sh_R_D_A_01.c3d	109_P_T2_sh_R_D_A_02.c3d	109_P_T2_sh_R_D_A_02.c3d	109_P_T2_sh_R_D_A_02.c3d	109_P_T2_sh_R_D_A_02.c3d	109_P_T2_sh_R_D_A_02.c3d	109_P_T2_sh_R_D_A_02.c3d	109_P_T2_sh_R_D_A_02.c3d	109_P_T2_sh_R_D_A_02.c3d	109_P_T2_sh_R_D_A_04.c3d	109_P_T2_sh_R_D_A_04.c3d	109_P_T2_sh_R_D_A_04.c3d	109_P_T2_sh_R_D_A_04.c3d	109_P_T2_sh_R_D_A_04.c3d	109_P_T2_sh_R_D_A_04.c3d	109_P_T2_sh_R_D_A_04.c3d	109_P_T2_sh_R_D_A_04.c3d	109_P_T2_sh_R_D_A_05.c3d	109_P_T2_sh_R_D_A_05.c3d	109_P_T2_sh_R_D_A_05.c3d	109_P_T2_sh_R_D_A_05.c3d	109_P_T2_sh_R_D_A_05.c3d	109_P_T2_sh_R_D_A_05.c3d	109_P_T2_sh_R_D_A_05.c3d	109_P_T2_sh_R_D_A_05.c3d	109_P_T2_sh_R_D_A_06.c3d	109_P_T2_sh_R_D_A_06.c3d	109_P_T2_sh_R_D_A_06.c3d	109_P_T2_sh_R_D_A_06.c3d	109_P_T2_sh_R_D_A_06.c3d	109_P_T2_sh_R_D_A_06.c3d	109_P_T2_sh_R_D_A_06.c3d	109_P_T2_sh_R_D_A_06.c3d	109_P_T2_sh_R_D_A_07.c3d	109_P_T2_sh_R_D_A_07.c3d	109_P_T2_sh_R_D_A_07.c3d	109_P_T2_sh_R_D_A_07.c3d	109_P_T2_sh_R_D_A_07.c3d	109_P_T2_sh_R_D_A_07.c3d	109_P_T2_sh_R_D_A_07.c3d	109_P_T2_sh_R_D_A_07.c3d	109_P_T2_sh_R_D_A_08.c3d	109_P_T2_sh_R_D_A_08.c3d	109_P_T2_sh_R_D_A_08.c3d	109_P_T2_sh_R_D_A_08.c3d	109_P_T2_sh_R_D_A_08.c3d	109_P_T2_sh_R_D_A_08.c3d	109_P_T2_sh_R_D_A_08.c3d	109_P_T2_sh_R_D_A_08.c3d	109_P_T2_sh_R_D_A_09.c3d	109_P_T2_sh_R_D_A_09.c3d	109_P_T2_sh_R_D_A_09.c3d	109_P_T2_sh_R_D_A_09.c3d	109_P_T2_sh_R_D_A_09.c3d	109_P_T2_sh_R_D_A_09.c3d	109_P_T2_sh_R_D_A_09.c3d	109_P_T2_sh_R_D_A_09.c3d
	Biceps femoris_lat	Semitendinosus_lat	Vastus lateralis_lat	Vastus medialis_lat	Biceps femoris_med	Semitendinosus_med	Vastus lateralis_med	Vastus medialis_med	Biceps femoris_lat	Semitendinosus_lat	Vastus lateralis_lat	Vastus medialis_lat	Biceps femoris_med	Semitendinosus_med	Vastus lateralis_med	Vastus medialis_med	Biceps femoris_lat	Semitendinosus_lat	Vastus lateralis_lat	Vastus medialis_lat	Biceps femoris_med	Semitendinosus_med	Vastus lateralis_med	Vastus medialis_med	Biceps femoris_lat	Semitendinosus_lat	Vastus lateralis_lat	Vastus medialis_lat	Biceps femoris_med	Semitendinosus_med	Vastus lateralis_med	Vastus medialis_med	Biceps femoris_lat	Semitendinosus_lat	Vastus lateralis_lat	Vastus medialis_lat	Biceps femoris_med	Semitendinosus_med	Vastus lateralis_med	Vastus medialis_med	Biceps femoris_lat	Semitendinosus_lat	Vastus lateralis_lat	Vastus medialis_lat	Biceps femoris_med	Semitendinosus_med	Vastus lateralis_med	Vastus medialis_med	Biceps femoris_lat	Semitendinosus_lat	Vastus lateralis_lat	Vastus medialis_lat	Biceps femoris_med	Semitendinosus_med	Vastus lateralis_med	Vastus medialis_med	Biceps femoris_lat	Semitendinosus_lat	Vastus lateralis_lat	Vastus medialis_lat	Biceps femoris_med	Semitendinosus_med	Vastus lateralis_med	Vastus medialis_med
	P2D	P2D	P2D	P2D	P2D	P2D	P2D	P2D	P2D	P2D	P2D	P2D	P2D	P2D	P2D	P2D	P2D	P2D	P2D	P2D	P2D	P2D	P2D	P2D	P2D	P2D	P2D	P2D	P2D	P2D	P2D	P2D	P2D	P2D	P2D	P2D	P2D	P2D	P2D	P2D	P2D	P2D	P2D	P2D	P2D	P2D	P2D	P2D	P2D	P2D	P2D	P2D	P2D	P2D	P2D	P2D	P2D	P2D	P2D	P2D	P2D	P2D	P2D	P2D
	EMG_lat	EMG_lat	EMG_lat	EMG_lat	EMG_med	EMG_med	EMG_med	EMG_med	EMG_lat	EMG_lat	EMG_lat	EMG_lat	EMG_med	EMG_med	EMG_med	EMG_med	EMG_lat	EMG_lat	EMG_lat	EMG_lat	EMG_med	EMG_med	EMG_med	EMG_med	EMG_lat	EMG_lat	EMG_lat	EMG_lat	EMG_med	EMG_med	EMG_med	EMG_med	EMG_lat	EMG_lat	EMG_lat	EMG_lat	EMG_med	EMG_med	EMG_med	EMG_med	EMG_lat	EMG_lat	EMG_lat	EMG_lat	EMG_med	EMG_med	EMG_med	EMG_med	EMG_lat	EMG_lat	EMG_lat	EMG_lat	EMG_med	EMG_med	EMG_med	EMG_med	EMG_lat	EMG_lat	EMG_lat	EMG_lat	EMG_med	EMG_med	EMG_med	EMG_med
ITEM	Y	Y	Y	Y	Y	Y	Y	Y	Y	Y	Y	Y	Y	Y	Y	Y	Y	Y	Y	Y	Y	Y	Y	Y	Y	Y	Y	Y	Y	Y	Y	Y	Y	Y	Y	Y	Y	Y	Y	Y	Y	Y	Y	Y	Y	Y	Y	Y	Y	Y	Y	Y	Y	Y	Y	Y	Y	Y	Y	Y	Y	Y	Y	Y
1	0.166897	0.028406	0.070899	0.089947	0.066332	0.223044	0.120653	0.425706	0.484202	0.105831	0.100446	0.117434	0.070728	0.144268	0.173240	0.143754	0.594901	0.133410	0.120452	0.155572	0.332769	0.253606	0.058135	0.089731	0.379685	0.190656	0.089087	0.101101	0.073357	0.241047	0.125030	0.232665	0.324835	0.115249	0.130593	0.142668	0.128519	0.099658	0.143418	0.055507	0.116291	0.029878	0.223917	0.125129	0.064169	0.188832	0.094241	0.177844	0.552435	0.081174	0.187437	0.196396	0.137706	0.422720	0.041895	0.122547	0.252403	0.078238	0.102978	0.074825	0.050929	0.255281	0.296886	0.134930
2	0.165828	0.019467	0.071172	0.084593	0.067662	0.210874	0.119116	0.419506	0.418053	0.098210	0.130910	0.118729	0.074167	0.152119	0.186398	0.140143	0.558877	0.120360	0.128874	0.177113	0.321015	0.224711	0.058190	0.091311	0.377014	0.187158	0.089578	0.103289	0.069769	0.229455	0.126608	0.226920	0.295135	0.118449	0.147078	0.145092	0.107970	0.105355	0.142177	0.052804	0.149566	0.030192	0.209036	0.123048	0.073371	0.279187	0.095449	0.232381	0.374607	0.082528	0.179823	0.179095	0.146632	0.459166	0.034601	0.127855	0.111862	0.078208	0.110792	0.073101	0.050584	0.257668	0.298743	0.138572
3	0.169070	0.019123	0.108915	0.071136	0.067608	0.209777	0.118321	0.429953	0.343968	0.078930	0.157217	0.124729	0.075278	0.144444	0.181184	0.131485	0.513807	0.109546	0.148523	0.220625	0.315814	0.226522	0.058928	0.093625	0.387336	0.184131	0.087810	0.109943	0.058302	0.228790	0.124236	0.224963	0.286859	0.121422	0.161645	0.143047	0.104212	0.101810	0.137341	0.031583	0.164093	0.030145	0.198827	0.116833	0.076024	0.285720	0.100531	0.241009	0.206811	0.085213	0.179837	0.118253	0.127864	0.462444	0.037533	0.142424	0.079310	0.076419	0.196841	0.113025	0.045574	0.265974	0.290329	0.149264
4	0.171024	0.020698	0.113799	0.117887	0.064765	0.219063	0.114386	0.437770	0.341772	0.083632	0.151367	0.087250	0.075203	0.139855	0.181058	0.109846	0.469616	0.100525	0.153630	0.250892	0.292573	0.240183	0.061674	0.092027	0.389753	0.178487	0.079298	0.113127	0.046945	0.241301	0.122638	0.215081	0.280670	0.113996	0.164798	0.131070	0.092701	0.100970	0.133484	0.043770	0.168460	0.033710	0.197166	0.105835	0.080180	0.296157	0.107441	0.274061	0.157185	0.084617	0.174719	0.102931	0.104993	0.458504	0.056255	0.157128	0.080804	0.076874	0.212300	0.122480	0.048582	0.268373	0.288459	0.146050
5	0.127533	0.020984	0.107827	0.127044	0.046958	0.228338	0.117873	0.441780	0.314200	0.094299	0.150998	0.123290	0.072682	0.140570	0.178943	0.070358	0.455976	0.098226	0.154421	0.286731	0.149818	0.209851	0.057267	0.091275	0.382381	0.160118	0.078889	0.114275	0.051340	0.243799	0.112137	0.179142	0.248018	0.102342	0.160743	0.100087	0.075849	0.136976	0.125840	0.058282	0.188481	0.035444	0.193751	0.097361	0.080347	0.295090	0.105669	0.281126	0.107255	0.083370	0.181596	0.078629	0.104792	0.433438	0.066224	0.156773	0.150846	0.077038	0.212868	0.122718	0.050903	0.244351	0.283097	0.115082
6	0.109121	0.021427	0.110647	0.135748	0.037103	0.230678	0.115211	0.440962	0.309076	0.105904	0.152732	0.126429	0.066302	0.139474	0.172561	0.060288	0.442315	0.096353	0.135531	0.262077	0.132475	0.208977	0.054812	0.090691	0.352906	0.142077	0.110229	0.114546	0.054024	0.237234	0.107536	0.158036	0.241829	0.101899	0.144070	0.093906	0.081488	0.178945	0.117848	0.061963	0.230416	0.046712	0.171747	0.103534	0.080585	0.295014	0.100899	0.278841	0.106508	0.073902	0.216245	0.049387	0.103853	0.428379	0.066587	0.153969	0.163025	0.077207	0.221161	0.120492	0.053098	0.230610	0.185817	0.101046
7	0.102748	0.032771	0.120848	0.139976	0.033375	0.222947	0.117394	0.397986	0.251466	0.104399	0.157605	0.140901	0.055587	0.140969	0.172111	0.043149	0.167694	0.062801	0.155236	0.260713	0.132066	0.231395	0.045615	0.087123	0.340768	0.131892	0.204536	0.129006	0.053561	0.286642	0.096599	0.154526	0.270080	0.095042	0.143699	0.081351	0.083582	0.209513	0.100009	0.079524	0.228037	0.062805	0.144065	0.094289	0.082997	0.294782	0.079331	0.268784	0.105022	0.059184	0.206943	0.047704	0.103699	0.410460	0.066610	0.153319	0.163901	0.077665	0.232162	0.120908	0.062816	0.176648	0.173699	0.093301
8	0.094827	0.037366	0.134782	0.143559	0.036980	0.226057	0.119753	0.379585	0.136364	0.104318	0.158171	0.149820	0.050241	0.145692	0.164205	0.044644	0.172167	0.050011	0.177785	0.262444	0.203045	0.250215	0.053631	0.091741	0.270491	0.095777	0.240873	0.137796	0.049857	0.380485	0.096887	0.156555	0.233060	0.067837	0.156381	0.079829	0.082892	0.244465	0.082756	0.116738	0.226366	0.065017	0.142061	0.080554	0.083615	0.269306	0.083255	0.265878	0.105164	0.050276	0.197374	0.047691	0.103596	0.404362	0.072427	0.206983	0.166744	0.079421	0.241965	0.121732	0.071582	0.185048	0.157519	0.093636
9	0.089011	0.037525	0.140554	0.147251	0.035124	0.237686	0.119107	0.254704	0.132786	0.105621	0.141950	0.150777	0.049746	0.144523	0.148057	0.045399	0.159737	0.043280	0.185798	0.259287	0.217001	0.259728	0.137022	0.089474	0.187643	0.082509	0.242163	0.198335	0.051076	0.395566	0.096128	0.153156	0.250694	0.055070	0.160450	0.087054	0.081495	0.247597	0.085064	0.135194	0.223017	0.066611	0.156510	0.097430	0.082556	0.253670	0.078132	0.251174	0.098553	0.045203	0.200237	0.048764	0.101989	0.362893	0.087624	0.241020	0.168056	0.078769	0.250045	0.131337	0.072257	0.191103	0.144349	0.100019
10	0.095979	0.040050	0.138653	0.151657	0.037201	0.242329	0.124659	0.165504	0.132795	0.101833	0.102823	0.146163	0.094603	0.147664	0.107563	0.051222	0.156990	0.054551	0.185175	0.257818	0.214375	0.283237	0.193868	0.109475	0.164361	0.092681	0.252690	0.238491	0.056168	0.449678	0.094356	0.149062	0.249654	0.054822	0.157453	0.108018	0.080264	0.273241	0.091446	0.137063	0.222023	0.073248	0.176553	0.097508	0.068269	0.241045	0.078641	0.247701	0.093326	0.044893	0.204154	0.046576	0.090540	0.319474	0.095949	0.265101	0.167841	0.076519	0.250958	0.137768	0.070917	0.195123	0.133228	0.105393
11	0.124153	0.044695	0.139359	0.152789	0.037542	0.287414	0.118448	0.161323	0.135086	0.093504	0.102552	0.159251	0.167573	0.127340	0.104754	0.051712	0.150241	0.066353	0.174146	0.210440	0.213054	0.303122	0.201433	0.122657	0.164211	0.096196	0.288664	0.242026	0.056764	0.452064	0.096530	0.113422	0.266815	0.046619	0.143874	0.112181	0.082739	0.299468	0.083229	0.151891	0.221542	0.079344	0.194650	0.104611	0.056629	0.121637	0.087422	0.191666	0.092525	0.045351	0.212910	0.046455	0.064523	0.153241	0.096429	0.292392	0.165095	0.066290	0.246207	0.138863	0.067273	0.212874	0.125186	0.095236
12	0.140081	0.047564	0.140610	0.151929	0.035348	0.284341	0.116174	0.154004	0.135893	0.080000	0.104529	0.131435	0.276018	0.135224	0.078186	0.060572	0.160697	0.069789	0.158471	0.195153	0.275534	0.338115	0.216484	0.123716	0.116333	0.089742	0.328936	0.239794	0.073638	0.452524	0.096161	0.115588	0.314650	0.042242	0.123667	0.106744	0.086902	0.316008	0.080012	0.164484	0.232795	0.080646	0.202677	0.107616	0.051024	0.104136	0.090378	0.179861	0.091768	0.041469	0.224303	0.043944	0.054319	0.121883	0.096536	0.288317	0.163170	0.064948	0.247141	0.138850	0.063561	0.198702	0.152613	0.076994
13	0.146695	0.048636	0.120432	0.151920	0.034969	0.259554	0.117238	0.122764	0.074919	0.059717	0.096124	0.125944	0.458554	0.154546	0.054396	0.124099	0.174484	0.069557	0.160200	0.123102	0.308949	0.356634	0.228568	0.131368	0.106115	0.094015	0.340795	0.240207	0.082053	0.443525	0.087171	0.108351	0.327491	0.035552	0.117739	0.104674	0.087094	0.326152	0.080139	0.165654	0.209524	0.081175	0.207458	0.111527	0.039981	0.067999	0.082851	0.131148	0.076385	0.034254	0.232565	0.045446	0.038241	0.105085	0.095164	0.286301	0.158713	0.066190	0.207857	0.122392	0.059485	0.195254	0.158805	0.071075
14	0.144653	0.048526	0.168944	0.142546	0.035142	0.263298	0.105156	0.093574	0.069781	0.054740	0.069600	0.116996	0.494796	0.163637	0.050892	0.148132	0.189798	0.077127	0.209532	0.083783	0.331301	0.339814	0.228061	0.132441	0.101606	0.099683	0.341434	0.242984	0.127868	0.446528	0.075799	0.111411	0.317930	0.031947	0.135612	0.111141	0.087349	0.322873	0.081633	0.183172	0.222618	0.091501	0.201678	0.112518	0.040542	0.081563	0.086144	0.116343	0.065229	0.032908	0.234730	0.046353	0.038529	0.100591	0.110950	0.286107	0.156842	0.066857	0.185342	0.107168	0.057490	0.186402	0.158353	0.082957
15	0.166635	0.050911	0.204132	0.191240	0.034362	0.264038	0.098417	0.082547	0.089758	0.033006	0.085451	0.157949	0.532285	0.214030	0.053975	0.146504	0.292500	0.099350	0.333889	0.089385	0.336412	0.318765	0.235426	0.137167	0.076242	0.109334	0.338947	0.246080	0.129852	0.453497	0.075090	0.113233	0.319590	0.031945	0.152595	0.119042	0.085483	0.322603	0.083593	0.220608	0.241293	0.092430	0.197182	0.129696	0.040143	0.104491	0.090896	0.120486	0.040700	0.034674	0.204338	0.048772	0.038686	0.096970	0.149168	0.286673	0.108616	0.073178	0.187228	0.131243	0.057539	0.184753	0.158856	0.090828
16	0.182599	0.054592	0.207369	0.247030	0.035001	0.299375	0.098295	0.082432	0.096794	0.030495	0.177822	0.185861	0.651951	0.257221	0.085754	0.145322	0.360501	0.109516	0.364957	0.159016	0.334260	0.314129	0.246450	0.146934	0.076655	0.109609	0.298395	0.246144	0.130309	0.469597	0.077680	0.116288	0.310912	0.032278	0.153432	0.119740	0.084175	0.321882	0.073903	0.225765	0.267509	0.098247	0.190018	0.125945	0.036079	0.107878	0.091904	0.117035	0.030186	0.036163	0.151327	0.054287	0.038718	0.094358	0.151785	0.287036	0.052302	0.083565	0.177619	0.132815	0.046350	0.197912	0.165213	0.139463
17	0.199926	0.058875	0.201460	0.289961	0.037154	0.304447	0.077917	0.086172	0.163690	0.048970	0.183573	0.191489	0.886881	0.286506	0.123048	0.144757	0.356814	0.111731	0.366017	0.213543	0.324426	0.294127	0.248889	0.145018	0.077153	0.113479	0.251360	0.218651	0.133170	0.481080	0.109033	0.119048	0.310940	0.081136	0.134919	0.119613	0.082418	0.315783	0.086829	0.221223	0.237245	0.099173	0.175835	0.129911	0.041021	0.109068	0.090135	0.106475	0.027070	0.038435	0.147641	0.074843	0.037808	0.087299	0.169592	0.287362	0.047221	0.092681	0.170343	0.133360	0.030424	0.195294	0.164969	0.161695
18	0.208667	0.067312	0.192449	0.288609	0.039455	0.297310	0.073680	0.090979	0.214804	0.078103	0.213976	0.211498	0.908263	0.285946	0.125522	0.153328	0.365671	0.116256	0.410443	0.215617	0.280181	0.276087	0.246846	0.141309	0.080055	0.126554	0.247430	0.182437	0.136005	0.469590	0.111606	0.133776	0.337708	0.106738	0.124018	0.115071	0.073891	0.293851	0.132599	0.221547	0.239052	0.132618	0.181540	0.139992	0.042798	0.111912	0.104976	0.096423	0.021468	0.047388	0.215465	0.158920	0.035213	0.054493	0.186467	0.225569	0.039483	0.095757	0.156550	0.140991	0.021887	0.208745	0.159026	0.158201
19	0.213822	0.069817	0.201464	0.287904	0.046909	0.279349	0.070209	0.088699	0.264531	0.093146	0.240322	0.225465	0.913002	0.283739	0.124446	0.167947	0.396315	0.110195	0.451890	0.229948	0.265598	0.267666	0.213785	0.143781	0.079166	0.123619	0.240819	0.107095	0.137927	0.381288	0.102244	0.139652	0.374780	0.109065	0.120903	0.096193	0.071653	0.275758	0.166834	0.218742	0.243756	0.147189	0.180219	0.139898	0.042744	0.110685	0.110226	0.095655	0.019712	0.061222	0.305095	0.234395	0.036130	0.049434	0.187200	0.211932	0.044980	0.096179	0.185026	0.135492	0.022214	0.211395	0.146656	0.155073
20	0.208820	0.069851	0.224073	0.301804	0.048849	0.254626	0.060567	0.092618	0.324161	0.093719	0.277916	0.270696	0.912573	0.282632	0.125807	0.169584	0.415322	0.103961	0.462688	0.240448	0.266478	0.242148	0.163038	0.125508	0.074101	0.129422	0.212042	0.084738	0.138181	0.372225	0.127590	0.138166	0.384199	0.144783	0.127017	0.082956	0.073913	0.239637	0.170756	0.209078	0.316877	0.163034	0.168197	0.121087	0.050812	0.359410	0.126983	0.114347	0.020461	0.078192	0.329792	0.310757	0.027651	0.051388	0.185025	0.142494	0.114711	0.089574	0.223791	0.123704	0.025685	0.209962	0.165677	0.161282
21	0.191146	0.067606	0.252733	0.340316	0.049867	0.200242	0.059708	0.100763	0.356033	0.095949	0.281471	0.446503	0.903367	0.275226	0.148180	0.202820	0.407776	0.110211	0.467905	0.241761	0.267447	0.217698	0.157475	0.102225	0.072772	0.151607	0.134774	0.083113	0.135475	0.274552	0.161721	0.149176	0.435255	0.182222	0.141535	0.138858	0.074425	0.232608	0.173730	0.186659	0.340994	0.245039	0.156079	0.123153	0.091264	0.505300	0.175281	0.176802	0.019801	0.085716	0.328831	0.316638	0.037613	0.044442	0.184743	0.129059	0.148452	0.101618	0.226939	0.121413	0.039926	0.293691	0.144393	0.164997
22	0.179315	0.080647	0.263487	0.374558	0.049459	0.194468	0.060421	0.114542	0.391262	0.100463	0.304957	0.460574	0.887964	0.264284	0.177492	0.230229	0.408926	0.112040	0.457892	0.251936	0.207050	0.157140	0.148633	0.102463	0.077960	0.151846	0.082489	0.073945	0.135046	0.243999	0.173884	0.157295	0.412976	0.190360	0.141768	0.156939	0.074441	0.222432	0.181441	0.187794	0.348655	0.304602	0.140401	0.133196	0.113468	0.578564	0.186759	0.175817	0.036222	0.085010	0.344041	0.325453	0.043737	0.067126	0.184587	0.128663	0.158393	0.149580	0.255691	0.122371	0.092364	0.301614	0.141171	0.192642
23	0.171198	0.091643	0.261761	0.376867	0.049927	0.192762	0.054033	0.110775	0.476339	0.152188	0.316765	0.474627	0.814049	0.249336	0.191985	0.234321	0.377969	0.098277	0.397349	0.257667	0.151167	0.083804	0.132642	0.096218	0.074496	0.150263	0.075251	0.062112	0.128848	0.243035	0.174072	0.156053	0.405085	0.194658	0.130237	0.158683	0.072058	0.197221	0.188127	0.184127	0.376372	0.308026	0.131231	0.140931	0.118241	0.665366	0.189694	0.173824	0.070890	0.085545	0.374109	0.345652	0.043490	0.096175	0.182896	0.116014	0.161021	0.155337	0.293126	0.127440	0.116850	0.387977	0.174770	0.213574
24	0.170761	0.092959	0.229897	0.383525	0.049772	0.183546	0.055879	0.132096	0.492745	0.179556	0.327786	0.495494	0.775798	0.246436	0.190871	0.223462	0.256631	0.087202	0.323072	0.246107	0.094205	0.087793	0.132275	0.099396	0.071644	0.148394	0.070713	0.046687	0.120734	0.252677	0.174046	0.157141	0.403419	0.195614	0.107368	0.152519	0.066131	0.175902	0.191623	0.168082	0.381649	0.310797	0.124835	0.141864	0.139726	0.665935	0.215208	0.184238	0.103448	0.096814	0.392717	0.373568	0.059896	0.102364	0.152319	0.109460	0.438593	0.157445	0.303909	0.126477	0.122380	0.432855	0.187577	0.227550
25	0.149405	0.091748	0.197967	0.360652	0.049332	0.163711	0.062509	0.149186	0.485203	0.241808	0.337132	0.514529	0.756422	0.212119	0.193474	0.226140	0.243773	0.115822	0.348319	0.195682	0.074203	0.150687	0.118763	0.093682	0.079626	0.206545	0.067440	0.029296	0.085258	0.261872	0.174076	0.152296	0.400776	0.196643	0.091234	0.150609	0.064417	0.148228	0.192730	0.166814	0.429141	0.326355	0.148952	0.144986	0.149249	0.670784	0.233128	0.207640	0.136353	0.106934	0.398186	0.398108	0.116447	0.107412	0.148276	0.138269	0.557882	0.220524	0.305619	0.101501	0.153044	0.440049	0.183423	0.212416
26	0.130321	0.091193	0.194432	0.323140	0.049210	0.232846	0.107910	0.162443	0.582031	0.328898	0.348184	0.542129	0.687658	0.154093	0.191966	0.226241	0.242051	0.116844	0.381391	0.240833	0.076535	0.176282	0.095717	0.076553	0.088182	0.242232	0.069730	0.022073	0.070352	0.265402	0.175220	0.150568	0.400673	0.197105	0.088615	0.159609	0.064665	0.140231	0.192863	0.166113	0.500733	0.341498	0.167351	0.137262	0.150871	0.670911	0.234123	0.212351	0.141978	0.114347	0.399515	0.410479	0.155862	0.113173	0.180763	0.183646	0.632373	0.266591	0.305702	0.095171	0.163376	0.438064	0.186758	0.195171
27	0.117827	0.091488	0.198622	0.294215	0.085632	0.446684	0.213460	0.166297	0.619966	0.463072	0.316100	0.516989	0.374325	0.076555	0.167507	0.226509	0.190702	0.128200	0.329134	0.248966	0.076602	0.236025	0.093261	0.077008	0.105954	0.247361	0.069533	0.026746	0.066849	0.251522	0.207189	0.159111	0.367336	0.187510	0.089862	0.199759	0.063002	0.141218	0.192695	0.139729	0.511818	0.343527	0.189267	0.152580	0.151235	0.678379	0.229965	0.226928	0.250817	0.122428	0.402056	0.411462	0.171030	0.128148	0.173889	0.187554	0.632745	0.264554	0.303965	0.093599	0.169022	0.434408	0.222778	0.203417
28	0.122561	0.086495	0.199329	0.312402	0.127522	0.462262	0.221148	0.170057	0.598895	0.484622	0.332905	0.441532	0.181204	0.085393	0.163015	0.225451	0.149182	0.172653	0.301802	0.267080	0.076467	0.253747	0.095927	0.080184	0.105466	0.287709	0.066324	0.029891	0.063722	0.221655	0.233567	0.161371	0.312475	0.194115	0.091842	0.236411	0.062445	0.169862	0.193151	0.129120	0.512084	0.341753	0.208976	0.155278	0.151246	0.683863	0.240086	0.225439	0.306843	0.127006	0.358776	0.386060	0.199561	0.151922	0.157593	0.186685	0.633923	0.270939	0.300118	0.082892	0.174727	0.433829	0.230967	0.259531
29	0.136688	0.093913	0.186051	0.320852	0.166140	0.583081	0.250028	0.173149	0.578221	0.492107	0.332928	0.373326	0.136940	0.110732	0.162652	0.213935	0.106287	0.186286	0.303472	0.295085	0.076929	0.310925	0.099452	0.081074	0.110694	0.285677	0.059876	0.029436	0.074697	0.216818	0.236395	0.180769	0.290101	0.196180	0.093676	0.255276	0.058398	0.221536	0.190982	0.134065	0.625199	0.336210	0.204868	0.225216	0.150344	0.623227	0.232868	0.217178	0.325025	0.131204	0.288636	0.339843	0.199851	0.348017	0.165508	0.184967	0.636996	0.311934	0.396287	0.137233	0.175899	0.425315	0.215735	0.318345
30	0.136749	0.094250	0.168969	0.308060	0.177203	0.641147	0.289945	0.179266	0.516982	0.490924	0.286959	0.358714	0.130028	0.125381	0.163595	0.214844	0.085723	0.192980	0.323999	0.290604	0.077012	0.475634	0.102286	0.088017	0.112438	0.304762	0.054607	0.030842	0.094564	0.224206	0.236766	0.233376	0.363945	0.179321	0.076041	0.250386	0.051754	0.227543	0.172766	0.133673	0.665017	0.332728	0.216452	0.231664	0.131702	0.500923	0.195142	0.196022	0.346595	0.144175	0.269233	0.285051	0.202870	0.376536	0.189863	0.186450	0.653960	0.347486	0.575672	0.170689	0.174385	0.370097	0.223292	0.330568
31	0.138547	0.104246	0.167971	0.268629	0.181981	0.644194	0.306181	0.197243	0.474265	0.482440	0.275103	0.298456	0.124290	0.136268	0.150763	0.194426	0.084353	0.218155	0.336256	0.285810	0.070264	0.508030	0.094366	0.089731	0.109784	0.365773	0.059287	0.054033	0.119795	0.224718	0.235410	0.256238	0.315493	0.164812	0.058174	0.226505	0.039924	0.227053	0.130517	0.135906	0.631839	0.330352	0.220235	0.233462	0.111714	0.432724	0.183258	0.198707	0.358829	0.141697	0.263239	0.285219	0.209759	0.481951	0.204181	0.189132	0.645334	0.355233	0.642493	0.209555	0.158385	0.360567	0.259836	0.326420
32	0.148523	0.097767	0.231841	0.272319	0.218202	0.644149	0.315811	0.192328	0.461476	0.480856	0.229984	0.271223	0.109001	0.140795	0.129737	0.161005	0.084464	0.234997	0.337742	0.294654	0.074368	0.514386	0.075960	0.086167	0.103412	0.372788	0.157847	0.414386	0.124227	0.224535	0.229809	0.253262	0.333089	0.161854	0.065001	0.229061	0.051390	0.225240	0.112088	0.145621	0.622338	0.276078	0.223272	0.245509	0.107422	0.259713	0.190597	0.206544	0.360098	0.165693	0.231639	0.273439	0.209210	0.541445	0.210954	0.196457	0.663338	0.341901	0.640941	0.258347	0.142913	0.277187	0.281611	0.333466
33	0.159888	0.091845	0.278677	0.356417	0.283634	0.644532	0.321350	0.195473	0.405169	0.462655	0.187596	0.157046	0.114116	0.141819	0.145859	0.133094	0.088556	0.278947	0.323746	0.311100	0.087554	0.539743	0.065545	0.080138	0.116366	0.391065	0.165431	0.553937	0.130953	0.222301	0.235674	0.248617	0.372462	0.174206	0.070469	0.241754	0.076674	0.226384	0.111904	0.156740	0.624149	0.211837	0.231699	0.272170	0.077904	0.281548	0.162684	0.197948	0.356423	0.208160	0.191653	0.262208	0.209397	0.613166	0.211437	0.203371	0.674821	0.354243	0.641772	0.281999	0.137589	0.199342	0.276666	0.342907
34	0.184957	0.091025	0.353128	0.354545	0.297781	0.644477	0.323570	0.182796	0.109658	0.326425	0.184738	0.155205	0.141731	0.144263	0.173575	0.156863	0.090489	0.272273	0.260209	0.277089	0.086523	0.569296	0.065083	0.089188	0.120223	0.392909	0.166940	0.570431	0.142010	0.217942	0.241988	0.247801	0.424157	0.210906	0.082388	0.245688	0.108964	0.222838	0.097987	0.161609	0.601231	0.207898	0.235471	0.287289	0.053478	0.302280	0.132627	0.193162	0.347277	0.213462	0.164137	0.244443	0.206560	0.658487	0.209745	0.203340	0.612800	0.369127	0.690040	0.291853	0.103550	0.163392	0.293298	0.337950
35	0.193982	0.094548	0.441697	0.371606	0.301086	0.643919	0.322131	0.181709	0.063979	0.313732	0.225250	0.153631	0.146549	0.174663	0.214612	0.186072	0.097011	0.270145	0.227561	0.269243	0.083046	0.623736	0.063722	0.090713	0.117224	0.417399	0.172137	0.592507	0.144811	0.244976	0.242776	0.251221	0.425309	0.217520	0.080265	0.254141	0.117223	0.225357	0.071876	0.161095	0.598830	0.210030	0.236599	0.286383	0.045571	0.318610	0.127576	0.212469	0.337353	0.212085	0.151990	0.215358	0.168381	0.780622	0.190118	0.166105	0.429755	0.352240	0.747268	0.291542	0.085614	0.143007	0.304073	0.338368
36	0.192562	0.094531	0.449139	0.386453	0.301024	0.583337	0.302625	0.191516	0.042606	0.359480	0.224787	0.205790	0.184052	0.245969	0.263212	0.216729	0.104946	0.251159	0.225232	0.226625	0.090849	0.636030	0.059522	0.112305	0.108156	0.417210	0.172263	0.627275	0.146753	0.239554	0.243267	0.253153	0.422818	0.223531	0.161472	0.259046	0.120535	0.251500	0.055903	0.161140	0.554803	0.180959	0.221891	0.286100	0.046219	0.351262	0.135846	0.200538	0.332312	0.207374	0.150477	0.191179	0.151546	0.792806	0.158117	0.135208	0.319672	0.325652	0.784543	0.317361	0.073782	0.121220	0.301977	0.410341
37	0.184321	0.089829	0.492589	0.385248	0.289569	0.470234	0.265070	0.196626	0.043053	0.358892	0.214739	0.204271	0.179824	0.259643	0.269201	0.217785	0.140059	0.230100	0.215287	0.194525	0.106625	0.624641	0.052465	0.128076	0.106413	0.384575	0.175125	0.685405	0.146770	0.263104	0.244226	0.255266	0.422493	0.218544	0.232298	0.255436	0.123255	0.262594	0.053960	0.159615	0.522745	0.153415	0.209900	0.285298	0.048217	0.347748	0.124313	0.310390	0.250377	0.203740	0.158065	0.185302	0.134219	0.795215	0.150085	0.131965	0.309597	0.327411	0.799100	0.360756	0.058279	0.114605	0.355061	0.935395
38	0.173279	0.090019	0.572862	0.402799	0.271438	0.488286	0.280042	0.224316	0.060978	0.391828	0.210552	0.205088	0.172185	0.254842	0.290672	0.217401	0.137819	0.265529	0.178723	0.178807	0.117570	0.681617	0.047653	0.137357	0.101668	0.406712	0.190060	0.721448	0.147357	0.284375	0.226844	0.250505	0.422281	0.212806	0.242586	0.263088	0.122868	0.271981	0.054595	0.158415	0.498816	0.147251	0.219968	0.281057	0.051846	0.313989	0.169461	0.407421	0.189703	0.207882	0.175091	0.190926	0.128127	0.771805	0.147667	0.132002	0.307600	0.349571	0.803925	0.394509	0.052433	0.111119	0.456610	1.105828
39	0.153538	0.097801	0.634947	0.437671	0.250988	0.331788	0.249114	0.232914	0.078322	0.458575	0.212120	0.240058	0.171465	0.245116	0.341449	0.215494	0.152592	0.346288	0.146410	0.181026	0.117356	0.694144	0.037844	0.141182	0.100716	0.415939	0.219954	0.735087	0.146553	0.283988	0.179558	0.248060	0.401424	0.207048	0.250433	0.259444	0.151927	0.359903	0.053378	0.162137	0.497416	0.147772	0.291014	0.352857	0.045800	0.304181	0.186170	0.467725	0.167143	0.208267	0.182913	0.196897	0.146581	0.734709	0.123315	0.126606	0.306206	0.382540	0.785205	0.407396	0.053013	0.143705	0.482475	1.214686
40	0.149498	0.157837	0.669818	0.462158	0.246004	0.283248	0.211406	0.224116	0.086023	0.621621	0.244776	0.245842	0.167574	0.236870	0.374641	0.225193	0.171344	0.375440	0.137074	0.173190	0.117098	0.596863	0.027684	0.137881	0.098014	0.353371	0.243143	0.736210	0.139513	0.284673	0.165752	0.238917	0.297526	0.193490	0.275615	0.265806	0.180459	0.430550	0.050038	0.163944	0.333065	0.125471	0.337577	0.472174	0.043380	0.298248	0.185757	0.469690	0.103779	0.205399	0.180567	0.203406	0.140473	0.705041	0.104884	0.131823	0.253522	0.355904	0.643054	0.396921	0.040201	0.154627	0.469706	1.436396
41	0.149277	0.235849	0.672218	0.465460	0.245643	0.306533	0.191219	0.211273	0.095410	0.675328	0.273643	0.249624	0.167408	0.230818	0.391605	0.249675	0.232748	0.335068	0.132960	0.145952	0.118320	0.594333	0.091636	0.143542	0.099242	0.343892	0.308900	0.674704	0.126599	0.283138	0.172934	0.179766	0.273442	0.192455	0.282125	0.289158	0.181038	0.445397	0.054255	0.156521	0.254831	0.119286	0.335149	0.551992	0.040973	0.294287	0.179184	0.501598	0.076541	0.207589	0.179538	0.206214	0.169597	0.655491	0.127777	0.206261	0.254938	0.390778	0.550408	0.393807	0.036016	0.244250	0.523421	1.490050
42	0.139377	0.261950	0.651219	0.437677	0.196432	0.315738	0.177360	0.225395	0.094611	0.664431	0.246955	0.263945	0.167418	0.230510	0.393934	0.275220	0.302653	0.334561	0.203090	0.301924	0.111245	0.598417	0.138125	0.195980	0.091153	0.329680	0.373977	0.511396	0.102556	0.285867	0.170874	0.144565	0.255998	0.194910	0.284304	0.330323	0.185274	0.439672	0.066956	0.155525	0.255310	0.099233	0.333853	0.569783	0.042906	0.269014	0.190320	0.539521	0.060945	0.208433	0.170891	0.234477	0.336962	0.558344	0.130794	0.223745	0.205995	0.454908	0.545132	0.353957	0.038361	0.264121	0.623744	1.487500
43	0.127725	0.260782	0.632701	0.369840	0.106108	0.317285	0.176246	0.384765	0.104112	0.623774	0.245018	0.259856	0.163939	0.233169	0.381349	0.284479	0.329765	0.399867	0.188376	0.455610	0.102875	0.575874	0.142303	0.216292	0.072753	0.345343	0.424128	0.670668	0.093320	0.352990	0.151795	0.138129	0.125957	0.200491	0.296799	0.360326	0.189139	0.439731	0.091131	0.155266	0.250302	0.086038	0.352478	0.570964	0.045100	0.240651	0.223109	0.568231	0.053297	0.214132	0.159745	0.229442	0.350156	0.533039	0.134427	0.219995	0.173364	0.463478	0.535172	0.335168	0.047621	0.264410	0.668720	1.489715
44	0.089463	0.264813	0.596538	0.356591	0.074910	0.319720	0.178472	0.422001	0.114704	0.622128	0.294992	0.259609	0.130529	0.232654	0.367670	0.272919	0.329971	0.477578	0.259880	0.559319	0.102158	0.544132	0.166014	0.227972	0.070708	0.286267	0.429790	0.834115	0.107458	0.381663	0.119281	0.129192	0.054756	0.232486	0.310126	0.358524	0.187917	0.440087	0.098374	0.147861	0.235540	0.084848	0.371503	0.596275	0.043908	0.238455	0.226244	0.568684	0.056972	0.219465	0.175065	0.202130	0.365249	0.401105	0.172957	0.256250	0.157580	0.449760	0.468091	0.319098	0.049261	0.267716	0.676142	1.492558
45	0.064725	0.287587	0.538336	0.343750	0.066762	0.318851	0.187601	0.555979	0.116009	0.597264	0.296150	0.278865	0.124917	0.221200	0.349354	0.249186	0.323312	0.511538	0.301224	0.580270	0.102159	0.469147	0.259586	0.236073	0.065703	0.273198	0.482501	0.839731	0.110031	0.431724	0.097305	0.119586	0.041220	0.229424	0.330422	0.348527	0.180275	0.440508	0.100170	0.138283	0.233514	0.081909	0.385099	0.612256	0.042158	0.150515	0.223235	0.569484	0.057368	0.227027	0.402959	0.289912	0.371285	0.181409	0.177263	0.274179	0.155994	0.445801	0.363173	0.318321	0.049442	0.267836	0.668429	1.479202
46	0.065121	0.361270	0.538852	0.326138	0.067185	0.318539	0.189134	0.586485	0.102899	0.567658	0.311016	0.303856	0.056265	0.144824	0.315768	0.220183	0.326422	0.524251	0.307149	0.595986	0.094363	0.440182	0.317882	0.333930	0.090713	0.323725	0.576304	0.816538	0.113763	0.502846	0.096413	0.102168	0.113493	0.236645	0.370924	0.447975	0.166362	0.439204	0.103193	0.134367	0.234439	0.063205	0.397186	0.622817	0.042870	0.135555	0.216075	0.523366	0.055033	0.232542	0.548047	0.396644	0.366616	0.167998	0.177641	0.278623	0.153044	0.431240	0.252804	0.302771	0.049325	0.268622	0.638975	1.231925
47	0.063981	0.440928	0.511133	0.318308	0.067831	0.307285	0.207245	0.596204	0.096851	0.400552	0.304562	0.324738	0.036005	0.085154	0.316734	0.227193	0.325319	0.481025	0.333479	0.619460	0.078741	0.433209	0.325533	0.492555	0.091948	0.875813	0.633524	0.820214	0.121474	0.497066	0.099149	0.095140	0.297744	0.243697	0.384785	0.459643	0.153341	0.436371	0.125013	0.134905	0.230404	0.057593	0.399066	0.637650	0.034888	0.139377	0.185414	0.451126	0.055264	0.253077	0.580319	0.418785	0.364591	0.148655	0.181295	0.282857	0.183358	0.427818	0.191502	0.253029	0.049611	0.268291	0.580532	1.034530
48	0.068087	0.441395	0.423052	0.291408	0.068053	0.265262	0.244029	0.617729	0.081380	0.301864	0.272062	0.323886	0.030705	0.088187	0.336070	0.358106	0.310682	0.431612	0.340174	0.657176	0.061058	0.336517	0.330980	0.503922	0.093040	1.096317	0.637226	0.827670	0.154370	0.484214	0.100544	0.090750	0.306987	0.249390	0.388069	0.514229	0.151667	0.431317	0.151221	0.134793	0.111995	0.052634	0.404054	0.647366	0.040152	0.147992	0.174215	0.372604	0.055409	0.286543	0.587241	0.481894	0.360417	0.123694	0.220268	0.295828	0.236520	0.414188	0.182612	0.197886	0.047690	0.252703	0.566200	0.920984
49	0.073828	0.437953	0.323199	0.229639	0.065012	0.289806	0.258607	0.615655	0.079126	0.301738	0.268329	0.318034	0.024333	0.089822	0.310793	0.575467	0.296243	0.468680	0.341267	0.685350	0.076935	0.258335	0.379786	0.560230	0.132565	1.101494	0.628380	0.835157	0.168710	0.452499	0.133761	0.147260	0.312998	0.253566	0.388387	0.660666	0.149179	0.424172	0.166549	0.134576	0.100833	0.056764	0.393187	0.646044	0.051630	0.163723	0.179229	0.365826	0.053609	0.292526	0.600567	0.543187	0.354579	0.087988	0.286590	0.331584	0.251251	0.382185	0.215102	0.200797	0.046503	0.248370	0.564824	0.490556
50	0.075211	0.421637	0.235952	0.189676	0.056321	0.265208	0.286340	0.616491	0.067271	0.338971	0.241488	0.267546	0.025760	0.090294	0.266337	0.630928	0.213196	0.476218	0.330338	0.684832	0.081930	0.305913	0.482619	0.612466	0.215563	1.145848	0.602881	0.830713	0.170191	0.448313	0.184838	0.415630	0.313883	0.252047	0.460292	0.685952	0.152509	0.423920	0.167875	0.133977	0.110251	0.054917	0.331629	0.605327	0.053326	0.164569	0.176438	0.321234	0.048138	0.336907	0.672314	0.595617	0.353178	0.082451	0.315782	0.351152	0.247275	0.376284	0.351352	0.254457	0.041498	0.165474	0.497952	0.211719
51	0.089232	0.383419	0.213618	0.215148	0.049987	0.247435	0.394841	0.615794	0.039223	0.339245	0.162437	0.263143	0.026343	0.089845	0.234084	0.622026	0.176989	0.461820	0.318219	0.572412	0.080419	0.515842	0.534529	0.646751	0.328789	1.166096	0.545998	0.831057	0.177856	0.448236	0.189276	0.554239	0.315671	0.249146	0.550133	0.677791	0.146665	0.387641	0.187286	0.283936	0.123511	0.054986	0.283361	0.500816	0.056268	0.331887	0.160739	0.258858	0.043860	0.345249	0.711146	0.610852	0.303527	0.110441	0.312864	0.335218	0.240871	0.356386	0.474285	0.281432	0.040296	0.117722	0.359868	0.190066
52	0.145529	0.373687	0.279972	0.229615	0.045287	0.240311	0.470662	0.606584	0.025087	0.336327	0.244594	0.324085	0.042270	0.210685	0.228999	0.617491	0.110223	0.376935	0.318406	0.480555	0.079542	0.633536	0.552893	0.646285	0.405325	1.194368	0.507784	0.749575	0.189000	0.448233	0.200333	0.566453	0.315080	0.248795	0.585254	0.666182	0.097331	0.286624	0.367768	0.618494	0.143738	0.055742	0.278711	0.419308	0.055778	0.467933	0.135370	0.168119	0.069395	0.329316	0.735219	0.608429	0.145537	0.120725	0.313849	0.339865	0.240425	0.262699	0.505463	0.304904	0.045833	0.131107	0.247823	0.171952
53	0.164655	0.373610	0.361662	0.267622	0.048727	0.254141	0.498281	0.533026	0.020414	0.331996	0.252586	0.393358	0.084640	0.572018	0.232261	0.667127	0.091938	0.324840	0.250931	0.413396	0.074893	0.645603	0.564858	0.642996	0.577997	1.297955	0.504876	0.503502	0.192984	0.446746	0.208631	0.567457	0.316858	0.201662	0.586808	0.667386	0.095151	0.196478	0.466881	0.676069	0.171532	0.058897	0.285357	0.395416	0.056332	0.489920	0.137963	0.131461	0.087874	0.310526	0.770313	0.617835	0.137483	0.124317	0.311832	0.333986	0.250972	0.206597	0.503077	0.307773	0.053245	0.152710	0.219887	0.143386
54	0.186146	0.377682	0.403026	0.287850	0.049307	0.258905	0.499221	0.485862	0.032268	0.309717	0.238020	0.393732	0.100805	0.640750	0.234307	0.731384	0.061216	0.292273	0.249818	0.410602	0.073985	0.735903	0.560599	0.637828	0.714210	1.348798	0.530127	0.410964	0.193206	0.415107	0.214911	0.590850	0.319518	0.174219	0.583981	0.670737	0.102638	0.163306	0.482232	0.737096	0.349673	0.071777	0.258933	0.383581	0.060063	0.564949	0.162000	0.142719	0.088708	0.297057	0.788192	0.625384	0.142713	0.124554	0.302561	0.308648	0.243858	0.200864	0.528604	0.309164	0.054106	0.159097	0.270997	0.118766
55	0.230239	0.363913	0.409788	0.298888	0.046618	0.257336	0.497058	0.331887	0.039350	0.219925	0.231465	0.417045	0.108197	0.794309	0.241680	0.757944	0.054225	0.291365	0.218448	0.373290	0.076875	0.765896	0.524436	0.634847	0.716162	1.350037	0.486244	0.385426	0.188049	0.369117	0.223403	0.634436	0.319360	0.188338	0.600785	0.664063	0.093384	0.163932	0.482663	0.837326	0.377551	0.078910	0.274711	0.318559	0.057645	0.567168	0.258411	0.140492	0.089771	0.294899	0.697332	0.579006	0.175573	0.125844	0.303345	0.295423	0.228318	0.203095	0.571092	0.310540	0.059249	0.190771	0.284019	0.170652
56	0.289241	0.294993	0.402987	0.297979	0.046461	0.259960	0.495434	0.282180	0.043684	0.198068	0.255755	0.423353	0.114526	0.964576	0.247151	0.766128	0.059795	0.296152	0.194896	0.340641	0.079415	0.772657	0.491721	0.588922	0.715789	1.155293	0.423812	0.297997	0.176745	0.337163	0.228662	0.677316	0.276648	0.169750	0.629191	0.585185	0.099786	0.165437	0.503233	0.840839	0.380223	0.135186	0.340872	0.507075	0.058974	0.566611	0.315755	0.165291	0.090840	0.293538	0.610751	0.535140	0.205012	0.126317	0.303688	0.295895	0.227419	0.209944	0.588049	0.324675	0.061554	0.228701	0.270242	0.173584
57	0.300904	0.149762	0.446752	0.299131	0.044915	0.299100	0.484946	0.233173	0.050950	0.121224	0.287721	0.421630	0.151196	0.965834	0.237546	0.765997	0.056967	0.255943	0.198930	0.248172	0.077184	0.786080	0.488992	0.457428	0.715436	0.839631	0.411371	0.206446	0.169558	0.162522	0.233259	0.709854	0.129577	0.180765	0.667119	0.597786	0.141158	0.165499	0.533926	0.845132	0.384282	0.195444	0.489507	0.872730	0.060172	0.579969	0.313562	0.176819	0.090531	0.266265	0.585869	0.509720	0.228705	0.126818	0.298651	0.293471	0.212702	0.218568	0.607717	0.338768	0.063249	0.229145	0.261713	0.193561
58	0.300480	0.155890	0.590302	0.290108	0.044542	0.275024	0.486485	0.158024	0.130372	0.146500	0.292060	0.421177	0.167767	0.970106	0.200816	0.734416	0.057076	0.201017	0.286398	0.231056	0.078078	0.782012	0.491299	0.441278	0.712441	0.812241	0.406677	0.148827	0.166192	0.177774	0.234502	0.723848	0.093159	0.264352	0.698117	0.478553	0.232147	0.164779	0.537186	0.853153	0.390343	0.231099	0.651731	1.008823	0.051257	0.576544	0.334310	0.179164	0.090663	0.232630	0.580090	0.453248	0.251980	0.144639	0.253005	0.272348	0.160836	0.226067	0.620257	0.335650	0.063388	0.231880	0.274155	0.208414
59	0.299185	0.168589	0.685483	0.306731	0.045108	0.238672	0.525523	0.157373	0.197148	0.165101	0.238543	0.393515	0.171748	0.972306	0.150036	0.596091	0.054872	0.182138	0.423375	0.365871	0.060491	0.784907	0.465960	0.365872	0.696721	0.779794	0.413460	0.124900	0.137004	0.267329	0.233870	0.727571	0.092221	0.272684	0.724154	0.394004	0.244565	0.184878	0.535250	0.852476	0.400553	0.232438	0.736954	1.051235	0.049268	0.583812	0.348583	0.174235	0.091390	0.206761	0.558069	0.373547	0.277986	0.161615	0.172806	0.220151	0.104114	0.215942	0.642738	0.333975	0.063057	0.235127	0.282841	0.218438
60	0.298310	0.185404	0.706950	0.346189	0.042692	0.242664	0.520071	0.165111	0.200185	0.233736	0.275615	0.251101	0.174493	0.975720	0.145142	0.486740	0.051305	0.181493	0.465652	0.398963	0.046711	0.791995	0.367536	0.269456	0.657658	0.735101	0.446408	0.131990	0.113886	0.274416	0.222352	0.724511	0.087736	0.270990	0.678777	0.430847	0.288809	0.180710	0.533904	0.855285	0.403038	0.233456	0.745050	1.206947	0.044756	0.520036	0.356176	0.165354	0.090323	0.111813	0.466312	0.286728	0.282064	0.145395	0.122769	0.175127	0.108180	0.177360	0.623173	0.307440	0.061916	0.237430	0.284101	0.220120
61	0.294921	0.189981	0.704069	0.341490	0.042665	0.240592	0.438713	0.165546	0.310755	0.281905	0.512531	0.254197	0.188571	0.980404	0.144634	0.486307	0.048999	0.168578	0.464368	0.593251	0.045237	0.655508	0.277720	0.166665	0.611956	0.704215	0.480441	0.155542	0.108902	0.297104	0.182303	0.638503	0.085650	0.269367	0.632434	0.443474	0.306395	0.146938	0.563430	0.861848	0.401066	0.233196	0.760905	1.357471	0.045362	0.454086	0.349180	0.167935	0.089306	0.094915	0.415695	0.262683	0.283186	0.130163	0.113241	0.149656	0.109390	0.153747	0.561994	0.302118	0.050431	0.221501	0.277084	0.287395
62	0.271695	0.176358	0.679076	0.333600	0.046745	0.239564	0.374075	0.144732	0.368451	0.347255	0.639184	0.215961	0.192364	0.975961	0.138492	0.483539	0.046427	0.138903	0.463169	0.642837	0.043735	0.581325	0.220013	0.107217	0.544027	0.516706	0.483745	0.162971	0.101936	0.310526	0.169691	0.496681	0.086864	0.263753	0.677631	0.471428	0.306786	0.138314	0.602073	0.863632	0.398657	0.233808	0.827622	1.437978	0.047255	0.435469	0.346530	0.189600	0.068744	0.087698	0.365474	0.225031	0.282872	0.118477	0.111540	0.138097	0.129257	0.141586	0.511118	0.283061	0.038032	0.206302	0.264762	0.315665
63	0.260746	0.179771	0.665136	0.318188	0.044664	0.223149	0.353873	0.120073	0.382418	0.353848	0.714830	0.350180	0.191852	0.846314	0.125697	0.427205	0.047677	0.119733	0.491362	0.637503	0.060607	0.802387	0.187625	0.089446	0.125696	0.269443	0.431568	0.183265	0.076365	0.315685	0.162174	0.468133	0.077481	0.262861	0.793020	0.491112	0.305566	0.155944	0.615867	0.860374	0.391192	0.240946	0.921926	1.457140	0.038860	0.356483	0.338347	0.177680	0.055278	0.096233	0.276933	0.192896	0.270487	0.115609	0.092694	0.143883	0.116036	0.152370	0.507589	0.286963	0.036240	0.198842	0.210696	0.338464
64	0.246266	0.168737	0.739337	0.331114	0.046762	0.228955	0.351721	0.104423	0.414289	0.351886	0.730426	0.367690	0.210760	0.762259	0.118905	0.289703	0.042210	0.092695	0.553499	0.642546	0.094131	0.752687	0.190918	0.085128	0.081483	0.234986	0.367497	0.182237	0.060047	0.314953	0.149221	0.470870	0.066113	0.254387	0.857748	0.512902	0.305689	0.185935	0.571082	0.701210	0.375977	0.255771	1.029421	1.459098	0.038745	0.360774	0.289123	0.178800	0.055407	0.106593	0.264826	0.182209	0.262657	0.171342	0.081077	0.145610	0.110877	0.155138	0.489295	0.286311	0.035403	0.180134	0.187402	0.312456
65	0.205252	0.161039	0.761824	0.331073	0.060203	0.233487	0.355949	0.104257	0.413293	0.342620	0.957434	0.369959	0.249011	0.695598	0.109418	0.186528	0.033679	0.089847	0.605103	0.650563	0.101305	0.827435	0.204091	0.084296	0.077025	0.227075	0.313910	0.188931	0.059446	0.400920	0.137989	0.450117	0.060528	0.244307	0.818240	0.529562	0.303696	0.188872	0.464977	0.554183	0.220424	0.268165	1.097462	1.469666	0.035735	0.371826	0.236520	0.154169	0.052334	0.103985	0.380495	0.275100	0.227439	0.309153	0.083164	0.150032	0.114200	0.156464	0.443318	0.287608	0.037179	0.137878	0.185385	0.304593
66	0.111153	0.158314	0.766901	0.342548	0.069336	0.228972	0.351104	0.119591	0.380644	0.338090	1.119044	0.381726	0.361575	0.329421	0.095920	0.153278	0.033243	0.086808	0.618601	0.650456	0.100134	0.949746	0.207061	0.085289	0.077296	0.226651	0.284509	0.188893	0.052706	0.446560	0.122170	0.394548	0.056668	0.243289	0.773437	0.523293	0.299110	0.198358	0.424183	0.533171	0.177949	0.272804	1.108890	1.469824	0.028737	0.347874	0.253024	0.167203	0.051134	0.095724	0.522257	0.382806	0.213895	0.346117	0.115107	0.156057	0.155133	0.149650	0.443509	0.287158	0.062309	0.150498	0.155321	0.297303
67	0.069503	0.154152	0.742386	0.340655	0.083776	0.174234	0.331466	0.122969	0.376292	0.325328	1.152485	0.409769	0.359033	0.316011	0.095551	0.140665	0.031767	0.087521	0.538514	0.611580	0.110073	0.949555	0.201173	0.092815	0.076292	0.221640	0.283308	0.190737	0.048155	0.483515	0.113870	0.329664	0.049991	0.199803	0.732085	0.511021	0.298165	0.205153	0.422546	0.316794	0.170403	0.255394	1.087441	1.400652	0.027094	0.348413	0.250162	0.208290	0.051157	0.090528	0.711186	0.475727	0.174055	0.394834	0.115033	0.149104	0.320041	0.133508	0.440582	0.265468	0.073826	0.179831	0.126376	0.321275
68	0.060177	0.150008	0.632788	0.363027	0.105744	0.166085	0.297759	0.123873	0.357793	0.346385	1.079377	0.407442	0.354477	0.315219	0.115090	0.143890	0.030263	0.093036	0.472524	0.559726	0.114794	0.949991	0.186710	0.123284	0.067807	0.197845	0.277536	0.217030	0.053033	0.566590	0.125902	0.246314	0.048063	0.079808	0.725016	0.515778	0.297230	0.201283	0.407045	0.255102	0.157628	0.216461	1.021775	1.215504	0.030713	0.337465	0.232954	0.222135	0.051353	0.093352	0.787045	0.702616	0.156818	0.423183	0.123779	0.147645	0.458471	0.120447	0.423598	0.265688	0.082995	0.256991	0.114450	0.326868
69	0.053339	0.139880	0.530439	0.439487	0.131087	0.160200	0.228645	0.119011	0.235296	0.335942	1.006384	0.398137	0.361162	0.323802	0.187314	0.171928	0.033072	0.096585	0.471257	0.448931	0.118030	0.946398	0.163602	0.124509	0.052566	0.163791	0.271915	0.223789	0.050070	0.575423	0.170903	0.228648	0.046770	0.072999	0.691871	0.439130	0.287260	0.198505	0.367215	0.255046	0.138255	0.180253	0.931805	1.112195	0.041411	0.338678	0.222977	0.231742	0.063789	0.104503	0.788602	0.813359	0.109620	0.433355	0.146859	0.130284	0.497509	0.106937	0.392915	0.252316	0.088769	0.393457	0.125711	0.324335
70	0.052915	0.117957	0.506632	0.437397	0.132285	0.140408	0.200723	0.114347	0.198891	0.362581	0.943163	0.332413	0.364408	0.356784	0.258269	0.180238	0.051466	0.094489	0.478359	0.291038	0.119217	0.925487	0.150265	0.122464	0.038459	0.159551	0.209230	0.233857	0.045089	0.539779	0.215122	0.295650	0.044575	0.074272	0.690262	0.421546	0.238398	0.199397	0.348845	0.221041	0.104682	0.178737	0.921192	1.062288	0.040274	0.237526	0.231936	0.248629	0.066203	0.107351	0.866469	0.821021	0.109105	0.439234	0.166829	0.108431	0.559316	0.097795	0.344335	0.216719	0.092526	0.485956	0.145017	0.274162
71	0.049747	0.108908	0.524595	0.428964	0.134987	0.146087	0.199521	0.117328	0.139129	0.414091	0.939917	0.246627	0.361339	0.346538	0.276829	0.248147	0.200830	0.084449	0.587982	0.323418	0.119196	0.924359	0.148847	0.124749	0.027536	0.195437	0.173065	0.244833	0.041236	0.528020	0.224366	0.320816	0.036554	0.077387	0.670613	0.372275	0.198262	0.196013	0.351693	0.216932	0.083283	0.176720	1.041529	0.895539	0.036186	0.213907	0.236188	0.232085	0.079377	0.153182	1.009699	0.860628	0.106202	0.439977	0.180987	0.111773	0.682641	0.101146	0.301085	0.207905	0.105525	0.492918	0.151980	0.261038
72	0.045077	0.100318	0.548706	0.465644	0.169410	0.165803	0.174238	0.117394	0.135298	0.421242	0.775593	0.239128	0.357563	0.348565	0.278985	0.272700	0.224722	0.092139	0.627417	0.322979	0.119112	0.914907	0.153802	0.128712	0.025170	0.220888	0.177662	0.227964	0.037941	0.518807	0.224762	0.321854	0.029813	0.082708	0.566309	0.313794	0.155967	0.195081	0.355160	0.212218	0.082469	0.184027	1.167341	0.665071	0.041006	0.169927	0.242356	0.231427	0.094014	0.198533	1.094007	0.898967	0.105148	0.439745	0.184148	0.119522	0.773083	0.105406	0.369194	0.276043	0.111445	0.501861	0.156177	0.255384
73	0.041320	0.093225	0.539055	0.544548	0.206617	0.170993	0.158768	0.117708	0.145553	0.429230	0.461821	0.229301	0.354633	0.371274	0.308833	0.270365	0.239057	0.091967	0.576025	0.298371	0.111834	0.771325	0.155191	0.128254	0.043598	0.227364	0.200518	0.233103	0.038219	0.509487	0.225452	0.321205	0.028716	0.083413	0.387377	0.290496	0.061317	0.194074	0.323700	0.185959	0.074609	0.195624	1.200389	0.465168	0.067236	0.152019	0.274369	0.233512	0.100153	0.216366	1.135010	0.919682	0.103325	0.439165	0.180774	0.123588	0.815422	0.088712	0.456452	0.267516	0.116893	0.506716	0.160514	0.247904
74	0.058722	0.092676	0.408593	0.578734	0.229606	0.162954	0.153162	0.117173	0.153618	0.425565	0.275142	0.171458	0.337886	0.368309	0.362674	0.268782	0.255531	0.114170	0.563575	0.298589	0.084943	0.747298	0.146279	0.130352	0.061368	0.293184	0.260599	0.355116	0.038970	0.509965	0.224555	0.317818	0.023439	0.077050	0.283577	0.254637	0.057078	0.201816	0.231781	0.169689	0.070717	0.200130	1.137160	0.400992	0.107218	0.130876	0.272688	0.249592	0.099709	0.218735	1.132296	0.920875	0.078844	0.393792	0.179409	0.121161	0.818573	0.095431	0.496478	0.343812	0.120464	0.503786	0.159343	0.248314
75	0.074722	0.097966	0.347878	0.577256	0.228239	0.160703	0.145166	0.113157	0.233753	0.420053	0.256929	0.125309	0.328417	0.330657	0.392259	0.263695	0.366624	0.125915	0.589967	0.287767	0.072755	0.672048	0.144239	0.145638	0.061798	0.352513	0.282654	0.401940	0.038569	0.509217	0.224705	0.314467	0.017236	0.086713	0.271672	0.255976	0.065607	0.196485	0.157799	0.175714	0.069981	0.194630	1.051570	0.453976	0.119137	0.131216	0.254152	0.263664	0.101562	0.218894	1.096582	0.899124	0.073536	0.353043	0.169836	0.109293	0.830871	0.097707	0.510315	0.389956	0.115977	0.502586	0.153584	0.244446
76	0.090921	0.100601	0.369075	0.574854	0.251623	0.188670	0.146298	0.097305	0.233536	0.373286	0.261451	0.093456	0.169977	0.366872	0.405348	0.251366	0.374293	0.121578	0.610098	0.292110	0.070666	0.479901	0.147160	0.145647	0.061504	0.357949	0.282005	0.403908	0.038595	0.479224	0.224081	0.312393	0.024364	0.189496	0.291211	0.252472	0.096759	0.165864	0.134496	0.167830	0.074208	0.182971	1.048677	0.439575	0.138316	0.125220	0.228035	0.234947	0.102744	0.218583	1.025618	0.834431	0.074339	0.508352	0.155104	0.099685	0.842590	0.103367	0.496280	0.380696	0.132732	0.498705	0.143996	0.197433
77	0.098924	0.099669	0.425458	0.622377	0.401104	0.214664	0.145802	0.133560	0.249339	0.363500	0.270546	0.353907	0.134631	0.365158	0.406703	0.254504	0.377220	0.116062	0.606692	0.297671	0.052875	0.455661	0.146542	0.141548	0.067131	0.363597	0.309030	0.466285	0.047814	0.413383	0.236137	0.311096	0.028997	0.218414	0.277683	0.249659	0.163402	0.154204	0.133073	0.150377	0.071513	0.177012	1.118921	0.475365	0.145987	0.148004	0.227329	0.219933	0.106886	0.217940	0.908111	0.803813	0.102307	0.530398	0.153706	0.098038	0.823942	0.107275	0.502214	0.399842	0.139560	0.461374	0.143407	0.173841
78	0.126054	0.098368	0.487621	0.674384	0.397958	0.216818	0.148412	0.204108	0.264046	0.267899	0.237134	0.447081	0.124516	0.349908	0.403377	0.255405	0.382903	0.114834	0.703388	0.282822	0.037445	0.455100	0.154932	0.118488	0.070175	0.363151	0.474933	0.539859	0.051990	0.391978	0.265757	0.297638	0.033461	0.262177	0.218916	0.220185	0.164557	0.143422	0.131068	0.136685	0.116620	0.216506	1.185545	0.585969	0.175241	0.157100	0.229614	0.228973	0.123721	0.215955	0.877368	0.596963	0.095057	0.604753	0.141284	0.098642	0.754454	0.108482	0.585996	0.417650	0.139319	0.372479	0.132814	0.172420
79	0.174462	0.105084	0.552240	0.669987	0.401955	0.218280	0.147688	0.227384	0.261284	0.262216	0.191423	0.660201	0.111381	0.342871	0.386050	0.244642	0.361990	0.117692	0.749538	0.240340	0.025565	0.483992	0.168071	0.125350	0.112051	0.352518	0.620946	0.535712	0.047320	0.243496	0.288990	0.300746	0.033929	0.302311	0.183854	0.215508	0.165321	0.127790	0.129445	0.125839	0.204032	0.249985	1.213298	0.669627	0.188147	0.188404	0.219747	0.235075	0.134513	0.212050	0.886974	0.504518	0.110034	0.650614	0.120018	0.101154	0.719165	0.108704	0.656934	0.417608	0.141354	0.211631	0.113370	0.169055
80	0.211535	0.111921	0.552859	0.652253	0.409126	0.222355	0.138371	0.225568	0.248063	0.241897	0.182118	0.701342	0.080562	0.287014	0.374168	0.252712	0.322008	0.122901	0.681654	0.304757	0.023717	0.593823	0.168597	0.132379	0.131253	0.326440	0.638314	0.526218	0.045243	0.176447	0.277542	0.299603	0.034482	0.443315	0.230964	0.237837	0.165758	0.124805	0.131360	0.115278	0.225703	0.252331	1.217269	0.725755	0.191624	0.197790	0.217921	0.259458	0.154010	0.211716	0.815833	0.489408	0.160210	0.648443	0.095464	0.095358	0.700880	0.107654	0.740543	0.421322	0.182104	0.197266	0.102127	0.123529
81	0.258186	0.105200	0.558352	0.651281	0.407007	0.216666	0.140461	0.221496	0.246940	0.231404	0.204433	0.705220	0.060291	0.282003	0.365086	0.208452	0.307954	0.127308	0.657401	0.545344	0.032292	0.615384	0.158725	0.130153	0.146566	0.301554	0.680583	0.524836	0.049993	0.170301	0.244646	0.238681	0.035806	0.461334	0.355534	0.335636	0.165834	0.126378	0.125541	0.102779	0.333766	0.258480	1.175131	0.746183	0.193866	0.189362	0.224279	0.322026	0.155138	0.181855	0.653676	0.431051	0.162508	0.650792	0.064452	0.094575	0.576064	0.104984	0.798178	0.426070	0.182555	0.172419	0.094541	0.049571
82	0.281440	0.105001	0.592617	0.636287	0.392518	0.232440	0.163092	0.221023	0.195941	0.195396	0.493502	0.706583	0.059127	0.273799	0.363598	0.153069	0.318849	0.122127	0.671033	0.595982	0.035328	0.658902	0.168959	0.193618	0.148910	0.302851	0.790740	0.536405	0.052459	0.191609	0.231584	0.189835	0.050066	0.563948	0.429107	0.413377	0.168294	0.128115	0.117324	0.095642	0.343742	0.258343	1.061080	0.727254	0.198000	0.188030	0.172858	0.363743	0.382296	0.176642	0.530053	0.375429	0.187721	0.661252	0.070145	0.136905	0.450164	0.142103	0.782816	0.369197	0.178110	0.151400	0.084537	0.036585
83	0.285419	0.111453	0.639620	0.606320	0.372958	0.262452	0.184162	0.243241	0.176950	0.136873	0.659318	0.708566	0.058269	0.265079	0.352389	0.156037	0.194049	0.095988	0.713969	0.611105	0.040400	0.613574	0.165015	0.323323	0.150712	0.257244	0.859017	0.499634	0.063892	0.294335	0.231026	0.189738	0.053402	0.607782	0.441945	0.405019	0.185676	0.119548	0.106121	0.096367	0.345792	0.253787	0.939274	0.751080	0.191113	0.180702	0.142236	0.389160	0.532419	0.181837	0.522853	0.369981	0.196081	0.663147	0.070515	0.135263	0.377393	0.168126	0.726706	0.367877	0.179952	0.141703	0.073200	0.031756
84	0.320125	0.129348	0.646992	0.607704	0.364083	0.268611	0.192193	0.271036	0.181830	0.111303	0.698672	0.676054	0.055538	0.274536	0.309293	0.163854	0.168071	0.102310	0.781474	0.695908	0.049857	0.602274	0.164291	0.328205	0.157465	0.144837	0.877361	0.430520	0.109068	0.439973	0.229935	0.188491	0.062172	0.608795	0.450463	0.420761	0.189794	0.094242	0.094262	0.100874	0.359393	0.245169	0.907175	0.821634	0.186397	0.179071	0.161740	0.372798	0.565625	0.183800	0.631657	0.364124	0.194771	0.659778	0.097794	0.138254	0.402384	0.170734	0.696052	0.322910	0.226967	0.135581	0.072312	0.035397
85	0.397516	0.150044	0.652618	0.618579	0.365745	0.271390	0.193038	0.282077	0.138540	0.100030	0.872613	0.576392	0.057494	0.286270	0.267684	0.178982	0.178460	0.133738	0.803894	0.719547	0.051392	0.556114	0.151027	0.324161	0.161024	0.124007	0.879545	0.466973	0.144350	0.448369	0.228988	0.188157	0.063301	0.604462	0.479936	0.419123	0.189197	0.087394	0.092101	0.111874	0.380169	0.239895	0.924008	0.827257	0.173168	0.179354	0.194911	0.378782	0.583804	0.191644	0.642716	0.373673	0.194703	0.599559	0.124021	0.203959	0.461986	0.167762	0.696036	0.246782	0.255016	0.118569	0.102222	0.128944
86	0.441042	0.149248	0.637424	0.623174	0.325266	0.244762	0.192367	0.285601	0.130593	0.113626	0.976230	0.378503	0.066185	0.262792	0.242043	0.186783	0.191144	0.165776	0.770371	0.719005	0.051356	0.543711	0.139112	0.332740	0.160840	0.101878	0.891690	0.492315	0.196027	0.553388	0.222870	0.182438	0.061754	0.578546	0.527825	0.416372	0.187399	0.082607	0.108138	0.112310	0.400124	0.242723	0.908814	0.795157	0.166549	0.168955	0.198776	0.379777	0.590207	0.193776	0.700146	0.404668	0.191381	0.459393	0.124541	0.221823	0.541296	0.192588	0.728142	0.306057	0.253719	0.104339	0.104909	0.151537
87	0.443293	0.158839	0.640167	0.583628	0.159474	0.225561	0.188058	0.262995	0.123663	0.110221	1.003928	0.176417	0.072657	0.297469	0.229241	0.184534	0.226242	0.216562	0.677095	0.714978	0.054569	0.542532	0.139519	0.369931	0.159103	0.104136	0.834707	0.462829	0.252124	0.563462	0.223168	0.176404	0.062449	0.574697	0.583372	0.409450	0.184109	0.079446	0.134171	0.134541	0.420257	0.244424	0.834235	0.786802	0.134175	0.158976	0.245992	0.387075	0.620001	0.195722	0.767981	0.396670	0.177294	0.426570	0.125791	0.240669	0.632308	0.198402	0.743969	0.334040	0.263653	0.079603	0.099287	0.228986
88	0.543274	0.173297	0.672016	0.527600	0.174759	0.223745	0.169315	0.218404	0.140204	0.113602	0.997902	0.172554	0.222165	0.317071	0.225938	0.179187	0.255057	0.236475	0.616332	0.693914	0.057351	0.561492	0.153722	0.379088	0.147502	0.104784	0.707240	0.535539	0.299336	0.569408	0.217338	0.175854	0.077005	0.546934	0.638720	0.417933	0.182447	0.087083	0.144081	0.172513	0.550263	0.240280	0.710171	0.764271	0.117343	0.134749	0.315464	0.389281	0.674032	0.199028	0.834242	0.433772	0.177845	0.244771	0.133233	0.253410	0.624344	0.202323	0.732732	0.351911	0.271629	0.063748	0.105577	0.261259
89	0.613289	0.183900	0.630561	0.466736	0.162792	0.222822	0.158278	0.192013	0.222191	0.106361	0.941733	0.177781	0.256462	0.342461	0.222549	0.177834	0.327767	0.245953	0.608433	0.574438	0.057927	0.550245	0.156841	0.377527	0.159589	0.104434	0.679628	0.560012	0.397128	0.579399	0.189934	0.178670	0.082635	0.507485	0.661351	0.428288	0.120496	0.086385	0.145102	0.190553	0.612443	0.205232	0.592849	0.684053	0.111657	0.133742	0.337935	0.377208	0.688336	0.220252	0.895389	0.543247	0.146332	0.257778	0.154120	0.256220	0.634973	0.206040	0.697937	0.365748	0.244389	0.055922	0.117182	0.261911
90	0.603911	0.187913	0.622905	0.462259	0.159468	0.215822	0.156919	0.189961	0.251227	0.106315	0.788954	0.167555	0.264113	0.351294	0.174958	0.153099	0.421456	0.308515	0.641618	0.444235	0.055737	0.430755	0.156233	0.374548	0.183995	0.093808	0.666308	0.625311	0.399254	0.605879	0.136862	0.175947	0.082762	0.432130	0.632146	0.411735	0.118351	0.084477	0.156738	0.198779	0.605147	0.176929	0.537187	0.573558	0.112740	0.130477	0.330863	0.320590	0.692961	0.244039	0.901051	0.590352	0.143321	0.268910	0.160009	0.256693	0.645570	0.216318	0.619299	0.384931	0.242335	0.055814	0.122055	0.263767
91	0.590010	0.188331	0.613072	0.505891	0.164828	0.211799	0.151442	0.189951	0.250864	0.107174	0.784354	0.165895	0.298494	0.398948	0.143942	0.147337	0.903778	0.457993	0.659011	0.439878	0.052063	0.409389	0.157377	0.373027	0.219465	0.078814	0.552812	0.631176	0.424131	0.675257	0.100504	0.203288	0.083678	0.398892	0.597155	0.380934	0.124401	0.084074	0.180479	0.245390	0.612648	0.181642	0.520690	0.500028	0.096223	0.129323	0.348217	0.274698	0.695735	0.251207	0.896554	0.592753	0.151387	0.269607	0.158250	0.248533	0.648744	0.229696	0.582806	0.378441	0.244017	0.057306	0.129744	0.264037
92	0.587081	0.186837	0.586616	0.501803	0.169810	0.162697	0.124738	0.189204	0.322205	0.105653	0.663648	0.157736	0.314376	0.507204	0.172065	0.133211	0.916002	0.461745	0.706679	0.375703	0.053250	0.285451	0.132369	0.344575	0.224262	0.076601	0.668485	0.646573	0.445386	0.690068	0.089694	0.198539	0.086108	0.211623	0.588805	0.433925	0.137707	0.084772	0.202848	0.271696	0.561733	0.172394	0.518173	0.592057	0.079184	0.130684	0.392300	0.234973	0.563779	0.233996	0.889718	0.583918	0.131459	0.247501	0.156381	0.236350	0.640543	0.216330	0.567837	0.378467	0.241242	0.055807	0.133848	0.265587
93	0.599613	0.184610	0.526974	0.458656	0.170598	0.114404	0.094494	0.152230	0.368203	0.093757	0.526907	0.286102	0.317205	0.531639	0.182302	0.157482	0.920162	0.457988	0.699496	0.264970	0.052329	0.242933	0.127069	0.221063	0.221478	0.075376	0.786231	0.645385	0.447454	0.855283	0.086184	0.190531	0.094183	0.169779	0.589516	0.465564	0.166357	0.086868	0.211690	0.291728	0.603972	0.175468	0.520238	0.622577	0.079330	0.141676	0.424440	0.248803	0.474680	0.226997	0.831591	0.566635	0.165108	0.249157	0.158904	0.237178	0.620621	0.195547	0.569126	0.380591	0.198571	0.052058	0.133947	0.265930
94	0.586770	0.170969	0.557196	0.618325	0.186675	0.077899	0.083921	0.105320	0.372546	0.097677	0.454302	0.307997	0.333066	0.513909	0.171517	0.189532	0.913445	0.448690	0.685359	0.274908	0.044466	0.241757	0.127437	0.209921	0.255325	0.081485	0.819176	0.636756	0.447362	0.860982	0.095980	0.189215	0.094265	0.162525	0.584867	0.502962	0.269320	0.087794	0.217589	0.310488	0.641931	0.174439	0.465821	0.575955	0.105347	0.151193	0.423304	0.237775	0.442443	0.221792	0.743851	0.556788	0.197107	0.249487	0.132328	0.225335	0.599759	0.185760	0.569994	0.441910	0.136980	0.056951	0.130116	0.246730
95	0.537376	0.151448	0.577356	0.703920	0.205966	0.093564	0.079327	0.075349	0.372680	0.101404	0.471492	0.333125	0.338801	0.530296	0.157703	0.206821	0.908851	0.429714	0.678588	0.371138	0.042280	0.240352	0.130029	0.207417	0.321889	0.086391	0.813164	0.609453	0.442152	0.814351	0.116806	0.198360	0.093778	0.161499	0.552030	0.595465	0.267236	0.090995	0.220364	0.328658	0.659354	0.180534	0.358764	0.502793	0.125469	0.143679	0.419990	0.237006	0.421976	0.216728	0.737578	0.551406	0.216918	0.248962	0.145203	0.165951	0.535973	0.185691	0.562328	0.451941	0.124598	0.060150	0.161418	0.234126
96	0.499118	0.151586	0.583543	0.795475	0.225476	0.105725	0.116318	0.094345	0.333488	0.102043	0.487289	0.352519	0.337463	0.534120	0.154551	0.195618	0.898194	0.411120	0.711365	0.605180	0.042250	0.239414	0.134668	0.195069	0.351611	0.128504	0.823045	0.618820	0.433293	0.805095	0.120538	0.202032	0.110957	0.172776	0.505624	0.630262	0.270863	0.104194	0.225613	0.396587	0.659919	0.191019	0.337034	0.498514	0.127471	0.133455	0.395931	0.210465	0.426968	0.224772	0.685206	0.526766	0.225421	0.248078	0.156218	0.159223	0.499177	0.172826	0.602917	0.506643	0.098992	0.066918	0.200311	0.161488
97	0.494784	0.146541	0.541714	0.825058	0.297870	0.153375	0.233059	0.313030	0.353173	0.120385	0.649550	0.372461	0.337104	0.511753	0.155841	0.192134	0.893573	0.403229	0.772468	0.614225	0.038550	0.234299	0.140374	0.108698	0.366845	0.185064	0.832964	0.751569	0.417577	0.764118	0.117018	0.203044	0.124931	0.169083	0.479354	0.649844	0.274552	0.105914	0.241489	0.406319	0.662520	0.187362	0.347350	0.504968	0.190601	0.141878	0.351293	0.168741	0.469008	0.232242	0.618070	0.525585	0.286960	0.236655	0.156855	0.143917	0.211100	0.152822	0.645631	0.525569	0.062713	0.121070	0.223398	0.097042
98	0.384854	0.127470	0.533916	0.816842	0.293022	0.213954	0.313481	0.335004	0.386949	0.139506	0.693688	0.376785	0.287999	0.534865	0.164222	0.210017	0.843159	0.404862	0.837812	0.623081	0.034969	0.184630	0.120607	0.058658	0.400554	0.200804	0.862692	0.807857	0.381911	0.743584	0.114247	0.206823	0.144563	0.160340	0.450487	0.777006	0.276642	0.136528	0.238024	0.420910	0.658624	0.183892	0.331893	0.538513	0.209363	0.130354	0.332012	0.185159	0.409470	0.227061	0.535238	0.470296	0.323153	0.161501	0.147368	0.148678	0.210818	0.146099	0.603186	0.531623	0.056145	0.130714	0.224207	0.097061
99	0.212514	0.108829	0.644984	0.810419	0.291866	0.219371	0.336450	0.435568	0.342669	0.147246	0.835356	0.400769	0.224786	0.510915	0.181329	0.211101	0.536981	0.243836	0.814283	0.647074	0.035002	0.147345	0.105765	0.046077	0.386396	0.201737	0.884028	0.844732	0.371487	0.740014	0.109837	0.213535	0.237220	0.138050	0.428642	0.837833	0.276880	0.178654	0.260079	0.421198	0.557846	0.185467	0.315220	0.547494	0.206606	0.130275	0.332085	0.193007	0.440465	0.200828	0.497320	0.371713	0.320159	0.134021	0.139873	0.148715	0.189520	0.141896	0.582524	0.528534	0.066930	0.131967	0.221398	0.093437
100	0.206229	0.096904	0.711476	0.809139	0.284481	0.218911	0.352591	0.480194	0.312123	0.161306	0.855050	0.388611	0.221367	0.506406	0.189419	0.211354	0.205763	0.159863	0.701332	0.686751	0.037657	0.133363	0.132261	0.058461	0.373255	0.206918	0.930634	0.842670	0.244405	0.729701	0.099471	0.212447	0.249931	0.114836	0.416060	0.841728	0.277628	0.179456	0.276316	0.406215	0.507329	0.191530	0.326922	0.548768	0.205456	0.127643	0.311110	0.214224	0.521984	0.173026	0.527052	0.296343	0.322197	0.085148	0.140053	0.143290	0.136530	0.123325	0.624811	0.509809	0.083160	0.135741	0.218014	0.093013
101	0.195849	0.098046	0.729789	0.821567	0.282048	0.218301	0.442358	0.482408	0.299654	0.161507	0.853499	0.362772	0.175786	0.488638	0.185225	0.210819	0.157261	0.157840	0.607232	0.704156	0.036695	0.103788	0.138222	0.065078	0.382896	0.209862	0.841329	0.834928	0.238571	0.719170	0.094810	0.205192	0.253042	0.116951	0.411479	0.788628	0.277961	0.222193	0.276420	0.404779	0.506073	0.201790	0.330126	0.548878	0.203869	0.126018	0.254385	0.203342	0.603956	0.211652	0.627473	0.316686	0.323929	0.069282	0.140905	0.130325	0.097399	0.098669	0.623976	0.509614	0.092821	0.146466	0.224724	0.094515
