	110_P_T3_sh_L_ND_A_03.c3d	110_P_T3_sh_L_ND_A_03.c3d	110_P_T3_sh_L_ND_A_03.c3d	110_P_T3_sh_L_ND_A_03.c3d	110_P_T3_sh_L_ND_A_03.c3d	110_P_T3_sh_L_ND_A_03.c3d	110_P_T3_sh_L_ND_A_03.c3d	110_P_T3_sh_L_ND_A_03.c3d	110_P_T3_sh_L_ND_A_04.c3d	110_P_T3_sh_L_ND_A_04.c3d	110_P_T3_sh_L_ND_A_04.c3d	110_P_T3_sh_L_ND_A_04.c3d	110_P_T3_sh_L_ND_A_04.c3d	110_P_T3_sh_L_ND_A_04.c3d	110_P_T3_sh_L_ND_A_04.c3d	110_P_T3_sh_L_ND_A_04.c3d	110_P_T3_sh_L_ND_A_05.c3d	110_P_T3_sh_L_ND_A_05.c3d	110_P_T3_sh_L_ND_A_05.c3d	110_P_T3_sh_L_ND_A_05.c3d	110_P_T3_sh_L_ND_A_05.c3d	110_P_T3_sh_L_ND_A_05.c3d	110_P_T3_sh_L_ND_A_05.c3d	110_P_T3_sh_L_ND_A_05.c3d	110_P_T3_sh_L_ND_A_06.c3d	110_P_T3_sh_L_ND_A_06.c3d	110_P_T3_sh_L_ND_A_06.c3d	110_P_T3_sh_L_ND_A_06.c3d	110_P_T3_sh_L_ND_A_06.c3d	110_P_T3_sh_L_ND_A_06.c3d	110_P_T3_sh_L_ND_A_06.c3d	110_P_T3_sh_L_ND_A_06.c3d	110_P_T3_sh_L_ND_A_07.c3d	110_P_T3_sh_L_ND_A_07.c3d	110_P_T3_sh_L_ND_A_07.c3d	110_P_T3_sh_L_ND_A_07.c3d	110_P_T3_sh_L_ND_A_07.c3d	110_P_T3_sh_L_ND_A_07.c3d	110_P_T3_sh_L_ND_A_07.c3d	110_P_T3_sh_L_ND_A_07.c3d	110_P_T3_sh_L_ND_A_08.c3d	110_P_T3_sh_L_ND_A_08.c3d	110_P_T3_sh_L_ND_A_08.c3d	110_P_T3_sh_L_ND_A_08.c3d	110_P_T3_sh_L_ND_A_08.c3d	110_P_T3_sh_L_ND_A_08.c3d	110_P_T3_sh_L_ND_A_08.c3d	110_P_T3_sh_L_ND_A_08.c3d
	Biceps femoris_lat	Semitendinosus_lat	Vastus lateralis_lat	Vastus medialis_lat	Biceps femoris_med	Semitendinosus_med	Vastus lateralis_med	Vastus medialis_med	Biceps femoris_lat	Semitendinosus_lat	Vastus lateralis_lat	Vastus medialis_lat	Biceps femoris_med	Semitendinosus_med	Vastus lateralis_med	Vastus medialis_med	Biceps femoris_lat	Semitendinosus_lat	Vastus lateralis_lat	Vastus medialis_lat	Biceps femoris_med	Semitendinosus_med	Vastus lateralis_med	Vastus medialis_med	Biceps femoris_lat	Semitendinosus_lat	Vastus lateralis_lat	Vastus medialis_lat	Biceps femoris_med	Semitendinosus_med	Vastus lateralis_med	Vastus medialis_med	Biceps femoris_lat	Semitendinosus_lat	Vastus lateralis_lat	Vastus medialis_lat	Biceps femoris_med	Semitendinosus_med	Vastus lateralis_med	Vastus medialis_med	Biceps femoris_lat	Semitendinosus_lat	Vastus lateralis_lat	Vastus medialis_lat	Biceps femoris_med	Semitendinosus_med	Vastus lateralis_med	Vastus medialis_med
	P2D	P2D	P2D	P2D	P2D	P2D	P2D	P2D	P2D	P2D	P2D	P2D	P2D	P2D	P2D	P2D	P2D	P2D	P2D	P2D	P2D	P2D	P2D	P2D	P2D	P2D	P2D	P2D	P2D	P2D	P2D	P2D	P2D	P2D	P2D	P2D	P2D	P2D	P2D	P2D	P2D	P2D	P2D	P2D	P2D	P2D	P2D	P2D
	EMG_lat	EMG_lat	EMG_lat	EMG_lat	EMG_med	EMG_med	EMG_med	EMG_med	EMG_lat	EMG_lat	EMG_lat	EMG_lat	EMG_med	EMG_med	EMG_med	EMG_med	EMG_lat	EMG_lat	EMG_lat	EMG_lat	EMG_med	EMG_med	EMG_med	EMG_med	EMG_lat	EMG_lat	EMG_lat	EMG_lat	EMG_med	EMG_med	EMG_med	EMG_med	EMG_lat	EMG_lat	EMG_lat	EMG_lat	EMG_med	EMG_med	EMG_med	EMG_med	EMG_lat	EMG_lat	EMG_lat	EMG_lat	EMG_med	EMG_med	EMG_med	EMG_med
ITEM	Y	Y	Y	Y	Y	Y	Y	Y	Y	Y	Y	Y	Y	Y	Y	Y	Y	Y	Y	Y	Y	Y	Y	Y	Y	Y	Y	Y	Y	Y	Y	Y	Y	Y	Y	Y	Y	Y	Y	Y	Y	Y	Y	Y	Y	Y	Y	Y
1	0.266194	0.275895	0.153681	0.299105	0.164410	0.191389	0.325506	0.194147	0.322169	0.286280	0.095274	0.157553	0.697796	0.492438	0.239301	0.399877	0.208551	0.150420	0.414406	0.371780	0.240134	0.207512	0.121755	0.155544	0.785777	0.485728	0.200997	0.222142	0.715105	0.538140	0.335636	0.274038	0.322911	0.290351	0.249434	0.415222	0.280922	0.163437	0.181637	0.208673	0.369789	0.826126	0.094210	0.188028	0.310686	0.309534	0.125069	0.248626
2	0.277542	0.274369	0.123673	0.298280	0.157003	0.191066	0.197637	0.192095	0.325520	0.288439	0.101006	0.185716	0.620632	0.453794	0.244037	0.418282	0.218817	0.188162	0.444258	0.399911	0.237612	0.211763	0.116011	0.207789	0.782410	0.448625	0.194989	0.224361	0.727117	0.580064	0.333511	0.299896	0.341052	0.299034	0.225067	0.417308	0.236958	0.168009	0.173414	0.208162	0.248444	0.642599	0.102109	0.199709	0.322321	0.335840	0.116804	0.247789
3	0.292301	0.263011	0.139067	0.344867	0.145673	0.175577	0.170846	0.211509	0.337140	0.265341	0.131172	0.186803	0.592037	0.413969	0.227177	0.461143	0.221426	0.242549	0.458186	0.464472	0.223322	0.221122	0.121849	0.267555	0.776877	0.352471	0.186128	0.224707	0.731280	0.597543	0.283935	0.300626	0.351885	0.321142	0.222385	0.292825	0.201373	0.183660	0.188000	0.208777	0.331125	0.205852	0.161338	0.199596	0.372637	0.393452	0.134700	0.247193
4	0.294039	0.262655	0.208659	0.360399	0.119004	0.170816	0.183780	0.231474	0.374179	0.251049	0.180991	0.190529	0.500595	0.394049	0.250703	0.464973	0.215722	0.252026	0.473666	0.478886	0.213778	0.222844	0.114760	0.276467	0.762623	0.322190	0.181128	0.231223	0.731565	0.599235	0.252907	0.281004	0.363299	0.324888	0.216874	0.275240	0.187904	0.198492	0.240579	0.212364	0.477420	0.323313	0.187907	0.189337	0.386877	0.412895	0.153434	0.248058
5	0.300183	0.268917	0.248048	0.335731	0.123967	0.166272	0.221120	0.232339	0.383425	0.250453	0.186476	0.192811	0.416010	0.381877	0.258688	0.591383	0.274308	0.290496	0.472758	0.481698	0.216141	0.225277	0.145683	0.278661	0.723908	0.301052	0.177988	0.232450	0.732276	0.604911	0.255664	0.272716	0.366036	0.322278	0.355470	0.205449	0.181066	0.200063	0.273301	0.358054	0.553543	0.366995	0.188180	0.155113	0.390226	0.421649	0.167039	0.247168
6	0.310799	0.300021	0.263241	0.281296	0.131476	0.170227	0.230372	0.258214	0.387717	0.251598	0.188818	0.185168	0.269321	0.345742	0.262346	0.731235	0.340425	0.348788	0.457304	0.485745	0.216703	0.225027	0.310512	0.321925	0.726269	0.298645	0.158023	0.203955	0.725210	0.605025	0.252562	0.287236	0.331191	0.271490	0.450742	0.164845	0.185771	0.204056	0.279115	0.507967	0.570306	0.366358	0.185553	0.138314	0.386915	0.425258	0.165709	0.182601
7	0.312249	0.309077	0.266413	0.264717	0.152729	0.180978	0.226121	0.305517	0.387489	0.244693	0.199364	0.163101	0.263759	0.340485	0.285135	0.754978	0.394063	0.365459	0.466852	0.486931	0.238810	0.225748	0.477340	0.753568	0.711381	0.290014	0.203099	0.169273	0.651387	0.556707	0.236206	0.328391	0.288641	0.285804	0.458962	0.175212	0.192367	0.220350	0.278587	0.517828	0.581820	0.367691	0.227177	0.135932	0.389356	0.424147	0.163210	0.204059
8	0.309687	0.309150	0.261400	0.285657	0.140692	0.175755	0.236486	0.311195	0.437140	0.255667	0.226773	0.162328	0.261036	0.317538	0.287509	0.779109	0.408197	0.367184	0.543794	0.488960	0.238284	0.222626	0.536002	1.108843	0.664361	0.264723	0.340423	0.168552	0.598356	0.512021	0.184308	0.545332	0.247063	0.246494	0.457004	0.241259	0.191813	0.214821	0.260141	0.540813	0.584173	0.376205	0.337526	0.146573	0.394255	0.400656	0.163027	0.344251
9	0.321470	0.298745	0.294617	0.284412	0.153117	0.180378	0.205997	0.495840	0.447615	0.261462	0.252633	0.175777	0.254647	0.268090	0.250356	0.757023	0.442181	0.376178	0.583060	0.496780	0.252608	0.246065	0.538493	1.135005	0.577237	0.251189	0.388784	0.199496	0.595169	0.533018	0.183750	0.590701	0.244095	0.240889	0.571683	0.226103	0.191076	0.200070	0.253793	0.534551	0.635651	0.390385	0.444031	0.203971	0.386599	0.344226	0.185290	0.353097
10	0.313879	0.249903	0.336394	0.289312	0.157078	0.182401	0.206737	0.590726	0.492486	0.339361	0.261720	0.174660	0.223139	0.209815	0.225936	0.804485	0.556219	0.431174	0.578421	0.477416	0.320298	0.242399	0.577323	1.236374	0.586216	0.249011	0.384965	0.212925	0.297362	0.452095	0.213851	0.690992	0.208714	0.232371	0.643597	0.228140	0.226404	0.212622	0.256027	0.534646	0.842407	0.462361	0.469365	0.220511	0.376743	0.334620	0.224629	0.418442
11	0.309195	0.205463	0.349127	0.317577	0.163098	0.183208	0.208423	0.641855	0.544429	0.405793	0.256071	0.173936	0.164944	0.153203	0.277975	0.858515	0.568740	0.458012	0.531014	0.386374	0.360557	0.235361	0.657769	1.333915	0.340545	0.171603	0.403770	0.293920	0.214599	0.403086	0.262447	0.806920	0.223379	0.253771	0.679683	0.238348	0.255088	0.222335	0.252743	0.573075	0.842603	0.462459	0.470558	0.224562	0.295782	0.326959	0.233942	0.449894
12	0.305328	0.214128	0.353515	0.326200	0.174887	0.182804	0.239022	0.816090	0.552237	0.414445	0.259986	0.171663	0.161775	0.172046	0.293090	0.851456	0.609313	0.517978	0.485559	0.373948	0.364342	0.251399	0.711221	1.336856	0.373718	0.269889	0.481417	0.333021	0.197275	0.371762	0.336008	0.801591	0.279620	0.315278	0.681253	0.279192	0.369476	0.314804	0.260648	0.638026	0.843347	0.465785	0.486722	0.237754	0.281343	0.315200	0.290470	0.451924
13	0.282538	0.220920	0.358651	0.290036	0.191725	0.173433	0.388125	0.855532	0.549976	0.414019	0.258803	0.159868	0.161774	0.157081	0.277918	0.923997	0.638713	0.550207	0.478458	0.325012	0.393119	0.351137	0.716681	1.329506	0.501698	0.373993	0.593643	0.333994	0.230045	0.386091	0.350979	0.801315	0.288432	0.339458	0.574963	0.292439	0.384847	0.360909	0.271485	0.651665	0.792327	0.443555	0.548874	0.238544	0.228724	0.255856	0.314677	0.455822
14	0.287475	0.225056	0.326542	0.287293	0.232974	0.230051	0.438471	0.855704	0.544113	0.414663	0.271701	0.170658	0.158214	0.144676	0.292720	0.845278	0.643079	0.549218	0.467310	0.240133	0.430720	0.443749	0.736197	1.332616	0.503485	0.378185	0.664046	0.337467	0.286555	0.426549	0.351690	0.801300	0.299476	0.323414	0.536151	0.302866	0.381134	0.351347	0.250690	0.654204	0.710338	0.377423	0.616442	0.246814	0.193696	0.241937	0.307161	0.469437
15	0.271026	0.228606	0.298188	0.289404	0.261970	0.321122	0.423552	0.856736	0.518453	0.413662	0.250960	0.171973	0.159127	0.146166	0.293179	0.724459	0.635893	0.540935	0.455537	0.226929	0.440011	0.460229	0.733386	1.349094	0.511065	0.399939	0.680285	0.336404	0.316994	0.433341	0.359361	0.790259	0.295371	0.310726	0.540902	0.283294	0.383328	0.355969	0.222011	0.593991	0.656315	0.348992	0.630681	0.262830	0.204828	0.256829	0.296534	0.472582
16	0.224590	0.195905	0.285700	0.288776	0.273448	0.346742	0.424090	0.836605	0.517453	0.414793	0.274517	0.171871	0.161038	0.145183	0.272802	0.705136	0.613229	0.520680	0.450122	0.218738	0.438750	0.462430	0.694747	1.333470	0.511100	0.416426	0.681021	0.337293	0.321050	0.426700	0.355992	0.781737	0.349074	0.352119	0.510531	0.244819	0.384393	0.362739	0.229921	0.457423	0.643196	0.351532	0.630523	0.278924	0.208370	0.264586	0.295949	0.470077
17	0.220296	0.185989	0.289823	0.270204	0.268000	0.344710	0.421338	0.832990	0.519790	0.417283	0.297017	0.194672	0.158601	0.140285	0.268009	0.678187	0.576184	0.483471	0.436074	0.209787	0.424066	0.463569	0.639081	1.090548	0.510806	0.427243	0.675961	0.342367	0.321141	0.426978	0.338936	0.691567	0.370244	0.382019	0.350771	0.242012	0.381027	0.353382	0.231732	0.444815	0.641494	0.352662	0.610718	0.286847	0.208294	0.289139	0.293277	0.463304
18	0.219651	0.184689	0.303361	0.242536	0.268293	0.353935	0.415526	0.813192	0.524406	0.432484	0.297252	0.244758	0.166463	0.143400	0.270319	0.676371	0.549820	0.476835	0.388539	0.209667	0.422957	0.463143	0.626060	0.803047	0.511005	0.428985	0.639336	0.342302	0.312854	0.420818	0.339622	0.581134	0.365205	0.375944	0.258424	0.239728	0.384779	0.352855	0.248391	0.408278	0.642452	0.344264	0.547322	0.275483	0.201668	0.305716	0.289415	0.359739
19	0.185630	0.185384	0.281690	0.240541	0.283809	0.377676	0.415866	0.686941	0.483533	0.432148	0.294868	0.251933	0.167075	0.144498	0.259915	0.529722	0.526892	0.472350	0.289046	0.211714	0.403288	0.447802	0.621081	0.780256	0.511319	0.430846	0.609877	0.328157	0.295760	0.392203	0.343563	0.546948	0.339802	0.340860	0.183510	0.219130	0.388245	0.356690	0.250574	0.404912	0.534842	0.314762	0.478534	0.242099	0.197628	0.311677	0.281936	0.332932
20	0.207503	0.185466	0.230768	0.232076	0.290889	0.392397	0.414686	0.660513	0.475559	0.429270	0.305337	0.265255	0.156587	0.140958	0.203950	0.443099	0.458960	0.458939	0.254780	0.203559	0.336881	0.441778	0.573709	0.575026	0.465251	0.419172	0.613243	0.332767	0.288182	0.398182	0.358089	0.245159	0.301555	0.290219	0.182782	0.157275	0.372529	0.365332	0.246437	0.407193	0.254653	0.225424	0.464191	0.212858	0.194218	0.332619	0.258623	0.281295
21	0.213903	0.185352	0.203527	0.191516	0.288586	0.390029	0.417100	0.524669	0.399932	0.355058	0.297194	0.311265	0.110385	0.090797	0.192954	0.396169	0.362198	0.415480	0.253814	0.193702	0.292727	0.442726	0.487828	0.344501	0.472651	0.442412	0.613540	0.305436	0.279047	0.403712	0.319793	0.120864	0.281924	0.266003	0.162577	0.142538	0.371136	0.383806	0.264393	0.352754	0.270854	0.222877	0.465107	0.203151	0.197448	0.354347	0.243307	0.189938
22	0.205136	0.187469	0.194399	0.181701	0.318334	0.470237	0.357775	0.263333	0.262006	0.249930	0.297103	0.347474	0.113445	0.083907	0.182662	0.151191	0.333990	0.382698	0.252364	0.148605	0.282793	0.425415	0.439195	0.325846	0.531475	0.466659	0.580090	0.231831	0.272381	0.420962	0.285361	0.142814	0.267361	0.262672	0.177098	0.212864	0.255860	0.333555	0.269580	0.213045	0.310037	0.213871	0.433086	0.177011	0.206455	0.351415	0.195768	0.188867
23	0.232309	0.206569	0.170723	0.162200	0.301706	0.479926	0.246913	0.203381	0.215255	0.227421	0.300030	0.361877	0.166375	0.109249	0.157766	0.156260	0.245438	0.299694	0.230461	0.141240	0.232388	0.320864	0.441956	0.318162	0.387795	0.364695	0.489785	0.205507	0.217939	0.378779	0.291237	0.165819	0.240764	0.244495	0.256529	0.225505	0.200026	0.273045	0.241210	0.169935	0.309571	0.179081	0.316915	0.180686	0.197466	0.463654	0.126612	0.187978
24	0.329926	0.211240	0.161082	0.116160	0.289801	0.530097	0.304801	0.205503	0.223008	0.238044	0.306221	0.357226	0.212255	0.195873	0.164575	0.203201	0.173345	0.219480	0.210725	0.131807	0.137662	0.165600	0.415765	0.289964	0.361502	0.345581	0.348728	0.203026	0.200259	0.392557	0.317713	0.167798	0.155138	0.172892	0.267313	0.253591	0.228806	0.270870	0.214752	0.159339	0.324530	0.173937	0.167231	0.174593	0.197150	0.490594	0.131992	0.156334
25	0.364598	0.204039	0.159379	0.109803	0.270186	0.493815	0.349649	0.239086	0.220161	0.238111	0.283795	0.352382	0.211790	0.212281	0.182961	0.210043	0.162190	0.196217	0.213807	0.134314	0.103473	0.145064	0.414905	0.235446	0.364435	0.339730	0.266174	0.186867	0.217168	0.412993	0.352830	0.170296	0.116409	0.113229	0.333276	0.276599	0.232616	0.268281	0.207230	0.150185	0.319588	0.181691	0.136969	0.157023	0.180837	0.486834	0.190721	0.121098
26	0.441342	0.253448	0.167100	0.118325	0.259253	0.485358	0.364067	0.268345	0.217683	0.241000	0.282402	0.349536	0.221312	0.210131	0.184887	0.219515	0.162925	0.196769	0.254404	0.134689	0.101891	0.137589	0.349335	0.224560	0.377122	0.332105	0.257316	0.183111	0.244285	0.478766	0.373783	0.169190	0.099921	0.092831	0.422030	0.278686	0.229507	0.262588	0.190822	0.157850	0.312874	0.183222	0.135699	0.134257	0.162095	0.483613	0.239247	0.116857
27	0.467203	0.257441	0.163241	0.117747	0.269215	0.486888	0.384595	0.267148	0.206667	0.247046	0.257248	0.352175	0.233185	0.212075	0.197458	0.248649	0.166127	0.196136	0.314837	0.187412	0.096416	0.137391	0.278748	0.260712	0.381733	0.314581	0.265121	0.179466	0.247563	0.527225	0.374252	0.155919	0.095440	0.092597	0.454376	0.280646	0.232321	0.275066	0.188986	0.153637	0.309161	0.180881	0.134980	0.129604	0.178332	0.473608	0.246716	0.116189
28	0.467554	0.267634	0.135238	0.129021	0.258462	0.476923	0.443696	0.265237	0.204629	0.254013	0.230715	0.338093	0.245675	0.238866	0.219129	0.272034	0.168258	0.191875	0.312857	0.195350	0.098022	0.136338	0.276440	0.306814	0.394986	0.313296	0.263704	0.179249	0.249764	0.544369	0.360908	0.144613	0.095970	0.093746	0.458349	0.272665	0.229215	0.285376	0.167544	0.140636	0.301558	0.177138	0.126227	0.128348	0.180049	0.469793	0.246908	0.165307
29	0.468777	0.288191	0.168615	0.134558	0.231052	0.455291	0.484391	0.265882	0.196670	0.246242	0.222214	0.301441	0.258314	0.265663	0.221627	0.290075	0.163041	0.188068	0.304345	0.191607	0.112986	0.149340	0.285589	0.308544	0.399705	0.320472	0.232837	0.181858	0.249780	0.528260	0.326346	0.146573	0.084680	0.077847	0.469902	0.240170	0.232817	0.335611	0.157042	0.128020	0.272643	0.176105	0.135243	0.127982	0.184970	0.470557	0.271218	0.195280
30	0.448452	0.296663	0.249196	0.157654	0.230272	0.448821	0.496900	0.282869	0.197151	0.241872	0.219273	0.311761	0.258902	0.265871	0.220521	0.295262	0.154713	0.181923	0.288403	0.202393	0.138214	0.181248	0.276718	0.301130	0.415014	0.336932	0.229210	0.161079	0.249305	0.518894	0.307329	0.148056	0.074448	0.072118	0.458804	0.190999	0.231826	0.414368	0.149969	0.114169	0.256142	0.179250	0.147339	0.132362	0.185030	0.481656	0.305897	0.192939
31	0.444984	0.301071	0.284339	0.164874	0.215895	0.426201	0.496263	0.285959	0.201863	0.244447	0.185631	0.325568	0.251001	0.265616	0.218770	0.299390	0.144505	0.184566	0.296091	0.205673	0.139522	0.196279	0.257417	0.297634	0.414633	0.340057	0.254583	0.128637	0.248495	0.507043	0.291064	0.148076	0.077640	0.063125	0.472469	0.201823	0.194611	0.429617	0.114078	0.096743	0.207073	0.175729	0.154882	0.145294	0.188004	0.460611	0.308319	0.184971
32	0.446592	0.304900	0.289381	0.202825	0.178648	0.336485	0.492387	0.284727	0.200265	0.239341	0.180626	0.291583	0.210218	0.255251	0.210223	0.268837	0.135376	0.212220	0.349720	0.234571	0.138282	0.215435	0.255026	0.295726	0.347919	0.297652	0.254172	0.106587	0.248747	0.501882	0.296439	0.109771	0.086111	0.062654	0.494029	0.238347	0.187370	0.418793	0.078023	0.095044	0.158217	0.176950	0.204339	0.150636	0.189066	0.488038	0.322031	0.184887
33	0.433736	0.293310	0.344062	0.206019	0.165819	0.300079	0.451738	0.287236	0.202065	0.228340	0.196133	0.252145	0.170981	0.248787	0.200372	0.258486	0.127430	0.202006	0.355624	0.244855	0.137278	0.233352	0.276524	0.291269	0.277721	0.267114	0.251632	0.107079	0.229744	0.487625	0.293666	0.101525	0.083542	0.064116	0.442183	0.250656	0.182973	0.412902	0.079957	0.115990	0.153295	0.183429	0.237995	0.143693	0.173979	0.436271	0.340615	0.178175
34	0.361668	0.284001	0.396092	0.221879	0.130127	0.118354	0.388365	0.278382	0.176681	0.209390	0.224886	0.235544	0.169718	0.246481	0.186665	0.274923	0.141389	0.204259	0.378811	0.249181	0.136025	0.231172	0.279074	0.278421	0.275823	0.261163	0.281607	0.115301	0.179258	0.450721	0.271705	0.094023	0.086966	0.065998	0.410358	0.246227	0.135602	0.413341	0.072918	0.152392	0.100071	0.170214	0.236711	0.129313	0.175091	0.349846	0.339682	0.178410
35	0.320641	0.285471	0.412944	0.232035	0.117952	0.117239	0.366043	0.233718	0.164533	0.197717	0.230302	0.275738	0.158070	0.248958	0.210709	0.267733	0.169236	0.226211	0.408292	0.255208	0.136742	0.223756	0.284700	0.290262	0.271915	0.254000	0.349441	0.156917	0.124447	0.443252	0.228654	0.099155	0.094961	0.067294	0.451775	0.289975	0.118605	0.409107	0.070507	0.153521	0.109281	0.166104	0.247162	0.113340	0.183517	0.338279	0.320495	0.178092
36	0.220462	0.251566	0.423466	0.226850	0.106069	0.113453	0.360104	0.201838	0.163586	0.199288	0.287867	0.314228	0.153286	0.244565	0.204040	0.232344	0.181264	0.237962	0.409584	0.253467	0.134299	0.229991	0.290492	0.326168	0.230080	0.226451	0.418159	0.235464	0.099941	0.421269	0.219396	0.196250	0.095890	0.065288	0.470291	0.420877	0.120487	0.410261	0.092190	0.147028	0.102568	0.169038	0.295953	0.161384	0.179408	0.324084	0.279148	0.179421
37	0.157299	0.244071	0.440330	0.251098	0.077593	0.097048	0.325481	0.206053	0.167229	0.207569	0.325988	0.316427	0.159411	0.229132	0.186712	0.214227	0.183881	0.244165	0.373634	0.246948	0.134193	0.228204	0.282965	0.320520	0.233106	0.230137	0.464929	0.243985	0.089194	0.432394	0.226463	0.227351	0.102625	0.065669	0.451059	0.504444	0.126444	0.413859	0.098845	0.149640	0.096167	0.166141	0.336307	0.265907	0.165050	0.327995	0.267694	0.194070
38	0.167361	0.244742	0.441799	0.325274	0.077170	0.119292	0.235623	0.249113	0.162154	0.197679	0.361764	0.328169	0.184522	0.244533	0.179888	0.271785	0.173848	0.245205	0.339010	0.213630	0.126722	0.228302	0.257218	0.279267	0.229386	0.243588	0.489989	0.255067	0.093701	0.508708	0.279234	0.226578	0.098025	0.069632	0.434491	0.517605	0.130563	0.419853	0.098814	0.153498	0.093663	0.165730	0.348764	0.273999	0.144894	0.312105	0.272692	0.176357
39	0.155805	0.232100	0.438726	0.373489	0.077369	0.130349	0.193799	0.264131	0.136304	0.172363	0.378245	0.333237	0.238567	0.353780	0.177222	0.331707	0.163195	0.240255	0.337151	0.220931	0.095815	0.222021	0.293206	0.297215	0.228395	0.246240	0.499936	0.265628	0.098981	0.501974	0.343982	0.253355	0.097155	0.093337	0.375304	0.495916	0.118753	0.389556	0.113606	0.153389	0.091694	0.153860	0.342145	0.303603	0.138722	0.297641	0.255141	0.131913
40	0.148598	0.226266	0.463240	0.363742	0.070193	0.130100	0.304131	0.229059	0.108610	0.145823	0.380105	0.332751	0.248801	0.391861	0.174584	0.340832	0.165182	0.239592	0.324198	0.213461	0.060982	0.197295	0.312304	0.355388	0.218945	0.231761	0.488216	0.280522	0.100901	0.509255	0.375885	0.326568	0.098949	0.120442	0.371209	0.463522	0.108841	0.289400	0.112593	0.155410	0.093690	0.145055	0.336647	0.318503	0.136553	0.266886	0.209380	0.130952
41	0.151593	0.219107	0.501461	0.360732	0.067135	0.130175	0.329974	0.225929	0.093242	0.132066	0.401938	0.310522	0.254692	0.393594	0.198533	0.354324	0.163648	0.237124	0.316078	0.195288	0.059289	0.167302	0.322264	0.399890	0.192214	0.197196	0.489647	0.289394	0.113505	0.504336	0.376347	0.369154	0.105105	0.136519	0.396449	0.467570	0.117011	0.213298	0.113468	0.162977	0.098364	0.144833	0.349953	0.314709	0.132043	0.261637	0.247919	0.132989
42	0.167098	0.207799	0.513260	0.368452	0.080678	0.131010	0.436257	0.235647	0.076220	0.122896	0.507234	0.286574	0.259664	0.378318	0.241427	0.383396	0.160034	0.212893	0.290509	0.199389	0.059960	0.153696	0.323672	0.416104	0.175734	0.171029	0.498727	0.325860	0.113518	0.517417	0.372295	0.383633	0.106857	0.138415	0.388599	0.480428	0.118996	0.196192	0.115713	0.164376	0.098620	0.141779	0.342730	0.317093	0.112587	0.227251	0.252446	0.128299
43	0.173083	0.199944	0.491428	0.430968	0.083250	0.118284	0.542733	0.243648	0.074689	0.121607	0.622624	0.309709	0.265901	0.414311	0.258976	0.408336	0.172260	0.188944	0.238226	0.177029	0.067364	0.185408	0.308077	0.432569	0.172739	0.167508	0.513365	0.334436	0.108969	0.529537	0.346643	0.385298	0.103267	0.172415	0.338630	0.477642	0.121099	0.194241	0.127704	0.160428	0.092317	0.125746	0.325689	0.322244	0.104424	0.183358	0.226627	0.138608
44	0.173473	0.200150	0.454098	0.430153	0.087792	0.118656	0.573970	0.262487	0.072880	0.118409	0.695220	0.382785	0.270782	0.419358	0.270882	0.422230	0.177168	0.191822	0.242778	0.204037	0.077222	0.211486	0.305028	0.436271	0.176090	0.176618	0.543536	0.377558	0.111446	0.546735	0.341441	0.385094	0.100380	0.356569	0.329869	0.427115	0.121256	0.193611	0.266532	0.162248	0.089163	0.116276	0.345592	0.349260	0.103956	0.177797	0.217268	0.180872
45	0.170702	0.190115	0.475451	0.429094	0.093207	0.142310	0.586027	0.333760	0.094293	0.111538	0.691935	0.405447	0.276571	0.426112	0.275914	0.428943	0.176113	0.182941	0.228983	0.311380	0.104679	0.226009	0.333629	0.433237	0.185568	0.195973	0.536828	0.464962	0.104643	0.506045	0.338484	0.365313	0.096225	0.414178	0.402123	0.386909	0.128958	0.199584	0.352441	0.180926	0.090085	0.112422	0.357050	0.376246	0.095034	0.166079	0.215574	0.221479
46	0.158233	0.167670	0.523943	0.439592	0.099041	0.166077	0.674064	0.356966	0.125649	0.123032	0.735305	0.384395	0.303829	0.444889	0.297465	0.421074	0.190864	0.206822	0.191102	0.365545	0.123478	0.237153	0.374706	0.427161	0.213939	0.249280	0.495265	0.489937	0.109148	0.513396	0.338241	0.326424	0.106308	0.463428	0.450485	0.386378	0.124297	0.188901	0.367866	0.194415	0.087032	0.103955	0.316918	0.352081	0.107649	0.158824	0.217499	0.235582
47	0.157505	0.152653	0.548349	0.455670	0.099751	0.172996	0.753176	0.349037	0.135911	0.140085	0.906254	0.364984	0.287320	0.432654	0.344265	0.386730	0.187560	0.219318	0.189259	0.368342	0.127120	0.251321	0.417908	0.439567	0.225122	0.279134	0.501355	0.476506	0.116311	0.421857	0.325642	0.343351	0.131094	0.484575	0.456304	0.402920	0.107889	0.160079	0.366445	0.199180	0.083740	0.105059	0.297157	0.311230	0.111695	0.147552	0.256325	0.226541
48	0.155709	0.125788	0.562914	0.458281	0.115729	0.292925	0.786640	0.325581	0.130788	0.144775	1.037561	0.370575	0.253238	0.334096	0.379453	0.351636	0.188256	0.213027	0.210752	0.369788	0.136731	0.272919	0.421239	0.466397	0.211392	0.265471	0.486076	0.500489	0.118778	0.391235	0.268855	0.384098	0.166857	0.482048	0.442731	0.405706	0.097518	0.123041	0.374006	0.211444	0.091480	0.115545	0.305526	0.322702	0.104374	0.133396	0.315998	0.258349
49	0.160439	0.098219	0.553137	0.460547	0.120358	0.311285	0.769689	0.317867	0.129823	0.161283	1.058545	0.422777	0.241861	0.307529	0.392922	0.347553	0.189074	0.210676	0.324068	0.419416	0.140755	0.298026	0.390244	0.457148	0.193505	0.251382	0.468271	0.534358	0.128098	0.376361	0.186458	0.360543	0.199086	0.482251	0.389488	0.396075	0.089807	0.076420	0.400571	0.217635	0.091756	0.133467	0.316220	0.290994	0.100354	0.129750	0.344281	0.326141
50	0.163006	0.085372	0.502763	0.484509	0.122193	0.316518	0.744882	0.324260	0.132996	0.160797	1.056404	0.522050	0.241280	0.299325	0.386515	0.332531	0.197185	0.212511	0.428962	0.542649	0.148034	0.330078	0.377769	0.426809	0.181813	0.247007	0.475604	0.584714	0.114449	0.387061	0.157481	0.297615	0.216493	0.486245	0.375326	0.359609	0.084859	0.075985	0.439535	0.232977	0.093610	0.149103	0.313821	0.281873	0.108943	0.129935	0.344833	0.339892
51	0.158717	0.083749	0.451389	0.486625	0.127107	0.317005	0.755941	0.340466	0.146908	0.163610	1.068689	0.608797	0.245165	0.282477	0.390773	0.276405	0.217714	0.227382	0.475757	0.655064	0.153182	0.350837	0.368628	0.391567	0.186333	0.255646	0.494845	0.604490	0.106652	0.375564	0.146195	0.269747	0.315645	0.476661	0.377862	0.276345	0.078038	0.110303	0.442678	0.230281	0.180811	0.178356	0.286427	0.281419	0.112045	0.127835	0.321087	0.343776
52	0.137822	0.074670	0.463049	0.497286	0.138026	0.316686	0.682570	0.351230	0.154718	0.164461	1.059879	0.676399	0.251655	0.239203	0.391609	0.223195	0.240270	0.247715	0.479211	0.705881	0.160649	0.465739	0.348175	0.376383	0.205083	0.288095	0.494523	0.597017	0.105810	0.346331	0.136332	0.261873	0.382732	0.470594	0.356730	0.175104	0.077613	0.123178	0.442142	0.231478	0.268535	0.214864	0.269998	0.295592	0.111239	0.107032	0.324774	0.343756
53	0.136748	0.067683	0.481156	0.638355	0.139968	0.317788	0.628137	0.333751	0.168493	0.167913	1.010703	0.698130	0.246508	0.229215	0.373317	0.193550	0.254055	0.266263	0.485131	0.708010	0.155028	0.465953	0.347253	0.363656	0.220780	0.333629	0.500241	0.593126	0.104572	0.331135	0.136805	0.265590	0.394491	0.442791	0.258433	0.167990	0.074790	0.123329	0.442505	0.219957	0.275249	0.218161	0.266442	0.290825	0.115071	0.103456	0.320633	0.343074
54	0.156533	0.069009	0.483289	0.848315	0.136865	0.317625	0.621752	0.304210	0.184273	0.170205	0.944521	0.704491	0.220229	0.213351	0.393883	0.183976	0.260647	0.291303	0.503916	0.720415	0.154678	0.474380	0.336753	0.362541	0.228958	0.370091	0.496109	0.589011	0.103851	0.274427	0.134990	0.272708	0.399821	0.401234	0.211912	0.143378	0.081503	0.122366	0.391683	0.196906	0.381402	0.274579	0.230097	0.261641	0.139075	0.186353	0.317600	0.335343
55	0.166770	0.064944	0.451223	0.903279	0.129944	0.340067	0.588355	0.244392	0.189686	0.169796	0.896115	0.682937	0.164138	0.171675	0.491171	0.220110	0.262476	0.315203	0.532264	0.719279	0.142300	0.482215	0.294450	0.348606	0.224622	0.377934	0.475712	0.539329	0.104742	0.217487	0.135787	0.275250	0.400749	0.389522	0.215376	0.105463	0.067349	0.113357	0.321585	0.202630	0.499545	0.315670	0.198248	0.238990	0.139127	0.230045	0.319174	0.319189
56	0.169670	0.080213	0.424322	0.902538	0.138342	0.352516	0.464502	0.218808	0.179355	0.167347	0.904685	0.672748	0.182067	0.197673	0.528721	0.212251	0.240341	0.313296	0.565230	0.695535	0.137018	0.484435	0.233995	0.334019	0.218177	0.360264	0.469676	0.485280	0.091455	0.204986	0.146993	0.278158	0.392337	0.430921	0.319249	0.269097	0.069867	0.129316	0.299865	0.189442	0.499761	0.321768	0.213463	0.222527	0.127935	0.245039	0.319303	0.305958
57	0.164804	0.113990	0.472699	0.899251	0.154301	0.384741	0.344726	0.206764	0.158732	0.157098	0.876278	0.667868	0.235585	0.236700	0.519916	0.199291	0.221086	0.289694	0.579664	0.708107	0.136939	0.476176	0.148939	0.306262	0.201944	0.329702	0.455090	0.543431	0.094046	0.187902	0.222013	0.269144	0.383647	0.431264	0.356302	0.565448	0.086524	0.152519	0.300179	0.184956	0.500676	0.336650	0.210550	0.197852	0.118789	0.255668	0.310153	0.313591
58	0.154474	0.116061	0.498235	0.901832	0.137456	0.301874	0.308387	0.204241	0.150718	0.138846	0.687370	0.671054	0.266598	0.254098	0.525603	0.254220	0.225067	0.280372	0.578221	0.737975	0.126146	0.477007	0.139331	0.284196	0.210297	0.331879	0.463985	0.646936	0.092194	0.187315	0.267237	0.216538	0.386851	0.427884	0.409495	0.594163	0.103403	0.156125	0.291196	0.168575	0.503023	0.342527	0.204264	0.214744	0.118352	0.258431	0.260312	0.299966
59	0.146317	0.124587	0.505048	0.904365	0.135634	0.311120	0.317945	0.201930	0.151505	0.143757	0.471116	0.691983	0.269986	0.267714	0.623027	0.294756	0.236617	0.286131	0.568694	0.744701	0.129832	0.480774	0.145759	0.273970	0.210910	0.332394	0.511862	0.678009	0.085567	0.144144	0.276338	0.280419	0.248302	0.273310	0.441291	0.719357	0.103065	0.159568	0.254737	0.172626	0.511945	0.344175	0.254830	0.226467	0.118057	0.267484	0.213429	0.218217
60	0.160837	0.161818	0.548098	0.917711	0.128768	0.313338	0.281672	0.175029	0.152532	0.199684	0.448565	0.683138	0.265368	0.271983	0.729402	0.313152	0.247094	0.298961	0.503421	0.702690	0.152995	0.472604	0.142645	0.263805	0.217995	0.340177	0.558231	0.641308	0.099718	0.126624	0.276465	0.358093	0.223539	0.234684	0.597033	0.786317	0.103596	0.164006	0.198288	0.166459	0.524669	0.350172	0.279607	0.267728	0.138092	0.314523	0.206396	0.177662
61	0.166276	0.172782	0.572284	0.941155	0.116029	0.330979	0.272880	0.118475	0.150099	0.328191	0.469477	0.648197	0.280524	0.370213	0.747997	0.356915	0.244939	0.316138	0.430359	0.610325	0.165140	0.463722	0.131951	0.260715	0.230113	0.349697	0.550331	0.606041	0.143119	0.150215	0.350075	0.385155	0.215565	0.229393	0.654417	0.791731	0.099545	0.149058	0.193923	0.171592	0.543928	0.401946	0.285587	0.286638	0.141647	0.352764	0.200996	0.165955
62	0.166307	0.177308	0.565560	0.940069	0.133772	0.332215	0.300923	0.140363	0.140827	0.397903	0.447809	0.625352	0.313190	0.435262	0.747751	0.373182	0.223621	0.308529	0.396878	0.523187	0.163135	0.373749	0.113339	0.260666	0.222708	0.335741	0.525829	0.652235	0.154750	0.186517	0.413919	0.383506	0.174427	0.225313	0.695955	0.796567	0.098415	0.175605	0.194935	0.170907	0.556816	0.463821	0.306822	0.276823	0.141977	0.374365	0.164424	0.163397
63	0.161024	0.199106	0.549551	0.828631	0.199700	0.373667	0.304813	0.199755	0.143245	0.422646	0.445302	0.589360	0.341777	0.439496	0.729976	0.383254	0.201179	0.293977	0.410557	0.471769	0.169424	0.365595	0.104725	0.258499	0.242807	0.314832	0.509304	0.717313	0.158566	0.194289	0.417215	0.382863	0.167026	0.189096	0.679088	0.800479	0.106366	0.225613	0.186278	0.175369	0.564215	0.486699	0.326208	0.283847	0.145858	0.388782	0.163504	0.160283
64	0.142552	0.204938	0.546030	0.604079	0.224931	0.414228	0.290796	0.221004	0.185054	0.532375	0.534397	0.579302	0.352857	0.427047	0.659935	0.366960	0.181259	0.275181	0.434991	0.530065	0.168062	0.370486	0.097796	0.253873	0.241366	0.279568	0.488347	0.773080	0.155398	0.189618	0.417445	0.425234	0.163753	0.085066	0.651055	0.688019	0.135616	0.284668	0.194906	0.173834	0.473072	0.454676	0.331877	0.278647	0.138848	0.412998	0.164527	0.147472
65	0.125937	0.210147	0.545586	0.519182	0.225322	0.390332	0.318472	0.227182	0.205845	0.641120	0.741002	0.557780	0.337355	0.412840	0.618147	0.353422	0.178184	0.262662	0.423036	0.624675	0.166826	0.358602	0.091426	0.294952	0.238710	0.242041	0.467680	0.799533	0.162705	0.186564	0.414006	0.440538	0.111193	0.081108	0.622800	0.573757	0.138685	0.313631	0.226642	0.150754	0.396741	0.442578	0.335885	0.294812	0.131258	0.388620	0.163061	0.114245
66	0.115665	0.251749	0.524942	0.535775	0.217116	0.402498	0.376506	0.246474	0.200038	0.666992	0.848497	0.539219	0.299459	0.391952	0.610924	0.351929	0.191359	0.270570	0.372546	0.619727	0.168489	0.353043	0.093979	0.290795	0.248745	0.238362	0.472196	0.809730	0.174352	0.204122	0.388650	0.432106	0.106630	0.081778	0.617303	0.519772	0.136404	0.320426	0.234783	0.156824	0.398473	0.450577	0.336234	0.317676	0.136050	0.380454	0.198357	0.117743
67	0.107251	0.321643	0.474425	0.524360	0.242460	0.355827	0.384714	0.263228	0.205995	0.670262	0.859127	0.535228	0.272879	0.382207	0.595193	0.303557	0.192878	0.263715	0.324024	0.623625	0.188138	0.352135	0.125162	0.278441	0.253962	0.227957	0.506979	0.787481	0.165735	0.194814	0.342912	0.428650	0.089039	0.097666	0.570080	0.310962	0.126742	0.310387	0.234292	0.259599	0.397552	0.440902	0.335187	0.325750	0.138398	0.377694	0.253846	0.142056
68	0.115412	0.352029	0.443807	0.472668	0.260131	0.360294	0.379385	0.269487	0.252392	0.729939	0.846568	0.536401	0.265952	0.371778	0.468458	0.271062	0.192274	0.269495	0.332383	0.590547	0.219523	0.328471	0.146105	0.274056	0.314140	0.213004	0.521550	0.698603	0.163239	0.199660	0.339858	0.424926	0.091796	0.115534	0.456612	0.304599	0.113127	0.309353	0.241257	0.415612	0.393202	0.437315	0.323425	0.324964	0.139659	0.375363	0.276312	0.175419
69	0.132751	0.367112	0.438554	0.440514	0.271527	0.356905	0.372148	0.270639	0.260637	0.763316	0.846170	0.525365	0.257639	0.359741	0.255888	0.240451	0.189028	0.301403	0.404052	0.557038	0.234271	0.298436	0.149817	0.266453	0.314456	0.204697	0.537324	0.619198	0.166176	0.198253	0.338715	0.368752	0.086299	0.121088	0.386136	0.356881	0.122680	0.326848	0.294538	0.482543	0.384832	0.429637	0.270089	0.319260	0.139869	0.376006	0.278280	0.216192
70	0.115155	0.353471	0.382493	0.388959	0.278579	0.352596	0.371840	0.270698	0.261574	0.759148	0.845354	0.490159	0.225651	0.236904	0.202475	0.191223	0.179833	0.300259	0.457135	0.557656	0.244887	0.280162	0.148363	0.263334	0.320501	0.217867	0.616660	0.647214	0.147972	0.204033	0.304793	0.317744	0.090672	0.119603	0.324561	0.358152	0.129652	0.338212	0.334852	0.503262	0.357368	0.428826	0.265048	0.275633	0.120409	0.350928	0.274378	0.222666
71	0.106368	0.354499	0.353634	0.345030	0.276915	0.341934	0.325826	0.275013	0.261660	0.794083	0.826109	0.446599	0.174440	0.133533	0.222941	0.202058	0.181649	0.303047	0.454217	0.554770	0.247902	0.250987	0.154574	0.269396	0.314880	0.209749	0.654956	0.780735	0.116252	0.158275	0.186493	0.312554	0.106427	0.128790	0.319869	0.451151	0.133119	0.338249	0.375678	0.504056	0.295686	0.362053	0.248497	0.261669	0.102882	0.306468	0.288123	0.230878
72	0.113177	0.370764	0.348746	0.318294	0.254726	0.346127	0.299009	0.245536	0.281253	0.770678	0.814613	0.382050	0.119175	0.134273	0.231638	0.200395	0.241412	0.344383	0.457348	0.542873	0.268002	0.236277	0.181323	0.274386	0.338526	0.236896	0.650844	0.793315	0.111843	0.148902	0.142251	0.311677	0.135450	0.145750	0.297213	0.475819	0.133440	0.321897	0.442617	0.510029	0.208144	0.269952	0.216555	0.252049	0.103806	0.303819	0.316484	0.237199
73	0.111508	0.360407	0.352246	0.436811	0.203284	0.253830	0.302857	0.216648	0.289180	0.738369	0.815574	0.280199	0.112601	0.135586	0.250882	0.193003	0.272770	0.368207	0.455333	0.536324	0.270221	0.214846	0.223380	0.273769	0.342103	0.252294	0.701540	0.751194	0.126164	0.146917	0.146541	0.285173	0.158867	0.192031	0.297922	0.488149	0.129271	0.289044	0.480101	0.529677	0.180297	0.228834	0.189642	0.244592	0.106013	0.315109	0.341985	0.246471
74	0.126578	0.358438	0.351560	0.474572	0.193048	0.243771	0.292366	0.200211	0.293165	0.731176	0.836452	0.200365	0.108260	0.155879	0.239534	0.193135	0.310651	0.405519	0.436018	0.534601	0.278691	0.173782	0.266839	0.286880	0.366675	0.273047	0.840350	0.753454	0.131076	0.145830	0.189007	0.210115	0.186488	0.219635	0.244746	0.554584	0.101918	0.237714	0.468019	0.574077	0.178446	0.225590	0.193565	0.266602	0.079514	0.242877	0.352488	0.250269
75	0.168917	0.354954	0.352057	0.696039	0.211526	0.233225	0.235849	0.203979	0.283615	0.652680	0.807938	0.302118	0.118650	0.163314	0.232639	0.195891	0.341804	0.434733	0.398114	0.424457	0.294849	0.177382	0.299700	0.331074	0.388020	0.320696	1.015783	0.742690	0.112085	0.121692	0.241113	0.197828	0.181923	0.210982	0.200754	0.632835	0.117379	0.209620	0.463547	0.615597	0.153676	0.203245	0.242458	0.357625	0.093898	0.222824	0.358582	0.249810
76	0.176823	0.325169	0.352533	0.828705	0.235403	0.205227	0.182235	0.177086	0.284443	0.559647	0.647291	0.392251	0.154769	0.206984	0.230145	0.196464	0.330542	0.424044	0.403386	0.302327	0.304129	0.174082	0.308065	0.376513	0.389652	0.318737	1.075942	0.722592	0.105536	0.111007	0.294817	0.160433	0.183760	0.206472	0.192598	0.592242	0.142248	0.213616	0.502026	0.631788	0.161607	0.185251	0.296059	0.513357	0.110398	0.222931	0.350357	0.246375
77	0.178589	0.254025	0.322479	0.838104	0.221121	0.206004	0.181530	0.164966	0.336499	0.561529	0.534795	0.404728	0.183202	0.301785	0.247894	0.195110	0.325058	0.406324	0.411918	0.254811	0.300921	0.177589	0.296988	0.374555	0.391174	0.325214	1.065914	0.723338	0.106001	0.106539	0.334556	0.150937	0.201831	0.222192	0.329833	0.580803	0.164957	0.238090	0.520958	0.604763	0.191214	0.204338	0.317251	0.562939	0.113528	0.210748	0.310512	0.229899
78	0.243358	0.226098	0.291627	0.841538	0.225861	0.202131	0.172280	0.162940	0.414899	0.605013	0.532298	0.498594	0.183880	0.315621	0.328093	0.218727	0.328442	0.404732	0.430385	0.200913	0.287087	0.208847	0.344381	0.367643	0.385947	0.370375	1.047703	0.796719	0.109653	0.107575	0.345452	0.114480	0.236923	0.246531	0.448309	0.556889	0.165732	0.238765	0.521764	0.512095	0.198558	0.204683	0.329810	0.563229	0.111023	0.210908	0.266631	0.197955
79	0.246560	0.207286	0.294262	0.840144	0.212687	0.204845	0.165313	0.167659	0.400197	0.538242	0.536039	0.676606	0.185755	0.314926	0.356135	0.215039	0.330435	0.394831	0.432973	0.398498	0.270358	0.206450	0.417541	0.383075	0.395296	0.410323	1.048379	0.929675	0.112039	0.131393	0.349541	0.112710	0.238415	0.242348	0.470386	0.543027	0.158591	0.213419	0.494543	0.443086	0.199727	0.195674	0.354349	0.562968	0.112238	0.200174	0.255430	0.157166
80	0.258419	0.220436	0.301340	0.852984	0.236194	0.196345	0.163419	0.189389	0.404260	0.496739	0.563202	0.843965	0.187246	0.305595	0.349544	0.235550	0.345560	0.379944	0.354819	0.618533	0.248045	0.217486	0.481433	0.420241	0.394191	0.420631	1.022310	0.940989	0.174848	0.193395	0.364949	0.110209	0.231135	0.227989	0.474609	0.503239	0.153868	0.190258	0.459308	0.411697	0.177365	0.163806	0.492814	0.576987	0.127708	0.205752	0.254654	0.140246
81	0.274701	0.215574	0.275367	0.854866	0.237091	0.197171	0.228993	0.171337	0.413935	0.496494	0.605458	0.859039	0.188709	0.309391	0.338638	0.227441	0.397573	0.392020	0.304372	0.666156	0.249229	0.223695	0.532014	0.431109	0.389744	0.413668	0.977436	0.858812	0.250628	0.251697	0.386811	0.116273	0.200852	0.172215	0.487468	0.488391	0.158199	0.185718	0.425298	0.407211	0.187838	0.155129	0.579300	0.621998	0.135041	0.206787	0.247067	0.134845
82	0.299721	0.218141	0.301838	0.866221	0.237024	0.187360	0.335797	0.160584	0.413598	0.407544	0.678971	0.878878	0.187847	0.305375	0.303667	0.225309	0.399645	0.380729	0.304319	0.665004	0.252439	0.239537	0.527097	0.429808	0.373726	0.399905	0.969902	0.770592	0.250752	0.257262	0.404962	0.117360	0.197219	0.168793	0.482697	0.373224	0.216414	0.198687	0.355581	0.399241	0.212720	0.182873	0.590338	0.661502	0.134419	0.179623	0.223261	0.122919
83	0.336229	0.221031	0.443786	0.823557	0.236633	0.171964	0.378500	0.171683	0.400668	0.371868	0.838042	0.901824	0.201784	0.318653	0.298522	0.221342	0.383125	0.372000	0.306703	0.672551	0.267490	0.271460	0.513638	0.429814	0.354032	0.391074	0.954839	0.759812	0.245679	0.257261	0.404030	0.120666	0.197304	0.163927	0.474022	0.272536	0.376079	0.266153	0.299682	0.371773	0.242477	0.228975	0.593265	0.687887	0.131485	0.112236	0.217184	0.107193
84	0.333481	0.221088	0.625435	0.821882	0.236766	0.155479	0.383899	0.203899	0.410834	0.377360	0.929935	0.936784	0.207984	0.359432	0.297402	0.215287	0.375193	0.366002	0.308074	0.678994	0.270170	0.296640	0.509760	0.392839	0.342418	0.395096	0.881040	0.717646	0.243979	0.259742	0.377769	0.153022	0.192791	0.163220	0.453221	0.300219	0.442953	0.280564	0.297188	0.298175	0.275248	0.279317	0.588734	0.692617	0.146483	0.111597	0.260008	0.121154
85	0.329054	0.232560	0.668223	0.806849	0.216823	0.170263	0.403695	0.201372	0.430181	0.400845	0.912534	1.019081	0.184444	0.366233	0.296847	0.221081	0.334452	0.329707	0.313281	0.690291	0.254697	0.288367	0.501178	0.305416	0.298488	0.348329	0.681455	0.645345	0.244615	0.267140	0.342920	0.188196	0.169435	0.144760	0.474951	0.333401	0.463555	0.280977	0.272614	0.195816	0.287056	0.301976	0.560606	0.639032	0.145171	0.109540	0.322227	0.151483
86	0.349827	0.242831	0.659515	0.691273	0.166429	0.169356	0.489589	0.199199	0.432580	0.424450	0.894111	1.135715	0.160338	0.315047	0.274320	0.228885	0.322696	0.294319	0.306934	0.751355	0.238467	0.286735	0.498373	0.259546	0.295434	0.338641	0.485855	0.636857	0.244628	0.271963	0.290911	0.184732	0.158957	0.149798	0.532359	0.404685	0.630456	0.322336	0.176471	0.133543	0.291925	0.315268	0.532635	0.513786	0.135007	0.113726	0.345567	0.167270
87	0.360926	0.236598	0.651397	0.702062	0.148360	0.160965	0.534877	0.213689	0.435103	0.433513	0.876182	1.172998	0.169411	0.306204	0.171116	0.210023	0.323853	0.291662	0.319806	0.855593	0.224650	0.285793	0.495844	0.259506	0.300664	0.339488	0.479436	0.632107	0.242926	0.288244	0.253972	0.195789	0.206837	0.199998	0.550069	0.434407	0.638643	0.313144	0.106141	0.117959	0.278053	0.307769	0.519181	0.469061	0.131730	0.123056	0.349778	0.265322
88	0.323510	0.223829	0.673592	0.699880	0.132007	0.153959	0.545310	0.243172	0.399317	0.395191	0.861808	1.171567	0.183740	0.309517	0.089449	0.190920	0.320221	0.288793	0.538127	0.896652	0.218178	0.273412	0.448220	0.261466	0.271702	0.314170	0.508091	0.611647	0.240726	0.310043	0.250004	0.206489	0.289904	0.249187	0.604954	0.458143	0.638547	0.311032	0.212595	0.166181	0.272783	0.305038	0.519670	0.459624	0.139917	0.146565	0.414537	0.307366
89	0.314410	0.221161	0.700324	0.712108	0.117495	0.144795	0.554370	0.248924	0.331363	0.336696	0.890614	1.133988	0.183194	0.313132	0.072173	0.113603	0.317648	0.288341	0.734387	0.905850	0.226005	0.288138	0.385962	0.225844	0.227094	0.255886	0.497031	0.374198	0.226615	0.312561	0.232879	0.213748	0.312282	0.257636	0.762271	0.453523	0.644629	0.312578	0.363773	0.213553	0.276107	0.316614	0.495789	0.459702	0.153965	0.157911	0.500990	0.306597
90	0.305378	0.220902	0.717463	0.693571	0.054717	0.139966	0.557110	0.257975	0.327775	0.343876	0.933056	1.033721	0.182232	0.315802	0.080760	0.106327	0.329758	0.302123	0.799586	0.824170	0.230473	0.295139	0.319834	0.143429	0.243371	0.235958	0.442748	0.225962	0.141754	0.326463	0.187983	0.215053	0.346270	0.291300	0.771320	0.449879	0.653403	0.316041	0.419742	0.223740	0.285903	0.344215	0.339683	0.437870	0.144997	0.148538	0.537497	0.303490
91	0.292588	0.226283	0.787948	0.686113	0.053846	0.137845	0.512165	0.301603	0.317233	0.341473	0.915632	0.918793	0.166117	0.322195	0.086936	0.108617	0.297650	0.309171	0.799870	0.710012	0.231732	0.296635	0.308066	0.216624	0.265316	0.246214	0.362180	0.304768	0.106620	0.310428	0.137768	0.213855	0.371021	0.314088	0.771552	0.449351	0.656327	0.319929	0.428116	0.226961	0.318446	0.378096	0.208094	0.366329	0.132781	0.138742	0.539998	0.301338
92	0.264311	0.189931	0.830192	0.754386	0.054670	0.133989	0.454151	0.310030	0.304077	0.338946	0.882106	0.979956	0.147822	0.296492	0.094478	0.116966	0.278657	0.324599	0.814138	0.689280	0.214787	0.276724	0.333809	0.229274	0.278955	0.260952	0.391227	0.409392	0.125233	0.314280	0.112072	0.212340	0.378056	0.326714	0.751027	0.420727	0.647858	0.323692	0.451403	0.228194	0.310804	0.367204	0.197546	0.311013	0.135356	0.141263	0.551525	0.301541
93	0.224828	0.185790	0.803263	0.774310	0.056043	0.130281	0.433334	0.304441	0.312781	0.333868	0.821060	0.990129	0.145979	0.248010	0.094679	0.116415	0.279816	0.332915	0.848347	0.689543	0.200334	0.245765	0.322873	0.261363	0.289375	0.273921	0.625830	0.449303	0.130592	0.321955	0.115764	0.202367	0.393329	0.343422	0.656220	0.407517	0.573649	0.288916	0.538510	0.231400	0.288671	0.340062	0.221677	0.244404	0.136597	0.142113	0.567233	0.303124
94	0.253438	0.186199	0.688362	0.758437	0.065569	0.132374	0.464255	0.299389	0.328690	0.341464	0.650274	0.969280	0.158366	0.253669	0.094216	0.106322	0.262112	0.310901	0.901172	0.677911	0.184557	0.217990	0.300738	0.293839	0.275925	0.251419	0.803148	0.462483	0.127424	0.323093	0.112958	0.159599	0.406506	0.350990	0.592149	0.548786	0.520352	0.283313	0.638791	0.230935	0.318833	0.311691	0.302208	0.213277	0.124134	0.135727	0.558800	0.300552
95	0.251507	0.171966	0.661818	0.592939	0.082802	0.121751	0.430948	0.302603	0.320638	0.345962	0.513710	0.950283	0.158741	0.240689	0.105443	0.092145	0.256783	0.297258	0.950813	0.673113	0.177615	0.212748	0.293367	0.295220	0.266833	0.231115	0.832023	0.476755	0.130566	0.325153	0.130428	0.151510	0.386987	0.341068	0.583036	0.528448	0.501934	0.274620	0.688308	0.243116	0.336752	0.305766	0.372368	0.182223	0.112473	0.130465	0.527864	0.287051
96	0.214914	0.162159	0.733780	0.538750	0.099658	0.122139	0.343304	0.301221	0.314875	0.326621	0.507943	0.865435	0.146008	0.243081	0.110669	0.084055	0.251564	0.288359	0.999960	0.684496	0.186227	0.221656	0.291835	0.296512	0.268631	0.229545	0.834825	0.511011	0.129736	0.321883	0.153385	0.135621	0.323788	0.315334	0.441299	0.578541	0.262075	0.207161	0.707080	0.237792	0.529831	0.380758	0.373728	0.224984	0.104061	0.125444	0.502285	0.288672
97	0.203363	0.162847	0.794316	0.556901	0.101446	0.122895	0.305842	0.284013	0.311202	0.308009	0.497700	0.702965	0.124926	0.242875	0.113090	0.086873	0.266965	0.301905	1.016782	0.654516	0.194727	0.228793	0.291879	0.312530	0.271990	0.237933	0.852648	0.526681	0.129700	0.298927	0.155673	0.106563	0.308126	0.305933	0.265580	0.589527	0.251458	0.207773	0.716645	0.227518	0.567057	0.394542	0.378491	0.402086	0.097691	0.115291	0.500233	0.236803
98	0.218522	0.179953	0.790868	0.616818	0.102653	0.123722	0.303272	0.253296	0.315343	0.308833	0.542277	0.602185	0.123012	0.237165	0.112332	0.092331	0.285519	0.340045	0.999573	0.568628	0.190398	0.219559	0.311325	0.319957	0.267782	0.249381	0.852629	0.531714	0.129606	0.285493	0.169102	0.112324	0.281384	0.291327	0.392513	0.594616	0.266454	0.218100	0.692477	0.193053	0.576785	0.396740	0.547818	0.471670	0.091385	0.085321	0.464547	0.149952
99	0.219869	0.173435	0.765225	0.597249	0.112092	0.123824	0.288541	0.248005	0.311387	0.308348	0.597203	0.641599	0.108851	0.223699	0.171553	0.108248	0.301803	0.356404	0.858938	0.520695	0.178517	0.194435	0.359133	0.330019	0.261484	0.257762	0.837865	0.535667	0.124710	0.182535	0.182996	0.119861	0.258909	0.268216	0.537468	0.599870	0.267096	0.229166	0.631017	0.141806	0.573536	0.384423	0.722654	0.470501	0.062006	0.054073	0.373842	0.137550
100	0.216323	0.161510	0.747306	0.653674	0.116804	0.127633	0.287335	0.210275	0.294393	0.297383	0.555312	0.702459	0.108110	0.209978	0.252509	0.107023	0.303941	0.360014	0.718425	0.516818	0.162336	0.170834	0.392380	0.326153	0.238249	0.250507	0.829024	0.523046	0.107133	0.188347	0.196660	0.122197	0.244157	0.237727	0.539847	0.599900	0.257367	0.238183	0.600965	0.124450	0.568189	0.363257	0.744614	0.467911	0.066734	0.064652	0.330076	0.135749
101	0.214721	0.160040	0.677522	0.681424	0.116766	0.141775	0.289465	0.156701	0.298844	0.278374	0.478915	0.715579	0.104869	0.210576	0.264863	0.129882	0.287693	0.347350	0.720532	0.488502	0.139111	0.150234	0.375676	0.289182	0.206260	0.228192	0.828257	0.495463	0.080736	0.186265	0.210395	0.121776	0.234840	0.218529	0.645744	0.494266	0.249003	0.235985	0.596902	0.120222	0.553079	0.336209	0.746105	0.474305	0.077225	0.071782	0.355808	0.135306
