	114_P_T1_sh_R_D_A_01.c3d	114_P_T1_sh_R_D_A_01.c3d	114_P_T1_sh_R_D_A_01.c3d	114_P_T1_sh_R_D_A_01.c3d	114_P_T1_sh_R_D_A_01.c3d	114_P_T1_sh_R_D_A_01.c3d	114_P_T1_sh_R_D_A_01.c3d	114_P_T1_sh_R_D_A_01.c3d	114_P_T1_sh_R_D_A_03.c3d	114_P_T1_sh_R_D_A_03.c3d	114_P_T1_sh_R_D_A_03.c3d	114_P_T1_sh_R_D_A_03.c3d	114_P_T1_sh_R_D_A_03.c3d	114_P_T1_sh_R_D_A_03.c3d	114_P_T1_sh_R_D_A_03.c3d	114_P_T1_sh_R_D_A_03.c3d	114_P_T1_sh_R_D_A_04.c3d	114_P_T1_sh_R_D_A_04.c3d	114_P_T1_sh_R_D_A_04.c3d	114_P_T1_sh_R_D_A_04.c3d	114_P_T1_sh_R_D_A_04.c3d	114_P_T1_sh_R_D_A_04.c3d	114_P_T1_sh_R_D_A_04.c3d	114_P_T1_sh_R_D_A_04.c3d	114_P_T1_sh_R_D_A_05.c3d	114_P_T1_sh_R_D_A_05.c3d	114_P_T1_sh_R_D_A_05.c3d	114_P_T1_sh_R_D_A_05.c3d	114_P_T1_sh_R_D_A_05.c3d	114_P_T1_sh_R_D_A_05.c3d	114_P_T1_sh_R_D_A_05.c3d	114_P_T1_sh_R_D_A_05.c3d	114_P_T1_sh_R_D_A_06.c3d	114_P_T1_sh_R_D_A_06.c3d	114_P_T1_sh_R_D_A_06.c3d	114_P_T1_sh_R_D_A_06.c3d	114_P_T1_sh_R_D_A_06.c3d	114_P_T1_sh_R_D_A_06.c3d	114_P_T1_sh_R_D_A_06.c3d	114_P_T1_sh_R_D_A_06.c3d	114_P_T1_sh_R_D_A_07.c3d	114_P_T1_sh_R_D_A_07.c3d	114_P_T1_sh_R_D_A_07.c3d	114_P_T1_sh_R_D_A_07.c3d	114_P_T1_sh_R_D_A_07.c3d	114_P_T1_sh_R_D_A_07.c3d	114_P_T1_sh_R_D_A_07.c3d	114_P_T1_sh_R_D_A_07.c3d	114_P_T1_sh_R_D_A_08.c3d	114_P_T1_sh_R_D_A_08.c3d	114_P_T1_sh_R_D_A_08.c3d	114_P_T1_sh_R_D_A_08.c3d	114_P_T1_sh_R_D_A_08.c3d	114_P_T1_sh_R_D_A_08.c3d	114_P_T1_sh_R_D_A_08.c3d	114_P_T1_sh_R_D_A_08.c3d	114_P_T1_sh_R_D_A_09.c3d	114_P_T1_sh_R_D_A_09.c3d	114_P_T1_sh_R_D_A_09.c3d	114_P_T1_sh_R_D_A_09.c3d	114_P_T1_sh_R_D_A_09.c3d	114_P_T1_sh_R_D_A_09.c3d	114_P_T1_sh_R_D_A_09.c3d	114_P_T1_sh_R_D_A_09.c3d	114_P_T1_sh_R_D_A_10.c3d	114_P_T1_sh_R_D_A_10.c3d	114_P_T1_sh_R_D_A_10.c3d	114_P_T1_sh_R_D_A_10.c3d	114_P_T1_sh_R_D_A_10.c3d	114_P_T1_sh_R_D_A_10.c3d	114_P_T1_sh_R_D_A_10.c3d	114_P_T1_sh_R_D_A_10.c3d
	Biceps femoris_lat	Semitendinosus_lat	Vastus lateralis_lat	Vastus medialis_lat	Biceps femoris_med	Semitendinosus_med	Vastus lateralis_med	Vastus medialis_med	Biceps femoris_lat	Semitendinosus_lat	Vastus lateralis_lat	Vastus medialis_lat	Biceps femoris_med	Semitendinosus_med	Vastus lateralis_med	Vastus medialis_med	Biceps femoris_lat	Semitendinosus_lat	Vastus lateralis_lat	Vastus medialis_lat	Biceps femoris_med	Semitendinosus_med	Vastus lateralis_med	Vastus medialis_med	Biceps femoris_lat	Semitendinosus_lat	Vastus lateralis_lat	Vastus medialis_lat	Biceps femoris_med	Semitendinosus_med	Vastus lateralis_med	Vastus medialis_med	Biceps femoris_lat	Semitendinosus_lat	Vastus lateralis_lat	Vastus medialis_lat	Biceps femoris_med	Semitendinosus_med	Vastus lateralis_med	Vastus medialis_med	Biceps femoris_lat	Semitendinosus_lat	Vastus lateralis_lat	Vastus medialis_lat	Biceps femoris_med	Semitendinosus_med	Vastus lateralis_med	Vastus medialis_med	Biceps femoris_lat	Semitendinosus_lat	Vastus lateralis_lat	Vastus medialis_lat	Biceps femoris_med	Semitendinosus_med	Vastus lateralis_med	Vastus medialis_med	Biceps femoris_lat	Semitendinosus_lat	Vastus lateralis_lat	Vastus medialis_lat	Biceps femoris_med	Semitendinosus_med	Vastus lateralis_med	Vastus medialis_med	Biceps femoris_lat	Semitendinosus_lat	Vastus lateralis_lat	Vastus medialis_lat	Biceps femoris_med	Semitendinosus_med	Vastus lateralis_med	Vastus medialis_med
	P2D	P2D	P2D	P2D	P2D	P2D	P2D	P2D	P2D	P2D	P2D	P2D	P2D	P2D	P2D	P2D	P2D	P2D	P2D	P2D	P2D	P2D	P2D	P2D	P2D	P2D	P2D	P2D	P2D	P2D	P2D	P2D	P2D	P2D	P2D	P2D	P2D	P2D	P2D	P2D	P2D	P2D	P2D	P2D	P2D	P2D	P2D	P2D	P2D	P2D	P2D	P2D	P2D	P2D	P2D	P2D	P2D	P2D	P2D	P2D	P2D	P2D	P2D	P2D	P2D	P2D	P2D	P2D	P2D	P2D	P2D	P2D
	EMG_lat	EMG_lat	EMG_lat	EMG_lat	EMG_med	EMG_med	EMG_med	EMG_med	EMG_lat	EMG_lat	EMG_lat	EMG_lat	EMG_med	EMG_med	EMG_med	EMG_med	EMG_lat	EMG_lat	EMG_lat	EMG_lat	EMG_med	EMG_med	EMG_med	EMG_med	EMG_lat	EMG_lat	EMG_lat	EMG_lat	EMG_med	EMG_med	EMG_med	EMG_med	EMG_lat	EMG_lat	EMG_lat	EMG_lat	EMG_med	EMG_med	EMG_med	EMG_med	EMG_lat	EMG_lat	EMG_lat	EMG_lat	EMG_med	EMG_med	EMG_med	EMG_med	EMG_lat	EMG_lat	EMG_lat	EMG_lat	EMG_med	EMG_med	EMG_med	EMG_med	EMG_lat	EMG_lat	EMG_lat	EMG_lat	EMG_med	EMG_med	EMG_med	EMG_med	EMG_lat	EMG_lat	EMG_lat	EMG_lat	EMG_med	EMG_med	EMG_med	EMG_med
ITEM	Y	Y	Y	Y	Y	Y	Y	Y	Y	Y	Y	Y	Y	Y	Y	Y	Y	Y	Y	Y	Y	Y	Y	Y	Y	Y	Y	Y	Y	Y	Y	Y	Y	Y	Y	Y	Y	Y	Y	Y	Y	Y	Y	Y	Y	Y	Y	Y	Y	Y	Y	Y	Y	Y	Y	Y	Y	Y	Y	Y	Y	Y	Y	Y	Y	Y	Y	Y	Y	Y	Y	Y
1	0.385642	0.095165	0.325643	0.283956	0.151016	0.303003	0.213605	0.102896	0.385262	0.123243	0.083873	0.196997	0.521510	0.243626	0.295277	0.234249	0.359563	0.117009	0.148696	0.083183	0.073438	0.267220	0.110186	0.140899	0.303927	0.095368	0.308215	0.137848	0.052575	0.164497	0.351140	0.097831	0.338321	0.122231	0.114493	0.120912	0.279957	0.206868	0.060324	0.071817	0.194318	0.061586	0.152760	0.063289	0.046076	0.198447	0.238498	0.150694	0.071414	0.176841	0.316532	0.152423	0.172445	0.203250	0.244989	0.172479	0.453281	0.153951	0.107820	0.110103	0.062223	0.414764	0.202099	0.093773	0.132799	0.067027	0.110533	0.140025	0.138010	0.072514	0.230249	0.123404
2	0.348736	0.085620	0.326789	0.286683	0.154660	0.299698	0.190433	0.158662	0.531200	0.141701	0.086951	0.197305	0.481746	0.244113	0.294243	0.234338	0.130326	0.100086	0.137689	0.080454	0.044701	0.170981	0.107933	0.152941	0.278287	0.088794	0.303016	0.136576	0.053294	0.175433	0.326559	0.100087	0.385094	0.116251	0.106413	0.115726	0.281003	0.201074	0.052114	0.073131	0.160208	0.041098	0.151186	0.065046	0.046757	0.205659	0.238356	0.149969	0.080070	0.173040	0.274989	0.155956	0.173654	0.206462	0.253912	0.175126	0.439084	0.165958	0.111110	0.114121	0.124682	0.484330	0.164631	0.087356	0.145518	0.067163	0.108567	0.142097	0.145632	0.093055	0.242670	0.127982
3	0.161809	0.062006	0.326935	0.235666	0.153669	0.295546	0.187037	0.165109	0.602520	0.152973	0.089425	0.196930	0.478465	0.238993	0.292904	0.234020	0.125476	0.076228	0.126951	0.078493	0.044040	0.161283	0.094009	0.154888	0.272349	0.088495	0.302689	0.121694	0.053446	0.190666	0.323386	0.105781	0.396532	0.114831	0.108772	0.105531	0.268573	0.188929	0.044259	0.075795	0.139642	0.035723	0.153284	0.067459	0.052005	0.213240	0.227324	0.129995	0.071556	0.119055	0.260911	0.181145	0.170396	0.206076	0.247033	0.238582	0.467546	0.175810	0.113344	0.114870	0.180116	0.496149	0.191494	0.087453	0.166781	0.080967	0.104771	0.142369	0.160917	0.107304	0.240233	0.120092
4	0.079871	0.057169	0.321830	0.202140	0.151605	0.272173	0.166740	0.184142	0.612102	0.154848	0.097740	0.191822	0.356911	0.205802	0.292136	0.233831	0.124636	0.067836	0.133210	0.077377	0.043402	0.135635	0.084127	0.139146	0.272102	0.092407	0.300022	0.107148	0.054260	0.184907	0.303221	0.107441	0.428814	0.122419	0.110645	0.089256	0.300305	0.186827	0.043777	0.094231	0.087862	0.029795	0.156647	0.065090	0.050512	0.209943	0.199649	0.106372	0.069721	0.069608	0.244662	0.191539	0.165992	0.200657	0.237534	0.256275	0.544092	0.199981	0.111922	0.114975	0.223845	0.545079	0.198602	0.091459	0.180792	0.082846	0.103492	0.140688	0.161902	0.123740	0.238333	0.125802
5	0.101845	0.056027	0.321633	0.196106	0.148506	0.269068	0.130328	0.193784	0.630130	0.158804	0.112441	0.167466	0.197285	0.181475	0.292691	0.188829	0.108016	0.063405	0.137542	0.068633	0.042495	0.107871	0.081830	0.138024	0.261829	0.095643	0.280812	0.100345	0.054566	0.183759	0.225983	0.096302	0.506285	0.135821	0.124429	0.087144	0.315139	0.191696	0.162651	0.155687	0.113759	0.039421	0.142838	0.059785	0.049230	0.211428	0.198814	0.091366	0.074748	0.075959	0.151607	0.185336	0.163103	0.194111	0.269468	0.278173	0.549792	0.209031	0.107267	0.113538	0.234261	0.557357	0.200589	0.104579	0.177563	0.076686	0.096225	0.121298	0.173075	0.125122	0.235693	0.124285
6	0.111530	0.055948	0.321546	0.157684	0.133493	0.253898	0.102952	0.193705	0.654478	0.165468	0.110154	0.127101	0.195272	0.183728	0.291740	0.157715	0.073194	0.063361	0.137851	0.079608	0.042044	0.105998	0.085008	0.129368	0.227654	0.092329	0.240753	0.094214	0.045351	0.183917	0.159747	0.125358	0.520926	0.139295	0.144493	0.078909	0.313790	0.193253	0.395488	0.272781	0.145963	0.045484	0.154229	0.064164	0.051886	0.210602	0.190401	0.089504	0.084289	0.107559	0.074574	0.186404	0.166732	0.190404	0.357202	0.282595	0.557891	0.208317	0.103606	0.108610	0.320539	0.556992	0.208141	0.129412	0.177687	0.107320	0.095696	0.122148	0.188229	0.128652	0.227869	0.127183
7	0.114256	0.064379	0.321937	0.110421	0.128610	0.247352	0.100151	0.205943	0.660178	0.174828	0.110804	0.134433	0.188387	0.155123	0.292463	0.140797	0.069167	0.062577	0.232378	0.097210	0.045562	0.108765	0.094429	0.137586	0.196204	0.074872	0.236518	0.084726	0.036251	0.195720	0.176947	0.126791	0.520042	0.141130	0.169103	0.068040	0.282997	0.166437	0.488704	0.290955	0.139815	0.047262	0.180895	0.052993	0.056107	0.202834	0.165886	0.083166	0.115970	0.131825	0.067873	0.175239	0.173587	0.167125	0.385623	0.277811	0.555485	0.212775	0.103009	0.103017	0.371401	0.561374	0.208311	0.129704	0.176061	0.139481	0.134482	0.093653	0.253817	0.124623	0.226923	0.127693
8	0.120964	0.066124	0.281146	0.102531	0.122423	0.223454	0.171924	0.257921	0.740098	0.189537	0.131617	0.116333	0.179198	0.155487	0.281435	0.084340	0.066821	0.050092	0.245549	0.156726	0.043458	0.179668	0.105240	0.147962	0.199250	0.074366	0.225221	0.065961	0.030767	0.201365	0.192390	0.156912	0.527109	0.141691	0.184047	0.072081	0.278478	0.153248	0.496720	0.321811	0.140612	0.049022	0.192673	0.143099	0.061864	0.200995	0.113428	0.082183	0.129708	0.148859	0.069539	0.174112	0.245424	0.110407	0.383976	0.268684	0.539414	0.214014	0.100769	0.103429	0.376868	0.559733	0.223957	0.121817	0.177863	0.143709	0.152419	0.093233	0.256806	0.146151	0.228637	0.132784
9	0.135609	0.076806	0.264032	0.098472	0.118078	0.248720	0.200073	0.411268	0.814761	0.203108	0.160887	0.102843	0.161812	0.189465	0.226983	0.058309	0.078010	0.032585	0.248974	0.166606	0.074154	0.182792	0.138596	0.152675	0.186668	0.076495	0.162182	0.055675	0.028402	0.197646	0.175447	0.160400	0.553482	0.143645	0.185189	0.068353	0.243498	0.130725	0.566518	0.334315	0.167237	0.070414	0.276676	0.207329	0.061498	0.197133	0.092633	0.093888	0.134794	0.156951	0.068857	0.152998	0.260199	0.108255	0.388345	0.263613	0.527657	0.221977	0.099237	0.102122	0.376524	0.553330	0.242789	0.119113	0.238414	0.153916	0.154508	0.092878	0.254269	0.181955	0.228610	0.133283
10	0.148813	0.100134	0.264389	0.090984	0.077600	0.230001	0.197158	0.493021	0.814040	0.203692	0.180317	0.097973	0.165703	0.188620	0.147648	0.053658	0.126367	0.037144	0.279080	0.170801	0.089994	0.199146	0.144085	0.158467	0.170905	0.079875	0.111178	0.030656	0.026664	0.222282	0.185047	0.154857	0.570998	0.143916	0.191925	0.058459	0.236392	0.139285	0.671524	0.343323	0.163836	0.074263	0.403524	0.208970	0.061046	0.192958	0.184736	0.111531	0.271163	0.236034	0.093677	0.145400	0.271506	0.099680	0.404382	0.304465	0.526464	0.226971	0.089291	0.102229	0.377652	0.538069	0.254535	0.127517	0.231880	0.152806	0.143454	0.097687	0.235686	0.185463	0.228650	0.134132
11	0.301860	0.128751	0.259070	0.089264	0.068796	0.264691	0.197577	0.615569	0.810370	0.202331	0.180957	0.097656	0.209222	0.228455	0.094841	0.040622	0.137776	0.041363	0.315051	0.178131	0.096412	0.210395	0.153610	0.152837	0.169423	0.074815	0.090103	0.030233	0.026200	0.220771	0.207192	0.154617	0.567442	0.140147	0.208247	0.051122	0.232420	0.146673	0.733086	0.349473	0.163100	0.103144	0.401051	0.241471	0.061484	0.188285	0.229683	0.114941	0.278819	0.254284	0.120481	0.109010	0.272667	0.105688	0.435655	0.331330	0.516615	0.227605	0.088691	0.090617	0.377740	0.531266	0.262024	0.134225	0.225169	0.153649	0.164249	0.126242	0.226296	0.198346	0.227467	0.133100
12	0.460955	0.145145	0.244989	0.082939	0.056762	0.312583	0.197193	0.605625	0.807050	0.196943	0.215697	0.099648	0.252988	0.350539	0.092354	0.068663	0.164565	0.042827	0.319164	0.178484	0.100543	0.221587	0.182077	0.138798	0.161046	0.068932	0.091607	0.037869	0.022371	0.206420	0.212939	0.153962	0.588570	0.138129	0.224229	0.056539	0.215895	0.144932	0.740847	0.351092	0.174817	0.108814	0.422706	0.243167	0.061154	0.163321	0.239196	0.100385	0.281195	0.261803	0.123366	0.083188	0.256971	0.105609	0.440458	0.331195	0.485210	0.207331	0.093564	0.081105	0.377161	0.403320	0.263174	0.135580	0.227614	0.146934	0.166173	0.169168	0.226235	0.203464	0.211095	0.089756
13	0.482957	0.152891	0.231762	0.079541	0.085501	0.305240	0.200595	0.609502	0.760713	0.184679	0.317229	0.106526	0.251948	0.369662	0.095867	0.083358	0.189214	0.045560	0.316846	0.178671	0.101534	0.227939	0.190766	0.128584	0.154288	0.079365	0.098605	0.040150	0.024650	0.180322	0.209420	0.152256	0.587452	0.127690	0.241022	0.059989	0.209681	0.156177	0.741222	0.349611	0.177066	0.121111	0.482900	0.242693	0.054898	0.154919	0.274622	0.099634	0.287410	0.273031	0.140623	0.055242	0.246776	0.091311	0.431150	0.331744	0.401900	0.190282	0.095634	0.090032	0.360602	0.319268	0.261022	0.138964	0.207512	0.145939	0.166648	0.171249	0.219507	0.210067	0.183541	0.087770
14	0.627504	0.193241	0.230455	0.079441	0.139250	0.305233	0.232887	0.607096	0.661800	0.173805	0.378632	0.107321	0.256040	0.369813	0.094770	0.087173	0.189928	0.050110	0.315644	0.189912	0.106866	0.230411	0.191109	0.134977	0.153155	0.081589	0.097915	0.040422	0.024383	0.177091	0.209856	0.152127	0.570961	0.135745	0.245596	0.064355	0.147687	0.162591	0.740592	0.345139	0.185479	0.137728	0.519268	0.243037	0.049609	0.150754	0.304768	0.102887	0.298192	0.280721	0.172925	0.045569	0.248142	0.090495	0.422309	0.310122	0.374108	0.182312	0.115260	0.085026	0.333178	0.302329	0.211452	0.138870	0.201748	0.146101	0.167283	0.179124	0.214860	0.211997	0.165866	0.081980
15	0.664513	0.207316	0.242917	0.081378	0.140968	0.310041	0.261405	0.607104	0.580180	0.170205	0.387774	0.108477	0.267933	0.369233	0.092127	0.103310	0.192358	0.053976	0.295648	0.183756	0.120733	0.231997	0.192597	0.137859	0.158482	0.075877	0.095920	0.041061	0.024072	0.182558	0.209301	0.151991	0.545140	0.147385	0.249521	0.068133	0.102504	0.154717	0.724799	0.324608	0.244936	0.165048	0.516630	0.219567	0.047376	0.142029	0.312582	0.102582	0.296203	0.332551	0.181892	0.033363	0.254688	0.091211	0.417194	0.272118	0.219789	0.150727	0.122490	0.085480	0.306471	0.203409	0.192739	0.136664	0.222314	0.127750	0.171330	0.191252	0.212984	0.259987	0.163063	0.069435
16	0.661386	0.215749	0.246064	0.103832	0.140519	0.318180	0.274093	0.608508	0.573774	0.170241	0.386865	0.114363	0.273544	0.370140	0.090199	0.113851	0.199793	0.072512	0.235375	0.181180	0.162319	0.231701	0.192893	0.139724	0.130738	0.070071	0.091828	0.041553	0.026682	0.191192	0.191398	0.127867	0.532767	0.147518	0.260143	0.073489	0.097537	0.150922	0.632039	0.238118	0.346361	0.168932	0.490854	0.136750	0.048632	0.160932	0.312690	0.101399	0.339018	0.387761	0.182302	0.033134	0.257818	0.087676	0.414145	0.265966	0.189966	0.138743	0.147557	0.091327	0.297796	0.173067	0.190293	0.127196	0.236973	0.090511	0.158092	0.254830	0.205920	0.301226	0.150292	0.060734
17	0.663459	0.215770	0.284627	0.137855	0.140284	0.318780	0.275915	0.608096	0.558729	0.167717	0.393304	0.123638	0.267623	0.368861	0.086588	0.115086	0.232253	0.083477	0.249457	0.138862	0.229660	0.237145	0.190681	0.153265	0.116647	0.069269	0.088136	0.056889	0.029830	0.184973	0.162230	0.113126	0.511149	0.166079	0.305396	0.194851	0.098970	0.199498	0.560992	0.213381	0.380150	0.178398	0.388806	0.136156	0.062188	0.137669	0.312912	0.106747	0.337820	0.441041	0.182835	0.096565	0.279062	0.092582	0.353462	0.232357	0.154728	0.138860	0.158611	0.099087	0.198900	0.177411	0.182517	0.100480	0.237562	0.085068	0.158370	0.277871	0.167983	0.310621	0.106418	0.056194
18	0.664554	0.211568	0.366858	0.241275	0.146903	0.325023	0.262469	0.601506	0.522862	0.160184	0.411044	0.127740	0.268891	0.368780	0.083303	0.132322	0.233122	0.087005	0.302086	0.136020	0.253033	0.242444	0.191463	0.147207	0.116761	0.068735	0.124627	0.080352	0.033478	0.183251	0.143439	0.072913	0.426491	0.194553	0.341216	0.290033	0.093330	0.276141	0.559234	0.202253	0.502261	0.177245	0.382294	0.067533	0.087590	0.163860	0.312979	0.121321	0.316942	0.425968	0.203862	0.110763	0.301327	0.107285	0.286251	0.225122	0.122469	0.128953	0.212290	0.127477	0.078315	0.164565	0.180716	0.099310	0.178493	0.076865	0.152682	0.279671	0.088231	0.326482	0.041166	0.048357
19	0.664157	0.211643	0.386077	0.302768	0.160166	0.313502	0.208432	0.524035	0.517669	0.150387	0.420605	0.120950	0.264775	0.365574	0.078614	0.136003	0.240815	0.099509	0.274005	0.137687	0.253943	0.209033	0.185119	0.134322	0.112002	0.073261	0.172491	0.167514	0.034122	0.174873	0.141485	0.083046	0.433421	0.199974	0.340027	0.293282	0.092321	0.323893	0.501920	0.182820	0.536124	0.176932	0.361249	0.057685	0.110536	0.167811	0.334144	0.133169	0.239612	0.401269	0.259438	0.112413	0.299500	0.205435	0.269744	0.225387	0.125260	0.118187	0.233216	0.132771	0.052365	0.166170	0.163324	0.106148	0.177448	0.072810	0.151458	0.288872	0.083949	0.335359	0.069294	0.063348
20	0.663522	0.206082	0.386317	0.337112	0.187671	0.315018	0.202664	0.483595	0.419414	0.131141	0.415424	0.116337	0.258923	0.346847	0.075824	0.140352	0.242908	0.123958	0.257176	0.155908	0.268907	0.231773	0.165518	0.120337	0.127626	0.079998	0.192163	0.196954	0.046723	0.128813	0.143309	0.085609	0.455628	0.204072	0.329193	0.313101	0.141973	0.431951	0.446723	0.174621	0.526973	0.168087	0.281298	0.055210	0.126636	0.174537	0.381775	0.574568	0.251074	0.401008	0.264610	0.131570	0.268774	0.299970	0.267498	0.225555	0.129928	0.105009	0.236001	0.160337	0.052965	0.173948	0.171920	0.107334	0.177696	0.107227	0.125426	0.286545	0.102439	0.327661	0.111801	0.070124
21	0.654231	0.196443	0.407840	0.355139	0.222332	0.352591	0.202325	0.254443	0.228365	0.102111	0.408087	0.106950	0.253900	0.344190	0.071554	0.166910	0.215671	0.153494	0.333605	0.173081	0.300183	0.247009	0.162401	0.116544	0.278913	0.085927	0.194179	0.212853	0.066178	0.252050	0.135365	0.086815	0.455586	0.224491	0.328864	0.338569	0.179125	0.515671	0.526569	0.239673	0.526434	0.153631	0.139478	0.050635	0.189496	0.175343	0.397328	0.632841	0.247194	0.409098	0.272010	0.145556	0.258200	0.323429	0.238970	0.205160	0.159316	0.090762	0.244294	0.253871	0.041291	0.170604	0.208392	0.101325	0.154513	0.142926	0.136776	0.275221	0.117827	0.328264	0.148042	0.104752
22	0.575250	0.181936	0.491621	0.355082	0.227788	0.277062	0.202708	0.152332	0.206783	0.100342	0.414327	0.101453	0.226742	0.327236	0.095875	0.204971	0.254281	0.181048	0.376192	0.173335	0.300540	0.282162	0.141861	0.113481	0.346778	0.086371	0.201461	0.246882	0.101724	0.298850	0.127751	0.111329	0.482001	0.238610	0.350925	0.342826	0.191134	0.556993	0.558270	0.251411	0.505848	0.131070	0.113960	0.054558	0.193399	0.188986	0.396448	0.746580	0.246707	0.399738	0.290986	0.150240	0.249061	0.518529	0.162413	0.110332	0.179132	0.092017	0.242916	0.254900	0.039830	0.150216	0.212397	0.097389	0.155691	0.149482	0.180522	0.275510	0.110517	0.320198	0.155373	0.108491
23	0.502336	0.187339	0.561488	0.354868	0.266401	0.277154	0.203146	0.131122	0.208611	0.103318	0.423675	0.103692	0.153143	0.198857	0.119596	0.280300	0.254043	0.207013	0.378447	0.154207	0.304465	0.382951	0.106095	0.118355	0.367243	0.088744	0.219715	0.249439	0.115372	0.307701	0.134108	0.126072	0.481053	0.239656	0.377672	0.342859	0.218472	0.572437	0.618534	0.285220	0.439406	0.114538	0.105436	0.057698	0.193987	0.193833	0.395242	0.780486	0.240276	0.428843	0.308042	0.165344	0.247337	0.554113	0.107551	0.088777	0.181451	0.088968	0.236795	0.259288	0.039127	0.150068	0.217343	0.100753	0.153357	0.168706	0.226040	0.273957	0.109468	0.344292	0.158680	0.170169
24	0.452703	0.194872	0.570651	0.354615	0.248545	0.348174	0.183408	0.117528	0.208786	0.106028	0.411971	0.108409	0.145100	0.104610	0.132660	0.300675	0.254384	0.210384	0.383268	0.165566	0.307083	0.516422	0.105288	0.122097	0.474603	0.087456	0.238804	0.254467	0.164083	0.317362	0.138955	0.129547	0.480171	0.241861	0.392710	0.344734	0.217456	0.571392	0.734312	0.322773	0.408010	0.104784	0.095725	0.049601	0.195779	0.315879	0.396054	0.783542	0.182532	0.343486	0.312513	0.177193	0.247221	0.562130	0.095261	0.086515	0.196835	0.088540	0.243249	0.255939	0.032668	0.153414	0.232922	0.099993	0.118659	0.172536	0.238276	0.276064	0.105597	0.394159	0.167116	0.184215
25	0.241370	0.160987	0.563530	0.354795	0.245317	0.414385	0.207040	0.133137	0.211532	0.111919	0.344555	0.101356	0.135766	0.123892	0.134380	0.334658	0.238658	0.211555	0.388816	0.323468	0.345260	0.523710	0.120759	0.110284	0.490132	0.087814	0.241392	0.257055	0.190403	0.321558	0.139484	0.139303	0.441163	0.239270	0.395347	0.344949	0.233566	0.573023	0.784708	0.346417	0.242794	0.076340	0.133513	0.076379	0.200061	0.399135	0.409579	0.798625	0.148239	0.308137	0.313224	0.270033	0.247008	0.592784	0.095631	0.078950	0.205571	0.087071	0.256759	0.255843	0.032812	0.155730	0.236071	0.112761	0.085561	0.188878	0.254825	0.291504	0.101994	0.402016	0.182139	0.241932
26	0.185899	0.160152	0.559983	0.353732	0.264930	0.414090	0.378912	0.112257	0.211403	0.115041	0.272641	0.102689	0.092906	0.117530	0.189611	0.332122	0.206783	0.211940	0.380948	0.369398	0.348000	0.527556	0.156989	0.109148	0.487861	0.085992	0.242124	0.270944	0.190242	0.318169	0.200975	0.141647	0.419818	0.238395	0.389159	0.344995	0.233710	0.576811	0.790990	0.345565	0.123120	0.137962	0.175654	0.095769	0.198947	0.392747	0.411066	0.801741	0.146248	0.294613	0.327957	0.266797	0.244163	0.597918	0.101134	0.076948	0.202930	0.087651	0.270892	0.256619	0.040442	0.161309	0.242193	0.110657	0.079164	0.222349	0.301120	0.302510	0.100819	0.406689	0.204479	0.291326
27	0.178925	0.150666	0.557082	0.345018	0.285258	0.416378	0.403358	0.111504	0.190827	0.103267	0.263884	0.106105	0.062814	0.132906	0.253231	0.330458	0.176440	0.220523	0.357805	0.422349	0.324014	0.548406	0.188850	0.101606	0.482846	0.092629	0.244952	0.297069	0.189808	0.321365	0.225994	0.142403	0.408959	0.231498	0.385710	0.348114	0.240916	0.565717	0.790334	0.346891	0.142503	0.270669	0.288506	0.230083	0.193907	0.403354	0.410939	0.820692	0.138036	0.320080	0.325022	0.268608	0.241472	0.607359	0.102796	0.085732	0.196109	0.089372	0.268842	0.255224	0.042480	0.163505	0.245395	0.112081	0.093396	0.228883	0.311748	0.346937	0.096762	0.404441	0.221071	0.297347
28	0.177876	0.150355	0.537608	0.346689	0.295016	0.416875	0.464296	0.112568	0.171269	0.094782	0.302928	0.121048	0.051704	0.135938	0.271469	0.332817	0.169305	0.216472	0.398419	0.455935	0.285237	0.558964	0.203086	0.123114	0.483545	0.096384	0.259565	0.301620	0.189354	0.321631	0.243848	0.333233	0.402933	0.221773	0.394332	0.397386	0.261169	0.530928	0.788756	0.332488	0.157263	0.308199	0.731826	0.254097	0.182408	0.394663	0.410811	0.820997	0.103182	0.323863	0.288395	0.277776	0.229434	0.608366	0.103282	0.129496	0.191008	0.078418	0.266440	0.253969	0.040100	0.157795	0.280318	0.113485	0.094003	0.231921	0.314794	0.340057	0.094949	0.392044	0.221587	0.310587
29	0.173052	0.159750	0.493223	0.240937	0.302368	0.410392	0.537777	0.112038	0.177834	0.092917	0.321740	0.119711	0.044790	0.136279	0.299606	0.418789	0.156892	0.192832	0.396843	0.445822	0.273426	0.571019	0.233784	0.343126	0.482688	0.158821	0.247822	0.312834	0.189163	0.323970	0.284407	0.493837	0.397467	0.221916	0.416125	0.457831	0.263204	0.503952	0.783184	0.329834	0.192005	0.333033	0.825200	0.310708	0.168758	0.411761	0.393245	0.826224	0.099024	0.305772	0.305534	0.276509	0.187071	0.622041	0.103880	0.132353	0.188772	0.077533	0.237558	0.239860	0.039992	0.152615	0.316886	0.116871	0.089202	0.217919	0.329560	0.339934	0.094057	0.373797	0.220686	0.319454
30	0.181960	0.205143	0.472208	0.219954	0.295631	0.404365	0.550787	0.111818	0.176524	0.090908	0.310196	0.223767	0.052111	0.134360	0.320761	0.436155	0.110911	0.181471	0.324416	0.443926	0.272463	0.585081	0.231433	0.366095	0.483250	0.170127	0.216449	0.277495	0.184921	0.330203	0.292397	0.520614	0.397456	0.209101	0.427720	0.442133	0.241896	0.409669	0.736169	0.324799	0.232970	0.361444	0.920484	0.393338	0.159700	0.455188	0.309924	0.613892	0.091887	0.312675	0.302382	0.276735	0.170343	0.607137	0.105715	0.145553	0.188006	0.097365	0.220652	0.271823	0.034701	0.159955	0.320498	0.105859	0.089734	0.194994	0.330391	0.332418	0.088762	0.360807	0.209955	0.314717
31	0.205504	0.225289	0.469709	0.160348	0.277157	0.365515	0.550962	0.115247	0.175585	0.091245	0.293845	0.234973	0.053574	0.132450	0.324165	0.473339	0.059088	0.139803	0.305988	0.442470	0.230494	0.590174	0.235369	0.452815	0.480305	0.166979	0.200910	0.268863	0.179169	0.237489	0.291535	0.607285	0.380616	0.175814	0.427958	0.413450	0.219173	0.291067	0.614216	0.273345	0.239204	0.361258	1.074746	0.397591	0.073655	0.458639	0.249297	0.550291	0.052228	0.301016	0.266275	0.352447	0.100307	0.572495	0.107656	0.150074	0.185622	0.121185	0.299790	0.466179	0.032774	0.154502	0.297070	0.104461	0.086697	0.191907	0.309891	0.331030	0.052105	0.357908	0.188270	0.313483
32	0.205260	0.225126	0.433398	0.140565	0.270274	0.343198	0.550722	0.117340	0.160409	0.101655	0.304510	0.258519	0.054435	0.139449	0.372171	0.513705	0.050500	0.119155	0.298918	0.442263	0.206006	0.581521	0.236179	0.497720	0.410513	0.161842	0.201764	0.267986	0.159545	0.213473	0.291417	0.631311	0.342392	0.164170	0.434259	0.493152	0.209324	0.216755	0.571268	0.277547	0.242057	0.363169	1.125010	0.399770	0.062599	0.454515	0.245979	0.387050	0.053138	0.277253	0.507768	0.516126	0.057620	0.547558	0.108758	0.213288	0.172794	0.123504	0.520714	0.447815	0.032413	0.147985	0.260601	0.100545	0.084058	0.175324	0.279168	0.329086	0.026156	0.353066	0.175487	0.311024
33	0.193968	0.222942	0.331054	0.137399	0.259534	0.341954	0.553343	0.139951	0.141977	0.103786	0.352917	0.296377	0.053907	0.141019	0.395393	0.499322	0.048037	0.116083	0.292629	0.412867	0.200478	0.568069	0.240631	0.504491	0.356804	0.161664	0.250098	0.262301	0.153681	0.195517	0.296496	0.629343	0.304363	0.159286	0.435027	0.531038	0.177372	0.170661	0.512002	0.252987	0.225459	0.351227	1.124932	0.400469	0.060953	0.451306	0.232465	0.305189	0.032392	0.256105	0.815892	0.526326	0.054642	0.471762	0.118002	0.235039	0.147197	0.198267	0.662644	0.534837	0.032711	0.143448	0.250888	0.095508	0.088719	0.171973	0.281272	0.327153	0.023590	0.350808	0.199447	0.335280
34	0.165910	0.210412	0.238805	0.137601	0.226882	0.307729	0.559791	0.180404	0.140623	0.111679	0.392878	0.316620	0.049636	0.139522	0.405165	0.472601	0.050105	0.109277	0.277903	0.290839	0.200292	0.441771	0.252966	0.506325	0.331396	0.160669	0.302540	0.262069	0.078150	0.183676	0.301436	0.638582	0.301907	0.131802	0.447063	0.521972	0.176943	0.150018	0.324403	0.210675	0.211295	0.261588	1.116138	0.351906	0.054387	0.377950	0.193853	0.303972	0.034254	0.234804	0.852121	0.564776	0.055727	0.291767	0.150578	0.239305	0.149009	0.211999	0.674688	0.615427	0.035562	0.143261	0.249150	0.096854	0.106179	0.155918	0.413620	0.276508	0.022016	0.306149	0.208537	0.311042
35	0.145732	0.199225	0.230251	0.137361	0.225616	0.191000	0.561070	0.180009	0.137040	0.141106	0.407176	0.327273	0.048595	0.139240	0.415052	0.446242	0.051270	0.094243	0.417691	0.308833	0.180399	0.358586	0.259110	0.531169	0.142265	0.156459	0.318763	0.263204	0.037677	0.173269	0.303092	0.658191	0.203496	0.102375	0.471415	0.520715	0.154695	0.144537	0.189353	0.220500	0.192367	0.216215	0.910839	0.337839	0.036264	0.283923	0.280243	0.313403	0.034215	0.228792	1.033330	0.557864	0.055185	0.287285	0.156083	0.268723	0.133386	0.223311	0.728542	0.623780	0.036375	0.139000	0.245306	0.267318	0.128620	0.100031	0.441284	0.246379	0.021751	0.245924	0.202847	0.309274
36	0.143577	0.243411	0.230562	0.136618	0.213638	0.109758	0.481257	0.189929	0.137926	0.144581	0.409246	0.424328	0.047393	0.114965	0.422528	0.427618	0.043921	0.080352	0.531518	0.257471	0.092532	0.346331	0.245697	0.535840	0.081350	0.156157	0.329740	0.261196	0.037014	0.169586	0.287242	0.683415	0.136076	0.098125	0.457723	0.568467	0.155457	0.128986	0.240135	0.253835	0.153304	0.167710	0.796620	0.293103	0.035634	0.277324	0.504027	0.424064	0.052121	0.294422	1.154758	0.560269	0.055637	0.234254	0.157664	0.297413	0.119011	0.224783	0.821251	0.623955	0.036112	0.132525	0.252191	0.333775	0.151710	0.079302	0.444301	0.185661	0.024797	0.251058	0.196405	0.291886
37	0.142362	0.260812	0.230915	0.149656	0.169983	0.098944	0.402002	0.197304	0.131388	0.142565	0.410273	0.436299	0.046885	0.114969	0.413611	0.423303	0.043642	0.150869	0.535247	0.262987	0.080753	0.336461	0.214208	0.543149	0.079958	0.156426	0.332041	0.246126	0.040854	0.158613	0.353500	0.697025	0.130694	0.095576	0.436189	0.590307	0.141756	0.115302	0.280050	0.264138	0.094176	0.070345	0.717800	0.139616	0.035521	0.254990	0.527126	0.398686	0.074302	0.345994	1.172337	0.555713	0.056854	0.195123	0.156984	0.315292	0.113803	0.227693	0.858222	0.624853	0.027143	0.133252	0.258440	0.373258	0.226405	0.077993	0.483762	0.195172	0.026150	0.159581	0.212530	0.266703
38	0.139090	0.307203	0.259169	0.181303	0.159771	0.070806	0.386996	0.197248	0.122624	0.145942	0.509488	0.436943	0.046706	0.103206	0.372255	0.424802	0.061149	0.186495	0.595490	0.322947	0.069297	0.282521	0.201534	0.543317	0.076217	0.153256	0.329719	0.213763	0.056417	0.156684	0.349733	0.656758	0.141001	0.098171	0.422173	0.590480	0.093449	0.124334	0.281199	0.277659	0.059469	0.068724	0.446547	0.124180	0.037424	0.251986	0.640548	0.422579	0.075230	0.352226	1.167319	0.554568	0.053332	0.159677	0.154837	0.319678	0.120144	0.231905	0.860184	0.624616	0.023406	0.136807	0.330496	0.378820	0.230169	0.154223	0.508479	0.215057	0.029849	0.216954	0.210938	0.273779
39	0.131722	0.318525	0.344698	0.246338	0.133502	0.062913	0.258591	0.226464	0.127647	0.155262	0.636882	0.440282	0.044684	0.079724	0.355895	0.426560	0.060248	0.206329	0.705388	0.329184	0.065500	0.256064	0.167802	0.511333	0.071124	0.151527	0.317921	0.203806	0.067472	0.138027	0.406768	0.641630	0.143002	0.096661	0.419276	0.592601	0.087919	0.136118	0.316900	0.275391	0.049335	0.063761	0.238226	0.100811	0.038404	0.224809	0.737178	0.414835	0.075727	0.411499	1.169139	0.551924	0.052241	0.145704	0.155033	0.311261	0.122261	0.238480	0.859069	0.624534	0.024910	0.133184	0.349413	0.387111	0.230220	0.225545	0.504542	0.225017	0.029287	0.220721	0.226012	0.285372
40	0.129202	0.314874	0.436982	0.261651	0.122558	0.076895	0.165455	0.230586	0.122147	0.164187	0.660372	0.439868	0.043375	0.086279	0.336200	0.362148	0.066208	0.265048	0.757156	0.330081	0.065438	0.226031	0.138993	0.418720	0.073216	0.082018	0.311360	0.177983	0.068571	0.205723	0.499119	0.618528	0.204239	0.097175	0.428566	0.592661	0.086012	0.139282	0.346742	0.276879	0.033568	0.110696	0.192452	0.084319	0.040466	0.107212	0.768524	0.415326	0.075403	0.438464	1.166248	0.449941	0.048564	0.103417	0.189485	0.311264	0.123226	0.276776	0.857176	0.624650	0.030822	0.127814	0.335027	0.404689	0.233791	0.238583	0.504520	0.234645	0.027951	0.222002	0.230698	0.304106
41	0.075472	0.317098	0.463060	0.267454	0.121605	0.080735	0.162660	0.245510	0.090638	0.166845	0.649490	0.459142	0.031015	0.103019	0.312425	0.311789	0.072598	0.279771	0.768326	0.332789	0.062201	0.155106	0.144962	0.400154	0.071360	0.053863	0.311379	0.189556	0.077900	0.202515	0.516286	0.536584	0.213842	0.097026	0.430967	0.564463	0.065305	0.161358	0.354577	0.290934	0.039737	0.163252	0.187433	0.061594	0.043626	0.098377	0.771282	0.411800	0.075615	0.437523	0.998227	0.356133	0.067722	0.040216	0.272676	0.310771	0.138516	0.294876	0.854043	0.621914	0.077678	0.120584	0.368140	0.430677	0.260506	0.301005	0.506214	0.256435	0.028413	0.227411	0.262062	0.308078
42	0.050498	0.320098	0.485531	0.297356	0.096565	0.086734	0.164727	0.265245	0.087144	0.167156	0.693939	0.447085	0.027954	0.124434	0.310136	0.277935	0.071814	0.281205	0.768307	0.332021	0.058186	0.098698	0.139181	0.295196	0.053701	0.048841	0.328326	0.196192	0.091048	0.245602	0.517503	0.514165	0.214109	0.094191	0.414223	0.516147	0.042509	0.147956	0.354884	0.282306	0.055013	0.202508	0.171530	0.078240	0.041261	0.094011	0.775726	0.411539	0.078991	0.430725	0.880012	0.243386	0.077577	0.042842	0.283587	0.321590	0.365371	0.324665	0.841382	0.497825	0.096304	0.117717	0.369449	0.467928	0.303492	0.332611	0.499600	0.254452	0.029672	0.227656	0.273037	0.323116
43	0.052232	0.388034	0.552500	0.334253	0.076439	0.086916	0.222888	0.345379	0.083497	0.166634	0.749794	0.445739	0.026534	0.123317	0.264654	0.142559	0.071322	0.282600	0.745201	0.329477	0.054586	0.065384	0.171693	0.299408	0.045783	0.048543	0.406195	0.228126	0.095663	0.265709	0.519495	0.516264	0.213639	0.093208	0.376307	0.501652	0.037440	0.136523	0.354692	0.281381	0.062730	0.209847	0.144510	0.097817	0.042165	0.111403	0.768965	0.416026	0.119585	0.429393	0.789380	0.178562	0.081096	0.047988	0.318067	0.317799	0.533339	0.325984	0.742912	0.448898	0.098141	0.125799	0.390128	0.486178	0.305554	0.371582	0.400494	0.249203	0.031243	0.229265	0.262352	0.317704
44	0.060243	0.416432	0.589159	0.358966	0.076667	0.087331	0.248607	0.327325	0.073412	0.159511	0.771360	0.434269	0.026320	0.123254	0.222681	0.135741	0.070735	0.297680	0.663757	0.270815	0.049918	0.056781	0.255701	0.294657	0.046711	0.047785	0.417326	0.232914	0.093356	0.286655	0.532361	0.496933	0.215082	0.084870	0.337486	0.479401	0.036873	0.137214	0.356299	0.277874	0.062476	0.229700	0.147804	0.113866	0.042986	0.110346	0.767708	0.426207	0.231392	0.430857	0.473232	0.175561	0.080360	0.050152	0.363388	0.278159	0.577461	0.324338	0.600729	0.375836	0.105375	0.211250	0.400587	0.489042	0.348739	0.374003	0.331360	0.252557	0.036406	0.231146	0.264547	0.297196
45	0.070905	0.453526	0.588326	0.387564	0.079229	0.088870	0.244455	0.324400	0.076831	0.164223	0.756278	0.408834	0.025638	0.136925	0.205098	0.137494	0.078735	0.525486	0.583157	0.265007	0.032547	0.055778	0.261244	0.285420	0.061930	0.057637	0.370244	0.271257	0.093062	0.290937	0.545033	0.477350	0.225504	0.087489	0.417191	0.421358	0.036912	0.137252	0.346397	0.239706	0.060904	0.236108	0.141148	0.158412	0.050160	0.120737	0.733750	0.415276	0.267164	0.356749	0.259755	0.159851	0.078511	0.051526	0.385467	0.412271	0.581834	0.413292	0.597717	0.241592	0.109067	0.250697	0.406831	0.488679	0.353614	0.378499	0.321981	0.260370	0.038146	0.232196	0.262800	0.296525
46	0.072558	0.453173	0.594070	0.409729	0.082059	0.093759	0.284596	0.315175	0.095648	0.174307	0.727525	0.392339	0.029377	0.148802	0.180264	0.126580	0.125510	0.672527	0.565788	0.206333	0.041293	0.046127	0.278914	0.245076	0.069705	0.158783	0.350241	0.296386	0.094810	0.292926	0.528361	0.431222	0.238078	0.092667	0.541974	0.353246	0.030682	0.139684	0.300730	0.204482	0.060332	0.237882	0.148153	0.167843	0.050904	0.198984	0.601112	0.337982	0.286085	0.369359	0.240722	0.154168	0.079705	0.056682	0.531011	0.577551	0.649744	0.498688	0.636673	0.246173	0.111377	0.301648	0.418634	0.416242	0.305128	0.393015	0.260177	0.275909	0.037926	0.207101	0.263687	0.284059
47	0.071123	0.509114	0.616303	0.414549	0.081502	0.094282	0.289159	0.315979	0.164263	0.169955	0.712146	0.385682	0.036324	0.155979	0.154469	0.111897	0.258848	0.836517	0.449866	0.156317	0.048221	0.046328	0.280933	0.243058	0.073006	0.221913	0.360006	0.431987	0.093028	0.297981	0.484590	0.415904	0.263865	0.092259	0.600718	0.364320	0.029766	0.140189	0.259624	0.187851	0.064729	0.231624	0.179707	0.169826	0.051499	0.239230	0.584987	0.321624	0.447296	0.360581	0.231051	0.150748	0.080550	0.064058	0.582138	0.600223	0.742915	0.624539	0.685610	0.256347	0.111382	0.419482	0.416723	0.369064	0.304610	0.419195	0.189189	0.251587	0.035536	0.213572	0.267188	0.244966
48	0.071055	0.518412	0.641311	0.494415	0.081793	0.094351	0.303990	0.356377	0.215518	0.171749	0.710074	0.278925	0.042094	0.156149	0.155198	0.114982	0.483671	0.888827	0.283669	0.166949	0.051159	0.042994	0.285538	0.258046	0.093552	0.232366	0.371245	0.475597	0.083870	0.298107	0.482632	0.305142	0.274279	0.088256	0.580440	0.362723	0.033308	0.131874	0.253680	0.155255	0.061224	0.194986	0.192717	0.173303	0.071522	0.307085	0.467550	0.284487	0.545602	0.385194	0.201010	0.152538	0.082966	0.064851	0.589704	0.685706	0.829032	1.005214	0.684281	0.254048	0.113168	0.413972	0.408947	0.327459	0.318234	0.395844	0.191112	0.240228	0.033226	0.237893	0.249508	0.244520
49	0.070378	0.494527	0.617059	0.488351	0.078138	0.093218	0.312956	0.365732	0.233315	0.173170	0.757511	0.250363	0.041128	0.153901	0.182509	0.106461	0.811899	0.893027	0.184479	0.165684	0.051189	0.036086	0.329173	0.284974	0.115442	0.367642	0.413787	0.480201	0.078043	0.300416	0.394657	0.171075	0.286132	0.093414	0.584911	0.291783	0.036340	0.119737	0.204658	0.155496	0.052278	0.164421	0.184848	0.180971	0.089093	0.312536	0.288425	0.272738	0.547815	0.411161	0.146635	0.102142	0.081196	0.064411	0.640748	0.703869	0.855680	1.044427	0.680287	0.255406	0.120592	0.430974	0.348791	0.321593	0.485433	0.438389	0.196376	0.228043	0.035485	0.215189	0.238391	0.278887
50	0.070484	0.494412	0.580673	0.486782	0.067508	0.074017	0.322863	0.352719	0.232636	0.165377	0.809703	0.251397	0.040990	0.151974	0.186874	0.094837	0.919749	0.933484	0.170377	0.163775	0.051094	0.033591	0.386142	0.287039	0.116165	0.384472	0.419877	0.543052	0.080196	0.250896	0.272728	0.159962	0.318358	0.099704	0.649251	0.262027	0.038483	0.116035	0.141152	0.151887	0.106661	0.138819	0.183700	0.203296	0.085859	0.330014	0.184769	0.269487	0.547802	0.413160	0.040547	0.126939	0.078606	0.063452	0.697609	0.706343	0.859329	1.047190	0.746575	0.288765	0.125968	0.441408	0.303194	0.309668	0.526200	0.531074	0.194868	0.204676	0.044881	0.329457	0.230868	0.259020
51	0.070290	0.486934	0.553903	0.485227	0.050667	0.069666	0.351812	0.348445	0.309300	0.159545	0.764638	0.266113	0.041844	0.151411	0.186917	0.093514	0.921740	0.940093	0.164512	0.160463	0.050272	0.039616	0.426911	0.286331	0.118267	0.387467	0.462444	0.590500	0.067823	0.267808	0.248802	0.160436	0.315993	0.097691	0.708539	0.410227	0.040203	0.068187	0.135401	0.120224	0.128237	0.100813	0.163230	0.212626	0.084062	0.406780	0.171753	0.262690	0.547149	0.413403	0.034160	0.128044	0.078638	0.064188	0.714797	0.712768	0.859837	1.038994	0.860105	0.319391	0.125262	0.442282	0.282028	0.286755	0.643204	0.522085	0.191220	0.200118	0.047491	0.350171	0.224934	0.256973
52	0.066990	0.468897	0.565060	0.478514	0.045147	0.061249	0.366700	0.342596	0.361970	0.153675	0.726077	0.346731	0.041105	0.135244	0.185841	0.126117	0.922354	0.945948	0.126361	0.151902	0.049559	0.040575	0.433062	0.285895	0.116206	0.387389	0.530153	0.590947	0.051892	0.296720	0.242933	0.159519	0.316939	0.101255	0.734962	0.483539	0.039161	0.065799	0.158063	0.098877	0.141656	0.101426	0.179633	0.212546	0.084614	0.409860	0.145532	0.261437	0.527927	0.416639	0.033223	0.140565	0.076720	0.065160	0.694193	0.712705	0.858621	1.032509	0.935294	0.327587	0.102589	0.468819	0.228060	0.242606	0.690219	0.498252	0.173800	0.216252	0.054426	0.349399	0.191479	0.253901
53	0.069768	0.467009	0.538015	0.442662	0.052913	0.055655	0.367669	0.267814	0.364156	0.149632	0.737331	0.335449	0.040757	0.122969	0.201864	0.179360	0.923346	0.948081	0.087140	0.124413	0.048492	0.050627	0.433484	0.260852	0.115570	0.388004	0.589464	0.590497	0.043090	0.308037	0.228624	0.149127	0.284434	0.102891	0.738315	0.484407	0.069279	0.059061	0.149689	0.074155	0.156054	0.102946	0.296167	0.216782	0.085815	0.406320	0.151694	0.254859	0.489022	0.423309	0.030974	0.144659	0.063182	0.065097	0.676218	0.709993	0.814874	1.021582	0.957874	0.357547	0.086238	0.475878	0.225756	0.162716	0.699321	0.496830	0.130823	0.214901	0.057167	0.353967	0.189010	0.236773
54	0.082253	0.407334	0.466802	0.454920	0.065468	0.067636	0.325050	0.256923	0.368511	0.149971	0.759529	0.299607	0.040500	0.108612	0.216329	0.182808	0.921684	0.793388	0.149227	0.150925	0.050453	0.073449	0.409921	0.219685	0.117636	0.389289	0.559339	0.575643	0.044753	0.310643	0.174450	0.145332	0.275581	0.104319	0.778442	0.483533	0.073374	0.059103	0.146880	0.069683	0.185370	0.160513	0.292629	0.233554	0.086253	0.406475	0.149962	0.227137	0.474218	0.433467	0.031796	0.147872	0.065287	0.061375	0.671455	0.702663	0.717339	1.024334	0.961489	0.362322	0.084379	0.537697	0.187163	0.109750	0.690117	0.495228	0.114753	0.209430	0.056675	0.355777	0.185785	0.234593
55	0.074926	0.388112	0.429059	0.453259	0.077174	0.111010	0.321343	0.253661	0.368617	0.150534	0.770290	0.289946	0.040361	0.107594	0.206135	0.183994	0.916468	0.782912	0.164589	0.155507	0.067250	0.072494	0.382340	0.226414	0.168880	0.399328	0.529047	0.565140	0.048259	0.560139	0.131295	0.140124	0.280490	0.104231	0.932270	0.500329	0.077135	0.113475	0.137025	0.081963	0.201543	0.199894	0.318194	0.238949	0.081792	0.416828	0.149940	0.221756	0.461502	0.421392	0.048673	0.156356	0.070835	0.059599	0.645183	0.702671	0.707233	1.025815	0.959647	0.365983	0.074684	0.660558	0.165531	0.120091	0.689259	0.494484	0.109590	0.172252	0.053527	0.363342	0.167399	0.232560
56	0.069857	0.364811	0.427440	0.431580	0.074945	0.148892	0.301657	0.272169	0.368287	0.152799	0.777482	0.296359	0.041352	0.089334	0.194917	0.249809	0.845385	0.588029	0.317485	0.310857	0.085131	0.085894	0.378452	0.230092	0.354715	0.429049	0.529985	0.546628	0.066441	0.561050	0.127323	0.143375	0.283812	0.102274	1.043274	0.594184	0.075947	0.241651	0.129266	0.089334	0.302442	0.214029	0.318942	0.241152	0.081477	0.387198	0.163379	0.266366	0.188377	0.345400	0.061748	0.192995	0.072028	0.056273	0.634652	0.700172	0.730379	0.997117	0.947184	0.337489	0.068788	0.743902	0.165408	0.116528	0.688020	0.457106	0.132573	0.170882	0.053729	0.360914	0.163930	0.232094
57	0.072445	0.349395	0.411470	0.422313	0.075989	0.237380	0.306656	0.275701	0.367797	0.147406	0.780591	0.298425	0.040368	0.069791	0.185015	0.256961	0.786294	0.594492	0.418645	0.363039	0.106846	0.096671	0.366249	0.224975	0.584432	0.421324	0.527259	0.530306	0.068295	0.563555	0.117490	0.142355	0.284791	0.102116	1.063531	0.677904	0.075915	0.263104	0.131384	0.087419	0.348354	0.215663	0.320074	0.208781	0.081281	0.365016	0.147120	0.317028	0.078291	0.289390	0.137760	0.194882	0.149983	0.070100	0.562208	0.522351	0.691873	0.947087	0.907393	0.297956	0.070704	0.735969	0.163609	0.316904	0.683539	0.444584	0.234173	0.183201	0.055771	0.360040	0.158155	0.277908
58	0.100395	0.434999	0.377852	0.411890	0.090046	0.259972	0.324339	0.242230	0.364889	0.132267	0.781807	0.305544	0.042257	0.051251	0.183236	0.263841	0.170090	0.576868	0.434566	0.367560	0.116339	0.099097	0.365758	0.215036	0.833141	0.404788	0.515457	0.426445	0.069387	0.573504	0.146833	0.131521	0.325204	0.103804	1.064923	0.684077	0.104721	0.353309	0.133959	0.135659	0.410343	0.233019	0.328838	0.296006	0.067244	0.345288	0.156782	0.358392	0.079535	0.269592	0.169704	0.197124	0.203438	0.083680	0.449011	0.482153	0.613995	0.918693	0.790516	0.293149	0.071389	0.684276	0.189272	0.413199	0.582933	0.404638	0.239067	0.267711	0.056742	0.347609	0.128598	0.282833
59	0.157178	0.582871	0.358368	0.283510	0.102588	0.264385	0.306252	0.193811	0.342068	0.105222	0.782041	0.313168	0.039326	0.051752	0.180570	0.266266	0.133883	0.510387	0.482249	0.432933	0.129701	0.101279	0.356374	0.177848	0.895936	0.407641	0.507595	0.418633	0.067622	0.574700	0.174679	0.124632	0.358631	0.112079	1.091470	0.681876	0.152603	0.382613	0.133956	0.147927	0.415625	0.253894	0.345621	0.304946	0.038783	0.363954	0.183306	0.377364	0.079243	0.302646	0.183678	0.208165	0.252221	0.087344	0.441011	0.345360	0.500806	0.460022	0.696947	0.302058	0.068387	0.748822	0.276207	0.444095	0.533940	0.185594	0.296642	0.296452	0.061561	0.319010	0.123176	0.300010
60	0.177907	0.607639	0.358893	0.272342	0.115157	0.276380	0.304275	0.201368	0.311071	0.093221	0.782259	0.332391	0.045320	0.079968	0.155186	0.268695	0.145625	0.500529	0.506284	0.450545	0.200938	0.110153	0.307123	0.137169	1.064651	0.350878	0.474545	0.433668	0.066216	0.609147	0.172647	0.381635	0.339945	0.112895	1.138628	0.669755	0.160263	0.383019	0.132909	0.154878	0.419209	0.249947	0.292770	0.318425	0.039017	0.457147	0.208004	0.380529	0.077400	0.446027	0.190747	0.209505	0.278613	0.088218	0.398953	0.220944	0.462009	0.236323	0.691581	0.300820	0.056546	0.890061	0.288027	0.517078	0.340840	0.155963	0.326167	0.397407	0.067872	0.339055	0.146714	0.257355
61	0.244229	0.702444	0.300769	0.245404	0.167380	0.280018	0.298144	0.203274	0.295804	0.091259	0.747720	0.439093	0.051793	0.095445	0.144908	0.290154	0.160023	0.492925	0.529418	0.451572	0.211769	0.110322	0.230509	0.124604	1.178337	0.359551	0.472389	0.350292	0.080394	0.966125	0.173484	0.408939	0.328457	0.112959	1.159949	0.669288	0.180894	0.389134	0.110148	0.167685	0.416218	0.241445	0.303171	0.326200	0.040925	0.453226	0.221783	0.386352	0.069126	0.490472	0.211439	0.282688	0.313558	0.105714	0.284399	0.200027	0.450457	0.208759	0.641991	0.279487	0.046093	0.893027	0.343938	0.552568	0.248492	0.138415	0.330648	0.432003	0.065442	0.299233	0.147778	0.258066
62	0.246182	0.767197	0.225268	0.278222	0.169540	0.285036	0.279834	0.205336	0.295464	0.103646	0.643030	0.452954	0.061971	0.103423	0.170003	0.319079	0.152619	0.453266	0.530738	0.451985	0.212010	0.111013	0.166353	0.134016	1.199140	0.358710	0.429998	0.268618	0.082317	1.052472	0.179492	0.458934	0.318668	0.108459	1.158040	0.668872	0.197951	0.388787	0.086153	0.172047	0.442946	0.218283	0.317176	0.353538	0.042773	0.522379	0.222875	0.387461	0.056570	0.585697	0.299981	0.297007	0.442557	0.164368	0.166107	0.168477	0.449940	0.224140	0.491548	0.235063	0.050375	0.894870	0.380418	0.568982	0.114548	0.135111	0.334884	0.434424	0.061872	0.373051	0.140993	0.260275
63	0.246823	0.779745	0.182211	0.335719	0.181009	0.304175	0.279251	0.205130	0.227383	0.107394	0.577907	0.484542	0.070002	0.123113	0.233942	0.309757	0.150591	0.430278	0.579252	0.434301	0.214164	0.111451	0.157892	0.305026	1.206687	0.360106	0.344909	0.256184	0.093859	1.113531	0.192967	0.462436	0.289058	0.099390	1.124104	0.660091	0.215872	0.388601	0.089728	0.196587	0.406753	0.208313	0.403514	0.354854	0.042862	0.552162	0.224957	0.394864	0.058079	0.574982	0.435149	0.353317	0.463993	0.173879	0.138322	0.144630	0.452241	0.242332	0.292390	0.218460	0.052158	0.885222	0.381947	0.634831	0.139022	0.143414	0.338129	0.429491	0.057685	0.439221	0.138223	0.260534
64	0.259271	0.782943	0.169431	0.353280	0.194573	0.304989	0.308292	0.195095	0.093014	0.118609	0.572672	0.451187	0.070100	0.150494	0.238284	0.283110	0.126693	0.394862	0.588004	0.406073	0.214193	0.112982	0.191562	0.332706	1.209510	0.360319	0.206431	0.243576	0.097412	1.308913	0.204211	0.463400	0.282827	0.100717	1.086236	0.585762	0.230017	0.388657	0.104573	0.223690	0.360543	0.235795	0.407368	0.363674	0.041819	0.569227	0.229957	0.401944	0.069250	0.579004	0.668770	0.350952	0.464042	0.174058	0.136224	0.145947	0.454469	0.245864	0.164720	0.180077	0.052711	0.899234	0.400036	0.648664	0.140797	0.116544	0.381042	0.459501	0.058710	0.440808	0.133875	0.268243
65	0.262458	0.824362	0.167786	0.311502	0.191085	0.355480	0.331955	0.195516	0.096646	0.119401	0.588368	0.443067	0.070684	0.157356	0.229211	0.291943	0.125605	0.394178	0.497533	0.299686	0.216146	0.155941	0.228527	0.415980	1.224474	0.359993	0.142369	0.239540	0.104420	1.241758	0.205866	0.469889	0.287607	0.106162	1.066774	0.519990	0.285625	0.382552	0.121488	0.284211	0.273030	0.245344	0.410264	0.309028	0.042885	0.560231	0.239175	0.400620	0.069529	0.599850	0.701023	0.335668	0.463488	0.173790	0.137507	0.177370	0.460611	0.245447	0.163357	0.182472	0.052695	0.862374	0.426178	0.700247	0.147312	0.126435	0.391551	0.495699	0.059676	0.434935	0.136646	0.270535
66	0.262958	0.826947	0.164993	0.323225	0.192015	0.378078	0.336815	0.175296	0.130352	0.121738	0.672754	0.469094	0.106405	0.191328	0.236673	0.351874	0.126120	0.419787	0.462591	0.274989	0.224771	0.199715	0.214345	0.504125	1.236869	0.349663	0.142166	0.241851	0.095137	1.243078	0.207513	0.476305	0.291659	0.119982	1.066238	0.534394	0.317669	0.318528	0.140801	0.292002	0.274637	0.340052	0.419430	0.271443	0.040917	0.560163	0.236853	0.329137	0.109050	0.604127	0.815693	0.333430	0.462925	0.178890	0.137546	0.228690	0.413429	0.216243	0.173126	0.191362	0.054381	0.760554	0.429559	0.709278	0.146605	0.128766	0.337773	0.611321	0.059349	0.432180	0.134126	0.311895
67	0.263429	0.836390	0.160855	0.330678	0.224130	0.365481	0.327576	0.152301	0.208079	0.129976	0.731221	0.475045	0.123503	0.223757	0.238078	0.391466	0.125382	0.439978	0.469850	0.243321	0.216916	0.209831	0.207512	0.524429	1.197693	0.310830	0.154981	0.252556	0.095214	1.242168	0.221130	0.487883	0.317065	0.132826	1.053606	0.550100	0.323819	0.298994	0.163210	0.319702	0.267458	0.349370	0.388443	0.247835	0.041186	0.558364	0.234287	0.282890	0.135913	0.597683	0.934139	0.355294	0.464026	0.221793	0.138634	0.224420	0.347708	0.198848	0.216164	0.218440	0.055383	0.678414	0.420796	0.712833	0.163569	0.128087	0.363285	0.590377	0.058434	0.431667	0.157387	0.309221
68	0.263353	0.831837	0.166548	0.330717	0.270504	0.307613	0.297121	0.164885	0.221218	0.125689	0.709599	0.517579	0.123413	0.223940	0.240664	0.385719	0.108867	0.438107	0.439006	0.099599	0.208737	0.314175	0.215838	0.525086	1.113560	0.283013	0.164617	0.300038	0.094485	1.237997	0.185810	0.516400	0.470730	0.142114	0.934525	0.580666	0.318877	0.191004	0.222520	0.306300	0.291987	0.360571	0.376383	0.231427	0.040010	0.537636	0.219221	0.221888	0.139539	0.555113	0.963698	0.396537	0.459867	0.236134	0.139058	0.222254	0.329252	0.200768	0.263109	0.228606	0.052883	0.665636	0.408221	0.645962	0.168157	0.123888	0.390750	0.645774	0.058084	0.433764	0.175757	0.277312
69	0.246206	0.695167	0.147010	0.331360	0.272948	0.309245	0.292737	0.171540	0.237803	0.119804	0.713606	0.517539	0.122146	0.232856	0.265153	0.405771	0.073073	0.429463	0.421601	0.078295	0.198763	0.512576	0.223140	0.552358	0.942543	0.266527	0.160614	0.315468	0.096893	1.237053	0.228145	0.509340	0.544614	0.144171	0.799532	0.603988	0.297828	0.111160	0.225383	0.301998	0.253498	0.383320	0.349922	0.196502	0.043744	0.520988	0.206299	0.187055	0.139377	0.500570	0.959850	0.416681	0.433833	0.272313	0.115508	0.272792	0.324517	0.205359	0.284139	0.285164	0.062712	0.660771	0.465832	0.595235	0.165137	0.124124	0.417760	0.646767	0.057746	0.438322	0.177544	0.269735
70	0.225039	0.628255	0.148911	0.335825	0.289030	0.302140	0.295912	0.182610	0.249946	0.118320	0.777053	0.518354	0.120166	0.303091	0.280099	0.406183	0.090847	0.419207	0.405291	0.080782	0.191859	0.538448	0.224067	0.574262	0.883636	0.248976	0.152164	0.310233	0.095315	1.193766	0.256264	0.395498	0.547367	0.145207	0.762416	0.592201	0.300920	0.128822	0.247570	0.299258	0.214176	0.378934	0.222980	0.171996	0.046316	0.429315	0.195208	0.180091	0.139166	0.326615	0.953324	0.422652	0.411325	0.297139	0.085067	0.317981	0.292436	0.205332	0.321526	0.297382	0.064689	0.581540	0.563943	0.572961	0.182365	0.126573	0.426671	0.614434	0.045335	0.441984	0.172542	0.242835
71	0.190138	0.579357	0.257402	0.354990	0.359786	0.317366	0.286708	0.179006	0.257668	0.118549	0.857662	0.575118	0.120819	0.509067	0.279311	0.406233	0.093370	0.540295	0.368060	0.077777	0.125491	0.569520	0.233440	0.575985	0.666378	0.151911	0.150250	0.284779	0.087984	0.901205	0.261117	0.378382	0.569544	0.155102	0.726679	0.566491	0.297532	0.128606	0.319031	0.297268	0.212863	0.367393	0.222175	0.203260	0.047293	0.354442	0.182831	0.169617	0.139163	0.282472	0.918603	0.412075	0.391862	0.299067	0.073385	0.318520	0.218622	0.193640	0.344721	0.302143	0.062352	0.311172	0.581389	0.518953	0.181142	0.127490	0.424005	0.611492	0.035413	0.399508	0.150493	0.237743
72	0.131728	0.464689	0.317256	0.394514	0.385019	0.344412	0.267255	0.221589	0.277775	0.120241	0.894810	0.619141	0.123940	0.583597	0.296222	0.413233	0.093935	0.586755	0.282366	0.189127	0.124099	0.581370	0.241558	0.580910	0.444408	0.091204	0.203534	0.283657	0.084874	0.827885	0.265938	0.330342	0.549171	0.162527	0.597929	0.594901	0.289066	0.132570	0.334710	0.297925	0.192146	0.343852	0.225464	0.213649	0.044791	0.247526	0.188169	0.167934	0.134563	0.278368	0.815952	0.450959	0.380620	0.303042	0.085375	0.317296	0.218340	0.193494	0.343248	0.309672	0.061339	0.293429	0.617362	0.489662	0.161648	0.109232	0.422178	0.609546	0.039180	0.563453	0.147688	0.221455
73	0.141941	0.408816	0.320610	0.363197	0.387905	0.352818	0.263230	0.223693	0.319451	0.138825	0.909433	0.566387	0.157815	0.594106	0.293839	0.397198	0.095777	0.785983	0.272755	0.330220	0.124114	0.636684	0.241230	0.575743	0.392656	0.105160	0.545679	0.283836	0.078581	0.684074	0.261729	0.333280	0.560975	0.187603	0.400824	0.636493	0.274128	0.134272	0.364107	0.300929	0.179921	0.258761	0.263485	0.217935	0.065468	0.179600	0.183190	0.150257	0.131843	0.276054	0.696392	0.489868	0.252026	0.288551	0.110565	0.339145	0.215587	0.182124	0.344457	0.318200	0.060229	0.284670	0.731815	0.469141	0.166310	0.094314	0.385097	0.591250	0.039130	0.625494	0.143791	0.212203
74	0.150217	0.395423	0.324913	0.365931	0.382760	0.367867	0.231505	0.230581	0.452226	0.163147	0.907476	0.620347	0.199427	0.601397	0.257623	0.402087	0.097191	0.837248	0.304479	0.339352	0.125133	0.639427	0.241562	0.501569	0.371286	0.110609	0.754226	0.294121	0.082471	0.277469	0.256420	0.336575	0.669035	0.219762	0.289215	0.663406	0.343421	0.135793	0.383356	0.348812	0.158376	0.220392	0.270103	0.218113	0.095951	0.138923	0.192993	0.131468	0.130294	0.186839	0.660703	0.487437	0.133185	0.279847	0.146430	0.348676	0.214572	0.146363	0.348209	0.320990	0.059504	0.291428	0.796485	0.388258	0.171727	0.072866	0.368128	0.565027	0.041228	0.750168	0.139945	0.208302
75	0.115911	0.385897	0.333200	0.390834	0.379035	0.376584	0.192393	0.226432	0.486970	0.163325	0.900599	0.591792	0.204026	0.616477	0.243892	0.407194	0.159637	0.833792	0.308912	0.342626	0.126582	0.634350	0.203110	0.488419	0.369661	0.123372	0.779341	0.301759	0.077130	0.378135	0.254816	0.324526	0.725331	0.225669	0.279212	0.670563	0.363840	0.119706	0.378573	0.309146	0.121980	0.204118	0.265275	0.208139	0.142105	0.205526	0.179560	0.073615	0.098716	0.188957	0.433396	0.496182	0.123342	0.280052	0.154305	0.353736	0.215838	0.142157	0.351507	0.321009	0.062319	0.441445	0.797893	0.370371	0.187089	0.077193	0.370666	0.448161	0.037870	0.782825	0.137973	0.189766
76	0.110860	0.287918	0.366904	0.391536	0.378438	0.297843	0.149487	0.237454	0.486568	0.151036	0.902090	0.575941	0.234867	0.617998	0.240435	0.397069	0.160870	0.846977	0.249073	0.468738	0.112540	0.626287	0.168087	0.389625	0.337491	0.144895	0.819079	0.307686	0.074318	0.394353	0.252897	0.316310	0.729870	0.226604	0.291614	0.674632	0.364289	0.116846	0.370981	0.331157	0.070583	0.114435	0.262175	0.194914	0.158365	0.272332	0.188323	0.086111	0.095277	0.177907	0.310859	0.478746	0.170461	0.281259	0.240728	0.388350	0.179765	0.114403	0.357444	0.314795	0.062549	0.563659	0.785632	0.267581	0.211658	0.155518	0.393446	0.481455	0.044876	0.783473	0.134521	0.186241
77	0.109596	0.264982	0.462648	0.368467	0.369366	0.300090	0.141084	0.249793	0.488475	0.167091	0.894533	0.574328	0.236699	0.664830	0.228322	0.372662	0.161189	0.849153	0.257916	0.538489	0.091923	0.611401	0.165064	0.291408	0.320636	0.149991	0.940081	0.329345	0.077811	0.413781	0.238256	0.284546	0.730016	0.228200	0.297675	0.676330	0.397231	0.123012	0.362624	0.317863	0.092525	0.131404	0.261669	0.188361	0.159034	0.313633	0.211022	0.091429	0.103952	0.266542	0.348404	0.581710	0.224633	0.283333	0.380439	0.381361	0.195260	0.104229	0.350215	0.302037	0.061433	0.619807	0.783873	0.285338	0.291539	0.201528	0.393957	0.441509	0.051240	0.796773	0.123552	0.120131
78	0.107798	0.235195	0.550195	0.364032	0.341746	0.300505	0.141089	0.249154	0.513771	0.222860	0.790600	0.553569	0.228767	0.718921	0.224908	0.256418	0.160101	0.852821	0.263689	0.542090	0.090980	0.618811	0.154275	0.269466	0.431848	0.154879	1.023097	0.396730	0.079587	0.454988	0.228917	0.231731	0.730542	0.228160	0.297400	0.672027	0.419238	0.125152	0.329763	0.314102	0.112120	0.137896	0.254210	0.145056	0.163127	0.334526	0.212496	0.118063	0.104678	0.269412	0.402118	0.579911	0.233193	0.265047	0.435734	0.369137	0.206648	0.110912	0.333822	0.383359	0.059945	0.669158	0.783318	0.284394	0.301947	0.212294	0.401641	0.419765	0.078347	0.799714	0.073291	0.119036
79	0.111440	0.231604	0.571032	0.359961	0.319164	0.299305	0.122414	0.252852	0.582348	0.254954	0.652219	0.547290	0.230119	0.732746	0.222889	0.246299	0.162663	0.865412	0.329789	0.552258	0.088724	0.605930	0.141213	0.261901	0.435865	0.155731	1.053177	0.386700	0.078387	0.493335	0.153182	0.210359	0.729677	0.223202	0.277109	0.658877	0.421381	0.124585	0.327075	0.315393	0.141215	0.136397	0.239818	0.080538	0.173297	0.370402	0.202689	0.135299	0.135692	0.282052	0.504842	0.675012	0.240074	0.236946	0.438652	0.369030	0.237912	0.134675	0.328124	0.443531	0.057317	0.674216	0.782795	0.280344	0.290044	0.211993	0.413767	0.527973	0.094276	0.795915	0.041625	0.123762
80	0.136194	0.231120	0.573103	0.368203	0.321350	0.297470	0.099536	0.240886	0.633384	0.278118	0.626329	0.504886	0.230309	0.733418	0.200341	0.212299	0.169739	0.805233	0.374301	0.557819	0.087251	0.599282	0.132834	0.171374	0.488892	0.160501	1.054800	0.372673	0.078373	0.593801	0.119385	0.122442	0.723383	0.225277	0.224252	0.646291	0.416565	0.105658	0.312225	0.321419	0.171440	0.180463	0.158133	0.068110	0.174373	0.390842	0.190488	0.141210	0.162806	0.285739	0.523617	0.673436	0.248697	0.227072	0.461035	0.355284	0.360524	0.155686	0.375163	0.430129	0.046245	0.678795	0.740627	0.287026	0.281193	0.211345	0.419900	0.556786	0.102400	0.792169	0.040792	0.132630
81	0.169048	0.231065	0.559273	0.377678	0.263513	0.284260	0.097871	0.276056	0.723904	0.296456	0.624975	0.520652	0.230267	0.722087	0.169209	0.211265	0.169163	0.799092	0.364270	0.489400	0.073515	0.566819	0.122345	0.130205	0.501420	0.162688	1.071186	0.347458	0.076426	0.614725	0.104188	0.114938	0.640925	0.237335	0.165960	0.614931	0.410192	0.079417	0.238021	0.319300	0.219646	0.186606	0.215777	0.178875	0.184382	0.393029	0.212124	0.320142	0.162914	0.282790	0.534870	0.684360	0.389744	0.138233	0.519327	0.311824	0.383066	0.155425	0.375402	0.421980	0.049234	0.688893	0.645751	0.307157	0.279990	0.215807	0.420843	0.603665	0.147062	0.793092	0.041656	0.140118
82	0.182050	0.229272	0.534392	0.340346	0.135211	0.249795	0.103126	0.290576	0.803413	0.299709	0.557033	0.532159	0.229763	0.638019	0.170481	0.223430	0.169077	0.561077	0.378824	0.465139	0.064762	0.555807	0.096618	0.121354	0.510485	0.165642	1.082124	0.367710	0.077463	0.642767	0.105619	0.117478	0.595436	0.255863	0.160447	0.526727	0.408575	0.086704	0.206955	0.316240	0.232564	0.185424	0.201172	0.200364	0.249854	0.390225	0.213112	0.343276	0.161764	0.282901	0.530766	0.728654	0.507773	0.129839	0.581969	0.291733	0.394575	0.154633	0.352141	0.486908	0.064509	0.709824	0.636345	0.304164	0.279070	0.220733	0.430379	0.610324	0.147244	0.780876	0.051135	0.138783
83	0.354880	0.231901	0.580101	0.311260	0.117844	0.245129	0.111033	0.324317	0.817666	0.303116	0.427097	0.481883	0.228051	0.592481	0.147692	0.203211	0.150026	0.514817	0.340565	0.471971	0.074853	0.554044	0.081251	0.072660	0.507687	0.165750	1.071007	0.372178	0.066834	0.635508	0.223736	0.111887	0.612069	0.257607	0.209791	0.429197	0.406972	0.091686	0.150442	0.301569	0.246003	0.180549	0.234658	0.292803	0.252222	0.457532	0.233571	0.374191	0.157505	0.285753	0.530499	0.729039	0.513897	0.117654	0.603509	0.317107	0.410432	0.164866	0.346352	0.529688	0.068140	0.742905	0.569647	0.300635	0.272903	0.225893	0.442140	0.728689	0.150352	0.614265	0.062695	0.142869
84	0.373351	0.207366	0.611919	0.309498	0.092275	0.292304	0.105731	0.371158	0.939292	0.322535	0.353712	0.410980	0.211205	0.591924	0.132632	0.171882	0.106163	0.472789	0.335397	0.455615	0.083132	0.609266	0.079112	0.058486	0.531105	0.154229	0.945318	0.375552	0.056744	0.601425	0.280886	0.097125	0.570292	0.259166	0.292567	0.438081	0.343187	0.144290	0.062650	0.219027	0.251922	0.183945	0.255318	0.310831	0.242811	0.462503	0.257573	0.374425	0.152813	0.289036	0.543377	0.718682	0.512999	0.114668	0.601750	0.312714	0.415361	0.204860	0.375844	0.528232	0.069953	0.743107	0.384303	0.299548	0.263781	0.225968	0.449453	0.735620	0.153558	0.530916	0.067697	0.146569
85	0.372281	0.176283	0.611983	0.258369	0.091248	0.406310	0.099143	0.370093	1.022359	0.330707	0.314449	0.394852	0.164430	0.614638	0.119560	0.157441	0.114686	0.490660	0.333702	0.283508	0.094430	0.673684	0.067495	0.041990	0.542718	0.148165	0.799655	0.367980	0.049468	0.540438	0.311231	0.128884	0.567898	0.263986	0.348629	0.410686	0.270497	0.164086	0.062452	0.196610	0.263254	0.185346	0.261558	0.322549	0.218747	0.437105	0.265150	0.381234	0.143754	0.262998	0.553539	0.741426	0.515490	0.120479	0.595881	0.295273	0.417528	0.236150	0.391056	0.526743	0.071873	0.733248	0.239164	0.286867	0.241680	0.185218	0.464872	0.758926	0.180515	0.252261	0.068128	0.162424
86	0.372519	0.167206	0.603121	0.243207	0.097677	0.457645	0.102813	0.378161	0.991045	0.320133	0.292579	0.275916	0.153481	0.603336	0.088141	0.141538	0.117642	0.537161	0.315422	0.252175	0.141572	0.674319	0.050489	0.041064	0.549818	0.141689	0.781351	0.386680	0.056424	0.540011	0.442842	0.162729	0.601260	0.266695	0.366590	0.404065	0.231718	0.203033	0.062896	0.154780	0.289419	0.185357	0.263469	0.323375	0.207353	0.397780	0.249581	0.380584	0.150800	0.173400	0.565622	0.697849	0.519108	0.136674	0.591753	0.297073	0.481395	0.241380	0.393028	0.531148	0.069662	0.626216	0.217790	0.291017	0.111948	0.125887	0.454897	0.725838	0.182154	0.235314	0.102499	0.175231
87	0.397322	0.181803	0.583195	0.253477	0.097919	0.609241	0.110009	0.370475	0.983782	0.319697	0.295558	0.285400	0.114943	0.609743	0.080927	0.155185	0.114705	0.528797	0.301897	0.233829	0.154628	0.676695	0.084673	0.037835	0.536012	0.117746	0.738114	0.431544	0.053051	0.536016	0.511778	0.170876	0.501411	0.253800	0.368376	0.401093	0.153672	0.201311	0.079580	0.169719	0.275593	0.143547	0.260502	0.324539	0.207598	0.368675	0.232729	0.397354	0.155396	0.181643	0.495009	0.609239	0.516388	0.139371	0.585247	0.274293	0.497298	0.270766	0.379951	0.551253	0.071079	0.521009	0.215279	0.280359	0.088129	0.108763	0.396835	0.697723	0.183260	0.279362	0.151055	0.155962
88	0.477028	0.215985	0.562685	0.526682	0.118257	0.829946	0.110086	0.374004	1.024380	0.328333	0.298721	0.284730	0.071842	0.573261	0.082168	0.157161	0.126845	0.479291	0.222719	0.221674	0.168271	0.677535	0.099137	0.046011	0.502221	0.105931	0.576413	0.412032	0.051366	0.496733	0.517079	0.173418	0.408563	0.247433	0.368618	0.412305	0.065180	0.215445	0.100281	0.182998	0.299644	0.131576	0.197728	0.284729	0.204396	0.349443	0.237483	0.391539	0.107193	0.164573	0.437637	0.561176	0.517225	0.148267	0.526165	0.228490	0.560881	0.315557	0.407396	0.552286	0.074724	0.428865	0.225839	0.239519	0.136417	0.117829	0.369612	0.617299	0.183133	0.283010	0.162693	0.160950
89	0.498271	0.216898	0.519939	0.742589	0.153094	0.842236	0.136419	0.366864	1.024435	0.324680	0.283623	0.313410	0.054289	0.481016	0.080673	0.170531	0.356665	0.464974	0.205639	0.193781	0.187833	0.655003	0.104211	0.148290	0.414321	0.098078	0.417904	0.344781	0.047501	0.473499	0.532177	0.188576	0.394213	0.247526	0.386733	0.419371	0.040162	0.369742	0.103191	0.212216	0.303493	0.150064	0.200306	0.273365	0.195007	0.311604	0.236775	0.386672	0.098849	0.154622	0.434341	0.616178	0.542752	0.151300	0.448670	0.221857	0.678539	0.356478	0.444554	0.513008	0.078081	0.347002	0.254051	0.257541	0.185121	0.152795	0.363742	0.604027	0.207138	0.281685	0.174920	0.184833
90	0.514347	0.228219	0.531403	0.756426	0.156202	0.853974	0.168256	0.363840	1.008922	0.290546	0.424614	0.382738	0.044594	0.459787	0.079748	0.186318	0.425328	0.385933	0.239540	0.328883	0.204615	0.542372	0.117400	0.178912	0.385555	0.096986	0.345908	0.486332	0.046922	0.345026	0.533337	0.191538	0.400054	0.246619	0.389979	0.416684	0.039953	0.403384	0.130395	0.213576	0.331103	0.148395	0.183921	0.191710	0.193970	0.287995	0.241971	0.410717	0.103792	0.156808	0.604934	0.519004	0.558204	0.151089	0.431811	0.225195	0.744852	0.369907	0.477923	0.443975	0.076548	0.342688	0.270324	0.264988	0.303423	0.159686	0.371737	0.591436	0.231765	0.283243	0.177243	0.176538
91	0.568743	0.243173	0.576447	0.763056	0.192364	0.861792	0.170915	0.359027	0.962865	0.261071	0.628740	0.463142	0.049928	0.456473	0.079225	0.184207	0.574328	0.380222	0.256089	0.493939	0.217403	0.499282	0.128099	0.189311	0.333556	0.102835	0.395391	0.558775	0.046800	0.309064	0.532519	0.183204	0.403547	0.243370	0.389526	0.416864	0.044465	0.509635	0.158855	0.211275	0.344486	0.159577	0.153651	0.143598	0.185749	0.285076	0.233616	0.298577	0.130053	0.158879	0.683884	0.517153	0.557105	0.151878	0.424617	0.246874	0.722001	0.366443	0.433456	0.431966	0.076407	0.330465	0.268191	0.283074	0.333285	0.152433	0.381142	0.609508	0.236929	0.286919	0.198217	0.182435
92	0.584903	0.253984	0.581717	0.764275	0.206781	0.867079	0.168629	0.306848	0.926836	0.246216	0.685661	0.481691	0.051369	0.448119	0.077343	0.169913	0.581431	0.389974	0.262099	0.523865	0.216386	0.487436	0.128139	0.230256	0.356519	0.115784	0.427762	0.601108	0.044659	0.270705	0.524841	0.177876	0.408280	0.241097	0.396493	0.417341	0.045178	0.562300	0.169322	0.211851	0.374177	0.351899	0.168211	0.118230	0.078392	0.277356	0.229591	0.291596	0.142474	0.148096	0.680307	0.532201	0.546708	0.154124	0.380503	0.241976	0.708028	0.362127	0.410679	0.437571	0.076335	0.313470	0.254662	0.281405	0.337294	0.155745	0.374332	0.475841	0.228556	0.263233	0.218155	0.181995
93	0.602856	0.252767	0.543566	0.857866	0.206476	0.870094	0.164856	0.289515	0.863455	0.230924	0.679581	0.467019	0.051193	0.444685	0.071678	0.159759	0.621787	0.406529	0.263129	0.588622	0.215139	0.475905	0.127894	0.261349	0.352164	0.134683	0.470750	0.595820	0.044772	0.388368	0.476674	0.174525	0.421389	0.231608	0.411506	0.418356	0.040103	0.598154	0.169956	0.215377	0.347612	0.477744	0.166642	0.112984	0.045636	0.137978	0.219020	0.259798	0.149895	0.152724	0.658499	0.507668	0.414777	0.153399	0.270257	0.237923	0.703031	0.363418	0.413258	0.370480	0.064425	0.270034	0.233726	0.264241	0.490062	0.207108	0.361299	0.452479	0.228905	0.316815	0.217402	0.181137
94	0.524229	0.239031	0.490014	1.001173	0.206421	0.863480	0.185351	0.180379	0.776538	0.226509	0.707835	0.454107	0.046155	0.343734	0.070365	0.167200	0.622297	0.418218	0.271354	0.611464	0.259216	0.460179	0.134975	0.267924	0.417906	0.131739	0.476590	0.593739	0.045407	0.403550	0.455901	0.174237	0.443148	0.214093	0.424759	0.416784	0.047395	0.740558	0.173627	0.218222	0.396109	0.535619	0.166082	0.102036	0.049365	0.077235	0.175113	0.259989	0.230849	0.178703	0.635541	0.436916	0.357245	0.158067	0.154497	0.221676	0.696551	0.362666	0.412631	0.315638	0.068587	0.192738	0.230729	0.262660	0.598313	0.225043	0.299672	0.369488	0.225248	0.358760	0.217371	0.174598
95	0.520094	0.234957	0.501063	1.017960	0.205865	0.826522	0.196079	0.155706	0.765488	0.230498	0.721122	0.489661	0.046360	0.351731	0.073516	0.240338	0.622080	0.404475	0.266538	0.622060	0.300803	0.240117	0.157080	0.267927	0.414300	0.131079	0.480982	0.598816	0.045446	0.503156	0.421047	0.152773	0.408161	0.191653	0.427838	0.399316	0.049298	0.861079	0.174968	0.217985	0.375318	0.552751	0.164651	0.102575	0.054310	0.082681	0.155733	0.273048	0.286115	0.157556	0.690029	0.488518	0.390620	0.165142	0.123122	0.190424	0.704868	0.345589	0.406159	0.487236	0.078961	0.194387	0.232489	0.263217	0.619552	0.226444	0.224002	0.369712	0.217807	0.476229	0.219905	0.170927
96	0.520489	0.235521	0.513017	1.033863	0.205310	0.770983	0.193551	0.128609	0.616228	0.232235	0.713402	0.542108	0.047532	0.301101	0.156334	0.255391	0.622136	0.387124	0.265818	0.650376	0.317149	0.172626	0.163857	0.268790	0.414599	0.129816	0.560598	0.599522	0.033747	0.551690	0.266091	0.157121	0.372851	0.191457	0.410278	0.380398	0.049942	0.853783	0.178786	0.208791	0.379001	0.574514	0.219699	0.086065	0.054208	0.083732	0.159335	0.271815	0.376652	0.159428	0.723333	0.538207	0.399320	0.158106	0.123859	0.189095	0.715046	0.321735	0.387953	0.522464	0.077333	0.201457	0.222603	0.261752	0.618098	0.225584	0.245837	0.375670	0.201983	0.486022	0.220975	0.150679
97	0.518736	0.239599	0.511338	1.044811	0.203088	0.758765	0.193834	0.119984	0.441144	0.243619	0.710301	0.592575	0.047411	0.280977	0.209263	0.259977	0.588145	0.377116	0.314059	0.674928	0.333071	0.211473	0.163781	0.268956	0.398269	0.121937	0.633040	0.586010	0.036401	0.627701	0.152806	0.149273	0.392151	0.182794	0.360368	0.364584	0.052008	0.857365	0.171054	0.177655	0.394237	0.608009	0.209637	0.196622	0.052516	0.080357	0.158741	0.242539	0.421786	0.159427	0.834085	0.455263	0.394609	0.123722	0.122456	0.181615	0.702727	0.317534	0.391490	0.584331	0.091870	0.200508	0.209463	0.244350	0.612161	0.220455	0.420894	0.370030	0.201270	0.487904	0.199125	0.148353
98	0.485224	0.226144	0.500051	1.038105	0.200823	0.400455	0.195954	0.089212	0.431993	0.261204	0.737171	0.592650	0.046835	0.271758	0.214662	0.268276	0.473430	0.368251	0.427282	0.674235	0.327877	0.215510	0.148403	0.271471	0.397930	0.121400	0.642114	0.567826	0.045589	0.693135	0.127557	0.150868	0.415912	0.165786	0.304685	0.358885	0.058247	0.862676	0.156533	0.168101	0.386588	0.608931	0.227503	0.245170	0.051882	0.078898	0.148912	0.240954	0.453226	0.170758	0.840431	0.564977	0.389351	0.211799	0.114893	0.189105	0.682124	0.293953	0.435729	0.680534	0.106190	0.200214	0.208067	0.241776	0.629390	0.200681	0.488172	0.344181	0.199413	0.445697	0.172938	0.148610
99	0.415532	0.200094	0.477748	0.868918	0.175543	0.307811	0.202319	0.086044	0.566322	0.273369	0.776032	0.584854	0.051606	0.260516	0.254580	0.274845	0.378010	0.349269	0.414807	0.559559	0.318728	0.224923	0.154231	0.272310	0.396362	0.120702	0.651225	0.568713	0.053023	0.713027	0.056643	0.148883	0.448919	0.144204	0.277005	0.298962	0.067325	0.828673	0.154396	0.120036	0.348980	0.548093	0.257239	0.312105	0.049797	0.074279	0.148383	0.241167	0.689688	0.182051	0.715506	0.674520	0.382526	0.343694	0.117062	0.182623	0.650425	0.260871	0.439557	0.720937	0.104100	0.215172	0.195054	0.232781	0.585566	0.189162	0.525468	0.290226	0.191977	0.440451	0.162283	0.126802
100	0.400122	0.198257	0.486005	0.773777	0.154837	0.242911	0.175027	0.090375	0.529606	0.264445	0.806251	0.590249	0.057937	0.260307	0.281367	0.310353	0.254981	0.341393	0.483241	0.532273	0.306881	0.226668	0.149795	0.226335	0.405373	0.120462	0.675737	0.565767	0.055720	0.773066	0.064779	0.170343	0.526500	0.121965	0.271325	0.227562	0.077309	0.822323	0.133455	0.096658	0.344894	0.404155	0.262566	0.315022	0.048504	0.067444	0.139893	0.196312	0.813112	0.181378	0.711715	0.700111	0.335917	0.371631	0.122490	0.176742	0.502080	0.198253	0.409440	0.727591	0.110097	0.216160	0.154909	0.218514	0.568748	0.188557	0.530302	0.211444	0.140343	0.444588	0.155667	0.102363
101	0.398777	0.181457	0.442864	0.752522	0.134345	0.232348	0.166847	0.111218	0.530524	0.261295	0.816281	0.587960	0.057410	0.232009	0.287420	0.303434	0.160863	0.317468	0.534002	0.535726	0.296885	0.227554	0.138125	0.216603	0.440916	0.120011	0.674157	0.416053	0.055649	0.784146	0.065692	0.177817	0.531283	0.125872	0.267569	0.177171	0.079996	0.774817	0.097937	0.093724	0.280067	0.356718	0.265714	0.316402	0.047931	0.063434	0.115192	0.189483	0.964288	0.228042	0.713577	0.693980	0.279915	0.394600	0.117998	0.179183	0.433043	0.169157	0.352102	0.742426	0.125803	0.209485	0.118346	0.209692	0.570376	0.182624	0.524777	0.289667	0.111225	0.450733	0.146922	0.096821
