	118_P_T2_sh_R_D_A_01.c3d	118_P_T2_sh_R_D_A_01.c3d	118_P_T2_sh_R_D_A_01.c3d	118_P_T2_sh_R_D_A_01.c3d	118_P_T2_sh_R_D_A_01.c3d	118_P_T2_sh_R_D_A_01.c3d	118_P_T2_sh_R_D_A_01.c3d	118_P_T2_sh_R_D_A_01.c3d	118_P_T2_sh_R_D_A_02.c3d	118_P_T2_sh_R_D_A_02.c3d	118_P_T2_sh_R_D_A_02.c3d	118_P_T2_sh_R_D_A_02.c3d	118_P_T2_sh_R_D_A_02.c3d	118_P_T2_sh_R_D_A_02.c3d	118_P_T2_sh_R_D_A_02.c3d	118_P_T2_sh_R_D_A_02.c3d	118_P_T2_sh_R_D_A_03.c3d	118_P_T2_sh_R_D_A_03.c3d	118_P_T2_sh_R_D_A_03.c3d	118_P_T2_sh_R_D_A_03.c3d	118_P_T2_sh_R_D_A_03.c3d	118_P_T2_sh_R_D_A_03.c3d	118_P_T2_sh_R_D_A_03.c3d	118_P_T2_sh_R_D_A_03.c3d	118_P_T2_sh_R_D_A_06.c3d	118_P_T2_sh_R_D_A_06.c3d	118_P_T2_sh_R_D_A_06.c3d	118_P_T2_sh_R_D_A_06.c3d	118_P_T2_sh_R_D_A_06.c3d	118_P_T2_sh_R_D_A_06.c3d	118_P_T2_sh_R_D_A_06.c3d	118_P_T2_sh_R_D_A_06.c3d	118_P_T2_sh_R_D_A_07.c3d	118_P_T2_sh_R_D_A_07.c3d	118_P_T2_sh_R_D_A_07.c3d	118_P_T2_sh_R_D_A_07.c3d	118_P_T2_sh_R_D_A_07.c3d	118_P_T2_sh_R_D_A_07.c3d	118_P_T2_sh_R_D_A_07.c3d	118_P_T2_sh_R_D_A_07.c3d	118_P_T2_sh_R_D_A_08.c3d	118_P_T2_sh_R_D_A_08.c3d	118_P_T2_sh_R_D_A_08.c3d	118_P_T2_sh_R_D_A_08.c3d	118_P_T2_sh_R_D_A_08.c3d	118_P_T2_sh_R_D_A_08.c3d	118_P_T2_sh_R_D_A_08.c3d	118_P_T2_sh_R_D_A_08.c3d	118_P_T2_sh_R_D_A_09.c3d	118_P_T2_sh_R_D_A_09.c3d	118_P_T2_sh_R_D_A_09.c3d	118_P_T2_sh_R_D_A_09.c3d	118_P_T2_sh_R_D_A_09.c3d	118_P_T2_sh_R_D_A_09.c3d	118_P_T2_sh_R_D_A_09.c3d	118_P_T2_sh_R_D_A_09.c3d	118_P_T2_sh_R_D_A_10.c3d	118_P_T2_sh_R_D_A_10.c3d	118_P_T2_sh_R_D_A_10.c3d	118_P_T2_sh_R_D_A_10.c3d	118_P_T2_sh_R_D_A_10.c3d	118_P_T2_sh_R_D_A_10.c3d	118_P_T2_sh_R_D_A_10.c3d	118_P_T2_sh_R_D_A_10.c3d
	Biceps femoris_lat	Semitendinosus_lat	Vastus lateralis_lat	Vastus medialis_lat	Biceps femoris_med	Semitendinosus_med	Vastus lateralis_med	Vastus medialis_med	Biceps femoris_lat	Semitendinosus_lat	Vastus lateralis_lat	Vastus medialis_lat	Biceps femoris_med	Semitendinosus_med	Vastus lateralis_med	Vastus medialis_med	Biceps femoris_lat	Semitendinosus_lat	Vastus lateralis_lat	Vastus medialis_lat	Biceps femoris_med	Semitendinosus_med	Vastus lateralis_med	Vastus medialis_med	Biceps femoris_lat	Semitendinosus_lat	Vastus lateralis_lat	Vastus medialis_lat	Biceps femoris_med	Semitendinosus_med	Vastus lateralis_med	Vastus medialis_med	Biceps femoris_lat	Semitendinosus_lat	Vastus lateralis_lat	Vastus medialis_lat	Biceps femoris_med	Semitendinosus_med	Vastus lateralis_med	Vastus medialis_med	Biceps femoris_lat	Semitendinosus_lat	Vastus lateralis_lat	Vastus medialis_lat	Biceps femoris_med	Semitendinosus_med	Vastus lateralis_med	Vastus medialis_med	Biceps femoris_lat	Semitendinosus_lat	Vastus lateralis_lat	Vastus medialis_lat	Biceps femoris_med	Semitendinosus_med	Vastus lateralis_med	Vastus medialis_med	Biceps femoris_lat	Semitendinosus_lat	Vastus lateralis_lat	Vastus medialis_lat	Biceps femoris_med	Semitendinosus_med	Vastus lateralis_med	Vastus medialis_med
	P2D	P2D	P2D	P2D	P2D	P2D	P2D	P2D	P2D	P2D	P2D	P2D	P2D	P2D	P2D	P2D	P2D	P2D	P2D	P2D	P2D	P2D	P2D	P2D	P2D	P2D	P2D	P2D	P2D	P2D	P2D	P2D	P2D	P2D	P2D	P2D	P2D	P2D	P2D	P2D	P2D	P2D	P2D	P2D	P2D	P2D	P2D	P2D	P2D	P2D	P2D	P2D	P2D	P2D	P2D	P2D	P2D	P2D	P2D	P2D	P2D	P2D	P2D	P2D
	EMG_lat	EMG_lat	EMG_lat	EMG_lat	EMG_med	EMG_med	EMG_med	EMG_med	EMG_lat	EMG_lat	EMG_lat	EMG_lat	EMG_med	EMG_med	EMG_med	EMG_med	EMG_lat	EMG_lat	EMG_lat	EMG_lat	EMG_med	EMG_med	EMG_med	EMG_med	EMG_lat	EMG_lat	EMG_lat	EMG_lat	EMG_med	EMG_med	EMG_med	EMG_med	EMG_lat	EMG_lat	EMG_lat	EMG_lat	EMG_med	EMG_med	EMG_med	EMG_med	EMG_lat	EMG_lat	EMG_lat	EMG_lat	EMG_med	EMG_med	EMG_med	EMG_med	EMG_lat	EMG_lat	EMG_lat	EMG_lat	EMG_med	EMG_med	EMG_med	EMG_med	EMG_lat	EMG_lat	EMG_lat	EMG_lat	EMG_med	EMG_med	EMG_med	EMG_med
ITEM	Y	Y	Y	Y	Y	Y	Y	Y	Y	Y	Y	Y	Y	Y	Y	Y	Y	Y	Y	Y	Y	Y	Y	Y	Y	Y	Y	Y	Y	Y	Y	Y	Y	Y	Y	Y	Y	Y	Y	Y	Y	Y	Y	Y	Y	Y	Y	Y	Y	Y	Y	Y	Y	Y	Y	Y	Y	Y	Y	Y	Y	Y	Y	Y
1	0.265479	0.319599	0.176858	0.234299	0.360230	0.467340	0.111468	0.101208	0.204271	0.251482	0.302867	0.269900	0.430163	0.637741	0.193433	0.153792	0.264911	0.178470	0.486995	0.401524	0.488386	0.595398	0.203909	0.123041	0.256462	0.269490	0.329210	0.219362	0.640629	0.967853	0.492210	0.130353	0.465301	0.807901	0.204264	0.344426	0.399967	0.517228	0.180843	0.147953	0.255462	0.343739	0.161208	0.293726	0.317191	0.399354	0.222030	0.166816	0.339410	0.215916	0.148131	0.203864	0.410733	0.538404	0.222802	0.097375	0.125094	0.145276	0.235918	0.180352	0.381573	0.602654	0.204242	0.124509
2	0.245537	0.251615	0.204982	0.295202	0.202172	0.318641	0.110287	0.090821	0.161333	0.200749	0.407465	0.271787	0.419528	0.612261	0.189799	0.151399	0.275271	0.153670	0.430189	0.366537	0.466142	0.622571	0.210915	0.129101	0.256284	0.248250	0.362704	0.211672	0.643229	0.978053	0.469927	0.133511	0.511364	0.909631	0.236272	0.331292	0.339224	0.553519	0.192849	0.134519	0.191547	0.200584	0.163988	0.309367	0.317444	0.393646	0.241874	0.213697	0.367868	0.267837	0.168216	0.232835	0.405730	0.533875	0.157137	0.093528	0.117070	0.146913	0.207320	0.183017	0.346922	0.535246	0.126349	0.125185
3	0.167787	0.155313	0.205702	0.297429	0.224361	0.244960	0.137732	0.099007	0.168726	0.216901	0.435858	0.292107	0.434002	0.653280	0.188520	0.139543	0.285879	0.184612	0.427290	0.298095	0.541565	0.746284	0.211269	0.154818	0.226676	0.243986	0.399123	0.192986	0.646438	0.983923	0.439063	0.141783	0.507251	0.896782	0.287671	0.253708	0.386136	0.636896	0.233465	0.136552	0.168044	0.176545	0.151736	0.324627	0.287330	0.321723	0.245281	0.248717	0.368744	0.264130	0.206119	0.236693	0.335819	0.465634	0.135516	0.116124	0.117992	0.126032	0.198283	0.187714	0.333288	0.538826	0.129224	0.117449
4	0.144661	0.152618	0.218208	0.293732	0.173733	0.240038	0.139531	0.110032	0.182559	0.232265	0.421515	0.303464	0.460048	0.706182	0.204232	0.119814	0.271107	0.189423	0.347917	0.268492	0.459798	0.712950	0.214938	0.170367	0.196547	0.233809	0.380709	0.207984	0.648042	0.985778	0.408954	0.140712	0.501293	0.891496	0.296244	0.246302	0.385308	0.645815	0.286917	0.150019	0.169367	0.165968	0.166564	0.338172	0.291338	0.332975	0.273587	0.250195	0.357757	0.288062	0.286292	0.269682	0.303570	0.407773	0.138221	0.116395	0.098580	0.129484	0.177673	0.176500	0.334527	0.528002	0.125822	0.149596
5	0.156226	0.204702	0.254274	0.290947	0.160286	0.224662	0.146391	0.112254	0.178753	0.233100	0.439809	0.316599	0.443469	0.717000	0.188084	0.122750	0.235758	0.189009	0.303466	0.279600	0.459438	0.704457	0.252874	0.174451	0.203091	0.244758	0.300184	0.212898	0.642226	0.979269	0.410046	0.168191	0.490835	0.881505	0.294113	0.251264	0.401351	0.674037	0.294285	0.196481	0.134002	0.118574	0.200189	0.352320	0.345379	0.358450	0.308579	0.255138	0.312060	0.305488	0.290731	0.269979	0.237041	0.280087	0.146233	0.119835	0.098606	0.129844	0.175994	0.193755	0.377192	0.604965	0.125856	0.269725
6	0.156448	0.213063	0.288014	0.289959	0.195007	0.250965	0.175534	0.100636	0.149033	0.229233	0.463051	0.300102	0.417073	0.704080	0.182755	0.217989	0.227789	0.179538	0.266791	0.296141	0.410586	0.688392	0.245296	0.176760	0.165280	0.202027	0.350826	0.156992	0.636324	0.970689	0.385320	0.317462	0.486476	0.864211	0.281313	0.233840	0.401574	0.668314	0.294946	0.212275	0.079206	0.093437	0.199604	0.356586	0.383419	0.403002	0.312944	0.306976	0.312754	0.335072	0.351647	0.286523	0.230510	0.268185	0.138488	0.119456	0.095741	0.130244	0.190132	0.271374	0.371786	0.608632	0.206904	0.390943
7	0.146938	0.207133	0.334889	0.287049	0.316495	0.633412	0.196542	0.174643	0.128688	0.229907	0.449528	0.299707	0.401462	0.716839	0.203505	0.346345	0.214335	0.182384	0.260664	0.228349	0.394711	0.674710	0.230741	0.174830	0.144470	0.165977	0.421289	0.197354	0.604542	0.957008	0.311326	0.408698	0.485537	0.862723	0.283034	0.286036	0.386228	0.670143	0.299248	0.213349	0.099858	0.063454	0.205017	0.386060	0.417639	0.386557	0.322131	0.379601	0.281873	0.344390	0.436466	0.298268	0.259918	0.345912	0.118226	0.140000	0.098512	0.133541	0.245786	0.309641	0.356531	0.562395	0.309901	0.401343
8	0.145479	0.212781	0.351399	0.357189	0.341010	0.696975	0.221902	0.243662	0.134904	0.296181	0.442467	0.281323	0.316020	0.680409	0.306818	0.458193	0.187860	0.177348	0.262377	0.362559	0.405107	0.706931	0.229623	0.197514	0.117572	0.149597	0.418106	0.219264	0.482200	0.852060	0.234486	0.411960	0.458683	0.840110	0.367107	0.366283	0.368733	0.628940	0.386116	0.213258	0.178839	0.107819	0.215770	0.407656	0.418193	0.378906	0.356462	0.364946	0.268432	0.347799	0.439768	0.301213	0.350710	0.479607	0.125243	0.175311	0.161463	0.196836	0.355983	0.313313	0.313899	0.459534	0.320961	0.443818
9	0.141048	0.202575	0.351611	0.378223	0.347031	0.727051	0.256214	0.252468	0.134429	0.291915	0.446875	0.275038	0.324819	0.703809	0.388173	0.489736	0.178834	0.178813	0.287333	0.443235	0.412904	0.715822	0.222700	0.249683	0.114053	0.153410	0.395053	0.223592	0.401908	0.763120	0.269240	0.427535	0.456291	0.805364	0.450733	0.381435	0.367868	0.613185	0.407276	0.228719	0.196681	0.163161	0.211321	0.408549	0.407326	0.369209	0.361661	0.360111	0.164957	0.331534	0.438002	0.324875	0.356446	0.512603	0.191800	0.180237	0.188845	0.219489	0.412641	0.318616	0.290148	0.423810	0.376669	0.494883
10	0.172217	0.237855	0.333994	0.394359	0.386607	0.770675	0.310219	0.265055	0.150477	0.316436	0.461705	0.307489	0.328771	0.688806	0.407450	0.583733	0.156756	0.183563	0.354728	0.439037	0.410680	0.670184	0.241935	0.294957	0.113668	0.161813	0.368180	0.241125	0.429065	0.785409	0.346102	0.443122	0.445149	0.762921	0.493144	0.382138	0.368101	0.610868	0.393970	0.352294	0.208787	0.163285	0.327444	0.603125	0.410249	0.370077	0.342399	0.360199	0.143225	0.294159	0.435599	0.412915	0.384979	0.578434	0.260523	0.189257	0.188981	0.219583	0.434237	0.363863	0.279795	0.412736	0.435867	0.526652
11	0.220334	0.329190	0.311689	0.400584	0.437703	0.819621	0.326940	0.263009	0.170998	0.321760	0.421382	0.312834	0.268363	0.574487	0.501456	0.642236	0.169991	0.170098	0.491461	0.437931	0.404638	0.636093	0.311184	0.299895	0.120222	0.165200	0.391215	0.237338	0.405019	0.703871	0.423664	0.451745	0.438274	0.754893	0.532935	0.371694	0.357024	0.587183	0.391309	0.441733	0.227444	0.177808	0.548809	0.660066	0.408925	0.358494	0.347595	0.384452	0.142353	0.269955	0.432456	0.471868	0.382643	0.553068	0.263865	0.192226	0.189825	0.218353	0.480961	0.405143	0.268213	0.387397	0.441338	0.530550
12	0.239048	0.351892	0.325904	0.414182	0.445641	0.816533	0.420323	0.274334	0.175176	0.348880	0.374294	0.342258	0.226861	0.510814	0.615557	0.651738	0.164923	0.168905	0.508581	0.480194	0.368569	0.541691	0.366844	0.344764	0.115200	0.154416	0.435605	0.232121	0.314749	0.581648	0.429407	0.457009	0.167101	0.494803	0.542509	0.420076	0.331238	0.568394	0.396096	0.453868	0.244628	0.199848	0.660204	0.690472	0.434160	0.447370	0.357790	0.401601	0.138558	0.255219	0.479868	0.462451	0.376580	0.554160	0.274568	0.195728	0.187814	0.209141	0.486559	0.413591	0.241648	0.335031	0.442398	0.504295
13	0.242797	0.348270	0.413363	0.405126	0.445174	0.816490	0.438984	0.324510	0.156539	0.333535	0.379053	0.376450	0.216663	0.489125	0.625224	0.650469	0.165062	0.170217	0.589850	0.519404	0.391387	0.558869	0.376561	0.365253	0.109896	0.143924	0.405475	0.234965	0.292119	0.525539	0.447326	0.460241	0.105940	0.358831	0.545297	0.503780	0.309424	0.443161	0.407823	0.465803	0.247091	0.210701	0.663716	0.781772	0.374871	0.426642	0.360738	0.406271	0.124747	0.176446	0.493036	0.461329	0.377018	0.551580	0.317935	0.215663	0.186946	0.199999	0.513156	0.419487	0.180108	0.200750	0.437600	0.436194
14	0.237582	0.318364	0.418012	0.406949	0.406105	0.755654	0.430156	0.336971	0.169500	0.364587	0.432767	0.401789	0.215443	0.485860	0.626366	0.616490	0.162801	0.170425	0.643426	0.550495	0.391675	0.555211	0.419521	0.367520	0.116897	0.160351	0.305150	0.195394	0.289046	0.515585	0.454323	0.463313	0.094709	0.289731	0.619362	0.542321	0.264463	0.305513	0.411028	0.501651	0.261843	0.238581	0.670115	0.860117	0.334005	0.370878	0.353593	0.355205	0.131172	0.143438	0.423509	0.434856	0.368094	0.558744	0.320238	0.230144	0.189879	0.208048	0.534432	0.398826	0.171707	0.176308	0.374397	0.366084
15	0.234256	0.309625	0.404209	0.406840	0.340098	0.540130	0.425013	0.293875	0.189520	0.397014	0.458718	0.416480	0.182691	0.363890	0.614341	0.536974	0.161609	0.165564	0.718198	0.560803	0.393764	0.555927	0.461203	0.368079	0.111244	0.156201	0.298887	0.159170	0.286762	0.516860	0.454275	0.470292	0.096025	0.264388	0.744338	0.550315	0.253996	0.290568	0.395592	0.527624	0.276056	0.272828	0.775299	0.912609	0.213684	0.345883	0.333492	0.298910	0.153483	0.226348	0.373115	0.428735	0.359520	0.564399	0.322904	0.284554	0.190991	0.211068	0.530526	0.346341	0.155420	0.175142	0.333002	0.341867
16	0.238299	0.315479	0.364893	0.401583	0.321899	0.442141	0.402082	0.258812	0.189833	0.407317	0.428524	0.414520	0.171907	0.257929	0.554457	0.470468	0.153334	0.158427	0.734677	0.451197	0.387824	0.546208	0.462136	0.386667	0.111320	0.167805	0.294755	0.151365	0.362438	0.615713	0.463312	0.477681	0.103024	0.247738	0.811642	0.555609	0.231118	0.212142	0.445452	0.527606	0.313047	0.311933	0.887755	0.923956	0.191435	0.324201	0.298354	0.306457	0.159473	0.330883	0.381165	0.487392	0.363199	0.564375	0.344517	0.318551	0.190359	0.201898	0.497716	0.315691	0.229539	0.237896	0.293583	0.274830
17	0.238164	0.312929	0.347698	0.348223	0.322389	0.426455	0.369870	0.247388	0.181056	0.353716	0.420286	0.413433	0.146408	0.187492	0.502961	0.426016	0.138769	0.140413	0.720153	0.394743	0.371272	0.508261	0.465304	0.405255	0.118889	0.204175	0.270779	0.121485	0.375961	0.639829	0.521099	0.479305	0.104621	0.248500	0.817595	0.555436	0.251516	0.205850	0.462338	0.527597	0.314336	0.330820	0.919496	0.903936	0.218063	0.336153	0.293992	0.306988	0.171885	0.333809	0.442253	0.549573	0.324737	0.467181	0.368112	0.314102	0.116361	0.123660	0.398984	0.309114	0.250556	0.388294	0.198618	0.157449
18	0.239109	0.316376	0.345752	0.301685	0.228088	0.304785	0.317693	0.242066	0.180695	0.341606	0.417984	0.407426	0.166773	0.329168	0.496392	0.285705	0.120445	0.123833	0.664902	0.393495	0.349445	0.451622	0.503236	0.382041	0.133415	0.314795	0.229253	0.121395	0.374694	0.643124	0.565787	0.438804	0.116054	0.248306	0.801959	0.515852	0.271342	0.239688	0.461107	0.528737	0.277316	0.312769	0.917511	0.884299	0.243738	0.364955	0.295070	0.271556	0.214837	0.358875	0.469192	0.491572	0.248212	0.385385	0.360649	0.298788	0.099634	0.101843	0.358181	0.297999	0.257480	0.407299	0.101527	0.093675
19	0.220631	0.293687	0.348946	0.276329	0.209298	0.325650	0.290074	0.255005	0.182368	0.327973	0.406156	0.385862	0.162786	0.354475	0.361009	0.136138	0.084245	0.174226	0.578114	0.394303	0.343467	0.426116	0.516475	0.343324	0.139285	0.344922	0.121377	0.186193	0.373095	0.628655	0.579199	0.315968	0.125138	0.243972	0.756048	0.470183	0.294532	0.311377	0.391973	0.528876	0.267312	0.294205	0.914414	0.860570	0.267495	0.406927	0.274867	0.204060	0.251731	0.418678	0.415608	0.473384	0.243173	0.263889	0.318984	0.296586	0.100376	0.107332	0.306653	0.226372	0.271856	0.415786	0.098142	0.092438
20	0.150964	0.226564	0.353112	0.198952	0.240139	0.387331	0.104257	0.236063	0.166359	0.337036	0.405375	0.389269	0.196711	0.387498	0.179094	0.138533	0.080515	0.171743	0.582161	0.537811	0.355144	0.435172	0.477031	0.338667	0.151640	0.346214	0.180465	0.220283	0.372685	0.576544	0.576950	0.287151	0.131430	0.277538	0.713268	0.459002	0.300418	0.319233	0.368749	0.520862	0.255864	0.294529	0.864740	0.724241	0.221660	0.292818	0.178941	0.175273	0.250292	0.423267	0.366606	0.506257	0.223456	0.203803	0.280061	0.292924	0.102564	0.185690	0.264506	0.166072	0.296430	0.451780	0.094884	0.101760
21	0.134247	0.238827	0.346961	0.139493	0.276021	0.403797	0.106585	0.159279	0.160866	0.356851	0.390906	0.419624	0.200756	0.437509	0.183960	0.161606	0.082991	0.204441	0.575369	0.718088	0.305859	0.389559	0.434089	0.288141	0.174951	0.346354	0.337121	0.277019	0.372238	0.570228	0.566248	0.275302	0.127533	0.285666	0.685743	0.449744	0.297739	0.350365	0.368414	0.440162	0.241487	0.283651	0.735184	0.684901	0.227486	0.378542	0.136877	0.125559	0.252162	0.423660	0.416039	0.528177	0.229927	0.217174	0.276683	0.294195	0.104222	0.234489	0.279869	0.217054	0.289357	0.460878	0.100687	0.102783
22	0.135664	0.253958	0.238191	0.136555	0.288928	0.428073	0.125570	0.139685	0.156837	0.324358	0.407086	0.372176	0.201545	0.446477	0.202004	0.160583	0.100924	0.233760	0.583199	0.704061	0.265398	0.339099	0.423215	0.248409	0.177001	0.348023	0.385024	0.290610	0.354361	0.544047	0.531640	0.244787	0.129439	0.281253	0.658397	0.442313	0.292222	0.361833	0.366346	0.344503	0.227029	0.277298	0.660643	0.628746	0.246615	0.480609	0.137659	0.115774	0.242622	0.419992	0.425081	0.533369	0.233652	0.239627	0.245091	0.277660	0.110271	0.268050	0.274244	0.313131	0.302033	0.469936	0.100674	0.105245
23	0.134116	0.264108	0.179131	0.160524	0.302029	0.472330	0.129056	0.141164	0.146022	0.332916	0.392897	0.334886	0.214416	0.455556	0.205451	0.166909	0.179273	0.292127	0.509541	0.772088	0.267791	0.350350	0.367932	0.242884	0.180332	0.349164	0.399562	0.370232	0.306717	0.480133	0.464737	0.229624	0.165074	0.293110	0.655839	0.372634	0.281336	0.357963	0.360201	0.331178	0.223929	0.273551	0.659931	0.503266	0.275863	0.580146	0.133322	0.097147	0.216639	0.316557	0.419382	0.519942	0.231169	0.246428	0.206998	0.276786	0.105935	0.263683	0.313476	0.322954	0.303509	0.468014	0.093521	0.102813
24	0.187621	0.307041	0.166273	0.159712	0.299817	0.466942	0.130535	0.143006	0.127235	0.307635	0.294470	0.331245	0.217229	0.461182	0.261609	0.175991	0.193969	0.319298	0.591005	0.841651	0.262715	0.356552	0.292819	0.249330	0.174078	0.334034	0.476608	0.458469	0.285401	0.468656	0.436091	0.245281	0.168166	0.299275	0.621086	0.257533	0.254715	0.373630	0.335444	0.314038	0.207451	0.260978	0.640996	0.346302	0.285927	0.592824	0.163474	0.124864	0.218141	0.284555	0.378878	0.407697	0.238638	0.310535	0.215571	0.251391	0.105615	0.263051	0.355481	0.335222	0.234192	0.423919	0.082651	0.103129
25	0.230918	0.384358	0.154494	0.165469	0.300118	0.460700	0.130765	0.161088	0.124652	0.297184	0.311792	0.339461	0.220696	0.449883	0.319952	0.179524	0.205537	0.315295	0.696584	0.852746	0.258080	0.376480	0.301502	0.221452	0.163193	0.241550	0.597055	0.481954	0.284206	0.459805	0.433745	0.269037	0.206448	0.375600	0.510945	0.175333	0.228313	0.416518	0.308330	0.255493	0.183329	0.243624	0.483529	0.259847	0.270610	0.593526	0.207917	0.158023	0.198700	0.274730	0.303499	0.305318	0.237893	0.315002	0.214801	0.183013	0.103944	0.265431	0.359269	0.364332	0.238598	0.367893	0.066692	0.109387
26	0.235504	0.400204	0.153604	0.183391	0.286965	0.445663	0.172314	0.183414	0.130722	0.370826	0.365935	0.340625	0.170884	0.342491	0.330086	0.181317	0.208894	0.315514	0.702052	0.853310	0.251854	0.393400	0.304395	0.159017	0.169076	0.183749	0.626287	0.460066	0.280588	0.470349	0.426698	0.275493	0.289942	0.445242	0.308589	0.179868	0.238699	0.450928	0.283581	0.185373	0.118515	0.192976	0.321959	0.309513	0.247743	0.576364	0.244659	0.152881	0.135630	0.198470	0.274952	0.329053	0.236395	0.354043	0.177417	0.135152	0.106676	0.267172	0.445743	0.406372	0.226591	0.356888	0.059583	0.115332
27	0.238007	0.403419	0.144529	0.195103	0.223393	0.311920	0.230096	0.162202	0.132010	0.372121	0.371894	0.347670	0.161825	0.320286	0.323276	0.181413	0.200548	0.282406	0.699950	0.847466	0.247161	0.414995	0.239569	0.112090	0.191785	0.180869	0.612540	0.504324	0.304569	0.542099	0.433036	0.266718	0.320444	0.459006	0.172472	0.213065	0.257239	0.504502	0.190692	0.145125	0.129168	0.199582	0.376009	0.416729	0.220797	0.552250	0.256265	0.186663	0.074208	0.104552	0.313234	0.385182	0.221456	0.381429	0.153425	0.125088	0.107673	0.270264	0.545573	0.433004	0.192342	0.313095	0.056669	0.136390
28	0.238555	0.402515	0.134266	0.195291	0.179768	0.281731	0.239246	0.151999	0.149770	0.377474	0.375664	0.370071	0.143661	0.306480	0.311671	0.166631	0.200511	0.282279	0.669771	0.689528	0.238238	0.417289	0.154028	0.148791	0.189717	0.234295	0.552215	0.571929	0.262647	0.521564	0.432070	0.246749	0.343944	0.497668	0.173416	0.214176	0.237534	0.504246	0.144723	0.128003	0.152474	0.210098	0.500032	0.484082	0.219699	0.550776	0.345753	0.219965	0.066741	0.098462	0.321984	0.498568	0.211798	0.402417	0.158569	0.124981	0.136926	0.263019	0.584357	0.447860	0.178798	0.293871	0.094160	0.129699
29	0.241511	0.397216	0.123520	0.196958	0.161809	0.289597	0.227447	0.248607	0.143754	0.366358	0.398276	0.390980	0.165422	0.268097	0.295349	0.216442	0.199020	0.258521	0.597142	0.510060	0.227271	0.410705	0.147608	0.174799	0.180189	0.240641	0.558266	0.572878	0.210284	0.467418	0.385765	0.233259	0.366307	0.555643	0.181773	0.220445	0.212949	0.480306	0.130486	0.121031	0.168623	0.219550	0.542872	0.488725	0.205715	0.456661	0.393889	0.228720	0.055511	0.102748	0.314568	0.494140	0.202760	0.417384	0.173329	0.125112	0.137548	0.229974	0.589412	0.446280	0.173878	0.264100	0.222562	0.247392
30	0.229961	0.384092	0.106588	0.193256	0.117412	0.184738	0.260530	0.505593	0.130074	0.328664	0.423363	0.355167	0.164718	0.256809	0.292152	0.443969	0.187130	0.273068	0.519658	0.489776	0.166989	0.331091	0.144401	0.172574	0.183177	0.242649	0.609710	0.569322	0.239673	0.463683	0.289754	0.228759	0.372746	0.534141	0.183829	0.228737	0.178355	0.434890	0.128078	0.119663	0.193279	0.242993	0.566992	0.538520	0.182337	0.374219	0.395247	0.231526	0.060418	0.107393	0.321094	0.542625	0.201224	0.420515	0.176504	0.123281	0.122272	0.134817	0.573139	0.417848	0.154192	0.260261	0.233741	0.272851
31	0.239095	0.394304	0.088505	0.184027	0.109884	0.156419	0.350833	0.540332	0.120914	0.320190	0.417624	0.375102	0.149342	0.252893	0.322040	0.457904	0.118731	0.261539	0.513784	0.407510	0.150435	0.318101	0.140044	0.186715	0.184753	0.250544	0.575184	0.548035	0.246012	0.488230	0.219512	0.238303	0.387922	0.509942	0.192643	0.239283	0.175224	0.429642	0.129663	0.119745	0.194751	0.257075	0.686583	0.599445	0.138795	0.196402	0.392173	0.231206	0.099059	0.141204	0.332353	0.573042	0.191553	0.407600	0.175943	0.114185	0.117348	0.116434	0.558370	0.393678	0.144707	0.226206	0.238042	0.286657
32	0.247383	0.391461	0.091573	0.198086	0.118183	0.151583	0.455297	0.603355	0.159708	0.295847	0.390412	0.442408	0.151058	0.252564	0.386357	0.490128	0.108360	0.248493	0.400278	0.439699	0.142101	0.318036	0.130350	0.200135	0.197711	0.299509	0.490237	0.521274	0.247331	0.507976	0.192290	0.239568	0.395736	0.513107	0.228969	0.246250	0.179847	0.402337	0.129337	0.119163	0.199931	0.255666	0.770577	0.632761	0.119414	0.173228	0.377917	0.260457	0.105049	0.175401	0.399025	0.589283	0.198587	0.391862	0.174383	0.126439	0.113309	0.116424	0.555481	0.396507	0.145382	0.232222	0.253328	0.297920
33	0.217631	0.368669	0.180748	0.636460	0.112463	0.158864	0.482253	0.691291	0.160535	0.305113	0.391572	0.469231	0.158824	0.249505	0.388421	0.539263	0.088197	0.255468	0.309898	0.447974	0.160427	0.335601	0.111497	0.192084	0.205066	0.363180	0.444715	0.521914	0.252686	0.508649	0.187102	0.240013	0.395267	0.531556	0.254091	0.245515	0.176504	0.390026	0.129641	0.116437	0.237866	0.370485	0.808858	0.658219	0.098232	0.158643	0.357806	0.421759	0.117565	0.221740	0.454267	0.596374	0.205889	0.387888	0.165309	0.140667	0.120358	0.150160	0.555972	0.390745	0.199199	0.297779	0.367703	0.298528
34	0.164825	0.286430	0.244130	0.739019	0.133818	0.153186	0.567785	0.699933	0.190378	0.324007	0.507338	0.476222	0.184956	0.254961	0.424050	0.572244	0.094783	0.254636	0.349906	0.452431	0.164377	0.319772	0.078827	0.190519	0.240051	0.578465	0.441306	0.482193	0.260583	0.509029	0.198289	0.241448	0.384598	0.520645	0.256392	0.246074	0.175923	0.387947	0.125239	0.113716	0.266685	0.410071	0.844255	0.674133	0.087178	0.149422	0.388666	0.539824	0.118098	0.235311	0.451522	0.568229	0.204318	0.366811	0.146004	0.142277	0.120443	0.185471	0.552802	0.539519	0.205238	0.308532	0.371379	0.311550
35	0.161527	0.260617	0.328244	0.741852	0.175087	0.156616	0.572342	0.699266	0.205770	0.256206	0.582773	0.476134	0.220704	0.270312	0.439346	0.574925	0.133787	0.268344	0.351081	0.460878	0.161806	0.289745	0.043555	0.191099	0.220191	0.562162	0.446329	0.360469	0.272577	0.536676	0.213312	0.246449	0.386615	0.514787	0.251088	0.255905	0.169705	0.375105	0.118548	0.108315	0.275693	0.438384	0.854353	0.657284	0.135279	0.157674	0.464285	0.547042	0.118453	0.236714	0.412615	0.452526	0.257303	0.382470	0.125585	0.186642	0.120120	0.189859	0.488237	0.656878	0.227950	0.354371	0.372637	0.334535
36	0.197717	0.276492	0.401832	0.757859	0.190242	0.255501	0.570150	0.701360	0.212039	0.244880	0.581920	0.590191	0.238710	0.210750	0.441500	0.572728	0.143017	0.272925	0.380465	0.531509	0.154994	0.251667	0.071820	0.216733	0.229268	0.560562	0.399993	0.339825	0.277928	0.551728	0.214108	0.244687	0.353883	0.443023	0.269266	0.319470	0.166000	0.323773	0.117228	0.102574	0.278347	0.443069	0.831930	0.621750	0.169102	0.212909	0.430682	0.626648	0.118691	0.237931	0.373013	0.362679	0.233057	0.328881	0.109768	0.355658	0.114076	0.191445	0.491775	0.647711	0.248892	0.427728	0.353322	0.325416
37	0.205278	0.277826	0.443853	0.787173	0.195581	0.289280	0.565709	0.622464	0.207653	0.243093	0.594121	0.857451	0.262153	0.223630	0.447910	0.541467	0.145636	0.278549	0.403108	0.601596	0.145879	0.232330	0.094891	0.233282	0.225704	0.568053	0.292624	0.301783	0.278397	0.550360	0.204812	0.223560	0.309151	0.405063	0.317131	0.290576	0.176266	0.317102	0.126832	0.111591	0.271142	0.433253	0.779726	0.586710	0.230957	0.270037	0.436562	0.647965	0.126929	0.253936	0.346175	0.336217	0.228205	0.304704	0.154868	0.457954	0.112784	0.189335	0.516038	0.665537	0.258702	0.438406	0.312616	0.242725
38	0.236884	0.278733	0.657318	0.816801	0.243284	0.347533	0.539062	0.481266	0.198658	0.242386	0.664485	0.948471	0.263084	0.235027	0.465511	0.386928	0.143952	0.230418	0.426580	0.636806	0.128123	0.213457	0.116678	0.232644	0.223252	0.558965	0.274532	0.249716	0.275641	0.543903	0.191197	0.202022	0.291773	0.421888	0.370220	0.279318	0.266931	0.525439	0.129728	0.107849	0.275926	0.467489	0.739677	0.648382	0.242515	0.274662	0.469856	0.658625	0.121517	0.269054	0.353858	0.252014	0.221348	0.279221	0.195744	0.478256	0.141209	0.208683	0.512079	0.749516	0.255786	0.438227	0.317435	0.235062
39	0.251680	0.274852	0.741095	0.845162	0.294241	0.357752	0.455516	0.462104	0.212144	0.244400	0.812018	0.967135	0.266567	0.226136	0.454096	0.372429	0.143083	0.170727	0.485927	0.592122	0.119468	0.200344	0.134670	0.241541	0.216909	0.544912	0.176965	0.272430	0.253556	0.487846	0.176075	0.200210	0.241890	0.340225	0.397018	0.293378	0.319649	0.583578	0.130147	0.104496	0.278754	0.502474	0.805673	0.713588	0.241781	0.283396	0.485941	0.669391	0.097958	0.250626	0.349297	0.257900	0.215187	0.263721	0.228121	0.494116	0.140071	0.212337	0.522442	0.818263	0.286150	0.452144	0.331257	0.211918
40	0.244172	0.247618	0.763295	0.851457	0.289845	0.390092	0.421012	0.326407	0.240493	0.255644	0.936182	1.014285	0.267058	0.230650	0.351354	0.321004	0.139738	0.154329	0.458300	0.483028	0.101831	0.188345	0.164542	0.232959	0.204598	0.524801	0.164259	0.266838	0.218425	0.368264	0.166561	0.198677	0.221329	0.277383	0.398249	0.297083	0.380321	0.667644	0.131673	0.104760	0.263589	0.495554	0.913350	0.726149	0.245905	0.286456	0.499207	0.644076	0.097528	0.229349	0.263359	0.237147	0.218764	0.267243	0.232706	0.537212	0.138014	0.217302	0.588954	0.836024	0.271975	0.386245	0.274606	0.196936
41	0.235298	0.246651	0.773261	0.848523	0.284249	0.429009	0.323253	0.136536	0.236448	0.258610	0.959514	1.123328	0.255885	0.232745	0.316025	0.227521	0.136783	0.147121	0.405784	0.472099	0.112894	0.176046	0.167996	0.243629	0.119869	0.240695	0.179837	0.283903	0.210484	0.350497	0.166675	0.199558	0.210611	0.289588	0.468204	0.298324	0.396423	0.714452	0.126855	0.105801	0.262298	0.492212	0.984542	0.746705	0.258119	0.306308	0.513465	0.544946	0.118572	0.204177	0.201369	0.230136	0.234767	0.287532	0.248619	0.580080	0.147855	0.213113	0.750955	0.854409	0.261537	0.372324	0.199747	0.203629
42	0.243355	0.336801	0.758540	0.611124	0.271815	0.433881	0.163797	0.132812	0.219944	0.243632	0.973406	1.187606	0.237866	0.233080	0.253875	0.219636	0.133130	0.145933	0.370295	0.464644	0.093808	0.110085	0.185243	0.314153	0.116613	0.203122	0.166964	0.301740	0.164538	0.333582	0.163720	0.235758	0.218655	0.309486	0.573669	0.301619	0.393726	0.719869	0.123353	0.133065	0.259593	0.482570	0.997100	0.733268	0.257599	0.307638	0.479702	0.442090	0.124365	0.200318	0.198422	0.238802	0.241473	0.303232	0.261579	0.588702	0.146003	0.178570	0.842459	0.846971	0.265096	0.366756	0.205806	0.146198
43	0.242027	0.339161	0.749676	0.456056	0.248131	0.414468	0.150266	0.127318	0.214594	0.238842	1.047767	1.220623	0.202496	0.193395	0.265114	0.240131	0.116534	0.133178	0.369051	0.452875	0.084601	0.077592	0.296747	0.356247	0.101013	0.208800	0.206968	0.302790	0.153482	0.314624	0.170597	0.300537	0.218822	0.282221	0.570877	0.361700	0.391181	0.719799	0.128359	0.219237	0.232707	0.406637	0.968512	0.767649	0.240109	0.326397	0.385873	0.412781	0.124601	0.198607	0.205500	0.243867	0.228368	0.257296	0.277345	0.585090	0.145414	0.171788	0.854996	0.711755	0.255619	0.339762	0.212903	0.123923
44	0.237573	0.337481	0.740775	0.449622	0.244858	0.376113	0.148636	0.107154	0.200630	0.175092	1.124122	1.222146	0.145867	0.180094	0.279698	0.235239	0.113451	0.133918	0.337025	0.361987	0.084229	0.072314	0.371570	0.368459	0.104809	0.204610	0.231425	0.380256	0.152107	0.258413	0.204334	0.367337	0.217764	0.273675	0.566662	0.429387	0.391164	0.719801	0.159571	0.285940	0.192391	0.349928	0.952125	0.835936	0.236747	0.312378	0.363138	0.274297	0.124776	0.196414	0.201580	0.244318	0.187257	0.253070	0.295160	0.585179	0.141455	0.174520	0.834282	0.651201	0.252548	0.298300	0.206837	0.128482
45	0.208915	0.322624	0.712754	0.418256	0.236125	0.346040	0.156076	0.132876	0.201288	0.187692	1.155728	1.209119	0.097186	0.133960	0.269761	0.237892	0.124836	0.150588	0.324910	0.247822	0.085731	0.097959	0.383515	0.358562	0.132398	0.222306	0.227143	0.420985	0.149215	0.245163	0.234110	0.387448	0.215645	0.288968	0.577644	0.462710	0.390758	0.719789	0.279949	0.324753	0.182039	0.307741	0.996414	0.870117	0.192554	0.276931	0.317194	0.229638	0.108300	0.141235	0.207284	0.270169	0.162865	0.221579	0.313095	0.546644	0.143498	0.173295	0.782787	0.653508	0.258976	0.306488	0.211691	0.118443
46	0.210145	0.320870	0.691339	0.365936	0.128132	0.273110	0.250495	0.336458	0.224173	0.227537	1.159619	1.060715	0.101145	0.124808	0.232647	0.242821	0.142095	0.178355	0.290794	0.279874	0.088254	0.111808	0.380361	0.336084	0.137312	0.235109	0.312046	0.397395	0.139854	0.247261	0.245756	0.393629	0.206719	0.286493	0.604705	0.449948	0.390267	0.714230	0.391669	0.350003	0.171603	0.301934	1.095632	0.878663	0.179615	0.276297	0.282609	0.193313	0.106594	0.115058	0.224187	0.279898	0.161029	0.261938	0.310580	0.445413	0.113640	0.160416	0.777400	0.617528	0.263952	0.317902	0.194861	0.119340
47	0.194860	0.318532	0.501849	0.376995	0.098817	0.234145	0.358016	0.486073	0.257099	0.332137	1.138367	0.921412	0.132307	0.139710	0.210627	0.242965	0.141347	0.179129	0.203016	0.389574	0.206301	0.289976	0.374590	0.322072	0.132419	0.217944	0.336472	0.435111	0.137167	0.241884	0.244357	0.407746	0.205995	0.283317	0.602146	0.488103	0.389998	0.715696	0.419705	0.356022	0.157668	0.293453	1.175635	0.851911	0.180715	0.268962	0.269449	0.153303	0.108856	0.109748	0.243189	0.240012	0.165361	0.282444	0.287550	0.370698	0.122001	0.171751	0.793462	0.483611	0.212828	0.287175	0.179369	0.129138
48	0.171505	0.295872	0.363390	0.363750	0.108886	0.197075	0.409162	0.509047	0.262304	0.367447	1.052296	0.847875	0.189155	0.210833	0.206979	0.238970	0.161839	0.228356	0.204405	0.398647	0.230941	0.428594	0.368821	0.314375	0.129770	0.211886	0.332985	0.484120	0.110655	0.164976	0.238592	0.405282	0.193654	0.250014	0.578638	0.511199	0.377850	0.693442	0.414623	0.388100	0.124139	0.220986	1.171567	0.812084	0.175368	0.271541	0.228734	0.125347	0.096822	0.108094	0.256796	0.259823	0.172768	0.279997	0.250809	0.363031	0.137441	0.183670	0.788792	0.380289	0.204549	0.267026	0.178600	0.131730
49	0.166051	0.299083	0.328924	0.347010	0.111118	0.095162	0.414815	0.575594	0.293020	0.457307	0.910492	0.831445	0.224417	0.283529	0.204665	0.216107	0.179109	0.279365	0.211341	0.441738	0.258382	0.448516	0.359007	0.321682	0.131041	0.210525	0.383848	0.478310	0.170068	0.258330	0.289723	0.410152	0.193975	0.222687	0.572261	0.526951	0.302572	0.505175	0.412216	0.417285	0.104563	0.163184	1.106105	0.756803	0.196336	0.238948	0.168771	0.165627	0.073546	0.087439	0.291586	0.272808	0.178299	0.279496	0.232770	0.325090	0.135166	0.178085	0.694908	0.346121	0.192155	0.270581	0.169313	0.138880
50	0.161920	0.313714	0.341324	0.372265	0.120864	0.104190	0.569853	0.600971	0.302752	0.467036	0.842452	0.671796	0.225448	0.307118	0.191131	0.156785	0.199988	0.297234	0.226239	0.486951	0.257053	0.466275	0.361972	0.347174	0.152982	0.249076	0.370400	0.471240	0.211060	0.350036	0.343944	0.427522	0.193357	0.224206	0.592739	0.606158	0.240758	0.430553	0.436923	0.451000	0.106329	0.151677	0.996116	0.706617	0.219390	0.233642	0.157754	0.202191	0.240144	0.299947	0.423585	0.279796	0.164687	0.264876	0.223882	0.226548	0.122635	0.177757	0.497578	0.385107	0.195759	0.281026	0.187322	0.143028
51	0.170144	0.222637	0.354557	0.423302	0.162059	0.135461	0.660817	0.601323	0.302509	0.464554	0.839558	0.480893	0.373131	0.455656	0.161188	0.155563	0.205680	0.367230	0.292514	0.494696	0.264006	0.466007	0.372152	0.370837	0.158103	0.247982	0.394430	0.429209	0.215409	0.369572	0.347805	0.449135	0.193117	0.228269	0.592623	0.720091	0.142317	0.285605	0.546508	0.465802	0.148518	0.154589	0.881660	0.639370	0.214651	0.219432	0.177528	0.211150	0.357550	0.534720	0.443007	0.284599	0.152234	0.247296	0.210697	0.108706	0.122363	0.177987	0.365396	0.393583	0.250293	0.298140	0.171122	0.122736
52	0.285455	0.338508	0.397122	0.436233	0.187747	0.242902	0.663859	0.600297	0.301428	0.464663	0.785203	0.330072	0.398545	0.539447	0.200355	0.153538	0.202645	0.379038	0.292305	0.497605	0.274735	0.466307	0.329799	0.355849	0.135058	0.231944	0.422340	0.352095	0.228379	0.400024	0.347086	0.464075	0.169847	0.209495	0.579972	0.843777	0.097264	0.134198	0.625412	0.466640	0.185293	0.187286	0.845369	0.629860	0.260289	0.263912	0.179830	0.227441	0.403731	0.581250	0.444492	0.309548	0.141355	0.251741	0.202648	0.068616	0.129459	0.158998	0.356239	0.415382	0.307039	0.276483	0.166013	0.133127
53	0.348750	0.440994	0.498738	0.437971	0.200767	0.335473	0.657331	0.591038	0.290066	0.470678	0.575592	0.293626	0.400205	0.547167	0.225974	0.143384	0.193485	0.383350	0.280067	0.514973	0.280327	0.477214	0.261881	0.367084	0.126572	0.240868	0.380926	0.349687	0.239650	0.404604	0.348897	0.470766	0.214266	0.321826	0.658691	0.903099	0.088288	0.099659	0.635774	0.460133	0.176909	0.193852	0.859361	0.574977	0.290568	0.323018	0.161963	0.256578	0.404007	0.583905	0.435113	0.326661	0.150272	0.251945	0.201601	0.062417	0.152268	0.214128	0.379992	0.417516	0.331187	0.263606	0.176469	0.249236
54	0.364389	0.455332	0.545140	0.446448	0.205688	0.393550	0.624157	0.451659	0.286951	0.470922	0.341788	0.306679	0.398584	0.547143	0.222466	0.134741	0.179806	0.371051	0.281458	0.458565	0.311860	0.487904	0.236932	0.410338	0.167188	0.273898	0.426944	0.323555	0.273962	0.402982	0.359860	0.461511	0.301678	0.441597	0.747514	0.892584	0.096379	0.103052	0.634543	0.427474	0.199075	0.331906	0.875578	0.698480	0.290332	0.322288	0.137396	0.259416	0.403839	0.583984	0.427970	0.362558	0.217166	0.297422	0.176581	0.058279	0.238312	0.447503	0.362911	0.406337	0.338432	0.275221	0.229833	0.280302
55	0.366240	0.465617	0.549430	0.458084	0.204066	0.408386	0.579894	0.397098	0.279131	0.456314	0.282042	0.310726	0.384658	0.536608	0.244297	0.159001	0.184834	0.370339	0.292888	0.407951	0.318216	0.512883	0.272205	0.426709	0.175261	0.290195	0.476032	0.229810	0.277986	0.407016	0.366906	0.426530	0.315360	0.472431	0.802793	0.866079	0.124976	0.117069	0.626740	0.387886	0.214749	0.338487	0.869113	0.759979	0.289322	0.320209	0.150539	0.276769	0.405882	0.586848	0.449049	0.362492	0.262770	0.307431	0.157602	0.061637	0.282860	0.496833	0.380123	0.409158	0.344703	0.286368	0.243564	0.276058
56	0.375347	0.482880	0.587660	0.414243	0.194967	0.408988	0.555541	0.334451	0.287165	0.436424	0.283915	0.338771	0.356303	0.514216	0.257767	0.161593	0.164162	0.337940	0.297170	0.476307	0.263527	0.452108	0.316189	0.434671	0.178992	0.324619	0.444232	0.188297	0.294883	0.462027	0.367821	0.365385	0.318734	0.487808	0.820795	0.856960	0.208171	0.307506	0.583934	0.359211	0.258058	0.393081	0.841217	0.757822	0.286490	0.313997	0.166742	0.273978	0.408899	0.590082	0.450560	0.362561	0.301828	0.302471	0.153045	0.057412	0.275079	0.482882	0.364793	0.417345	0.361050	0.299892	0.257720	0.269805
57	0.400563	0.511868	0.645277	0.359634	0.218227	0.415105	0.534164	0.229035	0.279361	0.372772	0.284390	0.356470	0.349059	0.498692	0.329292	0.168180	0.155148	0.304777	0.377807	0.476123	0.234223	0.322248	0.320572	0.441085	0.164910	0.300428	0.433321	0.185513	0.298759	0.462025	0.364093	0.317337	0.322798	0.500716	0.805189	0.849205	0.219126	0.461776	0.521411	0.337800	0.272028	0.471537	0.801185	0.755444	0.254570	0.309953	0.208145	0.268569	0.402550	0.584406	0.381700	0.381323	0.324081	0.332812	0.158881	0.080592	0.310395	0.492628	0.363917	0.399127	0.358633	0.291326	0.322433	0.280352
58	0.406162	0.523512	0.677331	0.355374	0.203877	0.410149	0.292876	0.225926	0.261845	0.255833	0.287091	0.377380	0.359345	0.507241	0.336408	0.160970	0.132317	0.292184	0.400212	0.440866	0.203978	0.305089	0.319720	0.435948	0.159283	0.352260	0.403193	0.165620	0.306157	0.476809	0.351258	0.313161	0.342038	0.531227	0.797886	0.811065	0.239098	0.502744	0.500800	0.328136	0.271220	0.464544	0.792613	0.765551	0.241964	0.299999	0.207293	0.271089	0.306313	0.399642	0.316067	0.395967	0.320862	0.336668	0.159026	0.099659	0.337814	0.535698	0.363998	0.392675	0.355919	0.281381	0.322442	0.305744
59	0.407218	0.512519	0.674528	0.332361	0.170803	0.403668	0.238793	0.225336	0.220308	0.198780	0.284565	0.425878	0.189406	0.367721	0.425735	0.143352	0.121123	0.197618	0.359893	0.466155	0.227381	0.282248	0.321947	0.408344	0.157270	0.370199	0.374008	0.142406	0.302648	0.470444	0.337724	0.292131	0.447055	0.579706	0.789607	0.816631	0.328350	0.658407	0.506044	0.284817	0.296420	0.464449	0.841796	0.790420	0.249885	0.284279	0.224484	0.261727	0.251090	0.340395	0.345800	0.397991	0.320948	0.338082	0.153869	0.100006	0.342685	0.556403	0.344388	0.333751	0.257101	0.195700	0.322029	0.312920
60	0.406367	0.520355	0.669517	0.268185	0.177919	0.322483	0.227262	0.217408	0.216675	0.242336	0.296141	0.411304	0.163586	0.268470	0.438137	0.145689	0.125328	0.148251	0.383683	0.493205	0.227869	0.283730	0.318571	0.335073	0.159820	0.442725	0.382368	0.135340	0.301715	0.485308	0.336463	0.289051	0.473368	0.611184	0.767104	0.812581	0.329983	0.679147	0.506642	0.236272	0.307744	0.466713	0.870525	0.798801	0.179891	0.243169	0.228374	0.244144	0.257513	0.322001	0.345867	0.366791	0.320031	0.337985	0.153050	0.102484	0.344367	0.592153	0.341781	0.321642	0.226028	0.194211	0.319428	0.286357
61	0.344846	0.471620	0.660898	0.246137	0.218943	0.326244	0.223695	0.194576	0.257357	0.270166	0.331819	0.375196	0.163768	0.261551	0.426530	0.148454	0.132065	0.130870	0.458209	0.495136	0.214097	0.283541	0.339431	0.297746	0.129991	0.436118	0.329590	0.163047	0.291365	0.468746	0.326317	0.341709	0.473673	0.622077	0.748724	0.788609	0.330415	0.680880	0.481293	0.166274	0.334402	0.481409	0.858932	0.804074	0.204886	0.268334	0.239894	0.239269	0.261089	0.326204	0.337698	0.351461	0.311833	0.328515	0.156171	0.119454	0.342440	0.596072	0.336335	0.242477	0.184190	0.197336	0.296878	0.206417
62	0.293238	0.386151	0.573077	0.273451	0.236577	0.332409	0.171583	0.190896	0.265553	0.303687	0.336586	0.338734	0.176431	0.286306	0.424606	0.148064	0.131051	0.148135	0.529330	0.520487	0.208367	0.267101	0.386288	0.270715	0.172369	0.428582	0.248103	0.174357	0.253754	0.408471	0.271638	0.474037	0.474581	0.629186	0.754305	0.721814	0.328671	0.683731	0.348943	0.141491	0.489771	0.545646	0.860621	0.806000	0.213766	0.308839	0.240935	0.235635	0.262509	0.325525	0.304592	0.332535	0.305655	0.312197	0.172673	0.121168	0.342806	0.570454	0.315060	0.228012	0.164594	0.175567	0.272797	0.261240
63	0.329365	0.403122	0.518407	0.290858	0.306018	0.445485	0.213138	0.216093	0.302352	0.343628	0.317355	0.369858	0.189871	0.315633	0.414189	0.121401	0.126330	0.154227	0.533445	0.495124	0.163269	0.258982	0.392469	0.245621	0.230191	0.468212	0.237147	0.174322	0.298041	0.417395	0.297945	0.511953	0.463321	0.614706	0.724399	0.615157	0.327197	0.685308	0.184798	0.154439	0.519079	0.546281	0.843800	0.757592	0.215884	0.315006	0.235333	0.218439	0.265691	0.334831	0.283500	0.335692	0.299811	0.307137	0.174124	0.126272	0.272727	0.387481	0.298243	0.224129	0.123935	0.156927	0.274180	0.264145
64	0.339889	0.408818	0.543309	0.305364	0.310971	0.463677	0.283305	0.204328	0.335911	0.354128	0.383016	0.424412	0.196453	0.299583	0.404522	0.122278	0.138946	0.168092	0.519065	0.419237	0.159287	0.212755	0.382630	0.255271	0.254397	0.496002	0.238742	0.179325	0.325542	0.417190	0.363406	0.497496	0.425396	0.531398	0.681005	0.545319	0.328250	0.686563	0.166143	0.161119	0.560647	0.498190	0.799316	0.522025	0.249944	0.337036	0.243540	0.237238	0.262601	0.346079	0.291840	0.316267	0.222930	0.245909	0.174459	0.130074	0.247659	0.377180	0.228942	0.228192	0.112924	0.155441	0.220630	0.258872
65	0.322174	0.413008	0.641424	0.295879	0.299019	0.462799	0.281186	0.229965	0.383257	0.362459	0.436763	0.445300	0.179666	0.260837	0.361187	0.115089	0.127056	0.147729	0.473214	0.381064	0.161044	0.211132	0.346548	0.251396	0.250628	0.460731	0.289657	0.217181	0.334204	0.418049	0.427707	0.491808	0.372394	0.483275	0.688015	0.526332	0.325560	0.686368	0.192800	0.159800	0.612857	0.535798	0.712955	0.415948	0.299222	0.390827	0.222403	0.235462	0.252144	0.336378	0.298481	0.273503	0.200095	0.235389	0.208031	0.134527	0.260207	0.409577	0.225564	0.265087	0.114726	0.149071	0.131753	0.241715
66	0.297060	0.453952	0.640873	0.298798	0.318679	0.478770	0.307533	0.245739	0.463938	0.439178	0.480653	0.433372	0.162395	0.223564	0.351078	0.115287	0.113633	0.133586	0.500402	0.408496	0.161035	0.190987	0.342421	0.303662	0.253096	0.453366	0.320512	0.247557	0.314309	0.422208	0.445869	0.510124	0.370369	0.456198	0.679977	0.526196	0.318341	0.687802	0.210008	0.159091	0.599524	0.499673	0.595621	0.416289	0.360955	0.488867	0.220429	0.217204	0.177269	0.246521	0.259625	0.256079	0.105406	0.149499	0.231342	0.149741	0.211291	0.424742	0.230354	0.337982	0.120803	0.145269	0.129823	0.223513
67	0.289309	0.508087	0.601190	0.441795	0.334794	0.468662	0.346852	0.250599	0.503688	0.553647	0.491118	0.433949	0.196201	0.298260	0.199510	0.092045	0.110275	0.129150	0.525866	0.426100	0.164770	0.172419	0.373909	0.365701	0.251702	0.368796	0.306673	0.251343	0.308329	0.421602	0.441670	0.546713	0.390540	0.497899	0.665200	0.526572	0.276944	0.624577	0.205967	0.155483	0.611895	0.501714	0.533405	0.390365	0.356908	0.498545	0.184470	0.221353	0.167376	0.219404	0.225907	0.254312	0.110911	0.180133	0.233409	0.158712	0.177446	0.366751	0.265708	0.358507	0.121222	0.142635	0.132602	0.222372
68	0.316347	0.600026	0.627810	0.790021	0.309599	0.436006	0.373519	0.249337	0.583061	0.605402	0.497047	0.403707	0.207597	0.315266	0.131124	0.089500	0.106450	0.167424	0.578571	0.439340	0.146395	0.156156	0.472361	0.383990	0.258744	0.368002	0.272540	0.225578	0.292601	0.375133	0.463103	0.565704	0.413066	0.574308	0.671494	0.526648	0.272264	0.534269	0.197105	0.150569	0.617046	0.589410	0.536236	0.297103	0.352077	0.482182	0.193086	0.336699	0.109905	0.178746	0.235027	0.214741	0.164690	0.369838	0.239919	0.164367	0.189746	0.341668	0.310604	0.353182	0.123795	0.162993	0.181805	0.221979
69	0.325355	0.599826	0.758383	1.034900	0.327686	0.401972	0.374204	0.241270	0.582314	0.620809	0.498737	0.439766	0.212029	0.333777	0.128866	0.087184	0.123510	0.240382	0.573622	0.414225	0.157004	0.171594	0.508522	0.388018	0.230773	0.365674	0.254100	0.356336	0.305610	0.375385	0.497001	0.568162	0.378617	0.588651	0.710255	0.519695	0.294447	0.549714	0.208405	0.148325	0.656221	0.637619	0.461122	0.228527	0.334938	0.482776	0.217694	0.382350	0.107320	0.184922	0.242830	0.160893	0.195061	0.389099	0.249794	0.190276	0.211681	0.287681	0.341459	0.380720	0.115980	0.159766	0.180262	0.182663
70	0.343154	0.595603	0.944283	1.049922	0.289823	0.327869	0.367076	0.219930	0.575049	0.618103	0.530791	0.460156	0.203309	0.320816	0.120732	0.130182	0.139228	0.250830	0.526047	0.378598	0.164585	0.178645	0.482482	0.388201	0.178222	0.299893	0.273667	0.403314	0.314073	0.407314	0.503498	0.568540	0.281199	0.570586	0.739198	0.500885	0.192863	0.350176	0.208964	0.146986	0.664588	0.661496	0.378770	0.231524	0.334110	0.470029	0.240838	0.384179	0.110932	0.190650	0.221810	0.155612	0.196394	0.408153	0.250527	0.226993	0.241695	0.303925	0.339493	0.390468	0.114597	0.148394	0.160336	0.115127
71	0.366870	0.584809	1.114417	1.129519	0.328083	0.200872	0.311476	0.216805	0.569748	0.613900	0.580325	0.464668	0.190449	0.297667	0.121375	0.160011	0.163356	0.254928	0.519264	0.383507	0.167874	0.180056	0.429526	0.389379	0.132378	0.228132	0.300374	0.415117	0.313748	0.402779	0.503946	0.568251	0.264039	0.553893	0.748416	0.467685	0.192577	0.318782	0.206190	0.147366	0.632025	0.648240	0.317174	0.217760	0.338003	0.469365	0.235216	0.394246	0.093605	0.168075	0.190155	0.176366	0.195816	0.418140	0.246448	0.221495	0.225023	0.299436	0.370021	0.423667	0.113804	0.136221	0.145964	0.128422
72	0.318332	0.565903	1.146261	1.272808	0.324466	0.165497	0.274610	0.177990	0.568959	0.592981	0.601590	0.483370	0.179818	0.297215	0.108162	0.158848	0.194840	0.373575	0.550415	0.390316	0.164189	0.163147	0.427122	0.362907	0.148418	0.208866	0.263289	0.444810	0.310422	0.396268	0.504028	0.566431	0.273470	0.543469	0.754817	0.366487	0.194336	0.324755	0.206463	0.144942	0.507839	0.591274	0.286591	0.237087	0.308699	0.446412	0.256100	0.408092	0.094027	0.164989	0.184773	0.208105	0.197650	0.426700	0.227023	0.225893	0.226618	0.300474	0.367489	0.475209	0.092631	0.137431	0.153230	0.152990
73	0.302302	0.563086	1.210046	1.362363	0.318017	0.137833	0.261858	0.116587	0.528162	0.572228	0.576654	0.462662	0.176800	0.295533	0.095841	0.159470	0.194753	0.415408	0.577457	0.397044	0.154730	0.132052	0.415626	0.336615	0.157896	0.219038	0.237148	0.452952	0.307620	0.374442	0.501672	0.552847	0.274764	0.543094	0.734201	0.261782	0.210198	0.332559	0.213068	0.144448	0.494777	0.585848	0.286193	0.260532	0.269272	0.391660	0.288837	0.400840	0.097540	0.190040	0.160769	0.229214	0.220851	0.443841	0.230369	0.240919	0.227826	0.324576	0.386170	0.509585	0.113719	0.167410	0.157424	0.145221
74	0.343878	0.554843	1.328175	1.385497	0.294055	0.095825	0.219935	0.097777	0.502849	0.567406	0.529464	0.441013	0.176475	0.297386	0.094728	0.161685	0.197002	0.418176	0.579544	0.377513	0.158880	0.126407	0.413992	0.332510	0.184843	0.233893	0.256702	0.447815	0.306458	0.374039	0.498936	0.452601	0.282817	0.548210	0.668687	0.238186	0.230631	0.334307	0.237435	0.226444	0.414093	0.566433	0.342688	0.266918	0.207915	0.295811	0.287740	0.395515	0.108230	0.235874	0.158668	0.236036	0.231918	0.453142	0.245600	0.265818	0.205624	0.333384	0.449602	0.501155	0.113764	0.177015	0.160885	0.139189
75	0.352267	0.507897	1.422737	1.385609	0.278207	0.091508	0.168305	0.227441	0.444147	0.521088	0.484458	0.481656	0.122870	0.186175	0.096003	0.161325	0.207449	0.419785	0.572435	0.377203	0.170549	0.138957	0.416393	0.285212	0.173133	0.203030	0.256294	0.452173	0.281717	0.340675	0.491482	0.328193	0.304053	0.612599	0.570038	0.244931	0.231380	0.335340	0.250181	0.271220	0.349575	0.542788	0.373174	0.283977	0.199001	0.275034	0.288745	0.391658	0.124535	0.309158	0.181430	0.269849	0.231464	0.455369	0.285787	0.268546	0.204747	0.337202	0.489164	0.449016	0.104561	0.157338	0.150147	0.134968
76	0.383982	0.473516	1.470285	1.353352	0.256269	0.074253	0.213055	0.299065	0.380079	0.464777	0.464981	0.517225	0.082105	0.170622	0.095900	0.161125	0.236748	0.470235	0.500794	0.370049	0.176979	0.149378	0.399150	0.201615	0.176505	0.201491	0.254529	0.364123	0.227367	0.333568	0.458555	0.306137	0.303398	0.606352	0.467411	0.246161	0.238563	0.336347	0.235495	0.268395	0.338531	0.533740	0.356478	0.313383	0.180257	0.255006	0.275671	0.270363	0.132356	0.306756	0.188222	0.314061	0.222574	0.449168	0.298020	0.254293	0.204106	0.336997	0.493699	0.436342	0.102297	0.132018	0.103148	0.137351
77	0.367336	0.395716	1.462038	1.195732	0.228046	0.054470	0.250885	0.308345	0.171449	0.290117	0.495934	0.503829	0.072763	0.105929	0.094575	0.157394	0.245432	0.448959	0.439599	0.361405	0.160157	0.145699	0.279509	0.164585	0.169080	0.205897	0.230000	0.293022	0.200533	0.325509	0.400389	0.323811	0.308961	0.593942	0.422918	0.262850	0.238261	0.327509	0.218315	0.272334	0.331602	0.467177	0.358892	0.340425	0.167979	0.187609	0.247781	0.208155	0.135132	0.319393	0.235391	0.350813	0.197804	0.368942	0.304818	0.245262	0.204632	0.347603	0.466071	0.431392	0.105954	0.138333	0.102462	0.141961
78	0.358369	0.397307	1.400951	0.988647	0.177076	0.058167	0.254414	0.347843	0.147495	0.292053	0.518778	0.468209	0.064530	0.068214	0.088289	0.125988	0.238820	0.440531	0.424327	0.363224	0.146387	0.125809	0.248525	0.187847	0.164977	0.193851	0.189360	0.284923	0.180703	0.319741	0.353031	0.330050	0.263592	0.520555	0.443684	0.307712	0.233877	0.325766	0.215791	0.277726	0.320647	0.391365	0.434490	0.438050	0.162845	0.155326	0.223634	0.205314	0.172963	0.447484	0.258565	0.361252	0.152910	0.256185	0.297152	0.250009	0.175450	0.370793	0.447340	0.431674	0.140159	0.155363	0.105683	0.142092
79	0.339657	0.387263	1.282074	1.029508	0.060535	0.060365	0.275582	0.383852	0.147107	0.231815	0.491158	0.433261	0.063285	0.068055	0.090676	0.109940	0.213189	0.426594	0.417404	0.357299	0.142808	0.113452	0.349338	0.253358	0.144107	0.183040	0.179945	0.226989	0.177536	0.337470	0.361041	0.282317	0.260767	0.420582	0.421232	0.297477	0.229167	0.302779	0.239695	0.305195	0.190887	0.300638	0.540224	0.451453	0.155200	0.290243	0.216758	0.175989	0.164329	0.452257	0.261024	0.330712	0.136190	0.224905	0.296196	0.208426	0.155574	0.357197	0.463726	0.419816	0.154953	0.191100	0.102158	0.127670
80	0.308563	0.383956	1.150537	1.022932	0.101177	0.086182	0.297196	0.398776	0.139745	0.231866	0.390390	0.426402	0.063199	0.069687	0.107478	0.135021	0.235349	0.399174	0.426903	0.361663	0.152311	0.116270	0.397156	0.259825	0.140067	0.174881	0.167633	0.180108	0.183441	0.342995	0.366224	0.216625	0.254837	0.391545	0.380129	0.366424	0.185769	0.180563	0.270748	0.328174	0.160819	0.255092	0.594429	0.457387	0.152873	0.316796	0.149215	0.100201	0.169430	0.441368	0.252878	0.324352	0.134363	0.206304	0.303885	0.189514	0.155025	0.357025	0.495647	0.413114	0.171387	0.209437	0.091359	0.094399
81	0.309090	0.378330	1.163431	0.894071	0.112418	0.092037	0.314311	0.401209	0.119225	0.226423	0.290127	0.408918	0.065603	0.078151	0.107596	0.132315	0.270229	0.431748	0.405772	0.355021	0.152645	0.120425	0.404291	0.300914	0.111866	0.213192	0.120938	0.208194	0.195480	0.372617	0.328863	0.198815	0.235643	0.345087	0.348127	0.498303	0.195124	0.182817	0.275860	0.329352	0.154385	0.242052	0.601047	0.545961	0.126617	0.355277	0.107057	0.111596	0.171653	0.436800	0.259429	0.485532	0.136169	0.184736	0.304072	0.186674	0.153642	0.358983	0.524677	0.367300	0.159616	0.190203	0.103231	0.099135
82	0.310643	0.372679	1.186137	0.734250	0.117076	0.098511	0.310333	0.383299	0.122696	0.226812	0.281420	0.350536	0.067165	0.060199	0.120784	0.137789	0.271683	0.432412	0.353799	0.356629	0.181313	0.258676	0.497745	0.322170	0.121719	0.227456	0.134468	0.322142	0.162627	0.332591	0.298212	0.200432	0.234888	0.341813	0.368186	0.549161	0.195844	0.192940	0.275389	0.329227	0.152090	0.330473	0.652385	0.634021	0.112096	0.361993	0.156744	0.168145	0.176156	0.431851	0.295024	0.498203	0.134686	0.173820	0.294725	0.191367	0.160347	0.308948	0.490492	0.318806	0.158715	0.193418	0.104888	0.098640
83	0.257109	0.356244	1.055666	0.701928	0.118442	0.127729	0.282956	0.328332	0.118590	0.216283	0.285612	0.349671	0.104739	0.052413	0.169711	0.138585	0.269931	0.447457	0.326907	0.271894	0.202777	0.368183	0.551836	0.323415	0.155843	0.264292	0.137410	0.350634	0.152173	0.306048	0.292280	0.202544	0.234637	0.338288	0.531077	0.568373	0.283211	0.340852	0.274650	0.328534	0.229282	0.434099	0.768914	0.665440	0.102387	0.355842	0.188452	0.196492	0.170736	0.394877	0.324584	0.489040	0.064393	0.101636	0.293838	0.165217	0.175181	0.291433	0.427501	0.305762	0.159295	0.203844	0.114020	0.100662
84	0.238689	0.354081	0.897996	0.712081	0.123764	0.188513	0.230509	0.313631	0.132834	0.207298	0.285337	0.301872	0.105438	0.058573	0.204619	0.139452	0.252062	0.394201	0.310267	0.284314	0.208238	0.410368	0.554291	0.337156	0.195616	0.312084	0.132608	0.372103	0.151471	0.306740	0.306793	0.203061	0.243102	0.329856	0.635549	0.573335	0.333883	0.404680	0.267172	0.323219	0.276851	0.721396	0.815207	0.669096	0.103215	0.353443	0.191473	0.200576	0.172749	0.395650	0.331269	0.486284	0.068791	0.101115	0.253101	0.129186	0.187311	0.281923	0.378350	0.297158	0.157959	0.202660	0.122341	0.119267
85	0.175479	0.295941	0.808075	0.712914	0.123515	0.194996	0.217199	0.288398	0.126813	0.199135	0.319234	0.190551	0.108838	0.070787	0.210521	0.144781	0.232347	0.382441	0.314825	0.312045	0.199115	0.410351	0.565626	0.344828	0.202670	0.320606	0.139779	0.369906	0.151627	0.303264	0.340292	0.205836	0.230328	0.300395	0.644666	0.560381	0.323742	0.403308	0.241183	0.261752	0.281893	0.716070	0.826016	0.654542	0.117545	0.369798	0.202864	0.209727	0.149986	0.330472	0.307571	0.475384	0.081180	0.113276	0.179449	0.129009	0.191971	0.299899	0.427317	0.321768	0.149872	0.206551	0.123020	0.126895
86	0.163860	0.221548	0.807587	0.708848	0.125364	0.222715	0.222903	0.226398	0.132513	0.198555	0.331160	0.183129	0.110088	0.075336	0.210757	0.152497	0.231968	0.383878	0.307757	0.311310	0.200899	0.410294	0.566323	0.341883	0.208981	0.317948	0.192731	0.368002	0.151497	0.302442	0.356096	0.205622	0.210515	0.178916	0.676944	0.588680	0.342516	0.426467	0.216807	0.211857	0.365032	0.711217	0.835462	0.641771	0.119472	0.367274	0.205628	0.215208	0.128298	0.201102	0.319454	0.482485	0.077715	0.117517	0.148999	0.145046	0.177953	0.265142	0.443368	0.326459	0.166086	0.266643	0.138273	0.126046
87	0.152745	0.191644	0.878092	0.711700	0.145890	0.232226	0.210000	0.180609	0.193878	0.171930	0.267116	0.222979	0.110262	0.080269	0.221541	0.147355	0.227384	0.391876	0.315750	0.371980	0.193032	0.411740	0.542146	0.330579	0.216911	0.324025	0.187784	0.353999	0.158305	0.298588	0.340893	0.208917	0.241122	0.165189	0.716697	0.639251	0.351603	0.467531	0.211480	0.210830	0.368045	0.708589	0.818859	0.622520	0.109527	0.269453	0.210696	0.230394	0.132434	0.197606	0.360335	0.488337	0.086664	0.163727	0.138968	0.147144	0.184408	0.255934	0.441309	0.330591	0.163464	0.254747	0.148970	0.121189
88	0.167300	0.200066	0.960987	0.641441	0.181254	0.237829	0.170508	0.165439	0.298436	0.326590	0.278874	0.272222	0.133941	0.120603	0.216762	0.125263	0.172078	0.293386	0.240664	0.425432	0.195061	0.422796	0.492366	0.291073	0.213740	0.294607	0.286576	0.365183	0.239662	0.363962	0.325112	0.218894	0.237445	0.161572	0.726876	0.649651	0.366619	0.493402	0.219722	0.206258	0.378140	0.725600	0.765770	0.570328	0.119017	0.244471	0.217936	0.232618	0.124159	0.200613	0.396385	0.423890	0.086852	0.163856	0.139424	0.144855	0.213956	0.327855	0.465470	0.346048	0.149870	0.245404	0.145510	0.124326
89	0.153908	0.189490	0.964075	0.515873	0.306247	0.264297	0.145665	0.163889	0.303954	0.348765	0.279421	0.277795	0.150459	0.133159	0.223643	0.124500	0.132224	0.222511	0.194390	0.437989	0.185281	0.425308	0.461963	0.304649	0.198376	0.267539	0.306640	0.286626	0.298976	0.453280	0.324801	0.217110	0.232143	0.167959	0.736847	0.637883	0.374703	0.505740	0.227591	0.213173	0.441450	0.760871	0.691623	0.563515	0.168471	0.339956	0.249564	0.253763	0.117141	0.176263	0.384419	0.315547	0.086666	0.160998	0.138774	0.150209	0.221274	0.333176	0.538049	0.350192	0.150652	0.242923	0.133118	0.120523
90	0.146274	0.181615	0.904780	0.404845	0.333249	0.294829	0.144526	0.177122	0.429080	0.373486	0.278143	0.290023	0.194084	0.224073	0.215449	0.115176	0.130221	0.229176	0.182445	0.426091	0.185032	0.424159	0.452941	0.282351	0.181971	0.246737	0.304962	0.282925	0.309216	0.458930	0.323228	0.186915	0.217252	0.299366	0.751554	0.632774	0.379759	0.510296	0.200287	0.190365	0.584130	0.807879	0.653068	0.541308	0.169302	0.366557	0.306670	0.273667	0.125081	0.185273	0.367318	0.344580	0.089143	0.162634	0.120552	0.151371	0.220976	0.330009	0.583113	0.334702	0.145764	0.229762	0.137480	0.116202
91	0.152491	0.182586	0.802979	0.399874	0.351724	0.310686	0.162590	0.162882	0.430809	0.369188	0.333437	0.283694	0.182001	0.234245	0.177112	0.114374	0.095859	0.188985	0.195770	0.489491	0.166683	0.370339	0.353183	0.254500	0.121921	0.146176	0.317900	0.288209	0.323358	0.449050	0.314999	0.164674	0.237980	0.362041	0.762787	0.574720	0.374905	0.509674	0.136072	0.153924	0.630719	0.822468	0.658926	0.448024	0.173214	0.409209	0.295932	0.273504	0.111915	0.191488	0.390617	0.364473	0.083988	0.159379	0.112645	0.145331	0.260721	0.325395	0.585886	0.359691	0.145518	0.228199	0.137582	0.108240
92	0.151758	0.162991	0.710061	0.349525	0.387847	0.585735	0.169155	0.155513	0.430796	0.372784	0.405042	0.318416	0.183960	0.250639	0.141376	0.114044	0.113598	0.217886	0.256260	0.532200	0.129737	0.242097	0.252441	0.251899	0.123808	0.193498	0.426726	0.298868	0.322730	0.447631	0.292087	0.163854	0.238322	0.412979	0.759995	0.464405	0.370070	0.510111	0.106651	0.151669	0.634747	0.793405	0.601434	0.318409	0.174171	0.476197	0.293675	0.280906	0.108638	0.189179	0.413124	0.352994	0.086424	0.160606	0.112330	0.122540	0.277400	0.319969	0.633872	0.418230	0.146510	0.227066	0.136173	0.080089
93	0.157642	0.168258	0.668607	0.367540	0.470722	0.774672	0.165257	0.162049	0.430555	0.382275	0.425281	0.323478	0.183962	0.249710	0.137618	0.104210	0.139728	0.236931	0.252518	0.545400	0.117099	0.154579	0.239435	0.253490	0.121865	0.206093	0.460994	0.487387	0.305934	0.430213	0.258543	0.163974	0.237508	0.413583	0.746606	0.415376	0.369153	0.523762	0.111591	0.153221	0.622783	0.697585	0.427209	0.288501	0.177198	0.472511	0.281001	0.273594	0.111478	0.177763	0.396150	0.394722	0.108555	0.162699	0.118560	0.119667	0.286454	0.315818	0.826376	0.460832	0.128551	0.204681	0.130565	0.071612
94	0.164986	0.171446	0.672571	0.450944	0.472864	0.776490	0.143100	0.163595	0.439779	0.392569	0.417040	0.324033	0.185696	0.248473	0.131377	0.083363	0.190894	0.309325	0.260313	0.595368	0.137745	0.137363	0.199410	0.304828	0.119651	0.200191	0.491141	0.526754	0.298306	0.428576	0.228904	0.161212	0.221646	0.436672	0.647108	0.406898	0.313957	0.559691	0.152130	0.160304	0.662380	0.517897	0.314787	0.288085	0.186588	0.496542	0.279597	0.274277	0.117995	0.182174	0.377794	0.401593	0.107268	0.159987	0.169221	0.133685	0.282844	0.306098	0.931137	0.454367	0.076794	0.083590	0.109871	0.091271
95	0.170440	0.189542	0.653321	0.473177	0.455263	0.776241	0.136222	0.156208	0.445229	0.401385	0.379461	0.319827	0.185300	0.248071	0.099268	0.071557	0.196360	0.317739	0.241669	0.554122	0.162493	0.137010	0.188753	0.311993	0.122510	0.199825	0.489285	0.534093	0.296461	0.431422	0.225052	0.155260	0.217986	0.445697	0.578894	0.432849	0.253839	0.527421	0.219267	0.169229	0.667397	0.521490	0.263923	0.288068	0.187896	0.495678	0.276181	0.275120	0.140644	0.190503	0.349084	0.407572	0.106444	0.145981	0.197256	0.150129	0.285943	0.325101	0.932778	0.439004	0.050834	0.066046	0.100641	0.088973
96	0.174233	0.222281	0.575494	0.493661	0.440704	0.771439	0.137182	0.156522	0.446696	0.415416	0.396608	0.316705	0.164350	0.239191	0.087535	0.067108	0.206050	0.342713	0.231954	0.518976	0.159835	0.131773	0.187977	0.311921	0.207228	0.272653	0.471322	0.556436	0.296529	0.432745	0.223030	0.154673	0.226065	0.448291	0.572478	0.527260	0.251836	0.538794	0.235376	0.173667	0.625292	0.538088	0.246206	0.314304	0.197066	0.496051	0.299008	0.301942	0.149314	0.221967	0.364860	0.405674	0.108492	0.135132	0.200372	0.154875	0.331504	0.373966	0.926790	0.454328	0.036471	0.058994	0.111294	0.087348
97	0.189949	0.296106	0.422979	0.514307	0.371110	0.759430	0.134815	0.150079	0.397961	0.368439	0.454273	0.270588	0.149817	0.236135	0.064929	0.106381	0.206780	0.347544	0.244796	0.524195	0.149821	0.090723	0.145420	0.320549	0.209803	0.310628	0.489460	0.574366	0.298560	0.434973	0.180621	0.162860	0.220897	0.440719	0.524610	0.490727	0.239626	0.516190	0.235612	0.175360	0.618612	0.592952	0.309169	0.416109	0.158058	0.405685	0.299189	0.316506	0.152654	0.225915	0.389154	0.354328	0.098584	0.091325	0.204507	0.163484	0.342654	0.329105	0.890134	0.471229	0.035470	0.058985	0.135980	0.101256
98	0.188410	0.322936	0.348803	0.508629	0.369865	0.755744	0.146646	0.105907	0.429076	0.286046	0.454087	0.278388	0.104405	0.162210	0.074666	0.107680	0.210780	0.342623	0.274053	0.529934	0.150842	0.064460	0.099307	0.316180	0.220618	0.308501	0.507468	0.548910	0.309038	0.442806	0.121744	0.192647	0.264556	0.441101	0.532265	0.464254	0.233574	0.479639	0.235367	0.175787	0.622610	0.595997	0.411794	0.440806	0.154853	0.382074	0.250176	0.279140	0.149731	0.209020	0.372579	0.342687	0.098873	0.092736	0.225936	0.161178	0.387094	0.349426	0.835220	0.505312	0.044701	0.063770	0.129663	0.101856
99	0.225783	0.349914	0.322960	0.557895	0.333429	0.634546	0.133817	0.090026	0.506109	0.293837	0.480762	0.300337	0.148694	0.144086	0.125605	0.108903	0.273848	0.367713	0.259657	0.593358	0.152696	0.059349	0.095989	0.302351	0.230590	0.276394	0.444674	0.550112	0.311771	0.447783	0.125895	0.275032	0.274441	0.441765	0.539042	0.495260	0.213361	0.457847	0.227032	0.173450	0.563805	0.548416	0.465903	0.445357	0.153554	0.340007	0.257407	0.287776	0.174155	0.205866	0.399629	0.363250	0.096115	0.086613	0.231407	0.164866	0.387237	0.350581	0.829426	0.506425	0.044206	0.063431	0.132334	0.105230
100	0.232454	0.342783	0.279795	0.583502	0.261623	0.469752	0.137532	0.115861	0.540073	0.374494	0.489196	0.420326	0.149777	0.118420	0.155761	0.118124	0.294463	0.363405	0.250488	0.557470	0.144354	0.058343	0.092095	0.305877	0.239966	0.314723	0.379194	0.432641	0.282373	0.420551	0.180097	0.347226	0.274792	0.435693	0.538860	0.523501	0.199658	0.454768	0.218750	0.148590	0.425584	0.482583	0.470095	0.438701	0.161083	0.245845	0.265359	0.293371	0.180354	0.198630	0.509479	0.333871	0.105624	0.090509	0.231943	0.172371	0.342310	0.350221	0.850844	0.472724	0.039278	0.061448	0.167415	0.141170
101	0.261863	0.364355	0.234945	0.586367	0.170877	0.133290	0.128867	0.112717	0.572298	0.379593	0.430842	0.508158	0.155117	0.126374	0.161632	0.134397	0.276847	0.339698	0.261154	0.516136	0.145130	0.072045	0.104254	0.309319	0.312601	0.365647	0.380170	0.346236	0.197527	0.294659	0.251870	0.352112	0.244041	0.309443	0.567544	0.567813	0.188547	0.453267	0.217519	0.117280	0.381675	0.459336	0.493387	0.433797	0.143690	0.226002	0.276055	0.366118	0.191968	0.199979	0.535442	0.285814	0.135096	0.102396	0.232111	0.186911	0.336553	0.343111	0.824735	0.413453	0.039068	0.060915	0.220422	0.157378
