	119_P_T3_sh_R_D_A_01.c3d	119_P_T3_sh_R_D_A_01.c3d	119_P_T3_sh_R_D_A_01.c3d	119_P_T3_sh_R_D_A_01.c3d	119_P_T3_sh_R_D_A_01.c3d	119_P_T3_sh_R_D_A_01.c3d	119_P_T3_sh_R_D_A_01.c3d	119_P_T3_sh_R_D_A_01.c3d	119_P_T3_sh_R_D_A_02.c3d	119_P_T3_sh_R_D_A_02.c3d	119_P_T3_sh_R_D_A_02.c3d	119_P_T3_sh_R_D_A_02.c3d	119_P_T3_sh_R_D_A_02.c3d	119_P_T3_sh_R_D_A_02.c3d	119_P_T3_sh_R_D_A_02.c3d	119_P_T3_sh_R_D_A_02.c3d	119_P_T3_sh_R_D_A_03.c3d	119_P_T3_sh_R_D_A_03.c3d	119_P_T3_sh_R_D_A_03.c3d	119_P_T3_sh_R_D_A_03.c3d	119_P_T3_sh_R_D_A_03.c3d	119_P_T3_sh_R_D_A_03.c3d	119_P_T3_sh_R_D_A_03.c3d	119_P_T3_sh_R_D_A_03.c3d	119_P_T3_sh_R_D_A_04.c3d	119_P_T3_sh_R_D_A_04.c3d	119_P_T3_sh_R_D_A_04.c3d	119_P_T3_sh_R_D_A_04.c3d	119_P_T3_sh_R_D_A_04.c3d	119_P_T3_sh_R_D_A_04.c3d	119_P_T3_sh_R_D_A_04.c3d	119_P_T3_sh_R_D_A_04.c3d	119_P_T3_sh_R_D_A_05.c3d	119_P_T3_sh_R_D_A_05.c3d	119_P_T3_sh_R_D_A_05.c3d	119_P_T3_sh_R_D_A_05.c3d	119_P_T3_sh_R_D_A_05.c3d	119_P_T3_sh_R_D_A_05.c3d	119_P_T3_sh_R_D_A_05.c3d	119_P_T3_sh_R_D_A_05.c3d	119_P_T3_sh_R_D_A_06.c3d	119_P_T3_sh_R_D_A_06.c3d	119_P_T3_sh_R_D_A_06.c3d	119_P_T3_sh_R_D_A_06.c3d	119_P_T3_sh_R_D_A_06.c3d	119_P_T3_sh_R_D_A_06.c3d	119_P_T3_sh_R_D_A_06.c3d	119_P_T3_sh_R_D_A_06.c3d	119_P_T3_sh_R_D_A_07.c3d	119_P_T3_sh_R_D_A_07.c3d	119_P_T3_sh_R_D_A_07.c3d	119_P_T3_sh_R_D_A_07.c3d	119_P_T3_sh_R_D_A_07.c3d	119_P_T3_sh_R_D_A_07.c3d	119_P_T3_sh_R_D_A_07.c3d	119_P_T3_sh_R_D_A_07.c3d	119_P_T3_sh_R_D_A_08.c3d	119_P_T3_sh_R_D_A_08.c3d	119_P_T3_sh_R_D_A_08.c3d	119_P_T3_sh_R_D_A_08.c3d	119_P_T3_sh_R_D_A_08.c3d	119_P_T3_sh_R_D_A_08.c3d	119_P_T3_sh_R_D_A_08.c3d	119_P_T3_sh_R_D_A_08.c3d	119_P_T3_sh_R_D_A_09.c3d	119_P_T3_sh_R_D_A_09.c3d	119_P_T3_sh_R_D_A_09.c3d	119_P_T3_sh_R_D_A_09.c3d	119_P_T3_sh_R_D_A_09.c3d	119_P_T3_sh_R_D_A_09.c3d	119_P_T3_sh_R_D_A_09.c3d	119_P_T3_sh_R_D_A_09.c3d	119_P_T3_sh_R_D_A_10.c3d	119_P_T3_sh_R_D_A_10.c3d	119_P_T3_sh_R_D_A_10.c3d	119_P_T3_sh_R_D_A_10.c3d	119_P_T3_sh_R_D_A_10.c3d	119_P_T3_sh_R_D_A_10.c3d	119_P_T3_sh_R_D_A_10.c3d	119_P_T3_sh_R_D_A_10.c3d
	Biceps femoris_lat	Semitendinosus_lat	Vastus lateralis_lat	Vastus medialis_lat	Biceps femoris_med	Semitendinosus_med	Vastus lateralis_med	Vastus medialis_med	Biceps femoris_lat	Semitendinosus_lat	Vastus lateralis_lat	Vastus medialis_lat	Biceps femoris_med	Semitendinosus_med	Vastus lateralis_med	Vastus medialis_med	Biceps femoris_lat	Semitendinosus_lat	Vastus lateralis_lat	Vastus medialis_lat	Biceps femoris_med	Semitendinosus_med	Vastus lateralis_med	Vastus medialis_med	Biceps femoris_lat	Semitendinosus_lat	Vastus lateralis_lat	Vastus medialis_lat	Biceps femoris_med	Semitendinosus_med	Vastus lateralis_med	Vastus medialis_med	Biceps femoris_lat	Semitendinosus_lat	Vastus lateralis_lat	Vastus medialis_lat	Biceps femoris_med	Semitendinosus_med	Vastus lateralis_med	Vastus medialis_med	Biceps femoris_lat	Semitendinosus_lat	Vastus lateralis_lat	Vastus medialis_lat	Biceps femoris_med	Semitendinosus_med	Vastus lateralis_med	Vastus medialis_med	Biceps femoris_lat	Semitendinosus_lat	Vastus lateralis_lat	Vastus medialis_lat	Biceps femoris_med	Semitendinosus_med	Vastus lateralis_med	Vastus medialis_med	Biceps femoris_lat	Semitendinosus_lat	Vastus lateralis_lat	Vastus medialis_lat	Biceps femoris_med	Semitendinosus_med	Vastus lateralis_med	Vastus medialis_med	Biceps femoris_lat	Semitendinosus_lat	Vastus lateralis_lat	Vastus medialis_lat	Biceps femoris_med	Semitendinosus_med	Vastus lateralis_med	Vastus medialis_med	Biceps femoris_lat	Semitendinosus_lat	Vastus lateralis_lat	Vastus medialis_lat	Biceps femoris_med	Semitendinosus_med	Vastus lateralis_med	Vastus medialis_med
	P2D	P2D	P2D	P2D	P2D	P2D	P2D	P2D	P2D	P2D	P2D	P2D	P2D	P2D	P2D	P2D	P2D	P2D	P2D	P2D	P2D	P2D	P2D	P2D	P2D	P2D	P2D	P2D	P2D	P2D	P2D	P2D	P2D	P2D	P2D	P2D	P2D	P2D	P2D	P2D	P2D	P2D	P2D	P2D	P2D	P2D	P2D	P2D	P2D	P2D	P2D	P2D	P2D	P2D	P2D	P2D	P2D	P2D	P2D	P2D	P2D	P2D	P2D	P2D	P2D	P2D	P2D	P2D	P2D	P2D	P2D	P2D	P2D	P2D	P2D	P2D	P2D	P2D	P2D	P2D
	EMG_lat	EMG_lat	EMG_lat	EMG_lat	EMG_med	EMG_med	EMG_med	EMG_med	EMG_lat	EMG_lat	EMG_lat	EMG_lat	EMG_med	EMG_med	EMG_med	EMG_med	EMG_lat	EMG_lat	EMG_lat	EMG_lat	EMG_med	EMG_med	EMG_med	EMG_med	EMG_lat	EMG_lat	EMG_lat	EMG_lat	EMG_med	EMG_med	EMG_med	EMG_med	EMG_lat	EMG_lat	EMG_lat	EMG_lat	EMG_med	EMG_med	EMG_med	EMG_med	EMG_lat	EMG_lat	EMG_lat	EMG_lat	EMG_med	EMG_med	EMG_med	EMG_med	EMG_lat	EMG_lat	EMG_lat	EMG_lat	EMG_med	EMG_med	EMG_med	EMG_med	EMG_lat	EMG_lat	EMG_lat	EMG_lat	EMG_med	EMG_med	EMG_med	EMG_med	EMG_lat	EMG_lat	EMG_lat	EMG_lat	EMG_med	EMG_med	EMG_med	EMG_med	EMG_lat	EMG_lat	EMG_lat	EMG_lat	EMG_med	EMG_med	EMG_med	EMG_med
ITEM	Y	Y	Y	Y	Y	Y	Y	Y	Y	Y	Y	Y	Y	Y	Y	Y	Y	Y	Y	Y	Y	Y	Y	Y	Y	Y	Y	Y	Y	Y	Y	Y	Y	Y	Y	Y	Y	Y	Y	Y	Y	Y	Y	Y	Y	Y	Y	Y	Y	Y	Y	Y	Y	Y	Y	Y	Y	Y	Y	Y	Y	Y	Y	Y	Y	Y	Y	Y	Y	Y	Y	Y	Y	Y	Y	Y	Y	Y	Y	Y
1	0.484608	0.418954	0.078126	0.084320	0.194613	0.373239	0.429697	0.221526	0.210423	0.284811	0.167611	0.162875	0.119109	0.303700	0.135022	0.192340	0.199592	0.290178	0.113919	0.140506	0.188011	0.196096	0.113734	0.256219	0.100606	0.206718	0.066273	0.136320	0.318643	0.478798	0.241950	0.232289	0.074618	0.106115	0.100736	0.254705	0.245019	0.409071	0.164123	0.210002	0.172431	0.437702	0.064160	0.080733	0.136070	0.217297	0.204135	0.452817	0.079388	0.159168	0.104910	0.148228	0.196550	0.363915	0.174342	0.272109	0.207865	0.312092	0.090183	0.191355	0.131403	0.200454	0.133941	0.268097	0.067600	0.268555	0.142849	0.162935	0.223637	0.333550	0.185071	0.182565	0.280146	0.889562	0.106775	0.176464	0.228996	0.374763	0.405021	0.331563
2	0.319275	0.378368	0.062413	0.085164	0.199188	0.395699	0.430864	0.235693	0.210751	0.284165	0.188133	0.087772	0.118452	0.311478	0.140358	0.190091	0.180381	0.189454	0.114403	0.135230	0.189389	0.194701	0.100485	0.250007	0.101005	0.199756	0.074975	0.150267	0.290162	0.457284	0.271726	0.244768	0.071769	0.115422	0.103049	0.255216	0.248482	0.405961	0.167287	0.211580	0.063396	0.326527	0.070162	0.084045	0.146404	0.180343	0.370278	0.494200	0.080331	0.159857	0.115307	0.137721	0.188979	0.346913	0.204949	0.282751	0.207595	0.361781	0.103600	0.191317	0.149859	0.223802	0.133897	0.252564	0.067944	0.248783	0.156409	0.132191	0.168628	0.234791	0.183882	0.174888	0.286439	0.889116	0.094001	0.182853	0.249347	0.438628	0.415161	0.329283
3	0.321144	0.389631	0.076902	0.085225	0.190961	0.389552	0.431253	0.313520	0.197369	0.277066	0.187455	0.149003	0.142524	0.320405	0.131241	0.197329	0.156679	0.177341	0.114975	0.104016	0.175071	0.188639	0.108821	0.202391	0.098740	0.207473	0.084978	0.149985	0.209706	0.272181	0.374779	0.282235	0.066862	0.141598	0.108945	0.236306	0.246417	0.397503	0.188673	0.231176	0.123585	0.250001	0.093814	0.082694	0.181023	0.198762	0.514969	0.495774	0.081856	0.153334	0.121103	0.123974	0.187124	0.342475	0.210397	0.279430	0.197065	0.363935	0.109428	0.158492	0.188911	0.306969	0.134067	0.241729	0.068252	0.199419	0.154607	0.136473	0.133503	0.205506	0.156781	0.172021	0.283069	0.884174	0.087033	0.220990	0.273644	0.440995	0.433365	0.274734
4	0.319879	0.364502	0.078489	0.106787	0.163146	0.361765	0.433084	0.420202	0.195082	0.270557	0.181655	0.176860	0.168360	0.333979	0.167963	0.202959	0.095659	0.181206	0.115576	0.104009	0.166819	0.180924	0.163006	0.199807	0.108216	0.204181	0.108142	0.142925	0.157671	0.197965	0.395480	0.292387	0.092037	0.239551	0.111799	0.201651	0.246350	0.379099	0.235934	0.252408	0.121047	0.240239	0.092646	0.086257	0.176907	0.176739	0.535771	0.625346	0.081502	0.148006	0.119767	0.137438	0.190304	0.363743	0.203360	0.282296	0.226400	0.611008	0.108399	0.138574	0.230443	0.434261	0.133559	0.271322	0.062026	0.187502	0.182717	0.132552	0.132495	0.205765	0.148457	0.217141	0.276641	0.877773	0.075408	0.263532	0.280116	0.432738	0.452103	0.206433
5	0.288833	0.380903	0.084878	0.133658	0.155788	0.336924	0.461587	0.520726	0.200018	0.221225	0.181357	0.236353	0.175343	0.334518	0.260069	0.179724	0.089038	0.202118	0.111727	0.128582	0.181288	0.174161	0.177094	0.240620	0.112320	0.160000	0.116767	0.132507	0.157510	0.202821	0.409453	0.225362	0.111147	0.336431	0.127146	0.201261	0.245711	0.354393	0.268848	0.242841	0.130038	0.285790	0.092419	0.120272	0.176969	0.180105	0.641915	0.730854	0.062009	0.138926	0.124621	0.141872	0.201638	0.370603	0.237034	0.282781	0.254892	0.610767	0.107875	0.121074	0.236511	0.457420	0.135924	0.290702	0.061386	0.150565	0.195408	0.126185	0.132753	0.209686	0.187297	0.272630	0.273863	0.871253	0.071754	0.306285	0.284020	0.423595	0.451932	0.210214
6	0.221825	0.375710	0.085379	0.235279	0.161426	0.337854	0.551993	0.544825	0.169125	0.192915	0.195902	0.272857	0.182078	0.330863	0.291868	0.229937	0.101408	0.238318	0.115336	0.134535	0.186053	0.164554	0.205661	0.259615	0.122849	0.210634	0.127366	0.145142	0.138356	0.192617	0.369320	0.247684	0.114973	0.336358	0.120824	0.207195	0.249736	0.358929	0.273524	0.229054	0.136039	0.280019	0.107616	0.163270	0.175785	0.179140	0.815369	0.764357	0.049375	0.120475	0.134134	0.139714	0.226828	0.378179	0.269902	0.277964	0.212038	0.606988	0.120941	0.126700	0.234493	0.487970	0.134462	0.280243	0.061773	0.148206	0.180947	0.153503	0.123179	0.199528	0.264913	0.338776	0.260658	0.811114	0.087310	0.318577	0.282135	0.403625	0.456183	0.209003
7	0.186982	0.311224	0.237831	0.283437	0.164052	0.336866	0.646524	0.545020	0.164939	0.192911	0.193921	0.359081	0.182415	0.298802	0.296025	0.323562	0.157731	0.315029	0.126469	0.145921	0.192483	0.111679	0.343440	0.247172	0.128522	0.217130	0.147508	0.202896	0.083597	0.188201	0.322706	0.238622	0.147410	0.335354	0.166968	0.294139	0.250372	0.380019	0.286061	0.239776	0.136013	0.218764	0.102362	0.171758	0.174716	0.184099	0.866747	0.768477	0.048192	0.089390	0.128875	0.122003	0.197654	0.307225	0.271761	0.289920	0.222986	0.601407	0.155099	0.346203	0.234464	0.496316	0.145323	0.259650	0.071870	0.144439	0.178239	0.231992	0.120723	0.185174	0.371919	0.369923	0.260729	0.737934	0.116067	0.306371	0.300109	0.409758	0.372674	0.268157
8	0.173561	0.259801	0.277830	0.301325	0.181797	0.331984	0.658833	0.549287	0.169455	0.205442	0.246356	0.424450	0.180599	0.292996	0.342051	0.368950	0.156381	0.307225	0.144435	0.151104	0.200530	0.108110	0.388366	0.280502	0.130991	0.229332	0.145047	0.229123	0.098635	0.325736	0.330607	0.207447	0.158344	0.337528	0.258300	0.431249	0.215757	0.294415	0.286978	0.254733	0.103210	0.246514	0.142706	0.304666	0.178769	0.185359	0.871931	0.771418	0.064705	0.085726	0.134928	0.204714	0.177125	0.262465	0.287668	0.327131	0.231792	0.584901	0.214631	0.439640	0.236060	0.536555	0.141264	0.260755	0.070532	0.113188	0.207933	0.274597	0.117660	0.133330	0.432327	0.370370	0.216449	0.637177	0.119286	0.278850	0.308497	0.410293	0.347245	0.286162
9	0.179888	0.298845	0.310034	0.447064	0.181340	0.329707	0.639340	0.577222	0.208470	0.234645	0.349974	0.432703	0.178169	0.260063	0.422318	0.372838	0.147799	0.294484	0.180933	0.161875	0.214566	0.113654	0.452776	0.296920	0.135770	0.247944	0.153985	0.277085	0.122237	0.400874	0.253625	0.204265	0.160757	0.344970	0.323405	0.456612	0.201970	0.241258	0.316523	0.257414	0.103027	0.234448	0.193373	0.358298	0.178509	0.174793	0.872121	0.772460	0.063132	0.078133	0.130235	0.301507	0.169712	0.257675	0.315225	0.364767	0.237337	0.549762	0.229395	0.502577	0.240923	0.552109	0.146109	0.264524	0.062025	0.108306	0.230920	0.280655	0.182075	0.161290	0.461731	0.397237	0.169756	0.158520	0.147191	0.287810	0.310005	0.395527	0.378112	0.297037
10	0.182768	0.317531	0.446037	0.473520	0.181677	0.313560	0.623812	0.646184	0.203010	0.245601	0.393359	0.527555	0.180844	0.236143	0.447807	0.367361	0.147428	0.275832	0.210555	0.273311	0.214566	0.115727	0.528072	0.296774	0.140214	0.279134	0.145316	0.359059	0.138206	0.424635	0.255524	0.273093	0.167717	0.349453	0.355115	0.601299	0.173803	0.207662	0.327279	0.240591	0.117277	0.227449	0.198288	0.346389	0.164555	0.156506	0.881593	0.734729	0.068090	0.090275	0.151845	0.342702	0.169784	0.258688	0.327511	0.392867	0.221522	0.406746	0.346298	0.586047	0.266941	0.548876	0.167727	0.240890	0.059702	0.116318	0.237553	0.335277	0.193747	0.173353	0.468747	0.491005	0.136397	0.082193	0.154446	0.337660	0.274766	0.386220	0.389102	0.307535
11	0.166908	0.306532	0.460773	0.458610	0.187337	0.306820	0.669568	0.717334	0.200312	0.251762	0.481777	0.580732	0.181099	0.230062	0.455782	0.374283	0.162428	0.294672	0.276070	0.310936	0.219935	0.118705	0.546532	0.308247	0.131415	0.307642	0.122119	0.376376	0.141220	0.437957	0.326203	0.244262	0.153050	0.258018	0.474920	0.672142	0.160182	0.209349	0.319058	0.251842	0.110587	0.226431	0.192055	0.343166	0.158260	0.169441	0.876627	0.692802	0.091927	0.098440	0.179908	0.348142	0.168464	0.261986	0.328292	0.375080	0.183481	0.192171	0.409542	0.605657	0.265174	0.543715	0.202229	0.262382	0.076389	0.150670	0.239389	0.473286	0.212119	0.192126	0.616002	0.573356	0.094890	0.083084	0.195245	0.348165	0.223958	0.281437	0.388281	0.311039
12	0.150964	0.290991	0.436480	0.425144	0.180152	0.237623	0.721827	0.749246	0.181952	0.257133	0.519019	0.563667	0.177135	0.226796	0.454676	0.398549	0.183773	0.349910	0.302759	0.303862	0.221882	0.118973	0.551346	0.320706	0.126074	0.305901	0.169700	0.374087	0.142367	0.415769	0.295062	0.251746	0.145738	0.178242	0.521087	0.674277	0.166682	0.218975	0.334385	0.300746	0.109239	0.229705	0.190735	0.335766	0.165325	0.262619	0.820146	0.658329	0.101922	0.098044	0.195124	0.358284	0.167340	0.257635	0.360183	0.349358	0.133414	0.142371	0.410041	0.619340	0.249180	0.542358	0.245572	0.329631	0.103214	0.202963	0.298051	0.517778	0.215925	0.195852	0.782724	0.601325	0.084415	0.083978	0.221038	0.334905	0.211686	0.246772	0.376224	0.358531
13	0.146803	0.343859	0.394983	0.495077	0.171029	0.155560	0.740990	0.740407	0.191945	0.327863	0.541145	0.528463	0.174500	0.201088	0.454242	0.441380	0.168680	0.314353	0.301428	0.299461	0.218750	0.118695	0.550336	0.313834	0.104711	0.251878	0.181326	0.364431	0.094208	0.286244	0.315126	0.295193	0.132855	0.173237	0.526748	0.668097	0.168982	0.244942	0.354438	0.311838	0.090861	0.178853	0.139577	0.212082	0.128685	0.276195	0.736271	0.652775	0.104366	0.098386	0.199861	0.405376	0.167359	0.238655	0.393664	0.341632	0.118296	0.166973	0.398795	0.558811	0.221501	0.513985	0.353659	0.373645	0.113238	0.240049	0.308772	0.515946	0.224430	0.198049	0.825525	0.595575	0.085033	0.086447	0.221853	0.315053	0.179350	0.247788	0.370004	0.445682
14	0.131637	0.382843	0.400786	0.427390	0.168387	0.153010	0.744033	0.704208	0.278924	0.374204	0.519394	0.468963	0.145004	0.144127	0.457318	0.457504	0.181528	0.354199	0.291867	0.294323	0.200752	0.147026	0.537605	0.286487	0.100095	0.247290	0.186920	0.350060	0.135416	0.437085	0.339664	0.377121	0.104669	0.173696	0.510543	0.622361	0.175543	0.257124	0.361631	0.296137	0.088687	0.168725	0.078506	0.229008	0.118004	0.283422	0.720743	0.530591	0.118418	0.114754	0.226382	0.442330	0.165461	0.224934	0.393070	0.336744	0.105722	0.192762	0.374961	0.454032	0.182698	0.445221	0.406048	0.352275	0.116996	0.253478	0.308907	0.516956	0.222823	0.190204	0.827114	0.573546	0.082973	0.080778	0.224448	0.277393	0.182862	0.243182	0.403658	0.497335
15	0.090835	0.317374	0.320883	0.372522	0.161562	0.147134	0.743888	0.638153	0.305073	0.450205	0.463536	0.491007	0.124231	0.174536	0.430735	0.450260	0.182891	0.369534	0.280958	0.317941	0.208805	0.158706	0.536900	0.253806	0.102806	0.235320	0.182447	0.354230	0.156473	0.474391	0.393317	0.520698	0.081543	0.178135	0.466193	0.570736	0.179889	0.262216	0.341125	0.278540	0.068327	0.175974	0.133741	0.276856	0.118056	0.280789	0.634687	0.373024	0.125117	0.118160	0.269839	0.473778	0.161752	0.184748	0.395316	0.318661	0.133893	0.208618	0.357812	0.438265	0.181771	0.467785	0.411409	0.340773	0.134001	0.298508	0.312054	0.519603	0.222529	0.193830	0.811118	0.554742	0.081887	0.072002	0.229824	0.259148	0.191271	0.261146	0.412369	0.499866
16	0.079632	0.307191	0.234694	0.373021	0.159173	0.141021	0.739929	0.577897	0.319333	0.491512	0.448929	0.473676	0.114322	0.288898	0.392828	0.459418	0.186792	0.392311	0.276448	0.383306	0.172632	0.159371	0.516426	0.239505	0.098278	0.217504	0.214112	0.267464	0.165613	0.433639	0.350857	0.548336	0.074140	0.179567	0.439644	0.623672	0.181838	0.267834	0.311190	0.299139	0.084640	0.175037	0.146354	0.318488	0.118562	0.286285	0.384454	0.319515	0.123073	0.113600	0.285568	0.475870	0.145828	0.163966	0.381203	0.310305	0.167827	0.212049	0.289658	0.352032	0.180936	0.445251	0.406663	0.340984	0.132432	0.302697	0.313877	0.498338	0.220728	0.205665	0.771794	0.523734	0.075894	0.058886	0.217426	0.268566	0.175293	0.237940	0.385640	0.502938
17	0.076982	0.318883	0.236975	0.372692	0.150743	0.135237	0.701099	0.579942	0.352538	0.622494	0.371871	0.385277	0.106470	0.305368	0.405755	0.440244	0.181490	0.398216	0.223952	0.418732	0.173536	0.230099	0.428976	0.230433	0.104895	0.191331	0.253667	0.221686	0.180444	0.436868	0.362323	0.565558	0.079786	0.214037	0.411349	0.540317	0.162968	0.259666	0.310469	0.321471	0.082112	0.170178	0.162601	0.400095	0.117894	0.309164	0.237144	0.363729	0.115808	0.110600	0.285914	0.424032	0.095256	0.156117	0.357275	0.311832	0.165204	0.208136	0.135151	0.350959	0.185756	0.456291	0.407111	0.339847	0.131657	0.321708	0.294620	0.487192	0.219686	0.221533	0.739924	0.522832	0.067020	0.079414	0.211197	0.274475	0.178783	0.251828	0.379979	0.503978
18	0.093064	0.258557	0.252801	0.313640	0.138549	0.132566	0.640803	0.589910	0.367383	0.650510	0.307917	0.363241	0.116938	0.353621	0.403277	0.414147	0.170961	0.395107	0.166868	0.419567	0.164184	0.341269	0.409410	0.185751	0.087611	0.175865	0.265052	0.217343	0.151914	0.397350	0.357773	0.553181	0.102418	0.235935	0.322855	0.470770	0.134137	0.208977	0.322199	0.311229	0.081711	0.163016	0.247104	0.403582	0.122659	0.323708	0.228614	0.396942	0.114553	0.107917	0.283882	0.382790	0.087590	0.166009	0.356132	0.305202	0.165027	0.256364	0.128495	0.320758	0.206379	0.447540	0.410004	0.331731	0.133975	0.343072	0.279963	0.484270	0.190797	0.243799	0.717996	0.514212	0.057731	0.085292	0.204042	0.279081	0.175733	0.276921	0.361261	0.516811
19	0.090627	0.236931	0.256758	0.308881	0.108956	0.131599	0.637221	0.580525	0.359440	0.621585	0.233257	0.367813	0.119444	0.360906	0.365209	0.405301	0.154727	0.341559	0.197428	0.498867	0.159679	0.356222	0.291906	0.169439	0.091392	0.192535	0.239295	0.302758	0.188798	0.480663	0.338857	0.328376	0.112031	0.237638	0.357955	0.472911	0.135891	0.206902	0.357938	0.300737	0.076698	0.156842	0.253259	0.472755	0.135529	0.367785	0.282915	0.362729	0.103733	0.088392	0.272958	0.409842	0.098094	0.168965	0.341751	0.268783	0.172728	0.259847	0.142772	0.320143	0.201986	0.474167	0.409222	0.327433	0.145249	0.378409	0.290082	0.405984	0.182902	0.257673	0.712571	0.451669	0.053048	0.077893	0.211534	0.235250	0.181428	0.260394	0.347744	0.516601
20	0.104046	0.255759	0.239473	0.339313	0.102765	0.132594	0.613472	0.540268	0.323532	0.617311	0.231792	0.416865	0.115808	0.362801	0.312708	0.407199	0.105270	0.282906	0.216058	0.566364	0.221081	0.509272	0.188381	0.168402	0.098189	0.220571	0.231951	0.303965	0.220948	0.479868	0.263650	0.282205	0.125680	0.258382	0.400102	0.527382	0.154324	0.207902	0.375345	0.305007	0.076144	0.111193	0.335588	0.630179	0.135698	0.374436	0.266005	0.350635	0.082616	0.078364	0.262482	0.470987	0.117627	0.252593	0.316291	0.209811	0.175729	0.244380	0.146551	0.323181	0.178498	0.464851	0.392936	0.324487	0.135682	0.381625	0.276321	0.263019	0.324262	0.244440	0.658532	0.306724	0.053862	0.094582	0.221175	0.185014	0.188284	0.258348	0.338356	0.511921
21	0.154482	0.255987	0.258227	0.465461	0.100747	0.103072	0.562182	0.459322	0.273118	0.542595	0.235628	0.515288	0.118491	0.380893	0.285110	0.411750	0.107525	0.275281	0.277545	0.581155	0.247864	0.533721	0.166308	0.163918	0.101671	0.240533	0.239169	0.344911	0.211548	0.482971	0.214832	0.153912	0.144398	0.264835	0.448820	0.604480	0.154494	0.219572	0.374989	0.306453	0.085725	0.205260	0.607548	0.634618	0.132712	0.371518	0.243938	0.471424	0.080645	0.080618	0.271000	0.471190	0.120832	0.300171	0.306815	0.146143	0.168387	0.239262	0.153907	0.328227	0.181749	0.462808	0.380922	0.290837	0.123120	0.353981	0.208548	0.229662	0.356718	0.240660	0.439031	0.214199	0.055167	0.101993	0.178464	0.182478	0.192168	0.257642	0.337409	0.515496
22	0.153113	0.248426	0.486096	0.526137	0.103551	0.092297	0.472149	0.392708	0.227409	0.542427	0.239100	0.454233	0.106779	0.383665	0.278626	0.445025	0.098437	0.241100	0.294359	0.557961	0.419747	0.558760	0.167393	0.180547	0.094981	0.241632	0.250842	0.385946	0.228570	0.523912	0.230429	0.236583	0.154580	0.256860	0.473453	0.599254	0.151003	0.212903	0.375723	0.283928	0.091009	0.284090	0.712128	0.716604	0.109166	0.329180	0.283370	0.606678	0.079393	0.077010	0.263246	0.433864	0.160589	0.310503	0.300930	0.198610	0.115543	0.229632	0.177381	0.295468	0.171145	0.442748	0.337586	0.217233	0.122980	0.336744	0.193029	0.254563	0.381703	0.272497	0.239545	0.237181	0.055894	0.105082	0.171856	0.168087	0.193251	0.254549	0.327462	0.497245
23	0.148947	0.274364	0.571306	0.536799	0.107325	0.124141	0.397229	0.400197	0.232733	0.457516	0.213469	0.443484	0.116367	0.390655	0.289165	0.481915	0.093108	0.195861	0.281482	0.507487	0.434643	0.562599	0.188892	0.227020	0.074955	0.240605	0.194711	0.391602	0.219383	0.402186	0.230321	0.251490	0.164547	0.242452	0.478019	0.511398	0.162135	0.258262	0.391026	0.250970	0.123624	0.355724	0.803643	0.733902	0.100214	0.321935	0.408239	0.720066	0.077316	0.060143	0.245684	0.437238	0.178570	0.314997	0.238477	0.261814	0.117545	0.220353	0.181556	0.222485	0.158231	0.418810	0.225517	0.198089	0.107930	0.318289	0.234691	0.271070	0.393400	0.318127	0.211161	0.293699	0.057619	0.117087	0.172586	0.171021	0.191112	0.251167	0.281287	0.429033
24	0.150515	0.368120	0.676600	0.615115	0.104575	0.132428	0.373339	0.416908	0.155878	0.258585	0.233494	0.448688	0.118300	0.390836	0.306009	0.468804	0.062954	0.115079	0.275010	0.480683	0.431019	0.566950	0.214119	0.273116	0.063093	0.209922	0.188712	0.455131	0.169371	0.492351	0.171974	0.274602	0.163812	0.257633	0.465403	0.453281	0.163863	0.275854	0.375322	0.276879	0.150455	0.448389	0.819456	0.640812	0.098055	0.313817	0.529813	0.758028	0.081942	0.092080	0.207432	0.464511	0.179179	0.316999	0.165544	0.293583	0.116336	0.197735	0.191333	0.403158	0.150342	0.378106	0.142891	0.286410	0.094483	0.292836	0.290110	0.248950	0.401300	0.320622	0.225582	0.320623	0.070457	0.128224	0.168495	0.182287	0.176214	0.256674	0.237895	0.394550
25	0.155471	0.383064	0.719545	0.658273	0.094406	0.127408	0.377549	0.419841	0.156823	0.255908	0.403600	0.449408	0.118567	0.393936	0.331527	0.454421	0.058094	0.085568	0.262343	0.444934	0.444610	0.600001	0.206370	0.303351	0.068580	0.238491	0.238207	0.486643	0.197609	0.659553	0.191240	0.270510	0.163518	0.309474	0.420664	0.497605	0.153335	0.271435	0.361426	0.314281	0.156460	0.476884	0.763782	0.495830	0.116232	0.384316	0.595915	0.757505	0.082059	0.093565	0.213892	0.467292	0.178875	0.317352	0.204393	0.298849	0.104178	0.172147	0.268902	0.514451	0.148149	0.338911	0.142983	0.323541	0.095788	0.289029	0.312814	0.257863	0.446803	0.335319	0.229209	0.310105	0.073914	0.138290	0.166834	0.179345	0.173155	0.286667	0.233442	0.386896
26	0.102502	0.383839	0.732226	0.591632	0.089091	0.128022	0.401418	0.429079	0.151448	0.253626	0.415284	0.444548	0.121187	0.352605	0.346612	0.458964	0.054346	0.136475	0.268797	0.329693	0.515988	0.608575	0.199611	0.314080	0.062392	0.214986	0.289565	0.450576	0.216915	0.621041	0.162451	0.200497	0.199739	0.429859	0.445394	0.625459	0.145530	0.262107	0.376585	0.348635	0.156201	0.438053	0.592759	0.420770	0.115330	0.440510	0.606011	0.754658	0.090078	0.096146	0.221071	0.466717	0.179051	0.317589	0.248946	0.300939	0.108045	0.177831	0.347599	0.565265	0.147987	0.329638	0.164922	0.325581	0.108490	0.265050	0.310331	0.314999	0.456584	0.329159	0.227297	0.325574	0.070233	0.149547	0.168384	0.172266	0.163194	0.287179	0.235531	0.360274
27	0.085867	0.398982	0.674533	0.482380	0.092609	0.131367	0.354679	0.471438	0.136642	0.181493	0.411887	0.312071	0.121374	0.281353	0.342659	0.443263	0.084637	0.216381	0.314837	0.260882	0.523147	0.571015	0.203509	0.311317	0.117950	0.209592	0.295422	0.438697	0.162866	0.568606	0.152042	0.155187	0.203058	0.431068	0.571818	0.613070	0.140012	0.257514	0.411846	0.343311	0.153967	0.401731	0.425943	0.213430	0.140768	0.447712	0.629282	0.745426	0.090658	0.097925	0.219964	0.450362	0.179764	0.318863	0.260535	0.307212	0.091588	0.185740	0.367653	0.611224	0.136463	0.292509	0.183969	0.340795	0.103378	0.247345	0.348424	0.333471	0.461693	0.295405	0.228886	0.377231	0.062279	0.200894	0.166729	0.171764	0.125992	0.249235	0.254449	0.332927
28	0.079271	0.593987	0.516338	0.471810	0.095702	0.132483	0.255759	0.525635	0.157827	0.114850	0.405076	0.293310	0.123634	0.265455	0.323395	0.415682	0.087853	0.226122	0.296746	0.377280	0.522594	0.527075	0.202960	0.318729	0.118479	0.197910	0.317993	0.414261	0.190297	0.550177	0.114341	0.044553	0.191921	0.426083	0.574083	0.567205	0.139662	0.257783	0.454336	0.322922	0.121397	0.362226	0.255609	0.161501	0.141726	0.444186	0.703203	0.783259	0.092774	0.106340	0.263637	0.398348	0.177260	0.306752	0.262186	0.301587	0.098853	0.194612	0.382233	0.611183	0.091104	0.187256	0.205102	0.364737	0.084967	0.154508	0.389197	0.329267	0.459125	0.281150	0.232417	0.455295	0.063935	0.204544	0.145064	0.185003	0.115924	0.239497	0.219488	0.315234
29	0.088382	0.592784	0.450560	0.376768	0.122593	0.173574	0.274337	0.561568	0.136108	0.154316	0.390465	0.262137	0.116963	0.198741	0.345899	0.387824	0.131085	0.238064	0.310702	0.442508	0.513963	0.506342	0.203342	0.359700	0.119171	0.203838	0.404567	0.443625	0.247600	0.678273	0.081507	0.014649	0.185959	0.428958	0.596961	0.588639	0.136972	0.255539	0.449415	0.340621	0.096950	0.250430	0.217252	0.159785	0.126761	0.416460	0.794119	0.865851	0.095148	0.107797	0.298810	0.353880	0.169349	0.290663	0.273999	0.299661	0.103532	0.187530	0.596866	0.617822	0.065682	0.070895	0.206183	0.376770	0.080790	0.146538	0.397080	0.328737	0.393350	0.267282	0.237166	0.488539	0.064567	0.226259	0.096578	0.187928	0.102772	0.243078	0.206789	0.319529
30	0.099112	0.660584	0.240104	0.155863	0.133838	0.191023	0.338474	0.562820	0.131447	0.182717	0.404858	0.253888	0.114037	0.205488	0.318804	0.377887	0.248967	0.427971	0.380837	0.462254	0.498123	0.366278	0.201748	0.441972	0.156624	0.574610	0.413529	0.433316	0.250913	0.664486	0.015782	0.015226	0.194513	0.481977	0.767578	0.605858	0.134423	0.254725	0.437215	0.373410	0.084747	0.192093	0.238021	0.171675	0.128515	0.415721	0.835510	0.921028	0.093051	0.106289	0.294167	0.343635	0.154609	0.286406	0.293606	0.326990	0.107462	0.369920	0.670587	0.553265	0.041235	0.061923	0.225307	0.387489	0.078375	0.197153	0.398152	0.332028	0.334192	0.266696	0.242832	0.493148	0.069408	0.261903	0.084091	0.213233	0.095883	0.242095	0.206722	0.322623
31	0.121696	0.660461	0.133347	0.135490	0.134388	0.207078	0.379648	0.550855	0.143268	0.231637	0.256037	0.238637	0.112958	0.184250	0.306251	0.375526	0.264596	0.449383	0.427093	0.645216	0.445851	0.347967	0.195261	0.481910	0.174971	0.681933	0.416657	0.330505	0.266528	0.697901	0.014368	0.174614	0.188420	0.461645	0.799242	0.605619	0.113730	0.253407	0.432706	0.384178	0.073458	0.184383	0.230725	0.214136	0.130923	0.414452	0.846946	0.883139	0.083510	0.106673	0.291732	0.379374	0.140564	0.220007	0.327008	0.380618	0.134478	0.612821	0.651029	0.401231	0.026544	0.058445	0.243206	0.393714	0.079413	0.198194	0.402370	0.335158	0.281794	0.258531	0.234274	0.474690	0.105725	0.259945	0.082018	0.292587	0.097499	0.256329	0.209397	0.306736
32	0.129323	0.659284	0.161091	0.184620	0.146052	0.273759	0.418765	0.530327	0.173880	0.443454	0.208671	0.239173	0.105634	0.147743	0.302057	0.362933	0.290371	0.474911	0.633831	0.718680	0.330770	0.326943	0.177764	0.485205	0.207302	0.761125	0.382240	0.306374	0.267703	0.708351	0.139602	0.278353	0.172060	0.442889	0.791462	0.551305	0.114935	0.249241	0.446689	0.388405	0.072195	0.238636	0.257655	0.194165	0.136768	0.400020	0.838240	0.797734	0.068791	0.103648	0.312813	0.388562	0.137894	0.153689	0.340946	0.412479	0.235173	0.948970	0.604003	0.358406	0.030035	0.059844	0.255057	0.382936	0.085260	0.194816	0.393864	0.360663	0.264932	0.184124	0.226271	0.462462	0.121670	0.254516	0.085632	0.335393	0.111643	0.305973	0.233118	0.459572
33	0.132306	0.569899	0.227318	0.237634	0.165300	0.509860	0.430528	0.492423	0.182545	0.503504	0.227650	0.256343	0.097919	0.173838	0.304665	0.294027	0.313430	0.684279	0.678721	0.726572	0.327705	0.310690	0.157912	0.471560	0.221501	0.783532	0.360828	0.305950	0.203331	0.530148	0.238393	0.356708	0.120436	0.340676	0.728115	0.381517	0.111384	0.247938	0.460802	0.388031	0.097030	0.229492	0.373805	0.201600	0.144509	0.399823	0.786263	0.694002	0.063234	0.091270	0.407278	0.404716	0.087745	0.133549	0.341892	0.390224	0.268357	0.949456	0.591577	0.197639	0.031500	0.055051	0.255712	0.372279	0.084971	0.195993	0.405739	0.390692	0.257027	0.168720	0.262815	0.507836	0.126231	0.257427	0.116851	0.329227	0.111318	0.311546	0.287981	0.626923
34	0.123638	0.450982	0.282908	0.244242	0.179002	0.562347	0.430250	0.460757	0.176287	0.528661	0.222393	0.194210	0.097096	0.173679	0.306497	0.207057	0.330353	0.757699	0.665913	0.710542	0.327854	0.270534	0.168520	0.522844	0.205194	0.791332	0.363648	0.285015	0.131139	0.376185	0.290546	0.404421	0.116583	0.434418	0.608424	0.340911	0.076598	0.176171	0.434501	0.375891	0.112619	0.254370	0.412918	0.339448	0.144601	0.400304	0.710191	0.651148	0.061208	0.125310	0.488223	0.410699	0.049664	0.139089	0.339416	0.356013	0.261954	0.954428	0.587459	0.142624	0.038171	0.079960	0.295687	0.383671	0.081125	0.223591	0.451014	0.370544	0.214240	0.167726	0.361737	0.643525	0.155968	0.265670	0.154277	0.322529	0.144701	0.298459	0.425868	0.723233
35	0.100110	0.196968	0.313884	0.256078	0.230518	0.726397	0.430037	0.447372	0.169723	0.549648	0.192452	0.177183	0.100558	0.172702	0.316506	0.204104	0.336537	0.812482	0.651345	0.622995	0.250410	0.188020	0.196246	0.595102	0.210361	0.859129	0.278801	0.189134	0.102372	0.304202	0.298637	0.396229	0.115281	0.490027	0.593618	0.266824	0.049306	0.104320	0.432861	0.349732	0.134183	0.280078	0.630685	0.443087	0.130829	0.342819	0.654106	0.652681	0.072672	0.147685	0.494619	0.409603	0.088203	0.214020	0.333385	0.380151	0.259407	0.956096	0.435127	0.124053	0.065388	0.080596	0.380835	0.418516	0.084072	0.227451	0.451100	0.376604	0.151899	0.176009	0.496015	0.740675	0.157104	0.264008	0.156684	0.317318	0.158753	0.286626	0.604374	0.738476
36	0.085411	0.174738	0.316838	0.257625	0.241148	0.734773	0.417697	0.446104	0.166880	0.578121	0.167775	0.176010	0.104675	0.165947	0.289145	0.208599	0.287856	0.760992	0.640258	0.603379	0.115856	0.188913	0.277003	0.614458	0.202508	0.809748	0.203397	0.121311	0.097008	0.326646	0.307083	0.315348	0.118330	0.483771	0.520099	0.177147	0.079331	0.110380	0.429389	0.318492	0.142220	0.283730	0.660201	0.424712	0.133676	0.259927	0.646684	0.648368	0.086434	0.157175	0.513155	0.414036	0.151827	0.340628	0.361467	0.469083	0.255641	0.939288	0.198454	0.318306	0.073393	0.085451	0.423655	0.422503	0.092264	0.266059	0.445961	0.419459	0.141872	0.178310	0.572757	0.742291	0.157841	0.225804	0.156417	0.317364	0.173102	0.297261	0.667467	0.762363
37	0.170831	0.267526	0.317507	0.262654	0.254914	0.735065	0.380858	0.424067	0.161006	0.573995	0.151771	0.178784	0.110743	0.167050	0.277803	0.251014	0.254977	0.726413	0.592849	0.479782	0.125185	0.202832	0.364901	0.622490	0.180336	0.584755	0.209359	0.240580	0.149752	0.406428	0.227026	0.280577	0.091549	0.523049	0.215500	0.123232	0.106735	0.144367	0.408418	0.281720	0.185726	0.361752	0.629578	0.416270	0.134146	0.229857	0.629333	0.634658	0.084755	0.204163	0.514627	0.406499	0.156236	0.353297	0.468996	0.548625	0.253101	0.788631	0.216556	0.389082	0.109218	0.134243	0.411561	0.439309	0.091933	0.279315	0.494562	0.436618	0.141198	0.178302	0.575673	0.713457	0.159242	0.213034	0.157402	0.332261	0.194654	0.298563	0.680696	0.903404
38	0.169999	0.301063	0.320997	0.282576	0.253862	0.740827	0.378687	0.363121	0.120669	0.456097	0.156343	0.219460	0.111398	0.169444	0.268405	0.331359	0.225442	0.707915	0.474334	0.252971	0.124441	0.199105	0.389994	0.632773	0.134176	0.484593	0.213761	0.359205	0.148644	0.404012	0.148190	0.095289	0.090579	0.522182	0.152490	0.157819	0.118608	0.161902	0.376773	0.278665	0.196297	0.393910	0.559475	0.412876	0.124304	0.214916	0.545602	0.568702	0.084817	0.210609	0.506511	0.404871	0.155377	0.352091	0.547752	0.574212	0.155069	0.391963	0.247075	0.408501	0.137963	0.158015	0.419542	0.461324	0.116255	0.321006	0.518196	0.445683	0.142596	0.188402	0.611430	0.706826	0.160760	0.214367	0.158870	0.404147	0.190925	0.303415	0.797264	1.033201
39	0.203765	0.426184	0.277451	0.382267	0.255531	0.745778	0.377592	0.266128	0.109052	0.392616	0.181128	0.365489	0.106495	0.173041	0.249163	0.407927	0.187684	0.581244	0.246952	0.184986	0.117637	0.174634	0.532856	0.600149	0.099826	0.477109	0.299967	0.380893	0.147948	0.406689	0.144056	0.075316	0.095252	0.499626	0.174973	0.251467	0.120330	0.168603	0.350703	0.299777	0.192840	0.376461	0.516656	0.287015	0.124916	0.212980	0.369003	0.438861	0.085725	0.213532	0.505939	0.405468	0.156087	0.352478	0.552770	0.575824	0.104780	0.412774	0.244308	0.488834	0.138575	0.187758	0.449276	0.465185	0.128561	0.327998	0.519698	0.431857	0.189158	0.224903	0.742684	0.742285	0.159111	0.137263	0.204610	0.450475	0.188501	0.331721	0.941753	1.089814
40	0.226660	0.517103	0.294264	0.411007	0.241245	0.735007	0.335942	0.181354	0.095378	0.342392	0.263701	0.478028	0.120300	0.177511	0.249755	0.441315	0.174946	0.440598	0.206140	0.291814	0.129365	0.154021	0.626182	0.549890	0.091941	0.522444	0.332082	0.396254	0.143539	0.349133	0.099847	0.069223	0.090119	0.500486	0.213555	0.288148	0.119845	0.169526	0.365883	0.290103	0.173024	0.358859	0.201789	0.177449	0.122348	0.212754	0.241530	0.305053	0.097278	0.219177	0.499451	0.371163	0.161411	0.357600	0.600203	0.599209	0.105283	0.425374	0.281713	0.507538	0.138404	0.194340	0.478303	0.456219	0.142035	0.352961	0.508039	0.398417	0.220182	0.246079	0.799752	0.784949	0.144745	0.131048	0.266540	0.434712	0.189093	0.351711	1.030375	1.101358
41	0.280146	0.548825	0.299594	0.411099	0.240755	0.733248	0.276339	0.158048	0.107950	0.322347	0.440692	0.491176	0.127556	0.181266	0.241676	0.441239	0.134691	0.132428	0.252040	0.375704	0.153136	0.167788	0.647609	0.528848	0.100597	0.465701	0.346732	0.477527	0.086034	0.152443	0.077328	0.148465	0.082914	0.425491	0.278219	0.295997	0.125181	0.169525	0.378312	0.251929	0.185100	0.394019	0.183483	0.294845	0.118197	0.214388	0.207460	0.304556	0.108390	0.215789	0.462383	0.329972	0.175160	0.360887	0.664762	0.659109	0.116048	0.444527	0.281713	0.504543	0.138432	0.216168	0.495202	0.454014	0.140419	0.353093	0.475689	0.357482	0.220538	0.257805	0.821618	0.810105	0.127497	0.132543	0.279703	0.384703	0.187582	0.343207	1.039993	1.079873
42	0.270630	0.594418	0.291871	0.394027	0.240252	0.728924	0.229578	0.153612	0.089120	0.176251	0.482619	0.602750	0.130248	0.182357	0.234286	0.464567	0.105048	0.172643	0.281587	0.380035	0.160420	0.176498	0.655257	0.530001	0.101570	0.416467	0.387540	0.504176	0.074889	0.130629	0.178401	0.426326	0.103378	0.436941	0.293617	0.360086	0.135225	0.169696	0.347683	0.277700	0.146206	0.288895	0.341196	0.319411	0.113864	0.211861	0.237426	0.377626	0.142057	0.241535	0.401369	0.319503	0.179845	0.358999	0.674443	0.697719	0.127075	0.449179	0.269751	0.437005	0.139352	0.222105	0.508105	0.466310	0.139605	0.344254	0.428017	0.331785	0.220260	0.273275	0.820682	0.804355	0.116789	0.133095	0.274321	0.384680	0.196953	0.322328	1.032501	0.992368
43	0.249013	0.571698	0.280645	0.406243	0.223585	0.676359	0.160458	0.150069	0.089132	0.222952	0.559708	0.758368	0.136533	0.177476	0.243572	0.536586	0.143401	0.182372	0.285200	0.410588	0.159771	0.192610	0.653705	0.505369	0.100827	0.416494	0.438924	0.497480	0.096675	0.149276	0.501446	0.502356	0.162674	0.544055	0.389637	0.390293	0.146035	0.162013	0.346293	0.335688	0.108870	0.240737	0.380198	0.373025	0.104920	0.203300	0.312246	0.412765	0.168338	0.357923	0.398842	0.322103	0.192228	0.362718	0.667860	0.702539	0.139615	0.448766	0.250532	0.336802	0.144658	0.234659	0.510186	0.452436	0.130215	0.329202	0.395897	0.319515	0.221207	0.285849	0.799484	0.726463	0.084550	0.095575	0.252972	0.400847	0.195885	0.326445	1.011054	0.906672
44	0.245408	0.566437	0.237041	0.370689	0.218066	0.536121	0.155804	0.166833	0.090419	0.234499	0.637906	0.788426	0.135108	0.141008	0.254030	0.628125	0.150484	0.191909	0.307107	0.423668	0.157298	0.205671	0.644949	0.403067	0.096908	0.390580	0.437106	0.420100	0.101529	0.170123	0.724284	0.681992	0.180141	0.438312	0.407206	0.388226	0.148150	0.162154	0.442726	0.410728	0.104206	0.236679	0.432969	0.375081	0.109390	0.218844	0.366262	0.411048	0.166552	0.466307	0.395704	0.321488	0.193417	0.361002	0.667789	0.702780	0.144905	0.315218	0.233032	0.324461	0.148632	0.266716	0.478992	0.394143	0.125579	0.318066	0.380789	0.233689	0.214075	0.268149	0.733899	0.598185	0.065071	0.100771	0.249281	0.424059	0.161523	0.313234	0.936230	0.862159
45	0.235245	0.512486	0.244919	0.368359	0.183843	0.437644	0.158962	0.210726	0.090037	0.252236	0.694168	0.739140	0.134543	0.155020	0.277209	0.668268	0.151972	0.195405	0.307173	0.426066	0.166991	0.201257	0.632189	0.291530	0.095300	0.378529	0.394711	0.361489	0.104873	0.177314	0.875937	0.721825	0.186813	0.428795	0.399716	0.361289	0.150988	0.163364	0.499433	0.454241	0.101667	0.233567	0.426535	0.348360	0.115551	0.206603	0.387956	0.422104	0.193418	0.486438	0.339414	0.309840	0.194050	0.357073	0.668475	0.699898	0.138540	0.282475	0.221377	0.213904	0.140440	0.283571	0.407436	0.343157	0.124066	0.301150	0.296555	0.166026	0.206847	0.276001	0.651601	0.535638	0.061310	0.222655	0.253314	0.440279	0.158399	0.311678	0.843841	0.865371
46	0.195024	0.439994	0.305309	0.358077	0.136180	0.190890	0.205214	0.310793	0.089757	0.245266	0.684089	0.655257	0.133562	0.162657	0.330959	0.672704	0.147733	0.197672	0.349622	0.423461	0.168548	0.177328	0.581577	0.276533	0.092838	0.303940	0.332243	0.355710	0.099076	0.166273	0.872720	0.656088	0.185601	0.426617	0.390903	0.300924	0.151597	0.169105	0.516509	0.464811	0.061876	0.145330	0.397086	0.263559	0.111142	0.203777	0.386542	0.448170	0.194007	0.480370	0.305063	0.305675	0.185220	0.316849	0.666040	0.672684	0.115700	0.233442	0.169395	0.091257	0.139777	0.316384	0.368696	0.339147	0.119674	0.276149	0.161839	0.151064	0.214932	0.293007	0.625594	0.533616	0.060148	0.266924	0.256199	0.435982	0.125183	0.287138	0.826592	0.793931
47	0.159765	0.391868	0.328618	0.368452	0.102413	0.193238	0.301443	0.434633	0.056956	0.230086	0.602207	0.641301	0.131089	0.165287	0.341708	0.667727	0.132156	0.199424	0.351376	0.375015	0.182338	0.186822	0.557098	0.235469	0.092505	0.240953	0.319181	0.288764	0.104037	0.222585	0.806476	0.582231	0.187286	0.422223	0.368012	0.273041	0.146649	0.163602	0.523738	0.463278	0.028526	0.108229	0.288611	0.245568	0.079881	0.202773	0.469016	0.483858	0.201075	0.516406	0.306493	0.295853	0.142572	0.185048	0.639352	0.609927	0.114521	0.271551	0.135824	0.080178	0.109033	0.296473	0.366743	0.289747	0.101458	0.232097	0.120201	0.183742	0.230853	0.295359	0.613763	0.507995	0.092832	0.323940	0.261272	0.386980	0.112129	0.274968	0.765125	0.594074
48	0.156257	0.334861	0.341759	0.389559	0.089824	0.196033	0.359547	0.496360	0.059596	0.369068	0.556726	0.586195	0.120204	0.203711	0.340930	0.644216	0.128831	0.176245	0.324955	0.342613	0.190854	0.212647	0.507203	0.206419	0.065474	0.182269	0.282423	0.177523	0.126510	0.294852	0.734691	0.430639	0.188467	0.396411	0.316919	0.256571	0.134694	0.140989	0.524147	0.459719	0.037373	0.111489	0.213416	0.142974	0.088159	0.217365	0.574290	0.503396	0.210341	0.547804	0.307875	0.267949	0.144250	0.182930	0.555330	0.538689	0.111999	0.271923	0.132291	0.087234	0.092894	0.284263	0.340822	0.222655	0.058754	0.169746	0.114459	0.233689	0.229659	0.289325	0.510969	0.462289	0.094186	0.326778	0.251146	0.329807	0.112436	0.258988	0.631636	0.378595
49	0.156368	0.261068	0.345930	0.381625	0.087491	0.178456	0.374691	0.497430	0.108015	0.385443	0.495410	0.351489	0.125036	0.211182	0.343628	0.604482	0.108720	0.263302	0.314577	0.312410	0.203844	0.315203	0.338598	0.202496	0.063810	0.217927	0.199414	0.134540	0.155593	0.359524	0.373534	0.304782	0.156682	0.418077	0.300924	0.146064	0.133933	0.166430	0.519239	0.454555	0.039668	0.154008	0.079737	0.134763	0.092670	0.205743	0.602982	0.500068	0.227302	0.604566	0.307948	0.219010	0.162896	0.195143	0.487006	0.509516	0.103037	0.318078	0.126999	0.085226	0.090966	0.270482	0.291343	0.207217	0.048520	0.150347	0.131788	0.278494	0.187148	0.311775	0.338131	0.380470	0.093870	0.330122	0.176623	0.302805	0.111037	0.240437	0.351370	0.250821
50	0.132613	0.165106	0.367125	0.298760	0.086106	0.165811	0.373640	0.575172	0.122604	0.366674	0.390173	0.168918	0.134878	0.210374	0.337570	0.560871	0.073589	0.332535	0.286134	0.275449	0.562925	0.443425	0.212990	0.191945	0.079259	0.230187	0.093259	0.121006	0.165810	0.393421	0.360389	0.282609	0.123985	0.385724	0.156943	0.060679	0.134129	0.180934	0.498706	0.445915	0.044586	0.184387	0.080478	0.121721	0.092555	0.200855	0.609718	0.486648	0.217670	0.616711	0.298708	0.178524	0.163059	0.211499	0.484637	0.506929	0.092986	0.321074	0.071896	0.088474	0.091487	0.262205	0.220294	0.210889	0.049370	0.173944	0.184492	0.292791	0.246423	0.355186	0.268070	0.310780	0.102586	0.410206	0.133473	0.300168	0.103242	0.199029	0.187039	0.229943
51	0.112132	0.185476	0.329074	0.272457	0.087489	0.184189	0.372366	0.674364	0.123452	0.370314	0.247323	0.141832	0.120103	0.199593	0.324398	0.546743	0.077118	0.390892	0.276318	0.267395	0.580482	0.434192	0.198845	0.175100	0.110709	0.253272	0.121967	0.117641	0.171116	0.364130	0.359057	0.242728	0.095709	0.403492	0.121481	0.062336	0.139687	0.210286	0.478463	0.441488	0.096805	0.251472	0.074083	0.117591	0.098063	0.219011	0.606120	0.453820	0.214330	0.643141	0.155843	0.294984	0.156277	0.215680	0.412985	0.472078	0.090298	0.321336	0.067101	0.101653	0.091397	0.247761	0.161636	0.209227	0.050645	0.214802	0.228875	0.296751	0.269608	0.408461	0.232236	0.251750	0.123677	0.503700	0.157368	0.292332	0.080842	0.197594	0.162801	0.230042
52	0.112108	0.217168	0.278663	0.276236	0.084553	0.186516	0.371539	0.716483	0.121948	0.369373	0.166352	0.149000	0.115937	0.205772	0.329995	0.549049	0.096106	0.466506	0.263242	0.247453	0.581769	0.454631	0.208571	0.156877	0.113388	0.253376	0.161919	0.129779	0.140729	0.300237	0.256180	0.152899	0.081770	0.404820	0.133456	0.066351	0.135639	0.219291	0.449165	0.438893	0.110893	0.272353	0.104897	0.127870	0.137384	0.376845	0.590284	0.391846	0.203380	0.539050	0.140091	0.424224	0.144623	0.209881	0.279187	0.355703	0.082360	0.310667	0.086226	0.102507	0.086349	0.236606	0.111060	0.176337	0.067344	0.227120	0.237754	0.335576	0.441599	0.463118	0.205851	0.205915	0.190386	0.739695	0.161085	0.274589	0.074449	0.192481	0.162792	0.264292
53	0.113032	0.267844	0.266465	0.247821	0.096261	0.202934	0.457245	0.740061	0.127614	0.374510	0.197827	0.231425	0.109616	0.208430	0.331992	0.522032	0.102082	0.488678	0.124490	0.170788	0.607139	0.627899	0.220138	0.157028	0.132627	0.253980	0.163874	0.142989	0.097363	0.227103	0.187118	0.208720	0.082496	0.406183	0.131400	0.126021	0.126662	0.222321	0.443611	0.412409	0.111456	0.269569	0.147187	0.135212	0.146706	0.394245	0.555519	0.351864	0.195292	0.507867	0.230343	0.475537	0.156477	0.296729	0.217279	0.195707	0.092744	0.258986	0.096113	0.138728	0.079554	0.233313	0.104195	0.135498	0.070180	0.218572	0.259030	0.391424	0.483139	0.459115	0.198618	0.199197	0.274252	0.797054	0.155989	0.237945	0.071722	0.184913	0.167241	0.415817
54	0.094680	0.304116	0.290643	0.174346	0.100643	0.198868	0.553851	0.752898	0.131088	0.308079	0.209031	0.311510	0.101820	0.206289	0.328163	0.435089	0.101280	0.490054	0.104237	0.111122	0.645327	0.740064	0.232804	0.170048	0.133359	0.243929	0.165354	0.155425	0.075093	0.174489	0.178637	0.248275	0.080105	0.413996	0.134084	0.164497	0.113143	0.220879	0.422792	0.368247	0.113392	0.255480	0.146335	0.130868	0.178641	0.467764	0.523231	0.349617	0.177087	0.480875	0.362700	0.477679	0.144491	0.348055	0.218782	0.093809	0.090723	0.218546	0.110419	0.156204	0.064157	0.247165	0.105799	0.117385	0.065940	0.204974	0.291979	0.415046	0.491979	0.484924	0.199344	0.198308	0.308986	0.823247	0.155283	0.194605	0.109591	0.210537	0.183585	0.526311
55	0.104500	0.309344	0.240607	0.127922	0.090368	0.204896	0.593462	0.752647	0.134312	0.255545	0.194552	0.325955	0.108601	0.221834	0.319138	0.297264	0.100116	0.490628	0.100361	0.128436	0.661216	0.752296	0.233684	0.171138	0.136541	0.244667	0.167766	0.146735	0.058073	0.114130	0.280477	0.298752	0.082134	0.406909	0.174630	0.194470	0.110359	0.219548	0.298011	0.303401	0.109776	0.258528	0.198248	0.127494	0.177090	0.475165	0.504882	0.329580	0.180777	0.472966	0.395429	0.507976	0.141860	0.363512	0.225141	0.105303	0.079232	0.139443	0.118555	0.160953	0.080238	0.255292	0.097741	0.116665	0.065540	0.205081	0.299481	0.405325	0.531452	0.487205	0.196068	0.191752	0.311380	0.821108	0.159760	0.178500	0.204185	0.375650	0.212450	0.548384
56	0.102763	0.282834	0.235789	0.133812	0.091903	0.198729	0.612488	0.739658	0.137549	0.252950	0.178826	0.358534	0.107160	0.215054	0.254612	0.228906	0.096720	0.401932	0.088901	0.160549	0.660593	0.776437	0.252909	0.172313	0.132884	0.219219	0.171347	0.150438	0.062625	0.122037	0.311808	0.384325	0.117371	0.373494	0.185722	0.295481	0.115126	0.224903	0.213273	0.302895	0.064170	0.199759	0.202707	0.110421	0.191916	0.529654	0.502168	0.282237	0.168671	0.408772	0.400315	0.546592	0.150014	0.362905	0.238231	0.170353	0.076002	0.135173	0.110198	0.164515	0.143467	0.381382	0.089451	0.109183	0.063205	0.189668	0.297023	0.380238	0.555962	0.530892	0.183352	0.176839	0.305931	0.812856	0.147855	0.177574	0.230756	0.406539	0.282619	0.549588
57	0.103802	0.268444	0.206081	0.149505	0.095589	0.194133	0.593929	0.691735	0.146190	0.228110	0.179462	0.421791	0.118899	0.235201	0.190723	0.231397	0.094103	0.387558	0.094449	0.178991	0.661516	0.772477	0.271778	0.170380	0.108651	0.183526	0.227708	0.145430	0.081074	0.156345	0.525294	0.510280	0.104984	0.287311	0.243930	0.309863	0.133677	0.227971	0.206960	0.336841	0.046938	0.167556	0.196607	0.080468	0.200965	0.534018	0.427426	0.198176	0.155960	0.377241	0.402539	0.587540	0.152458	0.358353	0.264883	0.255155	0.076567	0.112702	0.119019	0.240657	0.148385	0.413176	0.083437	0.112022	0.063905	0.194611	0.293745	0.346978	0.596531	0.547749	0.162860	0.153998	0.303286	0.803686	0.147514	0.154965	0.268987	0.649689	0.309421	0.623010
58	0.103556	0.235814	0.238738	0.246146	0.093566	0.192558	0.549735	0.623185	0.165416	0.237618	0.183880	0.447179	0.122571	0.263267	0.186912	0.244868	0.065279	0.237073	0.178696	0.251851	0.661908	0.763077	0.266475	0.170042	0.110281	0.192023	0.215880	0.143320	0.080528	0.229107	0.704606	0.483273	0.105959	0.282885	0.249621	0.309217	0.127498	0.222158	0.219323	0.354982	0.039515	0.174512	0.189637	0.098078	0.224780	0.562867	0.256783	0.110411	0.136639	0.277320	0.432034	0.624497	0.150833	0.352934	0.294743	0.329779	0.079271	0.106399	0.117593	0.291020	0.160374	0.439640	0.082317	0.115654	0.085051	0.291432	0.279198	0.318330	0.606816	0.538593	0.139328	0.128179	0.305287	0.808421	0.149655	0.107416	0.290660	0.876159	0.325280	0.731942
59	0.113950	0.202090	0.285141	0.336967	0.091021	0.180764	0.519845	0.588669	0.168189	0.246231	0.164774	0.434968	0.125867	0.270564	0.186133	0.250906	0.057062	0.191585	0.288226	0.276005	0.626030	0.691137	0.261172	0.152728	0.097292	0.174250	0.204422	0.166720	0.079628	0.234248	0.665102	0.458132	0.110790	0.287023	0.244470	0.312997	0.120636	0.216676	0.234345	0.355351	0.051231	0.171703	0.212747	0.100259	0.224786	0.565873	0.160726	0.051516	0.117926	0.227125	0.528640	0.626876	0.147473	0.349965	0.316793	0.374939	0.065006	0.129473	0.115040	0.288330	0.160280	0.445097	0.086318	0.111808	0.090927	0.297207	0.233757	0.314466	0.605817	0.497753	0.114794	0.103684	0.303359	0.807782	0.153790	0.118367	0.317176	0.989943	0.371720	0.805016
60	0.109809	0.144583	0.262940	0.356610	0.083369	0.179816	0.510822	0.575344	0.161479	0.195984	0.155342	0.374188	0.149328	0.344671	0.202760	0.246526	0.055532	0.183645	0.299714	0.282444	0.406367	0.670948	0.249008	0.131777	0.077437	0.257216	0.203606	0.187333	0.085452	0.244176	0.664591	0.438259	0.114121	0.285436	0.242126	0.298474	0.112564	0.182483	0.240859	0.352079	0.096308	0.156253	0.164459	0.092723	0.224074	0.567446	0.107932	0.109191	0.096515	0.080017	0.558901	0.558041	0.128110	0.497014	0.358268	0.386223	0.076562	0.179203	0.119903	0.278158	0.160702	0.445626	0.084560	0.106997	0.100032	0.308204	0.214346	0.297824	0.580865	0.495546	0.090892	0.079758	0.303114	0.751436	0.145517	0.196069	0.331542	1.050440	0.417530	0.827590
61	0.113980	0.156946	0.282766	0.381626	0.080217	0.170481	0.512254	0.465146	0.150325	0.185396	0.193071	0.345313	0.175500	0.403642	0.260743	0.237331	0.055973	0.148635	0.391227	0.434345	0.401425	0.670933	0.231167	0.137673	0.089426	0.321196	0.203063	0.191281	0.090814	0.338906	0.635060	0.260670	0.114473	0.262779	0.235343	0.285708	0.110217	0.159462	0.240172	0.351904	0.141368	0.178575	0.157666	0.091521	0.222384	0.560393	0.106632	0.264089	0.079104	0.078269	0.550244	0.483383	0.127889	0.691367	0.409680	0.388834	0.082951	0.180463	0.132224	0.274837	0.160987	0.460096	0.075747	0.098786	0.102375	0.305169	0.186403	0.225780	0.497828	0.396803	0.066190	0.066453	0.260729	0.521967	0.180269	0.245792	0.372167	1.053995	0.467968	0.830729
62	0.120902	0.153528	0.306562	0.499838	0.078673	0.153677	0.513893	0.332746	0.128891	0.151594	0.194683	0.331436	0.180060	0.409120	0.293561	0.230701	0.066134	0.122265	0.477739	0.549005	0.391568	0.629968	0.220140	0.153143	0.095882	0.358174	0.201110	0.180563	0.156267	0.389036	0.216211	0.110443	0.114952	0.213641	0.213203	0.255490	0.103633	0.121194	0.243428	0.357302	0.156657	0.187153	0.129818	0.078127	0.200422	0.469727	0.161922	0.376463	0.078900	0.077888	0.497272	0.460689	0.156144	0.724726	0.420395	0.424277	0.083889	0.180145	0.132526	0.273025	0.160869	0.464577	0.071104	0.091143	0.100063	0.307323	0.139031	0.117045	0.465591	0.382489	0.046169	0.065366	0.226168	0.441011	0.253745	0.281434	0.378356	1.053629	0.489041	0.796604
63	0.120918	0.165410	0.312106	0.569818	0.078800	0.150902	0.504957	0.258238	0.109333	0.141303	0.187350	0.249126	0.188223	0.436399	0.293329	0.223536	0.071715	0.125429	0.483803	0.560886	0.329287	0.371216	0.209431	0.153196	0.094963	0.358724	0.162555	0.185305	0.182403	0.379150	0.145437	0.118039	0.083366	0.122060	0.223106	0.144847	0.101553	0.109317	0.243718	0.365682	0.156202	0.178710	0.111271	0.069642	0.195315	0.448089	0.243815	0.429125	0.069452	0.067820	0.424614	0.457158	0.265922	0.928423	0.472358	0.487294	0.081537	0.179023	0.128801	0.239972	0.160902	0.461055	0.061906	0.095650	0.102694	0.307465	0.058105	0.058355	0.435295	0.370713	0.035085	0.067591	0.109163	0.282840	0.300695	0.289761	0.377437	1.048472	0.484761	0.710885
64	0.109640	0.207013	0.368072	0.531349	0.059779	0.126173	0.398808	0.200284	0.078503	0.128461	0.181777	0.192098	0.195103	0.484360	0.340000	0.221399	0.078655	0.134547	0.478185	0.538227	0.273269	0.313993	0.250351	0.154082	0.090444	0.350745	0.103898	0.211575	0.179481	0.373961	0.162694	0.193434	0.079916	0.093025	0.159207	0.141503	0.099478	0.108940	0.247708	0.367830	0.152648	0.171018	0.079805	0.097741	0.181500	0.359352	0.338055	0.433306	0.062237	0.064396	0.420052	0.417013	0.270784	0.930194	0.534674	0.530135	0.080714	0.179010	0.123039	0.146638	0.160816	0.426300	0.059268	0.097942	0.106354	0.317302	0.036650	0.065142	0.439095	0.327480	0.037677	0.068632	0.098176	0.235112	0.301636	0.293620	0.356176	1.030876	0.470431	0.645191
65	0.110952	0.228384	0.361506	0.509943	0.049363	0.115099	0.280964	0.176648	0.065535	0.150856	0.174387	0.150673	0.190820	0.484738	0.342394	0.220754	0.080386	0.145622	0.425645	0.517389	0.252492	0.285625	0.267840	0.152058	0.095467	0.346224	0.142687	0.205860	0.171897	0.305175	0.164138	0.287428	0.077835	0.074354	0.152629	0.195813	0.099015	0.108472	0.245339	0.366813	0.129262	0.142599	0.097147	0.110687	0.190157	0.355445	0.374899	0.478118	0.031157	0.072315	0.415784	0.360797	0.303439	0.915519	0.576585	0.538019	0.078235	0.160544	0.119181	0.143831	0.147266	0.410071	0.078328	0.100075	0.111797	0.316998	0.039991	0.108794	0.429137	0.366992	0.040464	0.062419	0.093872	0.169654	0.303232	0.304404	0.309813	0.987120	0.449839	0.636966
66	0.134558	0.270056	0.353914	0.513302	0.058858	0.153059	0.207783	0.176409	0.061854	0.154614	0.157033	0.118501	0.184110	0.477975	0.338481	0.218961	0.086924	0.214627	0.394134	0.518221	0.273471	0.278417	0.241583	0.149468	0.097036	0.334350	0.144314	0.168314	0.128457	0.120135	0.216078	0.288188	0.078468	0.057763	0.181694	0.209971	0.101411	0.105930	0.245091	0.353359	0.075543	0.100361	0.117268	0.114202	0.180028	0.283677	0.406466	0.539515	0.031136	0.081957	0.410995	0.283615	0.311397	0.909303	0.589519	0.532691	0.066018	0.112465	0.106339	0.131953	0.082880	0.244349	0.093850	0.104370	0.109434	0.291536	0.044804	0.130957	0.454828	0.430876	0.043597	0.066558	0.099401	0.162198	0.333103	0.363064	0.300150	0.968717	0.415635	0.622637
67	0.142322	0.323767	0.359780	0.450460	0.075743	0.196956	0.162516	0.205482	0.072997	0.171173	0.091354	0.110697	0.194457	0.526459	0.332815	0.214888	0.137385	0.276846	0.367638	0.477810	0.261652	0.273939	0.228367	0.147023	0.100354	0.238805	0.151860	0.142544	0.075329	0.106421	0.329323	0.379059	0.073041	0.058435	0.220394	0.199399	0.091761	0.089197	0.246267	0.298076	0.063398	0.097720	0.117063	0.141250	0.176919	0.265999	0.533166	0.564438	0.046067	0.130358	0.332381	0.198883	0.306323	0.910293	0.587174	0.516799	0.041445	0.041973	0.080670	0.129286	0.066727	0.204971	0.095660	0.102323	0.095813	0.180749	0.068537	0.131894	0.467496	0.471744	0.047548	0.073358	0.099343	0.158041	0.369468	0.425392	0.256158	0.708060	0.428177	0.541337
68	0.143730	0.341614	0.359319	0.307439	0.074765	0.197099	0.171443	0.251671	0.074237	0.376985	0.087362	0.111059	0.190960	0.561640	0.345873	0.203115	0.140571	0.288821	0.181142	0.282662	0.265593	0.275011	0.228200	0.137910	0.075856	0.087051	0.164782	0.140450	0.070916	0.125919	0.360818	0.487853	0.066896	0.058997	0.225595	0.208590	0.054573	0.069089	0.263706	0.240724	0.065008	0.103720	0.111735	0.136505	0.153910	0.184322	0.562715	0.570924	0.076265	0.189389	0.167921	0.150471	0.300949	0.910528	0.575604	0.483032	0.017313	0.026392	0.070362	0.128555	0.034008	0.158413	0.139764	0.101287	0.093869	0.174457	0.085409	0.133072	0.469307	0.475434	0.051937	0.080397	0.092706	0.104994	0.371718	0.464137	0.251502	0.592520	0.420274	0.430833
69	0.170417	0.348580	0.253756	0.203043	0.076713	0.198571	0.207655	0.278857	0.205490	0.601448	0.098015	0.100639	0.191133	0.543071	0.367609	0.190506	0.139495	0.292972	0.108012	0.150241	0.240330	0.265127	0.227492	0.136374	0.078279	0.072680	0.170899	0.161530	0.065158	0.116001	0.359863	0.470623	0.057078	0.048561	0.219827	0.223178	0.076843	0.086494	0.261073	0.217812	0.060102	0.096127	0.105539	0.125576	0.161525	0.174651	0.566013	0.572014	0.087523	0.204829	0.125981	0.143695	0.300599	0.911048	0.557618	0.446538	0.022957	0.030254	0.070883	0.129063	0.033668	0.148323	0.156661	0.100398	0.068083	0.155326	0.091554	0.140313	0.493005	0.523785	0.055128	0.084566	0.092271	0.104548	0.379961	0.472724	0.209774	0.199816	0.416298	0.337670
70	0.216877	0.376432	0.218124	0.201797	0.080614	0.197371	0.269282	0.284975	0.235701	0.609453	0.098585	0.077131	0.199486	0.535964	0.371226	0.184435	0.139872	0.280403	0.102832	0.145643	0.215534	0.266840	0.225597	0.124621	0.082632	0.084300	0.206383	0.186030	0.055256	0.109237	0.335498	0.472680	0.054790	0.040830	0.210440	0.238696	0.152460	0.111755	0.247345	0.216724	0.060253	0.107673	0.095777	0.136605	0.165024	0.158095	0.565846	0.564014	0.101807	0.216533	0.111222	0.141261	0.299055	0.907737	0.536362	0.417201	0.032607	0.051303	0.067137	0.114651	0.029551	0.144861	0.156421	0.136495	0.077418	0.281015	0.093083	0.170865	0.502281	0.524138	0.059157	0.089047	0.091345	0.102875	0.389914	0.454934	0.163940	0.118873	0.384789	0.308997
71	0.221986	0.381711	0.199024	0.401120	0.086917	0.196136	0.316929	0.285717	0.240457	0.600241	0.112435	0.063969	0.161765	0.467046	0.356240	0.194071	0.133643	0.278554	0.098014	0.197770	0.251865	0.357460	0.210339	0.105752	0.067422	0.090014	0.274265	0.185824	0.035236	0.102599	0.294979	0.488501	0.054788	0.088374	0.208515	0.255443	0.219762	0.127510	0.251170	0.212380	0.053904	0.140451	0.076513	0.127614	0.165877	0.161667	0.569278	0.518471	0.105734	0.219343	0.109773	0.122813	0.298633	0.828074	0.494158	0.408931	0.035705	0.082612	0.079507	0.071778	0.029061	0.084352	0.156256	0.165338	0.082486	0.346016	0.111547	0.185462	0.498955	0.525736	0.062142	0.086223	0.089118	0.108828	0.362413	0.429211	0.090353	0.088362	0.333704	0.313084
72	0.225752	0.341497	0.343587	0.615470	0.092880	0.209431	0.322275	0.289318	0.240418	0.601548	0.125444	0.087189	0.145428	0.444916	0.308535	0.209438	0.130364	0.229850	0.109567	0.210232	0.497380	0.477339	0.200759	0.074105	0.064325	0.109490	0.290919	0.240911	0.060033	0.076052	0.340708	0.399686	0.045370	0.136227	0.210178	0.219952	0.261229	0.137111	0.257391	0.201465	0.063983	0.207628	0.076157	0.104749	0.170896	0.163409	0.581473	0.448896	0.138216	0.289355	0.104536	0.126661	0.298898	0.673949	0.449071	0.420109	0.036301	0.099041	0.078738	0.073378	0.030358	0.178693	0.153197	0.165484	0.117559	0.476550	0.148494	0.187968	0.520754	0.536309	0.065181	0.082178	0.074025	0.122361	0.311015	0.416570	0.080753	0.094860	0.335537	0.314846
73	0.212008	0.299036	0.457196	0.645576	0.104486	0.251370	0.376730	0.298580	0.238272	0.599212	0.177800	0.170301	0.137363	0.433696	0.292972	0.218697	0.105615	0.193271	0.142234	0.232421	0.563717	0.505461	0.174907	0.042477	0.047339	0.123117	0.326240	0.285801	0.063833	0.074210	0.424383	0.334244	0.052019	0.180681	0.184666	0.231645	0.263774	0.136697	0.252320	0.182203	0.066964	0.205643	0.087063	0.162240	0.169636	0.159995	0.584788	0.398093	0.160731	0.327917	0.107307	0.178902	0.283534	0.632446	0.442944	0.396497	0.042426	0.101874	0.075749	0.072428	0.045884	0.254810	0.158729	0.168735	0.122188	0.487324	0.165462	0.178434	0.510188	0.542881	0.067221	0.080939	0.061797	0.138765	0.291115	0.414793	0.083101	0.092070	0.368980	0.333235
74	0.222453	0.365120	0.463210	0.805622	0.108748	0.286765	0.428625	0.296806	0.233331	0.526373	0.181147	0.209512	0.129514	0.385558	0.278392	0.219770	0.076695	0.171603	0.152554	0.247071	0.645798	0.496133	0.093839	0.025451	0.043764	0.128593	0.327403	0.289778	0.066556	0.073229	0.479774	0.341511	0.052320	0.180338	0.138623	0.254425	0.271015	0.134260	0.259764	0.156793	0.064338	0.214632	0.164431	0.196916	0.149354	0.166896	0.539979	0.409435	0.175679	0.369076	0.118813	0.206788	0.230346	0.267492	0.386383	0.318652	0.045551	0.101930	0.075609	0.078820	0.092227	0.291765	0.156153	0.200242	0.121519	0.487038	0.190309	0.189563	0.500743	0.532092	0.065277	0.097115	0.061098	0.155901	0.291017	0.415545	0.092536	0.099299	0.386623	0.344657
75	0.158257	0.312520	0.526547	0.856361	0.110406	0.288742	0.425838	0.288383	0.168221	0.345708	0.185915	0.273127	0.143246	0.355578	0.237084	0.210179	0.070980	0.187847	0.188957	0.270870	0.647039	0.474236	0.065380	0.029470	0.046687	0.138289	0.320669	0.287710	0.070963	0.069406	0.515326	0.439794	0.052067	0.180175	0.138556	0.247617	0.272859	0.129860	0.256403	0.138907	0.063285	0.212218	0.187394	0.212796	0.133119	0.189744	0.520794	0.400257	0.177175	0.376774	0.140612	0.208724	0.263266	0.189952	0.295280	0.240628	0.045897	0.100489	0.074799	0.078498	0.097400	0.295897	0.165940	0.234865	0.119120	0.485529	0.246814	0.215311	0.414629	0.428652	0.078196	0.190449	0.044949	0.182493	0.279069	0.388032	0.095864	0.122641	0.393598	0.339348
76	0.152963	0.285776	0.601801	0.861295	0.110939	0.294190	0.439975	0.279662	0.091364	0.136144	0.241710	0.401562	0.149871	0.371398	0.248588	0.197147	0.063849	0.192340	0.193382	0.316538	0.647056	0.498706	0.089300	0.060865	0.082663	0.144868	0.322305	0.267701	0.064912	0.060027	0.561550	0.466438	0.050886	0.180947	0.110050	0.231204	0.316336	0.136194	0.257029	0.115590	0.081815	0.235100	0.252766	0.251330	0.128572	0.171692	0.602043	0.335753	0.188725	0.402932	0.153608	0.219997	0.231094	0.170471	0.198826	0.221565	0.036872	0.096356	0.071639	0.114408	0.112145	0.296860	0.221626	0.241735	0.118356	0.484614	0.254567	0.238198	0.335576	0.337744	0.166399	0.279977	0.041919	0.179821	0.214708	0.316231	0.112134	0.138272	0.382913	0.329527
77	0.103242	0.272265	0.632959	0.731624	0.106346	0.261925	0.463786	0.275398	0.033323	0.132410	0.258134	0.427047	0.148030	0.420541	0.251514	0.180479	0.060970	0.192633	0.210434	0.307942	0.655433	0.518041	0.097530	0.089172	0.131208	0.235845	0.262100	0.233260	0.055321	0.050726	0.603894	0.564855	0.051496	0.180906	0.081844	0.209012	0.328948	0.162019	0.249257	0.095656	0.084040	0.244572	0.251105	0.260691	0.124572	0.193209	0.549970	0.295117	0.194062	0.387557	0.148834	0.242787	0.238906	0.188125	0.149491	0.221903	0.034688	0.080058	0.114524	0.141291	0.113533	0.298903	0.242181	0.244471	0.117347	0.477424	0.254282	0.261039	0.327180	0.325659	0.299629	0.314088	0.044530	0.179893	0.187453	0.246691	0.114867	0.177484	0.363043	0.323120
78	0.109588	0.270083	0.524642	0.674286	0.136253	0.289807	0.468379	0.315672	0.036751	0.116711	0.247313	0.425870	0.137136	0.361714	0.247367	0.164696	0.065445	0.198441	0.226909	0.317855	0.646719	0.518105	0.100418	0.140997	0.138206	0.262573	0.214158	0.221568	0.066757	0.060921	0.526545	0.644257	0.046761	0.152735	0.098002	0.182858	0.339810	0.188343	0.230060	0.086655	0.090079	0.254705	0.250814	0.217636	0.138530	0.255188	0.521922	0.282076	0.197976	0.405358	0.197859	0.265375	0.284498	0.216875	0.135431	0.218594	0.032179	0.036156	0.113245	0.140298	0.122007	0.301091	0.217998	0.245515	0.116817	0.468192	0.251389	0.263092	0.318198	0.282342	0.431843	0.318839	0.053202	0.179262	0.179698	0.175110	0.113694	0.261181	0.334067	0.315825
79	0.090598	0.198788	0.494983	0.534109	0.143918	0.314940	0.489568	0.391307	0.035616	0.115202	0.220635	0.407581	0.138725	0.330600	0.220663	0.174189	0.069229	0.205144	0.281551	0.382986	0.644480	0.517294	0.119983	0.243622	0.151004	0.255998	0.141055	0.124908	0.073896	0.093846	0.516054	0.615428	0.039238	0.198119	0.097734	0.177596	0.365240	0.211149	0.169841	0.095717	0.089819	0.266038	0.199262	0.222783	0.133556	0.269347	0.518249	0.282474	0.196105	0.410658	0.248536	0.285708	0.291345	0.217191	0.135456	0.214359	0.026235	0.020521	0.114084	0.152136	0.131471	0.301104	0.209524	0.243483	0.109484	0.372090	0.248912	0.252942	0.267991	0.197665	0.470668	0.326383	0.084953	0.179188	0.121009	0.134709	0.164093	0.317869	0.287481	0.325006
80	0.083545	0.159225	0.489708	0.364809	0.173038	0.322605	0.543660	0.431760	0.035232	0.114689	0.207047	0.379896	0.149933	0.337578	0.210713	0.185845	0.074215	0.177609	0.283982	0.369382	0.642008	0.498972	0.124020	0.307983	0.156459	0.256330	0.087456	0.124502	0.075936	0.103752	0.391919	0.529076	0.057566	0.205586	0.096374	0.133964	0.378792	0.228052	0.144806	0.147137	0.088741	0.264901	0.173144	0.223430	0.162684	0.288586	0.518665	0.285773	0.188674	0.399870	0.251611	0.281302	0.293371	0.214950	0.136802	0.191468	0.017194	0.047069	0.128242	0.152683	0.132496	0.305290	0.211700	0.229665	0.100292	0.313379	0.236787	0.244126	0.268317	0.209926	0.527803	0.337280	0.121926	0.317208	0.061769	0.159408	0.183362	0.352139	0.275615	0.328897
81	0.090337	0.165333	0.397808	0.621400	0.172746	0.325607	0.559817	0.439480	0.034791	0.113182	0.194053	0.361251	0.150588	0.339149	0.212119	0.186431	0.101941	0.180493	0.270330	0.366138	0.578522	0.404289	0.128315	0.344405	0.164267	0.287569	0.087150	0.161191	0.077277	0.099641	0.308303	0.486109	0.065686	0.237764	0.100202	0.093401	0.357799	0.223413	0.160911	0.194508	0.062887	0.216915	0.112213	0.194714	0.183998	0.309731	0.514567	0.279030	0.170705	0.365949	0.248855	0.260703	0.298646	0.214687	0.119405	0.175631	0.016939	0.068813	0.141165	0.151581	0.133611	0.312307	0.216389	0.235750	0.066185	0.134254	0.214211	0.244140	0.178008	0.206726	0.647612	0.338210	0.138812	0.326836	0.067850	0.194436	0.209953	0.387346	0.262770	0.329053
82	0.164929	0.380179	0.422847	0.684118	0.171820	0.328094	0.561064	0.439275	0.042339	0.105983	0.141110	0.214001	0.152627	0.340037	0.211638	0.188496	0.104816	0.158532	0.258921	0.326045	0.426572	0.351744	0.175738	0.348456	0.170698	0.296481	0.102356	0.164028	0.102065	0.101052	0.165754	0.308547	0.075745	0.253466	0.129491	0.086334	0.322842	0.217449	0.173744	0.216823	0.042292	0.159315	0.126998	0.201480	0.179774	0.311249	0.488742	0.274910	0.137875	0.317194	0.241083	0.235136	0.301724	0.215448	0.113877	0.174167	0.018501	0.072883	0.144635	0.131387	0.133477	0.248468	0.222857	0.254939	0.054952	0.139220	0.210318	0.236025	0.149018	0.187789	0.679533	0.347359	0.156543	0.326941	0.082076	0.214301	0.221396	0.416214	0.239022	0.329421
83	0.178931	0.405663	0.489584	0.746459	0.167070	0.316597	0.563108	0.431740	0.056958	0.137427	0.062047	0.076531	0.151599	0.342439	0.216776	0.186158	0.124452	0.174739	0.243840	0.320086	0.280147	0.398246	0.223571	0.363187	0.131022	0.273011	0.104938	0.163601	0.116555	0.201479	0.197142	0.320856	0.076168	0.273000	0.132130	0.087399	0.291549	0.211672	0.169751	0.219883	0.037240	0.149549	0.121500	0.215193	0.179253	0.318021	0.450708	0.277355	0.134128	0.282483	0.228418	0.225156	0.302679	0.214667	0.113642	0.141139	0.018913	0.121195	0.115667	0.084216	0.127667	0.193960	0.223414	0.253396	0.054160	0.162271	0.152799	0.209746	0.130555	0.214852	0.701513	0.424454	0.158221	0.312020	0.104916	0.219797	0.229110	0.421259	0.202733	0.306489
84	0.203609	0.402977	0.548268	0.778310	0.164175	0.278901	0.510857	0.427506	0.090477	0.222263	0.075670	0.102736	0.151185	0.344551	0.229144	0.180634	0.125996	0.199992	0.240806	0.310958	0.233909	0.441592	0.233952	0.399359	0.123286	0.212436	0.104177	0.163798	0.135088	0.208787	0.436954	0.324963	0.077961	0.278113	0.125693	0.079908	0.289986	0.211173	0.170019	0.220178	0.047618	0.113789	0.136687	0.217160	0.179187	0.309155	0.443619	0.256438	0.120431	0.281049	0.216435	0.234732	0.339568	0.214995	0.102515	0.098733	0.048151	0.185455	0.104401	0.078703	0.104442	0.134297	0.226356	0.222662	0.060272	0.172459	0.068845	0.185839	0.126521	0.226672	0.710452	0.470904	0.158053	0.304676	0.126272	0.215666	0.243031	0.418122	0.169807	0.301130
85	0.212974	0.405183	0.552427	0.782149	0.162424	0.257329	0.485405	0.430750	0.098808	0.223219	0.143804	0.127163	0.143819	0.346905	0.229608	0.178079	0.134332	0.231716	0.177340	0.212255	0.232744	0.532607	0.228256	0.476725	0.106713	0.221274	0.102735	0.166560	0.136470	0.226916	0.547013	0.364216	0.077742	0.278107	0.134020	0.076364	0.283665	0.210946	0.191273	0.231468	0.049044	0.110388	0.203986	0.203995	0.179158	0.288056	0.436097	0.186657	0.129155	0.257924	0.209882	0.222780	0.373954	0.198916	0.096180	0.086048	0.076788	0.252282	0.105541	0.060710	0.100149	0.135664	0.202970	0.195432	0.070828	0.208029	0.044894	0.157092	0.118350	0.230705	0.704141	0.433658	0.156259	0.299789	0.129912	0.211360	0.244000	0.416002	0.134349	0.319013
86	0.215988	0.402696	0.539269	0.722579	0.162650	0.255414	0.485707	0.434097	0.100584	0.225044	0.213502	0.146884	0.122620	0.334751	0.213925	0.178384	0.174495	0.281921	0.110331	0.131187	0.239553	0.520552	0.267707	0.515193	0.101136	0.220561	0.099346	0.159249	0.139513	0.229598	0.657815	0.405661	0.076782	0.210291	0.145180	0.121949	0.282147	0.210564	0.208332	0.253148	0.054080	0.114141	0.263926	0.235834	0.178486	0.282184	0.282987	0.136865	0.108728	0.227084	0.201364	0.197116	0.355790	0.245111	0.089532	0.089411	0.088303	0.324152	0.110326	0.088003	0.086059	0.133961	0.136342	0.188801	0.081283	0.231003	0.040141	0.124771	0.103382	0.223231	0.677989	0.398508	0.156350	0.304869	0.137108	0.209186	0.238963	0.412100	0.133958	0.313695
87	0.166128	0.257891	0.480459	0.525902	0.164191	0.251881	0.465923	0.435681	0.102208	0.225871	0.219709	0.149749	0.123002	0.299951	0.199039	0.185623	0.181404	0.283469	0.098391	0.117434	0.239171	0.520923	0.340208	0.516634	0.082352	0.181911	0.106298	0.113193	0.118149	0.204602	0.659386	0.357182	0.056562	0.191963	0.147344	0.131352	0.231742	0.206275	0.207944	0.268967	0.053866	0.099401	0.297623	0.227355	0.176357	0.267135	0.131405	0.125157	0.121088	0.218511	0.114719	0.163979	0.359565	0.246621	0.088735	0.097901	0.135855	0.452052	0.083884	0.100456	0.088807	0.129927	0.104414	0.183243	0.084485	0.247565	0.040511	0.110180	0.075515	0.217723	0.610736	0.386727	0.157115	0.304504	0.142735	0.209512	0.233954	0.379933	0.144327	0.271018
88	0.151890	0.154116	0.350841	0.602368	0.152816	0.246275	0.447716	0.427311	0.099975	0.235368	0.243113	0.148901	0.123874	0.252526	0.198094	0.191176	0.218947	0.446698	0.099353	0.121585	0.239012	0.520421	0.346950	0.502274	0.075927	0.167365	0.103324	0.116435	0.118599	0.148147	0.560835	0.399661	0.056904	0.181199	0.141033	0.128219	0.219888	0.195860	0.215982	0.281660	0.046566	0.098635	0.296224	0.204971	0.152101	0.205007	0.122692	0.125991	0.120825	0.205332	0.067933	0.144155	0.350682	0.233324	0.094274	0.111128	0.153156	0.478159	0.086476	0.100445	0.074933	0.128207	0.103197	0.182055	0.081896	0.241766	0.043595	0.124625	0.049361	0.217143	0.549290	0.390746	0.149353	0.304904	0.142790	0.215130	0.225943	0.356994	0.154963	0.237599
89	0.111096	0.156512	0.462094	0.518491	0.127227	0.171257	0.447896	0.362383	0.102336	0.225119	0.300634	0.147866	0.112732	0.186377	0.192436	0.188331	0.248399	0.458594	0.109372	0.122561	0.239116	0.525365	0.375338	0.475319	0.055136	0.147217	0.107808	0.148306	0.106956	0.099223	0.510369	0.369665	0.045693	0.167974	0.114331	0.126518	0.207346	0.204808	0.238702	0.287721	0.041466	0.095649	0.290001	0.170958	0.144859	0.182837	0.143482	0.126422	0.120574	0.202014	0.076035	0.147577	0.318453	0.206873	0.101749	0.126540	0.158284	0.474565	0.098030	0.117477	0.072309	0.165762	0.106666	0.184151	0.077312	0.222987	0.060657	0.136209	0.046297	0.211754	0.536199	0.379126	0.134349	0.263424	0.142867	0.220015	0.202249	0.306044	0.163912	0.220269
90	0.100286	0.140788	0.423132	0.527691	0.108505	0.150630	0.391596	0.246573	0.076271	0.128441	0.310422	0.131258	0.101159	0.180291	0.178762	0.171929	0.251438	0.455348	0.139235	0.191852	0.239479	0.523301	0.400054	0.450076	0.058473	0.169872	0.102997	0.157407	0.096186	0.101505	0.300078	0.321235	0.045709	0.131224	0.116192	0.127617	0.157625	0.200638	0.241639	0.282495	0.040006	0.101113	0.244797	0.146079	0.114947	0.159068	0.154451	0.145472	0.120040	0.184875	0.093115	0.129708	0.313018	0.229345	0.100494	0.141671	0.159836	0.477515	0.106419	0.131909	0.074627	0.160544	0.120478	0.171398	0.075780	0.227794	0.089627	0.132469	0.060559	0.192031	0.389476	0.378279	0.111010	0.121228	0.140276	0.221951	0.192650	0.252076	0.163879	0.209368
91	0.067064	0.114314	0.425834	0.557974	0.065608	0.133719	0.291533	0.170250	0.056043	0.135950	0.321352	0.139998	0.082529	0.174176	0.167027	0.163851	0.252915	0.425449	0.184726	0.287145	0.244564	0.524906	0.404470	0.436336	0.059264	0.166824	0.125410	0.159253	0.091367	0.102797	0.294325	0.348190	0.047869	0.131156	0.125728	0.148555	0.110232	0.204992	0.237255	0.254822	0.043261	0.128477	0.140256	0.042734	0.072249	0.110078	0.151211	0.193428	0.119890	0.175271	0.146980	0.120323	0.311408	0.238662	0.084751	0.147106	0.149173	0.435176	0.118917	0.134400	0.075683	0.153139	0.123337	0.135344	0.073765	0.220063	0.097343	0.126970	0.066563	0.166665	0.271931	0.377269	0.071151	0.105993	0.139937	0.210856	0.189366	0.256194	0.163951	0.200975
92	0.063863	0.118391	0.429857	0.559338	0.064060	0.118904	0.212823	0.151808	0.058616	0.142975	0.293600	0.232233	0.068811	0.169805	0.165408	0.158316	0.221443	0.399570	0.185347	0.296263	0.229643	0.478149	0.378801	0.434411	0.061448	0.164441	0.141952	0.219884	0.079339	0.093700	0.283947	0.319609	0.050564	0.139070	0.128245	0.177338	0.111245	0.227520	0.225775	0.219618	0.040192	0.129053	0.103731	0.094021	0.064869	0.102177	0.143895	0.237263	0.120016	0.151938	0.163758	0.117443	0.306840	0.241010	0.082503	0.151128	0.157115	0.410193	0.107735	0.119878	0.074309	0.190202	0.112768	0.097808	0.074008	0.207482	0.096271	0.120077	0.064459	0.145665	0.204717	0.329665	0.058177	0.104237	0.126245	0.202174	0.183581	0.204265	0.169837	0.195158
93	0.104357	0.138786	0.437195	0.549546	0.062431	0.111837	0.161627	0.152236	0.065020	0.144841	0.305540	0.257185	0.085731	0.182554	0.163875	0.135332	0.202971	0.384108	0.195683	0.387935	0.233268	0.464392	0.360799	0.418075	0.062256	0.168271	0.159051	0.270870	0.053560	0.109852	0.246972	0.224496	0.048039	0.138027	0.147547	0.195927	0.110035	0.264459	0.212142	0.201706	0.043637	0.126853	0.103439	0.114080	0.064709	0.077539	0.137183	0.241491	0.112812	0.124192	0.166455	0.131349	0.305386	0.240322	0.083205	0.169911	0.138932	0.336079	0.100607	0.103954	0.075038	0.203928	0.125897	0.090768	0.061810	0.179560	0.097579	0.114304	0.066718	0.094036	0.144376	0.228178	0.058190	0.100783	0.100530	0.200505	0.159925	0.205086	0.188110	0.195867
94	0.101435	0.116979	0.356962	0.660965	0.057349	0.108826	0.149348	0.155198	0.066673	0.153874	0.292915	0.258146	0.099320	0.191606	0.155794	0.109399	0.168840	0.218551	0.238568	0.498252	0.212658	0.374744	0.357534	0.368655	0.073770	0.188951	0.182049	0.276787	0.085027	0.133635	0.238289	0.226436	0.063020	0.153926	0.147314	0.201585	0.135197	0.298777	0.221344	0.205750	0.041943	0.127109	0.093425	0.113363	0.071749	0.079304	0.153563	0.245173	0.084559	0.073152	0.182825	0.179702	0.306861	0.242020	0.083688	0.174847	0.104449	0.172258	0.097866	0.117346	0.088409	0.252361	0.131790	0.097459	0.057515	0.161883	0.097253	0.109318	0.076347	0.085476	0.166306	0.240889	0.058286	0.073554	0.088737	0.200507	0.148030	0.205355	0.200218	0.180131
95	0.100615	0.114824	0.403676	0.650175	0.042244	0.100929	0.153472	0.160335	0.065108	0.194017	0.248132	0.258579	0.099519	0.190843	0.153030	0.095609	0.122784	0.096961	0.311153	0.526848	0.212981	0.379652	0.361066	0.272683	0.078905	0.179245	0.196737	0.274770	0.135259	0.201157	0.153008	0.186039	0.087613	0.170231	0.146588	0.203209	0.146419	0.354396	0.227284	0.207479	0.047699	0.125114	0.094484	0.114822	0.089084	0.092155	0.176530	0.270691	0.041968	0.042006	0.209638	0.210527	0.262739	0.237187	0.080208	0.177849	0.085996	0.160792	0.092568	0.113408	0.088627	0.266003	0.133542	0.089617	0.042631	0.098273	0.124078	0.110132	0.078643	0.112595	0.226772	0.281208	0.053879	0.070726	0.098123	0.198787	0.145268	0.196088	0.204068	0.136530
96	0.113561	0.124643	0.661922	0.653711	0.041645	0.104906	0.153346	0.169743	0.085271	0.224509	0.213717	0.261679	0.100651	0.182797	0.161539	0.095276	0.077257	0.087995	0.324479	0.511004	0.152165	0.345199	0.299025	0.251101	0.073428	0.148027	0.211081	0.300951	0.203334	0.297073	0.161409	0.195244	0.117846	0.247609	0.146256	0.234508	0.159650	0.354872	0.199401	0.193644	0.056024	0.077496	0.091274	0.113610	0.088999	0.095564	0.178133	0.306296	0.030208	0.038486	0.228355	0.212678	0.166646	0.224522	0.078399	0.180325	0.082013	0.130347	0.091260	0.101039	0.101575	0.330551	0.134272	0.082627	0.040762	0.086338	0.136890	0.114613	0.079395	0.273248	0.314103	0.284027	0.049186	0.112709	0.095689	0.196791	0.145988	0.180521	0.201218	0.084505
97	0.166531	0.164153	0.738459	0.669073	0.042589	0.096418	0.149222	0.205259	0.085509	0.223973	0.181851	0.261222	0.099900	0.178481	0.163029	0.089317	0.063979	0.095494	0.305079	0.471167	0.146498	0.365751	0.261533	0.263511	0.072257	0.159781	0.257847	0.311011	0.217531	0.299852	0.153533	0.196435	0.137578	0.273968	0.161200	0.282632	0.163964	0.355074	0.180429	0.163593	0.060390	0.076477	0.079979	0.075488	0.087006	0.106118	0.239345	0.342922	0.030228	0.059995	0.230314	0.210373	0.138907	0.156086	0.080417	0.178616	0.073943	0.108981	0.071588	0.109965	0.105165	0.340341	0.134416	0.081827	0.033278	0.086027	0.134637	0.114057	0.130984	0.314576	0.349728	0.293459	0.038815	0.127565	0.108693	0.190740	0.146653	0.174563	0.192359	0.061973
98	0.148217	0.159356	0.870735	0.817224	0.054655	0.105357	0.140721	0.229275	0.093018	0.241063	0.162161	0.180709	0.095109	0.151963	0.193830	0.070598	0.066735	0.155162	0.291559	0.450896	0.146119	0.369021	0.248333	0.256605	0.080705	0.180552	0.244630	0.299870	0.211515	0.295467	0.274412	0.233717	0.137361	0.270054	0.212858	0.295856	0.162702	0.355866	0.175255	0.136890	0.064407	0.084519	0.088679	0.079748	0.087644	0.114855	0.310589	0.360261	0.034756	0.115725	0.229582	0.203711	0.117940	0.152325	0.091552	0.173224	0.036437	0.083295	0.074928	0.112014	0.106283	0.340113	0.134059	0.078579	0.033816	0.072159	0.122418	0.174572	0.295652	0.715882	0.361979	0.326446	0.050519	0.171373	0.111379	0.173293	0.146681	0.166747	0.189317	0.069043
99	0.160182	0.151600	0.871618	0.660906	0.060243	0.101178	0.132080	0.235871	0.092974	0.253397	0.085615	0.102883	0.095554	0.152185	0.212326	0.057994	0.078583	0.301172	0.290621	0.423162	0.146459	0.362900	0.195835	0.242554	0.084396	0.200642	0.240948	0.244091	0.207148	0.285166	0.285909	0.195446	0.137041	0.272316	0.214732	0.281469	0.154071	0.350273	0.163488	0.106764	0.067025	0.091450	0.095810	0.081811	0.088314	0.118275	0.314345	0.361199	0.034748	0.121902	0.213858	0.211391	0.104874	0.149178	0.097952	0.165416	0.031446	0.081245	0.078570	0.109981	0.107114	0.331646	0.128489	0.069162	0.038048	0.079914	0.125932	0.199112	0.328224	0.772650	0.410259	0.345034	0.052413	0.193176	0.111485	0.136609	0.131083	0.161908	0.212552	0.159926
100	0.170992	0.149036	0.886838	0.637934	0.058680	0.096795	0.132549	0.237261	0.097503	0.286587	0.057841	0.094095	0.104805	0.153437	0.214450	0.049793	0.108320	0.380290	0.275107	0.288358	0.139682	0.371562	0.177642	0.239896	0.105114	0.285247	0.223576	0.222588	0.158973	0.194059	0.316626	0.210312	0.137248	0.275047	0.260074	0.278508	0.147020	0.331750	0.126851	0.088692	0.062739	0.079922	0.103299	0.077908	0.088983	0.112392	0.310088	0.351432	0.041023	0.153601	0.189874	0.254529	0.095912	0.142445	0.091296	0.153976	0.031075	0.078032	0.078044	0.121031	0.105512	0.336374	0.108577	0.063306	0.060322	0.113130	0.130508	0.198881	0.403546	0.829270	0.436602	0.352906	0.053532	0.193288	0.112093	0.099388	0.108325	0.125681	0.230329	0.248905
101	0.171701	0.165604	0.780733	0.643039	0.061760	0.112043	0.132553	0.237069	0.102173	0.261263	0.056441	0.107159	0.160006	0.185434	0.206765	0.040905	0.156687	0.441500	0.210454	0.159939	0.126528	0.374392	0.182386	0.243545	0.100783	0.273190	0.205610	0.246641	0.094947	0.122661	0.316905	0.412294	0.131586	0.261901	0.293193	0.290121	0.145778	0.319214	0.119673	0.087587	0.054179	0.074771	0.081138	0.079250	0.088028	0.106777	0.313947	0.326271	0.051363	0.159291	0.190006	0.284933	0.100864	0.101579	0.086455	0.136048	0.031431	0.080142	0.077353	0.133681	0.104285	0.337658	0.098139	0.062889	0.063830	0.119304	0.130148	0.200341	0.423515	0.838603	0.446769	0.354346	0.053770	0.193613	0.123149	0.092643	0.104232	0.105203	0.221169	0.302484
