	123_P_T1_sh_R_D_A_02.c3d	123_P_T1_sh_R_D_A_02.c3d	123_P_T1_sh_R_D_A_02.c3d	123_P_T1_sh_R_D_A_02.c3d	123_P_T1_sh_R_D_A_02.c3d	123_P_T1_sh_R_D_A_02.c3d	123_P_T1_sh_R_D_A_02.c3d	123_P_T1_sh_R_D_A_02.c3d	123_P_T1_sh_R_D_A_03.c3d	123_P_T1_sh_R_D_A_03.c3d	123_P_T1_sh_R_D_A_03.c3d	123_P_T1_sh_R_D_A_03.c3d	123_P_T1_sh_R_D_A_03.c3d	123_P_T1_sh_R_D_A_03.c3d	123_P_T1_sh_R_D_A_03.c3d	123_P_T1_sh_R_D_A_03.c3d	123_P_T1_sh_R_D_A_04.c3d	123_P_T1_sh_R_D_A_04.c3d	123_P_T1_sh_R_D_A_04.c3d	123_P_T1_sh_R_D_A_04.c3d	123_P_T1_sh_R_D_A_04.c3d	123_P_T1_sh_R_D_A_04.c3d	123_P_T1_sh_R_D_A_04.c3d	123_P_T1_sh_R_D_A_04.c3d	123_P_T1_sh_R_D_A_05.c3d	123_P_T1_sh_R_D_A_05.c3d	123_P_T1_sh_R_D_A_05.c3d	123_P_T1_sh_R_D_A_05.c3d	123_P_T1_sh_R_D_A_05.c3d	123_P_T1_sh_R_D_A_05.c3d	123_P_T1_sh_R_D_A_05.c3d	123_P_T1_sh_R_D_A_05.c3d	123_P_T1_sh_R_D_A_06.c3d	123_P_T1_sh_R_D_A_06.c3d	123_P_T1_sh_R_D_A_06.c3d	123_P_T1_sh_R_D_A_06.c3d	123_P_T1_sh_R_D_A_06.c3d	123_P_T1_sh_R_D_A_06.c3d	123_P_T1_sh_R_D_A_06.c3d	123_P_T1_sh_R_D_A_06.c3d	123_P_T1_sh_R_D_A_07.c3d	123_P_T1_sh_R_D_A_07.c3d	123_P_T1_sh_R_D_A_07.c3d	123_P_T1_sh_R_D_A_07.c3d	123_P_T1_sh_R_D_A_07.c3d	123_P_T1_sh_R_D_A_07.c3d	123_P_T1_sh_R_D_A_07.c3d	123_P_T1_sh_R_D_A_07.c3d	123_P_T1_sh_R_D_A_08.c3d	123_P_T1_sh_R_D_A_08.c3d	123_P_T1_sh_R_D_A_08.c3d	123_P_T1_sh_R_D_A_08.c3d	123_P_T1_sh_R_D_A_08.c3d	123_P_T1_sh_R_D_A_08.c3d	123_P_T1_sh_R_D_A_08.c3d	123_P_T1_sh_R_D_A_08.c3d	123_P_T1_sh_R_D_A_10.c3d	123_P_T1_sh_R_D_A_10.c3d	123_P_T1_sh_R_D_A_10.c3d	123_P_T1_sh_R_D_A_10.c3d	123_P_T1_sh_R_D_A_10.c3d	123_P_T1_sh_R_D_A_10.c3d	123_P_T1_sh_R_D_A_10.c3d	123_P_T1_sh_R_D_A_10.c3d
	Biceps femoris_lat	Semitendinosus_lat	Vastus lateralis_lat	Vastus medialis_lat	Biceps femoris_med	Semitendinosus_med	Vastus lateralis_med	Vastus medialis_med	Biceps femoris_lat	Semitendinosus_lat	Vastus lateralis_lat	Vastus medialis_lat	Biceps femoris_med	Semitendinosus_med	Vastus lateralis_med	Vastus medialis_med	Biceps femoris_lat	Semitendinosus_lat	Vastus lateralis_lat	Vastus medialis_lat	Biceps femoris_med	Semitendinosus_med	Vastus lateralis_med	Vastus medialis_med	Biceps femoris_lat	Semitendinosus_lat	Vastus lateralis_lat	Vastus medialis_lat	Biceps femoris_med	Semitendinosus_med	Vastus lateralis_med	Vastus medialis_med	Biceps femoris_lat	Semitendinosus_lat	Vastus lateralis_lat	Vastus medialis_lat	Biceps femoris_med	Semitendinosus_med	Vastus lateralis_med	Vastus medialis_med	Biceps femoris_lat	Semitendinosus_lat	Vastus lateralis_lat	Vastus medialis_lat	Biceps femoris_med	Semitendinosus_med	Vastus lateralis_med	Vastus medialis_med	Biceps femoris_lat	Semitendinosus_lat	Vastus lateralis_lat	Vastus medialis_lat	Biceps femoris_med	Semitendinosus_med	Vastus lateralis_med	Vastus medialis_med	Biceps femoris_lat	Semitendinosus_lat	Vastus lateralis_lat	Vastus medialis_lat	Biceps femoris_med	Semitendinosus_med	Vastus lateralis_med	Vastus medialis_med
	P2D	P2D	P2D	P2D	P2D	P2D	P2D	P2D	P2D	P2D	P2D	P2D	P2D	P2D	P2D	P2D	P2D	P2D	P2D	P2D	P2D	P2D	P2D	P2D	P2D	P2D	P2D	P2D	P2D	P2D	P2D	P2D	P2D	P2D	P2D	P2D	P2D	P2D	P2D	P2D	P2D	P2D	P2D	P2D	P2D	P2D	P2D	P2D	P2D	P2D	P2D	P2D	P2D	P2D	P2D	P2D	P2D	P2D	P2D	P2D	P2D	P2D	P2D	P2D
	EMG_lat	EMG_lat	EMG_lat	EMG_lat	EMG_med	EMG_med	EMG_med	EMG_med	EMG_lat	EMG_lat	EMG_lat	EMG_lat	EMG_med	EMG_med	EMG_med	EMG_med	EMG_lat	EMG_lat	EMG_lat	EMG_lat	EMG_med	EMG_med	EMG_med	EMG_med	EMG_lat	EMG_lat	EMG_lat	EMG_lat	EMG_med	EMG_med	EMG_med	EMG_med	EMG_lat	EMG_lat	EMG_lat	EMG_lat	EMG_med	EMG_med	EMG_med	EMG_med	EMG_lat	EMG_lat	EMG_lat	EMG_lat	EMG_med	EMG_med	EMG_med	EMG_med	EMG_lat	EMG_lat	EMG_lat	EMG_lat	EMG_med	EMG_med	EMG_med	EMG_med	EMG_lat	EMG_lat	EMG_lat	EMG_lat	EMG_med	EMG_med	EMG_med	EMG_med
ITEM	Y	Y	Y	Y	Y	Y	Y	Y	Y	Y	Y	Y	Y	Y	Y	Y	Y	Y	Y	Y	Y	Y	Y	Y	Y	Y	Y	Y	Y	Y	Y	Y	Y	Y	Y	Y	Y	Y	Y	Y	Y	Y	Y	Y	Y	Y	Y	Y	Y	Y	Y	Y	Y	Y	Y	Y	Y	Y	Y	Y	Y	Y	Y	Y
1	0.051620	0.250439	0.638956	0.661872	0.164457	0.227263	0.465610	0.180276	0.242611	0.523057	0.543081	0.343954	0.047355	0.266490	0.713952	0.104069	0.111734	0.419565	0.733722	0.502422	0.100218	0.249675	0.559779	0.220444	0.074233	0.363752	0.558985	0.620644	0.157409	0.159504	0.741620	0.246743	0.077595	0.291172	0.491907	0.337115	0.449543	1.130655	0.695167	0.241915	0.173228	0.059299	0.725467	0.420955	0.616772	0.844884	0.539326	0.201426	0.103625	0.165781	0.597162	0.508160	0.163105	0.291592	0.592187	0.235889	0.087662	0.223392	0.456757	0.398928	0.366334	0.362977	0.681498	0.134638
2	0.050572	0.248317	0.583621	0.636207	0.152543	0.243942	0.504404	0.180861	0.253472	0.496302	0.544002	0.306060	0.042430	0.242289	0.726844	0.116073	0.094264	0.376464	0.616013	0.565259	0.078635	0.253164	0.483521	0.204193	0.079270	0.339340	0.620143	0.557824	0.148244	0.145723	0.814374	0.238813	0.077787	0.289096	0.484145	0.296080	0.410041	1.113675	0.696761	0.245272	0.172137	0.063954	0.718798	0.430862	0.575330	0.824440	0.667210	0.275571	0.092602	0.208076	0.578507	0.498754	0.125036	0.249053	0.544542	0.226010	0.097986	0.212517	0.552636	0.399584	0.353356	0.435648	0.765606	0.133315
3	0.050923	0.215364	0.575116	0.603466	0.133792	0.258871	0.490572	0.178246	0.292228	0.496054	0.583896	0.280637	0.040097	0.219887	0.786306	0.127787	0.093659	0.332896	0.627451	0.637899	0.066543	0.261218	0.487833	0.196410	0.082662	0.307159	0.735618	0.501187	0.124890	0.140840	0.841215	0.229209	0.071690	0.297512	0.516633	0.250656	0.371856	1.063866	0.697573	0.246939	0.168564	0.066913	0.755916	0.436239	0.512568	0.762671	0.708396	0.398396	0.088305	0.211102	0.618874	0.484073	0.108479	0.226745	0.527978	0.223931	0.113300	0.196565	0.580996	0.395676	0.331368	0.450528	0.727814	0.132761
4	0.059541	0.170308	0.574780	0.563007	0.124503	0.272455	0.462366	0.173389	0.311844	0.495970	0.610903	0.270813	0.036238	0.217597	0.756682	0.138266	0.110253	0.287262	0.710393	0.674853	0.061762	0.262865	0.528565	0.198856	0.082634	0.303216	0.741469	0.458342	0.084217	0.137590	0.767495	0.220772	0.067879	0.308175	0.510997	0.206826	0.342226	1.002370	0.769742	0.243018	0.161352	0.066101	0.742238	0.437393	0.435128	0.671054	0.727525	0.550061	0.092630	0.202896	0.706616	0.467293	0.109581	0.214739	0.529890	0.226391	0.115368	0.204752	0.594273	0.389603	0.303764	0.454587	0.744143	0.134141
5	0.075483	0.111030	0.577484	0.519065	0.122720	0.282485	0.499020	0.168849	0.314759	0.497023	0.609329	0.271807	0.034955	0.206081	0.777036	0.146438	0.118027	0.253645	0.696084	0.674948	0.063757	0.256612	0.533257	0.214220	0.082751	0.319940	0.732074	0.431774	0.059774	0.132896	0.758449	0.215376	0.065912	0.312220	0.569427	0.172649	0.326036	0.796090	0.811748	0.231974	0.153329	0.065635	0.739400	0.434542	0.364820	0.543314	0.687459	0.671740	0.096949	0.206795	0.796432	0.451731	0.102089	0.208126	0.618878	0.229729	0.120077	0.209742	0.629360	0.382063	0.272468	0.456799	0.762351	0.137275
6	0.086511	0.082595	0.578782	0.476176	0.121829	0.285882	0.541764	0.166558	0.305508	0.500594	0.595026	0.273327	0.032662	0.199188	0.782233	0.151348	0.113329	0.220468	0.749128	0.653011	0.064807	0.245839	0.525145	0.242446	0.083425	0.337374	0.738849	0.420229	0.055868	0.132738	0.740086	0.213478	0.065523	0.296161	0.603180	0.155040	0.323694	0.676669	0.810315	0.215010	0.148547	0.070965	0.734402	0.428548	0.301662	0.468365	0.702984	0.724855	0.089064	0.210324	0.834477	0.438680	0.090014	0.208770	0.649029	0.230549	0.125871	0.200685	0.624814	0.373027	0.238535	0.455839	0.778277	0.140200
7	0.089220	0.079021	0.575013	0.439417	0.121763	0.284035	0.736806	0.167705	0.274053	0.500523	0.596213	0.267959	0.032165	0.210155	0.882515	0.153736	0.109299	0.180030	0.776164	0.636960	0.065293	0.233051	0.526739	0.281551	0.081498	0.348372	0.745358	0.419026	0.055937	0.132770	0.730384	0.213434	0.075495	0.281087	0.656807	0.151501	0.324626	0.667531	0.854705	0.197561	0.147525	0.079158	0.748583	0.420371	0.250769	0.435738	0.702029	0.739643	0.074152	0.213237	0.809242	0.428079	0.085905	0.208690	0.623291	0.226893	0.135034	0.193477	0.631714	0.361163	0.205246	0.454523	0.766180	0.141671
8	0.087670	0.079605	0.558939	0.411971	0.119318	0.283827	0.754793	0.171803	0.238886	0.463724	0.560197	0.252567	0.032126	0.226630	0.830484	0.154542	0.105807	0.225184	0.843500	0.646691	0.064648	0.212398	0.484687	0.331380	0.079644	0.342506	0.734800	0.420936	0.055309	0.136301	0.729008	0.212161	0.106824	0.280004	0.655292	0.150983	0.319016	0.671256	0.858543	0.185669	0.149481	0.091882	0.790913	0.411513	0.199616	0.421262	0.705088	0.741449	0.066694	0.208948	0.799549	0.420981	0.083623	0.191064	0.631139	0.218730	0.138879	0.190692	0.660451	0.345117	0.172326	0.453402	0.747758	0.142468
9	0.085154	0.079479	0.480303	0.395914	0.096148	0.284464	0.760320	0.176319	0.213513	0.357027	0.555560	0.226896	0.033052	0.234333	0.813903	0.154368	0.094373	0.264505	0.828874	0.663365	0.063295	0.188693	0.452321	0.388157	0.083494	0.345313	0.687182	0.418173	0.052041	0.151438	0.719673	0.206720	0.133726	0.273469	0.649183	0.145664	0.304495	0.655206	0.852871	0.184206	0.146237	0.103716	0.816556	0.402775	0.160176	0.417686	0.784459	0.741212	0.062487	0.206179	0.786818	0.416389	0.080721	0.140364	0.622758	0.207239	0.136764	0.208490	0.595336	0.325228	0.140011	0.459489	0.748906	0.146737
10	0.082877	0.080058	0.463412	0.390508	0.068001	0.288860	0.770732	0.177509	0.215528	0.323671	0.533108	0.193345	0.035166	0.229790	0.801738	0.152849	0.070844	0.305812	0.909464	0.666826	0.059725	0.174816	0.504075	0.442010	0.084522	0.325819	0.645264	0.405258	0.047914	0.163125	0.713744	0.195499	0.138051	0.254991	0.618949	0.136022	0.283053	0.604860	0.754674	0.191419	0.142744	0.121177	0.854367	0.394416	0.129215	0.409840	0.792372	0.742214	0.060549	0.206649	0.793779	0.413083	0.075125	0.121013	0.623055	0.193942	0.132311	0.196458	0.589707	0.304753	0.112310	0.463245	0.769419	0.158305
11	0.084324	0.084751	0.462037	0.391481	0.050747	0.299763	0.772222	0.175287	0.207614	0.270739	0.547790	0.154935	0.036051	0.218635	0.776780	0.149494	0.048558	0.314577	0.899114	0.665218	0.057879	0.165729	0.502180	0.484525	0.084326	0.337705	0.652161	0.380359	0.051845	0.165097	0.603058	0.177765	0.135253	0.229591	0.610943	0.129201	0.258283	0.531368	0.782369	0.197346	0.136061	0.138269	0.846859	0.385882	0.107521	0.352409	0.793698	0.743054	0.058184	0.193603	0.832274	0.411180	0.074989	0.134700	0.635585	0.180045	0.128609	0.186069	0.581665	0.288166	0.092261	0.461247	0.744770	0.180217
12	0.088171	0.100689	0.461246	0.393491	0.041951	0.300391	0.840768	0.172278	0.162633	0.201293	0.631434	0.116162	0.036333	0.203114	0.809639	0.143980	0.026756	0.327547	0.776140	0.664007	0.056995	0.153511	0.516889	0.510653	0.081238	0.352296	0.646868	0.344417	0.058722	0.189850	0.597385	0.154660	0.140822	0.218159	0.617701	0.135934	0.230727	0.471542	0.785522	0.198445	0.134380	0.152715	0.847227	0.376879	0.107522	0.269905	0.716261	0.737425	0.060031	0.150534	0.839858	0.410776	0.077373	0.143342	0.685811	0.164135	0.133684	0.183020	0.605866	0.278408	0.079850	0.455816	0.745414	0.214864
13	0.090664	0.119384	0.279771	0.391379	0.034341	0.281913	0.826877	0.171319	0.104522	0.181144	0.569409	0.086772	0.034773	0.201837	0.868987	0.136302	0.011944	0.320474	0.734162	0.618425	0.055565	0.147355	0.504826	0.520531	0.080266	0.358783	0.619689	0.300724	0.060609	0.196944	0.582757	0.129284	0.143252	0.226077	0.648374	0.155646	0.201844	0.426786	0.816986	0.197920	0.137208	0.154529	0.801207	0.367885	0.135889	0.229589	0.577170	0.711249	0.091502	0.156847	0.825348	0.410805	0.070819	0.137172	0.691148	0.145467	0.136559	0.185900	0.538554	0.276391	0.077960	0.383978	0.813523	0.260907
14	0.091525	0.128008	0.247416	0.381956	0.035363	0.270243	0.876596	0.174274	0.088096	0.179487	0.575355	0.078879	0.033451	0.202119	0.859561	0.127437	0.013674	0.287367	0.648986	0.489021	0.052521	0.148891	0.512375	0.521416	0.077867	0.358363	0.490679	0.253162	0.060611	0.204463	0.581840	0.108445	0.143855	0.233412	0.672244	0.178240	0.173595	0.389013	0.830151	0.197055	0.137536	0.158859	0.798832	0.359962	0.151387	0.224894	0.508259	0.643535	0.106361	0.165220	0.797022	0.409542	0.062199	0.137399	0.607068	0.126035	0.132195	0.211049	0.551140	0.279826	0.077804	0.282329	0.709681	0.304416
15	0.092017	0.124195	0.309716	0.363928	0.036674	0.254617	0.895848	0.181156	0.089469	0.164178	0.628669	0.087089	0.032054	0.201793	0.873358	0.120286	0.020920	0.264107	0.658053	0.330668	0.050216	0.141521	0.521329	0.522476	0.078699	0.343486	0.406350	0.207350	0.058531	0.204950	0.569700	0.104022	0.142420	0.239048	0.655056	0.194916	0.149051	0.367740	0.903564	0.218284	0.138111	0.175989	0.698208	0.353664	0.158511	0.196714	0.497760	0.516096	0.109991	0.183110	0.712872	0.404944	0.056169	0.143666	0.597861	0.115915	0.136084	0.212537	0.546748	0.284751	0.075701	0.273337	0.742227	0.328318
16	0.090886	0.118573	0.309574	0.338503	0.038710	0.236029	0.922662	0.192421	0.089262	0.147146	0.663497	0.090789	0.030872	0.198689	0.810925	0.116931	0.024785	0.260622	0.286902	0.247909	0.054587	0.167081	0.569700	0.527759	0.081636	0.327859	0.405494	0.173290	0.058831	0.205218	0.489565	0.120808	0.143634	0.218637	0.622938	0.202264	0.130456	0.370289	0.951511	0.292514	0.138902	0.198059	0.699102	0.349624	0.159161	0.172286	0.553510	0.378592	0.105510	0.194910	0.652341	0.395124	0.050939	0.184400	0.585090	0.132099	0.133927	0.208809	0.518018	0.286625	0.072764	0.304738	0.734302	0.334589
17	0.086127	0.123324	0.303537	0.307919	0.040961	0.217164	0.880561	0.209679	0.085486	0.128712	0.663949	0.099343	0.028268	0.184866	0.812697	0.119623	0.026991	0.255518	0.330517	0.281140	0.058703	0.189079	0.602339	0.533630	0.090758	0.306724	0.496888	0.163764	0.059154	0.203382	0.409340	0.146835	0.145461	0.193473	0.555180	0.203041	0.112019	0.383283	0.951161	0.394408	0.144475	0.217805	0.649458	0.347541	0.153692	0.164594	0.541722	0.311821	0.106293	0.211612	0.674807	0.379806	0.046344	0.239967	0.533609	0.180450	0.128434	0.223968	0.639996	0.280582	0.072469	0.341931	0.713461	0.332335
18	0.073203	0.127711	0.301871	0.274150	0.042628	0.209321	0.766364	0.234765	0.077764	0.111443	0.687643	0.163778	0.025685	0.173869	0.807406	0.128835	0.027247	0.218854	0.386264	0.352901	0.060286	0.193369	0.636861	0.532921	0.098162	0.288908	0.470648	0.184242	0.059029	0.197776	0.431285	0.170045	0.144098	0.186167	0.481187	0.204847	0.090437	0.385478	0.960058	0.478796	0.151456	0.238923	0.650498	0.346826	0.148206	0.196027	0.578661	0.306216	0.111628	0.225922	0.671272	0.359271	0.042067	0.286573	0.445365	0.250144	0.118912	0.264560	0.676221	0.264241	0.072621	0.387491	0.701093	0.327624
19	0.059553	0.132828	0.364228	0.240266	0.041310	0.210450	0.697208	0.264439	0.065382	0.088844	0.679858	0.281603	0.026713	0.179886	0.801422	0.143356	0.026558	0.200583	0.554493	0.400266	0.059199	0.193092	0.632694	0.520784	0.105939	0.269234	0.463764	0.226185	0.058997	0.194533	0.448597	0.186297	0.126345	0.191622	0.461404	0.216930	0.068214	0.384975	0.969025	0.519646	0.157584	0.258339	0.655108	0.346867	0.143575	0.227826	0.515887	0.323920	0.121977	0.241029	0.676423	0.336028	0.038786	0.333884	0.446564	0.323230	0.114270	0.313625	0.648401	0.240363	0.072328	0.436008	0.715256	0.323278
20	0.051958	0.136139	0.437575	0.211243	0.040859	0.214943	0.662643	0.290817	0.060582	0.076361	0.713758	0.399946	0.026675	0.169847	0.701379	0.158239	0.028945	0.245788	0.570762	0.426749	0.056329	0.197880	0.792664	0.495455	0.097885	0.250557	0.560784	0.276434	0.059401	0.194250	0.475202	0.197513	0.095108	0.200308	0.466380	0.243991	0.049161	0.387983	1.004257	0.522760	0.164792	0.270548	0.658342	0.346193	0.141806	0.229209	0.553339	0.347695	0.130364	0.247589	0.600895	0.315541	0.037533	0.375728	0.568244	0.377172	0.112171	0.336520	0.627107	0.215010	0.069676	0.487059	0.726075	0.320015
21	0.049567	0.137607	0.436528	0.193352	0.041449	0.215743	0.643427	0.304847	0.054187	0.074539	0.606924	0.469392	0.025830	0.141802	0.696277	0.169233	0.030793	0.361998	0.631741	0.436478	0.056647	0.203439	0.855693	0.455587	0.090335	0.247079	0.608212	0.323437	0.060184	0.194266	0.482244	0.204965	0.068313	0.214442	0.466202	0.282461	0.037520	0.383543	0.987490	0.552682	0.167094	0.279784	0.638836	0.342732	0.141838	0.224901	0.558972	0.369724	0.132459	0.249077	0.564631	0.303816	0.036451	0.409335	0.538588	0.399145	0.109081	0.352152	0.602511	0.196454	0.064038	0.527021	0.798255	0.317601
22	0.049700	0.138845	0.466502	0.191882	0.046332	0.209562	0.749830	0.304744	0.038964	0.080928	0.593539	0.496542	0.024919	0.106776	0.692058	0.174343	0.029416	0.443579	0.763563	0.433524	0.058764	0.208240	0.868821	0.401123	0.088408	0.232000	0.611933	0.360830	0.061047	0.192712	0.496934	0.207362	0.066479	0.245280	0.550313	0.322123	0.038452	0.373591	1.012604	0.624035	0.155718	0.284883	0.565911	0.333417	0.144381	0.247305	0.563914	0.383337	0.132460	0.249194	0.552554	0.303582	0.035194	0.425899	0.591497	0.400992	0.103733	0.372109	0.601119	0.196263	0.056067	0.540576	0.823731	0.316963
23	0.051322	0.142898	0.511063	0.205341	0.055429	0.185087	0.777347	0.298863	0.039268	0.105494	0.634746	0.502567	0.022088	0.083429	0.791969	0.174976	0.063777	0.445932	0.756478	0.428111	0.061751	0.214535	0.899598	0.337773	0.088551	0.183250	0.606672	0.386442	0.061628	0.183506	0.505590	0.207718	0.058237	0.279333	0.549848	0.354708	0.041437	0.371706	1.014773	0.673599	0.150760	0.285766	0.520937	0.316110	0.142177	0.256159	0.555847	0.386437	0.124505	0.232128	0.521813	0.312811	0.035221	0.429890	0.597866	0.404999	0.088324	0.426439	0.579595	0.222391	0.042551	0.541066	0.758061	0.319761
24	0.058757	0.143737	0.513380	0.226231	0.067605	0.149766	0.844903	0.306939	0.040793	0.138679	0.620156	0.500966	0.021575	0.084624	0.835880	0.175312	0.104133	0.462692	0.885197	0.423829	0.063647	0.216373	0.915046	0.276349	0.090774	0.164096	0.624096	0.401173	0.061031	0.169414	0.465745	0.213255	0.046086	0.289075	0.509277	0.375640	0.041408	0.392487	1.051956	0.705179	0.149445	0.283298	0.481822	0.290733	0.131660	0.245860	0.560418	0.383301	0.103045	0.222201	0.598990	0.324835	0.028330	0.433166	0.634564	0.424018	0.072551	0.454777	0.591004	0.266999	0.030951	0.555201	0.749209	0.322291
25	0.071676	0.134776	0.514209	0.247114	0.074748	0.131651	0.849564	0.334863	0.037606	0.178345	0.591845	0.499798	0.022860	0.084181	0.822920	0.181387	0.131748	0.492651	0.797454	0.451009	0.063700	0.222454	0.913636	0.232904	0.091500	0.178704	0.614037	0.407640	0.055075	0.168868	0.530904	0.221709	0.041694	0.282650	0.486358	0.384387	0.040807	0.432960	1.049048	0.725060	0.153056	0.277495	0.473614	0.258965	0.128046	0.274264	0.561202	0.374012	0.092489	0.212611	0.597123	0.330517	0.022839	0.433089	0.586332	0.456740	0.062905	0.446097	0.572020	0.314781	0.030773	0.579032	0.685296	0.313608
26	0.081874	0.121565	0.720427	0.263437	0.074412	0.125460	0.747043	0.358972	0.032801	0.198677	0.611508	0.501814	0.022365	0.092607	0.757151	0.197885	0.135026	0.494073	0.793395	0.505813	0.064559	0.242372	0.925311	0.217640	0.094506	0.212401	0.610302	0.409628	0.042688	0.139871	0.669290	0.224574	0.041540	0.259898	0.448862	0.385242	0.040532	0.486241	1.046779	0.738486	0.156165	0.271092	0.466695	0.223262	0.119346	0.300501	0.535487	0.362401	0.088141	0.238400	0.664041	0.323252	0.021930	0.433727	0.639045	0.494988	0.075532	0.471648	0.619673	0.353534	0.030194	0.593117	0.584095	0.291754
27	0.099520	0.117192	0.771961	0.274613	0.089661	0.123383	0.735760	0.362879	0.037202	0.204328	0.549579	0.497939	0.026121	0.096293	0.734222	0.225983	0.145406	0.424100	0.889085	0.555316	0.065323	0.264867	0.910437	0.216707	0.095127	0.253902	0.560211	0.409582	0.034085	0.101595	0.664148	0.227797	0.043483	0.259444	0.467983	0.383604	0.040513	0.527530	1.034620	0.747761	0.157803	0.270545	0.542155	0.186513	0.117556	0.312041	0.527322	0.352285	0.088074	0.311199	0.606010	0.302274	0.020894	0.444424	0.648266	0.529684	0.073386	0.477259	0.618493	0.378522	0.029834	0.602778	0.569065	0.274032
28	0.114302	0.116526	0.757673	0.280721	0.108745	0.132134	0.721166	0.357148	0.054108	0.255893	0.562061	0.464833	0.036832	0.103647	0.729863	0.264054	0.151272	0.318054	0.781851	0.583434	0.063941	0.261644	0.890451	0.208236	0.091137	0.275651	0.607921	0.406938	0.030705	0.082480	0.660723	0.262331	0.045503	0.258856	0.523288	0.382819	0.040212	0.547860	0.986138	0.753814	0.161057	0.267443	0.501108	0.152827	0.119575	0.305427	0.546254	0.343604	0.085097	0.425311	0.619215	0.273139	0.019652	0.465150	0.675237	0.552378	0.073936	0.471473	0.511379	0.390220	0.030311	0.611242	0.546514	0.270027
29	0.127397	0.125795	0.758045	0.282849	0.109468	0.138837	0.764167	0.361138	0.055292	0.282752	0.557586	0.388384	0.043365	0.112980	0.736822	0.307654	0.140865	0.325090	0.796860	0.578483	0.055654	0.237112	0.885150	0.182071	0.081145	0.281299	0.522845	0.398536	0.033327	0.094133	0.683380	0.351281	0.041255	0.259710	0.552864	0.382912	0.039649	0.546992	0.903217	0.754089	0.163949	0.255420	0.591894	0.127340	0.120568	0.283148	0.600282	0.334684	0.074855	0.466646	0.617258	0.249726	0.019529	0.488211	0.676466	0.557771	0.084311	0.469582	0.459856	0.391645	0.030420	0.617634	0.550150	0.274729
30	0.151344	0.128633	0.758556	0.282577	0.112211	0.152317	0.761678	0.363123	0.055108	0.296946	0.595879	0.298712	0.046083	0.124374	0.749144	0.352145	0.114605	0.312961	0.729447	0.533358	0.047418	0.222352	0.814463	0.145160	0.072213	0.281712	0.528026	0.381120	0.033468	0.105904	0.712963	0.441965	0.041664	0.258340	0.565067	0.379580	0.039693	0.522168	0.820745	0.737924	0.164112	0.236986	0.650717	0.115759	0.121018	0.272893	0.600978	0.319447	0.059036	0.465475	0.619254	0.251821	0.017794	0.534838	0.675443	0.542569	0.113972	0.481548	0.490568	0.388477	0.031240	0.616811	0.570754	0.283380
31	0.171048	0.124814	0.765134	0.281986	0.119214	0.164398	0.758101	0.350439	0.055651	0.301732	0.641176	0.241380	0.048068	0.167142	0.737925	0.393494	0.097351	0.259993	0.736164	0.448500	0.043168	0.220807	0.925329	0.117110	0.067803	0.279777	0.511796	0.352010	0.036339	0.104683	0.735519	0.489923	0.045413	0.252507	0.622526	0.366985	0.042858	0.492254	0.941394	0.697705	0.157985	0.217839	0.662293	0.121765	0.121375	0.280950	0.566275	0.291571	0.046006	0.464823	0.604073	0.289611	0.017057	0.586136	0.671979	0.510210	0.129289	0.549156	0.537562	0.393166	0.030884	0.605094	0.546365	0.293145
32	0.193999	0.118934	0.740698	0.282443	0.125346	0.171667	0.763344	0.330249	0.056287	0.307328	0.599897	0.217134	0.047649	0.242930	0.744051	0.427329	0.196365	0.210501	0.747045	0.338285	0.041622	0.236694	0.920312	0.117919	0.074469	0.276567	0.436148	0.310350	0.049701	0.107103	0.700754	0.507221	0.047220	0.242407	0.642449	0.340251	0.045622	0.474337	0.956057	0.644876	0.150957	0.193658	0.660596	0.142164	0.121533	0.277305	0.606037	0.251424	0.053621	0.468354	0.589064	0.350416	0.017073	0.624834	0.661936	0.480888	0.130789	0.608519	0.579759	0.420674	0.031947	0.576396	0.517091	0.302046
33	0.247985	0.114297	0.685966	0.282699	0.130671	0.173786	0.730650	0.317358	0.053875	0.298153	0.595017	0.211786	0.047498	0.282002	0.726560	0.452323	0.396823	0.184758	0.688746	0.233699	0.041500	0.260166	0.808096	0.143636	0.077847	0.271390	0.370993	0.258996	0.054011	0.109643	0.694496	0.508901	0.048217	0.214624	0.602916	0.299159	0.050922	0.472234	0.866058	0.608863	0.140864	0.167390	0.683758	0.170238	0.116028	0.256936	0.600707	0.206489	0.070242	0.472259	0.584342	0.410008	0.019546	0.644290	0.613733	0.492072	0.130924	0.604755	0.672550	0.475739	0.032140	0.537100	0.388058	0.307969
34	0.279145	0.112432	0.699446	0.278237	0.130016	0.177140	0.671660	0.319805	0.055105	0.281405	0.610213	0.211959	0.047494	0.284788	0.698146	0.468706	0.458886	0.177711	0.673977	0.165565	0.038845	0.267594	0.772106	0.177428	0.077984	0.266290	0.378492	0.202064	0.054434	0.110854	0.671990	0.505177	0.048646	0.158723	0.622424	0.246818	0.055365	0.479157	0.854633	0.606751	0.124633	0.144829	0.699829	0.200243	0.099901	0.260997	0.659603	0.165558	0.081551	0.474891	0.640058	0.452401	0.023458	0.645008	0.642648	0.536106	0.131107	0.568530	0.695037	0.548880	0.035900	0.515868	0.296933	0.307544
35	0.293887	0.118662	0.697302	0.264344	0.132037	0.180514	0.502197	0.328728	0.057231	0.297827	0.572795	0.207980	0.047533	0.292256	0.788920	0.477486	0.586747	0.352279	0.695194	0.228924	0.037231	0.259652	0.814814	0.213447	0.075368	0.259056	0.385596	0.144541	0.053685	0.114943	0.677065	0.502660	0.046924	0.122783	0.693303	0.188448	0.055058	0.489423	0.792909	0.599697	0.107701	0.121326	0.682981	0.228024	0.077602	0.258634	0.653447	0.142189	0.081773	0.477006	0.587551	0.471511	0.024503	0.641221	0.609894	0.570662	0.131856	0.551747	0.665702	0.619634	0.048121	0.516806	0.357277	0.296313
36	0.302087	0.128077	0.714275	0.241115	0.158210	0.177428	0.497902	0.326426	0.056333	0.313450	0.659225	0.199407	0.047618	0.314741	0.674154	0.480725	0.676253	0.660667	0.665454	0.439663	0.037368	0.257713	0.752776	0.247690	0.071533	0.247219	0.406013	0.092705	0.052787	0.149331	0.691776	0.506119	0.046849	0.119010	0.717901	0.132979	0.051240	0.507062	0.768382	0.529527	0.104951	0.095535	0.681317	0.251094	0.061648	0.219937	0.727284	0.148925	0.081332	0.473219	0.595239	0.471770	0.026789	0.637242	0.585360	0.581882	0.128703	0.555266	0.703982	0.664381	0.060884	0.503694	0.552338	0.272372
37	0.300864	0.144770	0.971804	0.212852	0.178530	0.173744	0.479955	0.319527	0.040754	0.280688	0.657578	0.201138	0.047265	0.341111	0.626614	0.480825	0.694008	0.752126	0.909727	0.608992	0.038660	0.279511	0.763619	0.277086	0.066471	0.235768	0.410624	0.059693	0.052134	0.211556	0.678995	0.516790	0.047736	0.124176	0.714030	0.090258	0.048364	0.520405	0.786054	0.452915	0.099168	0.076414	0.666930	0.267708	0.059341	0.191793	0.721614	0.171773	0.085290	0.447901	0.587250	0.463289	0.030939	0.632899	0.581145	0.571384	0.117985	0.531424	0.741963	0.682937	0.066967	0.473725	0.689271	0.241395
38	0.297250	0.164070	0.973796	0.185113	0.184716	0.199631	0.547029	0.331857	0.035279	0.247005	0.717122	0.228695	0.045858	0.362631	0.700699	0.481416	0.671454	0.788781	0.911799	0.789580	0.044477	0.323766	0.778648	0.298972	0.056526	0.257725	0.440247	0.063429	0.052472	0.284362	0.676993	0.530912	0.046581	0.121807	0.711344	0.069137	0.048763	0.514652	0.750367	0.429359	0.092984	0.082587	0.671159	0.277760	0.048962	0.198546	0.726570	0.191939	0.092156	0.364741	0.610399	0.459906	0.033367	0.633652	0.620575	0.545046	0.118763	0.529224	0.811234	0.685869	0.070793	0.441859	0.722431	0.213140
39	0.295880	0.175638	0.861037	0.163529	0.175753	0.225950	0.551592	0.365281	0.038175	0.224864	0.705741	0.275215	0.046604	0.373712	0.701075	0.487162	0.587148	0.836489	0.838898	0.925169	0.049993	0.372677	0.775647	0.312097	0.055121	0.253588	0.476533	0.097824	0.053649	0.341202	0.630221	0.545795	0.041202	0.126370	0.679746	0.074181	0.049679	0.485693	0.754540	0.509533	0.086824	0.118744	0.672057	0.282119	0.046523	0.250316	0.661305	0.203449	0.093895	0.237323	0.613512	0.471244	0.033212	0.640474	0.619924	0.510405	0.120673	0.528300	0.810472	0.682929	0.073724	0.401114	0.706966	0.193414
40	0.296875	0.179238	0.796886	0.149201	0.172531	0.250240	0.560677	0.391012	0.042273	0.213441	0.691088	0.324628	0.047377	0.384254	0.719665	0.502468	0.577657	0.858584	0.995144	0.941593	0.058884	0.511605	0.772844	0.317559	0.061828	0.244606	0.425821	0.146403	0.055324	0.370412	0.497380	0.562437	0.041832	0.161421	0.662845	0.100593	0.049499	0.435118	0.748174	0.645689	0.076555	0.163045	0.689835	0.282744	0.056976	0.343091	0.597177	0.206309	0.093573	0.201329	0.597792	0.496014	0.033187	0.645743	0.630665	0.475391	0.112745	0.508781	0.836199	0.680650	0.075665	0.356790	0.711281	0.180061
41	0.302061	0.180726	0.792306	0.142070	0.173636	0.246633	0.597821	0.401377	0.042150	0.198117	0.667065	0.364044	0.040447	0.389122	0.715439	0.525480	0.451064	0.796937	1.007145	0.919946	0.069666	0.588698	0.774085	0.318192	0.070958	0.245098	0.468218	0.200047	0.056834	0.373888	0.487117	0.579161	0.043018	0.183658	0.764202	0.147581	0.049035	0.377093	0.740499	0.772207	0.067406	0.203973	0.628915	0.281590	0.077631	0.424978	0.598113	0.203254	0.101409	0.200167	0.593684	0.524415	0.032279	0.644346	0.606620	0.448147	0.082030	0.465510	0.882477	0.680415	0.077074	0.311579	0.740284	0.169157
42	0.319508	0.174266	0.815822	0.140186	0.172704	0.244286	0.600432	0.413910	0.040043	0.203873	0.663528	0.388205	0.034450	0.391201	0.788004	0.545288	0.320566	0.559503	1.045254	0.843622	0.076641	0.596907	0.768770	0.317340	0.073622	0.245473	0.557224	0.253546	0.057716	0.378259	0.496949	0.584937	0.046280	0.182772	0.737519	0.207210	0.049330	0.328505	0.768508	0.892787	0.062928	0.239781	0.613939	0.280412	0.088640	0.434384	0.658146	0.199599	0.113829	0.193129	0.586321	0.546720	0.032530	0.620725	0.626220	0.434125	0.057358	0.343013	0.856397	0.677958	0.077300	0.265397	0.734635	0.156983
43	0.343976	0.166608	0.859981	0.140986	0.170211	0.243897	0.637143	0.434837	0.036532	0.215281	0.649118	0.399407	0.031228	0.392107	0.796307	0.554308	0.297582	0.449407	0.872255	0.784896	0.078858	0.599123	0.764080	0.317738	0.068744	0.302017	0.609454	0.303820	0.057404	0.400073	0.519079	0.559131	0.050228	0.191827	0.727945	0.269581	0.051958	0.291369	0.764970	1.007473	0.058161	0.272581	0.548647	0.280450	0.088512	0.433151	0.634388	0.202176	0.110679	0.185805	0.582742	0.560317	0.033046	0.561691	0.664093	0.432056	0.067070	0.194780	0.816557	0.666977	0.076478	0.230361	0.743996	0.142510
44	0.378053	0.164733	0.969131	0.140000	0.167335	0.238057	0.664527	0.458764	0.038499	0.184650	0.631491	0.403054	0.029698	0.381524	0.837287	0.547638	0.307600	0.400050	0.914575	0.819975	0.080315	0.613218	0.650038	0.321725	0.064115	0.381971	0.618433	0.348922	0.056157	0.429607	0.540653	0.497576	0.057713	0.213635	0.722677	0.326448	0.051371	0.272828	0.773850	1.095218	0.058155	0.295962	0.538946	0.282386	0.088638	0.438919	0.662592	0.214486	0.100090	0.182162	0.542646	0.569950	0.032976	0.492565	0.652263	0.431213	0.086956	0.172701	0.744410	0.643755	0.076208	0.219286	0.767978	0.126106
45	0.401894	0.164534	0.966425	0.133066	0.166780	0.236738	0.664815	0.478183	0.037473	0.134673	0.649643	0.401509	0.036826	0.338670	0.881264	0.526238	0.280708	0.294899	0.910529	0.905953	0.084255	0.630271	0.778246	0.330462	0.069917	0.435169	0.629364	0.387607	0.055567	0.462916	0.513197	0.445816	0.062612	0.226537	0.680449	0.372503	0.048039	0.269373	0.658839	1.154966	0.062405	0.306615	0.621970	0.285570	0.090130	0.457127	0.640671	0.233475	0.096499	0.175586	0.531857	0.581217	0.032772	0.420311	0.648870	0.414198	0.103097	0.176432	0.783877	0.606621	0.076287	0.222718	0.792376	0.109759
46	0.395777	0.165158	0.969301	0.119379	0.170352	0.249545	0.644480	0.486662	0.053142	0.137447	0.645889	0.390875	0.051902	0.302143	0.885609	0.499581	0.200488	0.237268	0.754523	1.033296	0.089971	0.649442	0.807217	0.341459	0.081505	0.459965	0.626603	0.418441	0.045764	0.501795	0.713854	0.421775	0.062954	0.226043	0.697759	0.406212	0.058455	0.270280	0.574539	1.191527	0.065524	0.308012	0.650927	0.289881	0.097796	0.478939	0.631804	0.253722	0.096854	0.162661	0.458926	0.596122	0.030390	0.361245	0.611204	0.376586	0.114127	0.154399	0.786822	0.563426	0.074695	0.228542	0.793540	0.096399
47	0.389785	0.166263	0.972436	0.106899	0.154025	0.252450	0.601747	0.482682	0.062786	0.148421	0.583904	0.366432	0.065763	0.309882	0.882105	0.490782	0.183402	0.341697	0.730658	1.093214	0.097313	0.675181	0.820257	0.348088	0.097104	0.470142	0.640029	0.441694	0.045058	0.562456	0.752702	0.421127	0.062762	0.219110	0.696743	0.428015	0.091778	0.268567	0.537774	1.209282	0.066130	0.310790	0.635702	0.296211	0.115350	0.488954	0.657424	0.274666	0.097800	0.144425	0.587754	0.611448	0.029490	0.333679	0.609081	0.365671	0.124743	0.130442	0.770903	0.539559	0.067950	0.225481	0.773498	0.087849
48	0.392052	0.164944	0.980376	0.114950	0.122935	0.252235	0.614743	0.468059	0.063152	0.153752	0.587552	0.329792	0.071468	0.321366	0.835151	0.501799	0.165116	0.381334	0.594737	1.103792	0.103178	0.699232	0.758739	0.340731	0.114892	0.474487	0.689452	0.457444	0.051145	0.607540	0.745382	0.431759	0.062523	0.213902	0.692543	0.439838	0.129637	0.256980	0.576762	1.213486	0.070135	0.321300	0.679186	0.308375	0.144305	0.494157	0.648893	0.302770	0.097941	0.121284	0.582955	0.621433	0.029545	0.325869	0.691540	0.416783	0.126921	0.118213	0.686036	0.543334	0.055664	0.223544	0.659628	0.085240
49	0.392741	0.155670	0.952185	0.160268	0.114477	0.243141	0.595700	0.446855	0.074383	0.151313	0.561067	0.289631	0.071845	0.314165	0.976133	0.509223	0.141932	0.374688	0.600280	1.063761	0.109326	0.717061	0.751347	0.319736	0.129418	0.466975	0.678455	0.466591	0.058212	0.633569	0.746691	0.443458	0.061462	0.213912	0.687628	0.444589	0.155189	0.232824	0.562335	1.210915	0.072140	0.342233	0.729736	0.333126	0.179489	0.492127	0.624120	0.361337	0.126472	0.108004	0.532841	0.620526	0.027207	0.324434	0.696670	0.498702	0.125221	0.116622	0.600290	0.563426	0.046266	0.223532	0.636300	0.087560
50	0.393372	0.142495	0.700864	0.250233	0.137731	0.212503	0.556984	0.420756	0.086373	0.149473	0.651413	0.260208	0.073617	0.288146	1.099256	0.509928	0.118068	0.350154	0.481485	0.912532	0.120327	0.720412	0.792010	0.297364	0.137309	0.434473	0.683453	0.469678	0.068021	0.641889	0.773768	0.448941	0.059007	0.215070	0.706599	0.444910	0.173337	0.196046	0.562064	1.210100	0.072964	0.365574	0.730525	0.376919	0.208184	0.463327	0.632214	0.484889	0.170900	0.103594	0.568201	0.605482	0.025000	0.325498	0.690785	0.582524	0.124100	0.120335	0.606028	0.586791	0.040420	0.227202	0.645879	0.091231
51	0.395412	0.137434	0.755330	0.365988	0.174238	0.191836	0.540145	0.389486	0.092048	0.133842	0.675886	0.255963	0.078754	0.259748	1.078453	0.511904	0.095923	0.334291	0.469320	0.729036	0.141750	0.705098	0.803234	0.317244	0.137984	0.418879	0.673744	0.465654	0.077365	0.632468	0.767744	0.443790	0.057726	0.199504	0.714933	0.440775	0.182181	0.174104	0.544484	1.216897	0.073178	0.385999	0.739516	0.438051	0.227434	0.386174	0.621615	0.612536	0.185292	0.106945	0.566091	0.576534	0.030014	0.322849	0.608907	0.658207	0.130927	0.151629	0.559175	0.605702	0.043090	0.234349	0.653638	0.093491
52	0.409585	0.149824	0.877900	0.470191	0.216494	0.177556	0.442123	0.355580	0.094345	0.108026	0.701784	0.279659	0.082075	0.240376	1.071175	0.509225	0.097826	0.326770	0.583933	0.602905	0.167248	0.660016	0.819726	0.426610	0.134786	0.414606	0.677863	0.453474	0.084852	0.607211	0.771223	0.427873	0.065336	0.168924	0.630458	0.428489	0.188289	0.263155	0.538298	1.226153	0.074122	0.400832	0.723209	0.503665	0.238049	0.316901	0.656033	0.675402	0.178904	0.108739	0.568450	0.536772	0.037623	0.305439	0.597284	0.714063	0.143604	0.206419	0.460870	0.617473	0.048164	0.222913	0.689293	0.093098
53	0.441025	0.165121	0.875514	0.537483	0.262151	0.179123	0.429969	0.336824	0.093468	0.097069	0.699027	0.325477	0.083249	0.221204	1.060204	0.491080	0.095891	0.187738	0.569977	0.577890	0.183981	0.547071	0.832606	0.578796	0.131522	0.412567	0.642673	0.433529	0.092118	0.575036	0.772639	0.405099	0.078751	0.166592	0.592267	0.404171	0.194164	0.418733	0.530627	1.224098	0.075760	0.407689	0.760918	0.556857	0.248755	0.312057	0.642574	0.703992	0.180087	0.106493	0.570442	0.492076	0.045514	0.266661	0.580821	0.746458	0.161043	0.224263	0.451220	0.621316	0.051189	0.217036	0.677373	0.091856
54	0.479061	0.172330	0.908790	0.569215	0.293997	0.168425	0.436000	0.416323	0.100669	0.098125	0.657220	0.386508	0.085053	0.209226	1.053626	0.456020	0.077802	0.085923	0.706369	0.601733	0.190431	0.500188	0.832874	0.702456	0.130011	0.412226	0.547949	0.406273	0.098817	0.552703	0.783277	0.382203	0.097803	0.162229	0.588472	0.367018	0.199238	0.481537	0.510664	1.206698	0.075315	0.404185	0.749518	0.588092	0.252950	0.310164	0.607953	0.714929	0.188830	0.106022	0.556252	0.451583	0.051159	0.215224	0.574033	0.760119	0.173214	0.240773	0.674317	0.615113	0.051020	0.208477	0.697433	0.100617
55	0.512577	0.183623	0.951333	0.578470	0.320187	0.170086	0.356810	0.592347	0.103783	0.093009	0.753666	0.450615	0.086896	0.200013	0.993403	0.411703	0.048106	0.097665	0.673129	0.624845	0.196165	0.505021	0.848820	0.769275	0.130267	0.364574	0.524584	0.371641	0.101033	0.549675	0.847243	0.365263	0.119178	0.137902	0.654709	0.319255	0.205264	0.492280	0.517553	1.182892	0.077120	0.388460	0.741532	0.598861	0.254206	0.289543	0.563305	0.715298	0.200895	0.102260	0.576017	0.425883	0.053331	0.184976	0.548467	0.762876	0.172675	0.300191	0.684114	0.594969	0.062046	0.193258	0.688207	0.147357
56	0.532631	0.196238	0.930206	0.578994	0.346981	0.174889	0.316208	0.735626	0.098258	0.080864	0.710322	0.504719	0.088967	0.192460	0.976724	0.367610	0.041325	0.101979	0.722262	0.614195	0.198669	0.510721	0.893957	0.782801	0.128379	0.289071	0.516946	0.329727	0.100538	0.556217	0.869596	0.356554	0.130402	0.109046	0.693079	0.267898	0.212843	0.493536	0.474522	1.141630	0.101044	0.372181	0.743063	0.599369	0.275982	0.243422	0.622733	0.709649	0.215636	0.107588	0.592590	0.425319	0.053442	0.160148	0.506445	0.762865	0.166157	0.371965	0.659101	0.559741	0.069082	0.204839	0.663502	0.253690
57	0.542101	0.206186	0.792158	0.580372	0.368804	0.157731	0.339275	0.812476	0.129229	0.086085	0.748850	0.538955	0.090804	0.187918	0.934014	0.336087	0.041596	0.152528	0.746057	0.550397	0.198053	0.500750	0.924335	0.791354	0.123260	0.221028	0.638517	0.284610	0.101520	0.555182	0.872887	0.354469	0.131671	0.090355	0.664149	0.228707	0.221849	0.500889	0.503128	1.081531	0.142771	0.378643	0.774502	0.603604	0.408621	0.206594	0.618261	0.700355	0.230239	0.165139	0.483713	0.454829	0.054323	0.147411	0.504569	0.767042	0.158315	0.411221	0.654560	0.513706	0.069359	0.269113	0.635979	0.415660
58	0.548291	0.212396	0.821450	0.587368	0.374842	0.149116	0.367130	0.856234	0.180898	0.088111	0.752684	0.550608	0.089827	0.191620	0.897964	0.328380	0.051035	0.153357	0.637415	0.444730	0.200501	0.473702	0.866867	0.880653	0.115566	0.175737	0.660991	0.251087	0.101676	0.547995	0.859227	0.354169	0.136856	0.085386	0.634252	0.230437	0.234582	0.511120	0.489428	1.019936	0.178417	0.376922	0.775436	0.623601	0.588820	0.223520	0.570458	0.687377	0.247300	0.240539	0.409640	0.507972	0.057002	0.160754	0.579048	0.778911	0.151165	0.425122	0.654549	0.464118	0.073030	0.299757	0.627221	0.548773
59	0.549317	0.212624	0.826299	0.601587	0.374945	0.164483	0.324371	0.882161	0.232695	0.090658	0.699213	0.544972	0.082690	0.198125	0.929607	0.337383	0.077395	0.147591	0.628870	0.336084	0.222110	0.431572	0.781601	0.975537	0.101635	0.150793	0.617073	0.256882	0.101554	0.540754	0.872686	0.351830	0.140379	0.085513	0.635766	0.290075	0.253001	0.528007	0.487682	0.973927	0.192389	0.377379	0.792459	0.663916	0.792118	0.200008	0.594218	0.666616	0.254020	0.342750	0.409642	0.570752	0.058430	0.173596	0.563577	0.796486	0.149196	0.425138	0.771408	0.419547	0.077582	0.311467	0.619441	0.614563
60	0.541717	0.216333	0.819290	0.622334	0.375991	0.169082	0.320122	0.896034	0.254247	0.100096	0.666175	0.529289	0.072645	0.187599	0.933637	0.331929	0.081975	0.147202	0.499118	0.262260	0.295733	0.384768	0.782300	1.064177	0.083523	0.139231	0.613779	0.319636	0.101463	0.534724	0.728987	0.344978	0.141680	0.084050	0.654382	0.390064	0.270588	0.540890	0.492880	0.947123	0.195263	0.396417	0.793163	0.718024	0.984502	0.177836	0.607327	0.622459	0.233731	0.396988	0.380875	0.628419	0.058876	0.181755	0.528547	0.815268	0.149986	0.426017	0.757721	0.390501	0.136267	0.317261	0.616192	0.642054
61	0.532512	0.244952	0.844727	0.646432	0.384212	0.171098	0.393911	0.902104	0.319545	0.132308	0.645355	0.510232	0.072195	0.156102	0.954817	0.302184	0.082275	0.147286	0.544242	0.243704	0.485995	0.347797	0.830976	1.153122	0.106474	0.164431	0.656596	0.421975	0.099350	0.484749	0.641644	0.332983	0.142440	0.081382	0.739226	0.494389	0.275777	0.559341	0.502336	0.939693	0.194362	0.405030	0.800585	0.771256	1.186908	0.167114	0.624499	0.534193	0.207414	0.399529	0.350143	0.667302	0.060180	0.182716	0.448487	0.831917	0.156500	0.425280	0.744247	0.383348	0.213072	0.320269	0.513682	0.653497
62	0.531490	0.287056	0.840695	0.666531	0.398424	0.167471	0.396374	0.904556	0.379107	0.133242	0.656010	0.491692	0.079917	0.126252	0.815107	0.280961	0.082108	0.144515	0.532927	0.253295	0.683460	0.310393	0.827295	1.240691	0.161633	0.202936	0.635192	0.537706	0.095454	0.421438	0.640283	0.317232	0.151370	0.093029	0.733728	0.570936	0.265798	0.576184	0.458297	0.945700	0.195596	0.398195	0.802459	0.810691	1.345995	0.202845	0.601386	0.474526	0.210842	0.403636	0.370737	0.684874	0.060938	0.185601	0.460915	0.845124	0.164045	0.415066	0.746295	0.394720	0.260343	0.321869	0.453446	0.657363
63	0.542670	0.306467	0.846657	0.668435	0.413707	0.159529	0.399947	0.905362	0.397826	0.148924	0.711405	0.472165	0.082946	0.129031	0.762938	0.278667	0.090471	0.091850	0.498868	0.257776	0.837670	0.289626	0.717683	1.304614	0.209158	0.206476	0.692550	0.639487	0.092025	0.374918	0.632482	0.299947	0.187123	0.109375	0.734034	0.615806	0.251038	0.592407	0.505200	0.954091	0.198623	0.379573	0.803055	0.830249	1.357232	0.249415	0.786960	0.533597	0.217325	0.410575	0.436544	0.685076	0.059307	0.210998	0.515661	0.848919	0.163839	0.391054	0.787650	0.415657	0.270987	0.344098	0.447624	0.657867
64	0.558551	0.300217	0.827356	0.639013	0.414863	0.172072	0.427028	0.904240	0.401681	0.207964	0.564289	0.451659	0.079815	0.154947	0.733341	0.277415	0.106328	0.087149	0.513591	0.259734	0.954528	0.297836	0.712669	1.334584	0.249738	0.206072	0.730217	0.730937	0.089024	0.360058	0.605697	0.283877	0.215503	0.116718	0.724595	0.636506	0.263837	0.609778	0.525336	0.958654	0.201126	0.357281	0.816292	0.827328	1.359128	0.263133	0.788269	0.638330	0.217452	0.414312	0.445062	0.672691	0.055688	0.242511	0.531145	0.841471	0.153711	0.381483	0.817489	0.437427	0.270276	0.386094	0.399094	0.657530
65	0.558143	0.290004	0.679284	0.585156	0.409417	0.189457	0.439802	0.885882	0.401531	0.239508	0.543730	0.436431	0.076983	0.170407	0.730637	0.279680	0.096806	0.087612	0.513541	0.278295	1.045182	0.298606	0.693161	1.323232	0.267216	0.207370	0.742080	0.800755	0.094786	0.388735	0.587083	0.273439	0.221848	0.120112	0.718653	0.644233	0.357359	0.625662	0.515046	0.953807	0.202770	0.334602	0.832544	0.803489	1.373862	0.266486	0.797437	0.740991	0.211302	0.416326	0.453703	0.652336	0.052219	0.247113	0.521545	0.831906	0.137013	0.368543	0.654634	0.454909	0.270790	0.390681	0.358422	0.657057
66	0.533725	0.282066	0.710002	0.534109	0.401920	0.186144	0.534365	0.809403	0.396907	0.250547	0.517831	0.435245	0.074458	0.175142	0.739740	0.298777	0.093900	0.093753	0.531557	0.305290	1.128482	0.308935	0.678371	1.280349	0.271552	0.205330	0.787086	0.840828	0.117859	0.428030	0.601188	0.270068	0.214605	0.124653	0.766476	0.646099	0.517922	0.617012	0.503536	0.935401	0.203030	0.315340	0.865312	0.766271	1.393882	0.271120	0.818986	0.823828	0.197510	0.420724	0.478253	0.628404	0.050963	0.262243	0.530810	0.827246	0.127809	0.318064	0.678496	0.465494	0.287463	0.388244	0.293231	0.655292
67	0.494307	0.279044	0.688809	0.505389	0.384832	0.179301	0.575660	0.682967	0.378890	0.256873	0.515433	0.451648	0.072630	0.178109	0.752377	0.329961	0.096337	0.089065	0.502344	0.316972	1.145763	0.371440	0.671940	1.235169	0.293464	0.199674	0.847313	0.860546	0.159914	0.447476	0.723892	0.270317	0.205034	0.121757	0.705853	0.644787	0.666735	0.543614	0.524578	0.897812	0.202519	0.308471	0.832320	0.729808	1.437841	0.285229	0.785456	0.884407	0.178298	0.410246	0.472785	0.602686	0.048696	0.293912	0.533175	0.827857	0.124319	0.226258	0.725198	0.468419	0.317590	0.385795	0.343138	0.647299
68	0.447329	0.272857	0.586724	0.498262	0.358975	0.178934	0.564571	0.586151	0.349705	0.262247	0.531371	0.477495	0.070137	0.216860	0.868717	0.367960	0.105339	0.105824	0.501489	0.314026	1.150145	0.409076	0.638945	1.211547	0.309263	0.201851	0.877888	0.868299	0.178055	0.466467	0.757318	0.267964	0.205585	0.119534	0.697796	0.639558	0.783772	0.486328	0.537613	0.834403	0.203678	0.328582	0.904950	0.706750	1.501306	0.301548	0.774981	0.924124	0.157025	0.379898	0.535553	0.575129	0.048029	0.306100	0.597976	0.830274	0.129670	0.151783	0.746730	0.463457	0.372302	0.375657	0.373731	0.620793
69	0.399763	0.265210	0.585930	0.500839	0.343657	0.183407	0.570368	0.549386	0.325303	0.261623	0.613327	0.502149	0.066943	0.289346	0.859986	0.399626	0.114323	0.122690	0.505596	0.311421	1.179336	0.413776	0.630621	1.211184	0.318686	0.233227	0.762681	0.869517	0.195901	0.476502	0.789510	0.257072	0.209431	0.119893	0.625021	0.626356	0.863069	0.473723	0.553698	0.752116	0.202525	0.386738	0.933387	0.700305	1.573719	0.343966	0.751132	0.945188	0.132588	0.321120	0.557903	0.546266	0.049254	0.308740	0.738823	0.829941	0.142741	0.114379	0.754899	0.450325	0.438443	0.330897	0.380567	0.550764
70	0.353057	0.265867	0.640837	0.502575	0.344482	0.169417	0.575545	0.549598	0.286981	0.254587	0.673151	0.517670	0.069148	0.318166	0.859073	0.411265	0.099113	0.119710	0.479609	0.310628	1.221459	0.407761	0.567216	1.191102	0.327961	0.248807	0.760428	0.864698	0.202594	0.473111	0.722479	0.235162	0.212701	0.122998	0.665299	0.598444	0.896364	0.476804	0.556593	0.676157	0.188964	0.390253	0.915083	0.702881	1.595270	0.431024	0.744874	0.952437	0.128067	0.193957	0.558495	0.519659	0.054276	0.299989	0.734846	0.822460	0.155285	0.114391	0.644113	0.428699	0.511157	0.303300	0.381978	0.466631
71	0.312072	0.287402	0.610606	0.497964	0.347528	0.161105	0.604706	0.570255	0.186622	0.265890	0.662952	0.518872	0.070995	0.320155	0.853652	0.406366	0.093777	0.138124	0.497510	0.303089	1.256397	0.404040	0.530292	1.112083	0.334615	0.251573	0.754520	0.850399	0.202188	0.473734	0.691951	0.203088	0.217985	0.129115	0.625390	0.547128	0.899419	0.474426	0.530565	0.606228	0.157958	0.361656	0.866841	0.701870	1.553270	0.539239	0.727100	0.948613	0.138745	0.172362	0.622728	0.504725	0.061177	0.301118	0.761302	0.803358	0.162150	0.101335	0.648614	0.398468	0.598537	0.296368	0.513246	0.455349
72	0.287645	0.324057	0.595322	0.484801	0.339763	0.157988	0.590465	0.594480	0.116068	0.276215	0.642728	0.503594	0.071373	0.340898	0.804534	0.397327	0.094614	0.219695	0.420865	0.302077	1.285486	0.408660	0.569534	1.029313	0.338254	0.251882	0.721940	0.820984	0.201896	0.475068	0.694508	0.165710	0.222563	0.138158	0.542539	0.471589	0.896578	0.464750	0.540511	0.539695	0.117036	0.355077	0.859863	0.685366	1.422017	0.640076	0.753745	0.928707	0.142018	0.175962	0.628761	0.508026	0.063447	0.297120	0.831874	0.768146	0.172151	0.099029	0.651013	0.361022	0.699461	0.295854	0.528327	0.507992
73	0.278946	0.332323	0.591995	0.462492	0.317425	0.157771	0.558203	0.610057	0.083849	0.247614	0.659457	0.472525	0.070840	0.348438	0.887118	0.389586	0.093544	0.220428	0.392940	0.324247	1.315857	0.423950	0.595485	0.962974	0.326917	0.244605	0.741061	0.772005	0.203003	0.475335	0.654666	0.130931	0.222100	0.143049	0.511292	0.401377	0.892497	0.457394	0.542787	0.475468	0.093392	0.362227	0.778845	0.646087	1.344927	0.664210	0.762350	0.885902	0.134551	0.157020	0.618597	0.523417	0.072634	0.297226	0.838720	0.713927	0.166074	0.108627	0.708281	0.321198	0.770022	0.302353	0.576192	0.577159
74	0.278316	0.312521	0.556676	0.430954	0.290689	0.172871	0.600236	0.616617	0.079641	0.210469	0.656968	0.429433	0.066268	0.348768	0.844132	0.386986	0.081713	0.216915	0.536012	0.357436	1.316051	0.424598	0.617298	0.933278	0.302084	0.225363	0.728281	0.707103	0.217764	0.484468	0.677438	0.112444	0.199405	0.145135	0.665634	0.371448	0.887157	0.469292	0.573493	0.412674	0.086521	0.371052	0.774651	0.582924	1.353545	0.653881	0.608044	0.818187	0.119807	0.148631	0.750260	0.541355	0.095096	0.305321	0.843582	0.640470	0.158271	0.109821	0.673621	0.285493	0.824227	0.303401	0.552475	0.639658
75	0.271298	0.275187	0.548352	0.389671	0.259215	0.236040	0.598394	0.618165	0.079656	0.198858	0.638892	0.381314	0.056276	0.357046	0.845009	0.391752	0.055763	0.213544	0.579540	0.377721	1.291084	0.424444	0.649619	0.946463	0.273838	0.227390	0.641735	0.640623	0.254873	0.511792	0.731198	0.123009	0.155056	0.154388	0.716755	0.385405	0.882754	0.614169	0.568191	0.349234	0.090276	0.369517	0.816036	0.503953	1.355974	0.651471	0.642856	0.735049	0.114718	0.141925	0.746849	0.553968	0.096028	0.314692	0.853125	0.552824	0.162534	0.114257	0.754005	0.261545	0.871743	0.273702	0.594184	0.686833
76	0.252195	0.269245	0.529111	0.341202	0.230683	0.337282	0.575153	0.617086	0.072302	0.196498	0.721328	0.337681	0.049077	0.392377	0.743216	0.400503	0.043072	0.229530	0.696914	0.377443	1.252684	0.432820	0.672008	0.987676	0.238608	0.305479	0.654837	0.571122	0.307002	0.549993	0.756414	0.157343	0.132096	0.172171	0.803438	0.417232	0.884837	0.772785	0.563845	0.285197	0.093991	0.367606	0.805363	0.421697	1.344153	0.654600	0.661153	0.647484	0.116103	0.128469	0.692806	0.556401	0.102236	0.294009	0.823924	0.462395	0.189012	0.115373	0.866324	0.252504	0.887808	0.208376	0.664835	0.717299
77	0.217212	0.278102	0.504474	0.292088	0.208884	0.392358	0.568846	0.609906	0.061988	0.192421	0.758714	0.307871	0.046907	0.438525	0.709785	0.410459	0.050002	0.221789	0.681441	0.356479	1.207759	0.474202	0.685221	1.047115	0.226535	0.463885	0.690140	0.525396	0.389322	0.611066	0.769073	0.198541	0.119150	0.182610	0.756781	0.446503	0.896793	0.949995	0.622509	0.240711	0.097799	0.368836	0.775617	0.346407	1.317488	0.654091	0.617262	0.567130	0.123836	0.125853	0.685311	0.546201	0.117631	0.270211	0.813022	0.380015	0.232392	0.113733	0.848960	0.256266	0.889490	0.189685	0.666405	0.733666
78	0.191484	0.277809	0.504451	0.250394	0.197612	0.424186	0.443713	0.589166	0.054791	0.193596	0.703784	0.295119	0.046639	0.475200	0.733969	0.417833	0.064454	0.150233	0.744595	0.314704	1.150875	0.627114	0.688552	1.119346	0.216316	0.522072	0.607460	0.518728	0.499624	0.636236	0.770907	0.233089	0.118535	0.191788	0.739455	0.467248	0.906356	1.004535	0.601081	0.224672	0.104312	0.375530	0.755482	0.287637	1.246345	0.650343	0.623195	0.501304	0.124705	0.156541	0.652564	0.522268	0.135180	0.282018	0.842287	0.313238	0.279463	0.108692	0.859256	0.266829	0.921010	0.192437	0.684895	0.739945
79	0.185114	0.272256	0.572254	0.227584	0.196535	0.464357	0.443347	0.550575	0.057989	0.187068	0.655176	0.295374	0.046744	0.505793	0.728804	0.425419	0.072694	0.217764	0.761218	0.263122	1.091071	0.733279	0.722285	1.199743	0.186214	0.589669	0.543452	0.539501	0.578789	0.638293	0.770657	0.254785	0.118133	0.214678	0.763091	0.480001	0.895163	1.013425	0.592922	0.236011	0.106153	0.386621	0.801728	0.252136	1.100507	0.648089	0.694861	0.458018	0.126155	0.179065	0.646091	0.485368	0.156538	0.275345	0.847912	0.266891	0.304333	0.103277	0.838879	0.277819	1.012235	0.259603	0.667563	0.740552
80	0.185485	0.267816	0.675671	0.228406	0.196493	0.470200	0.548241	0.496810	0.064241	0.168527	0.660360	0.303297	0.045992	0.518271	0.720394	0.442519	0.078627	0.286626	0.674494	0.223771	1.086954	0.782085	0.727596	1.262129	0.166650	0.663968	0.539143	0.572412	0.593400	0.614440	0.825234	0.265367	0.114594	0.249225	0.774141	0.487048	0.837285	1.012478	0.599527	0.266695	0.105985	0.398230	0.787317	0.241204	0.905237	0.625674	0.719623	0.440326	0.117085	0.185054	0.646415	0.437699	0.191620	0.246760	0.852103	0.241184	0.307888	0.117169	0.802591	0.285266	1.132098	0.398268	0.689337	0.737155
81	0.181946	0.270946	0.771695	0.248088	0.192627	0.529887	0.541808	0.436963	0.065279	0.139310	0.662727	0.314207	0.044704	0.507220	0.595082	0.476903	0.079379	0.289719	0.648879	0.216234	1.076374	0.783103	0.713248	1.296922	0.154204	0.676495	0.543286	0.605882	0.586077	0.598288	0.738880	0.268128	0.120016	0.314996	0.782035	0.489144	0.738536	1.002742	0.605379	0.308056	0.105878	0.389716	0.836182	0.243901	0.738257	0.593712	0.739524	0.441532	0.101760	0.179210	0.663060	0.382883	0.220847	0.245003	0.863980	0.232713	0.302629	0.154397	0.802733	0.287430	1.242761	0.592469	0.719044	0.726232
82	0.173874	0.279787	0.770782	0.279145	0.185705	0.685327	0.528694	0.382631	0.063853	0.134774	0.712433	0.323752	0.046737	0.471852	0.717884	0.526710	0.077607	0.275469	0.611534	0.227523	1.037569	0.775830	0.649959	1.311200	0.142734	0.675050	0.564017	0.633113	0.583160	0.601495	0.726140	0.267903	0.128412	0.380866	0.789563	0.485141	0.622073	0.995980	0.594329	0.356540	0.103465	0.356201	0.732445	0.246839	0.652216	0.614484	0.723057	0.449512	0.092439	0.172292	0.647049	0.326515	0.229938	0.272415	0.854913	0.237714	0.298437	0.212587	0.822043	0.283843	1.321070	0.712412	0.779263	0.701279
83	0.156848	0.289225	0.732354	0.315949	0.184972	0.782351	0.525368	0.344931	0.062220	0.138164	0.773456	0.327973	0.045119	0.449463	0.728579	0.574735	0.076470	0.275629	0.626780	0.233037	0.988348	0.787198	0.675444	1.314686	0.133133	0.685193	0.543351	0.651559	0.613220	0.596035	0.635975	0.271315	0.126254	0.418713	0.793101	0.472632	0.500751	0.997247	0.603741	0.408969	0.102360	0.295508	0.728874	0.243959	0.631084	0.694097	0.808103	0.453129	0.077362	0.168113	0.618514	0.276174	0.228656	0.352316	0.860722	0.257818	0.289181	0.271920	0.851498	0.274893	1.353780	0.761566	0.732705	0.659267
84	0.130214	0.287394	0.728964	0.356168	0.189753	0.808677	0.546654	0.333899	0.057693	0.127514	0.805753	0.324175	0.040278	0.448675	0.778591	0.599625	0.086786	0.269898	0.565435	0.222045	0.944020	0.800797	0.716779	1.313998	0.123417	0.723281	0.555731	0.659765	0.665410	0.605042	0.636465	0.285212	0.121352	0.433430	0.796565	0.448125	0.430561	1.014229	0.674472	0.461968	0.100474	0.311462	0.733707	0.234735	0.645797	0.794486	0.806635	0.446142	0.079427	0.165852	0.473132	0.238184	0.229629	0.460496	0.802382	0.292275	0.286418	0.304343	0.815096	0.261219	1.344095	0.777529	0.712847	0.601434
85	0.100599	0.267811	0.733526	0.397582	0.179388	0.810934	0.502278	0.339291	0.056406	0.114619	0.793988	0.310788	0.041286	0.431134	0.799744	0.602745	0.119416	0.221992	0.595416	0.194681	0.893695	0.796995	0.687518	1.305469	0.114645	0.792327	0.559862	0.657684	0.726462	0.606630	0.640335	0.315630	0.119335	0.433579	0.728794	0.407529	0.421093	1.053589	0.723255	0.509202	0.098336	0.327606	0.750218	0.222714	0.661356	0.870766	0.695857	0.431198	0.100726	0.165155	0.475479	0.218400	0.245497	0.598108	0.809576	0.337466	0.284427	0.310231	0.823583	0.243612	1.323763	0.774508	0.707218	0.532956
86	0.097556	0.272670	0.733001	0.438564	0.161304	0.802056	0.623173	0.344231	0.057186	0.106007	0.764197	0.287067	0.042168	0.424530	0.721183	0.614633	0.153470	0.135370	0.558050	0.156849	0.808832	0.789289	0.652486	1.275199	0.108155	0.883883	0.596913	0.644251	0.776123	0.666208	0.718165	0.365082	0.120862	0.430154	0.644837	0.353116	0.436663	1.104758	0.772024	0.543775	0.098304	0.329807	0.801523	0.214352	0.674389	0.905887	0.707709	0.408917	0.118841	0.169312	0.489038	0.217286	0.271897	0.687571	0.845468	0.386609	0.278197	0.311035	0.811876	0.222528	1.299321	0.773415	0.705636	0.460572
87	0.123492	0.283451	0.717223	0.480460	0.152127	0.775777	0.706651	0.344662	0.060277	0.109098	0.738849	0.254210	0.041361	0.431277	0.762623	0.671793	0.155368	0.141058	0.535156	0.122198	0.692830	0.788282	0.573237	1.208145	0.114920	0.966529	0.628052	0.618647	0.814991	0.726451	0.725343	0.433072	0.123639	0.443653	0.600078	0.292081	0.454317	1.156307	0.782367	0.561288	0.098601	0.306599	0.806946	0.214883	0.687612	0.913273	0.786329	0.379292	0.115558	0.191646	0.515457	0.228109	0.301302	0.708751	0.838795	0.435688	0.261592	0.311743	0.701538	0.200436	1.272223	0.772535	0.678906	0.393125
88	0.167864	0.283095	0.739011	0.526141	0.148945	0.739173	0.716935	0.352223	0.055662	0.108306	0.727298	0.218197	0.042384	0.435121	0.805436	0.731764	0.166391	0.141375	0.475604	0.109757	0.572349	0.784775	0.574371	1.110712	0.165588	0.999685	0.616082	0.581857	0.846436	0.728795	0.730938	0.513171	0.123902	0.485611	0.582184	0.233233	0.471216	1.197102	0.776820	0.564075	0.097527	0.271861	0.804690	0.229954	0.699454	0.914874	0.797919	0.343975	0.113180	0.247159	0.656552	0.243450	0.328802	0.710006	0.850652	0.482599	0.223183	0.312250	0.685666	0.180446	1.260789	0.772312	0.654846	0.339662
89	0.200089	0.275091	0.737335	0.574296	0.157439	0.727791	0.724535	0.389002	0.043527	0.108245	0.709972	0.185941	0.045521	0.415315	0.816081	0.774785	0.168940	0.134225	0.522610	0.120046	0.465880	0.771270	0.572900	1.006659	0.270423	0.979463	0.629624	0.536046	0.867161	0.716659	0.671878	0.598382	0.123918	0.544207	0.574373	0.183384	0.487228	1.193737	0.779305	0.566883	0.090327	0.262421	0.706870	0.259585	0.700262	0.909947	0.757817	0.307195	0.114590	0.307705	0.668636	0.257883	0.340058	0.711810	0.851139	0.523040	0.159913	0.313190	0.679106	0.166599	1.259670	0.784146	0.642806	0.306408
90	0.209547	0.297534	0.734428	0.618880	0.175766	0.704383	0.725916	0.458595	0.046141	0.107418	0.689187	0.161724	0.048954	0.375153	0.833595	0.805678	0.175074	0.139625	0.523383	0.134188	0.384480	0.730931	0.573160	0.892623	0.379708	0.997312	0.632491	0.485965	0.876421	0.691326	0.661540	0.679775	0.123123	0.601450	0.548516	0.147001	0.495240	1.116745	0.778906	0.598742	0.078594	0.263051	0.665935	0.297852	0.683446	0.902033	0.710655	0.275928	0.111685	0.331849	0.689032	0.267974	0.339462	0.712122	0.829282	0.554300	0.100013	0.311216	0.681241	0.161966	1.238232	0.818587	0.693994	0.293901
91	0.217254	0.313308	0.778364	0.653529	0.196794	0.687045	0.743499	0.511762	0.050104	0.098413	0.652832	0.147637	0.049969	0.331741	0.904402	0.827888	0.175000	0.196774	0.447465	0.141180	0.345181	0.578602	0.583679	0.759390	0.427225	0.981903	0.615329	0.439050	0.864229	0.641270	0.655890	0.746790	0.120556	0.644008	0.549791	0.125009	0.482293	0.988110	0.698551	0.691286	0.061759	0.261995	0.664883	0.336810	0.647499	0.902918	0.687173	0.259154	0.112653	0.333925	0.700710	0.272289	0.333266	0.704620	0.801216	0.575316	0.087161	0.302671	0.804993	0.165512	1.166735	0.836569	0.738630	0.294820
92	0.232444	0.315136	0.723183	0.673768	0.210808	0.678068	0.684239	0.547689	0.052786	0.082216	0.586422	0.143507	0.050595	0.289839	0.897240	0.841195	0.148610	0.212255	0.450775	0.139490	0.343976	0.485815	0.532774	0.598620	0.449188	0.941670	0.601455	0.402845	0.822077	0.606400	0.668831	0.793027	0.114798	0.657413	0.529923	0.116404	0.457427	0.894582	0.698273	0.832517	0.040850	0.253773	0.683853	0.369795	0.592377	0.874009	0.663747	0.261417	0.113714	0.334913	0.667456	0.270420	0.321274	0.700552	0.820772	0.586456	0.127407	0.288553	0.810881	0.172764	1.046122	0.811381	0.701653	0.299675
93	0.254702	0.315203	0.615763	0.679060	0.216649	0.572650	0.675563	0.570050	0.056430	0.070721	0.511972	0.144409	0.052322	0.275068	0.892784	0.842499	0.155999	0.205555	0.483040	0.131502	0.363686	0.450071	0.542609	0.458414	0.460384	0.931816	0.594121	0.382746	0.759914	0.584265	0.676485	0.818318	0.107806	0.654660	0.531298	0.122408	0.431529	0.864041	0.688510	0.948483	0.034434	0.234683	0.594446	0.392961	0.524547	0.781501	0.684059	0.275909	0.113670	0.338719	0.683953	0.262285	0.299256	0.709069	0.805279	0.590048	0.165655	0.261010	0.801461	0.180132	0.898825	0.715326	0.697375	0.302124
94	0.269345	0.315136	0.458111	0.672083	0.216311	0.391725	0.671946	0.582744	0.063066	0.067733	0.455639	0.145790	0.055294	0.295051	0.870399	0.828961	0.150030	0.236119	0.527282	0.117249	0.386912	0.517332	0.560414	0.382150	0.462786	0.938475	0.580878	0.380475	0.736094	0.573873	0.599919	0.826784	0.098249	0.663504	0.575886	0.141116	0.407172	0.848648	0.684890	1.015622	0.064752	0.205783	0.578442	0.405628	0.456396	0.646646	0.635426	0.288315	0.113521	0.342417	0.719634	0.248792	0.281882	0.725954	0.702266	0.589651	0.188755	0.207825	0.771607	0.185243	0.755051	0.614399	0.631357	0.299940
95	0.271813	0.313106	0.452614	0.657285	0.212847	0.279335	0.669819	0.592148	0.067390	0.061794	0.431009	0.145444	0.055661	0.310092	0.771990	0.805258	0.144836	0.252965	0.473176	0.101220	0.406563	0.572953	0.557631	0.393059	0.461493	0.932986	0.579230	0.391494	0.733798	0.573905	0.588305	0.826593	0.095070	0.665145	0.554180	0.162894	0.383168	0.847711	0.658309	1.048722	0.101300	0.197667	0.587101	0.411305	0.391134	0.508095	0.624700	0.283483	0.103571	0.344023	0.746204	0.230716	0.278035	0.743927	0.613196	0.588115	0.196267	0.183365	0.762364	0.186928	0.652137	0.573564	0.604416	0.294357
96	0.271941	0.306335	0.447903	0.640691	0.207793	0.252639	0.679956	0.606525	0.065242	0.046633	0.506769	0.142686	0.053839	0.332841	0.775064	0.790190	0.121728	0.247295	0.480237	0.092645	0.423420	0.568073	0.515910	0.437268	0.462171	0.903010	0.529608	0.409229	0.733624	0.567835	0.558891	0.829872	0.096617	0.665323	0.508377	0.182057	0.361510	0.846403	0.753109	1.058300	0.121895	0.197877	0.699914	0.413650	0.329843	0.395935	0.665850	0.264008	0.069232	0.343233	0.725011	0.209140	0.280573	0.724927	0.614362	0.586538	0.197677	0.177277	0.797365	0.185492	0.592543	0.566840	0.641665	0.285884
97	0.275123	0.294698	0.515171	0.629508	0.202027	0.253251	0.686840	0.625039	0.061793	0.037045	0.592466	0.137558	0.061387	0.366347	0.724713	0.804189	0.080572	0.199667	0.498968	0.099795	0.434889	0.557420	0.467764	0.473541	0.469102	0.834639	0.497735	0.427227	0.716465	0.560323	0.555492	0.848203	0.115932	0.665542	0.508298	0.196961	0.345088	0.840860	0.754789	1.050913	0.144424	0.189515	0.703707	0.414235	0.278435	0.338324	0.713264	0.274390	0.048118	0.338487	0.741741	0.185710	0.279029	0.687373	0.543985	0.588103	0.199567	0.186347	0.724699	0.181011	0.557185	0.580145	0.636557	0.274283
98	0.284599	0.281303	0.515347	0.634305	0.195558	0.249012	0.451825	0.631307	0.063258	0.036695	0.602431	0.130552	0.063506	0.370592	0.712122	0.835340	0.080039	0.175871	0.689756	0.116106	0.435651	0.557906	0.519590	0.497579	0.484699	0.735125	0.495553	0.443090	0.674662	0.551435	0.548376	0.880417	0.151431	0.656263	0.518775	0.206824	0.332662	0.826506	0.707175	1.032172	0.156049	0.141329	0.695562	0.413957	0.239972	0.326025	0.581007	0.340554	0.046579	0.310998	0.702317	0.162287	0.263350	0.618949	0.447194	0.600291	0.196317	0.199012	0.758175	0.173701	0.544547	0.590333	0.659872	0.261054
99	0.299607	0.267718	0.553037	0.664612	0.187213	0.226549	0.459390	0.631702	0.066912	0.036910	0.614508	0.123831	0.063001	0.366728	0.706795	0.847550	0.058674	0.221785	0.684863	0.127121	0.428171	0.560641	0.515882	0.513007	0.501501	0.629917	0.477231	0.456301	0.615681	0.546336	0.556502	0.902324	0.181052	0.629137	0.521257	0.211137	0.321646	0.789123	0.677268	1.008178	0.163122	0.097539	0.669142	0.414142	0.215688	0.321975	0.616980	0.407200	0.042283	0.240635	0.603374	0.141793	0.228263	0.621516	0.460081	0.618952	0.194927	0.207374	0.789758	0.164509	0.554393	0.599738	0.649975	0.247794
100	0.312110	0.259734	0.572432	0.690676	0.175361	0.195286	0.498531	0.620305	0.064366	0.035222	0.595381	0.117729	0.062906	0.357841	0.812249	0.815866	0.062305	0.214459	0.692790	0.127989	0.415415	0.565861	0.496084	0.524961	0.503914	0.543419	0.492544	0.466751	0.555340	0.494815	0.454930	0.911110	0.197883	0.586772	0.528450	0.210619	0.311284	0.731291	0.576783	0.986488	0.168422	0.068752	0.585173	0.416697	0.200843	0.317876	0.626960	0.443206	0.039345	0.157083	0.687958	0.127258	0.180105	0.683934	0.460594	0.627139	0.196429	0.216215	0.718434	0.153623	0.577847	0.604724	0.610888	0.236170
101	0.317254	0.262151	0.558007	0.706709	0.156864	0.201260	0.519178	0.581340	0.062772	0.034782	0.591974	0.111491	0.061799	0.347463	0.817320	0.764925	0.077270	0.197526	0.706930	0.120207	0.398622	0.569717	0.494800	0.537157	0.461348	0.493749	0.477239	0.473438	0.502957	0.344875	0.427871	0.904863	0.202154	0.535625	0.522694	0.207228	0.296281	0.654945	0.582910	0.972968	0.170693	0.069981	0.570187	0.423795	0.195278	0.303872	0.625815	0.455399	0.036193	0.124160	0.693647	0.119556	0.132366	0.741485	0.416114	0.630524	0.198383	0.227707	0.749077	0.142066	0.597787	0.595575	0.611527	0.229687
