	125_P_T2_sh_R_D_A_01.c3d	125_P_T2_sh_R_D_A_01.c3d	125_P_T2_sh_R_D_A_01.c3d	125_P_T2_sh_R_D_A_01.c3d	125_P_T2_sh_R_D_A_01.c3d	125_P_T2_sh_R_D_A_01.c3d	125_P_T2_sh_R_D_A_01.c3d	125_P_T2_sh_R_D_A_01.c3d	125_P_T2_sh_R_D_A_02.c3d	125_P_T2_sh_R_D_A_02.c3d	125_P_T2_sh_R_D_A_02.c3d	125_P_T2_sh_R_D_A_02.c3d	125_P_T2_sh_R_D_A_02.c3d	125_P_T2_sh_R_D_A_02.c3d	125_P_T2_sh_R_D_A_02.c3d	125_P_T2_sh_R_D_A_02.c3d	125_P_T2_sh_R_D_A_03.c3d	125_P_T2_sh_R_D_A_03.c3d	125_P_T2_sh_R_D_A_03.c3d	125_P_T2_sh_R_D_A_03.c3d	125_P_T2_sh_R_D_A_03.c3d	125_P_T2_sh_R_D_A_03.c3d	125_P_T2_sh_R_D_A_03.c3d	125_P_T2_sh_R_D_A_03.c3d	125_P_T2_sh_R_D_A_04.c3d	125_P_T2_sh_R_D_A_04.c3d	125_P_T2_sh_R_D_A_04.c3d	125_P_T2_sh_R_D_A_04.c3d	125_P_T2_sh_R_D_A_04.c3d	125_P_T2_sh_R_D_A_04.c3d	125_P_T2_sh_R_D_A_04.c3d	125_P_T2_sh_R_D_A_04.c3d	125_P_T2_sh_R_D_A_06.c3d	125_P_T2_sh_R_D_A_06.c3d	125_P_T2_sh_R_D_A_06.c3d	125_P_T2_sh_R_D_A_06.c3d	125_P_T2_sh_R_D_A_06.c3d	125_P_T2_sh_R_D_A_06.c3d	125_P_T2_sh_R_D_A_06.c3d	125_P_T2_sh_R_D_A_06.c3d	125_P_T2_sh_R_D_A_07.c3d	125_P_T2_sh_R_D_A_07.c3d	125_P_T2_sh_R_D_A_07.c3d	125_P_T2_sh_R_D_A_07.c3d	125_P_T2_sh_R_D_A_07.c3d	125_P_T2_sh_R_D_A_07.c3d	125_P_T2_sh_R_D_A_07.c3d	125_P_T2_sh_R_D_A_07.c3d	125_P_T2_sh_R_D_A_08.c3d	125_P_T2_sh_R_D_A_08.c3d	125_P_T2_sh_R_D_A_08.c3d	125_P_T2_sh_R_D_A_08.c3d	125_P_T2_sh_R_D_A_08.c3d	125_P_T2_sh_R_D_A_08.c3d	125_P_T2_sh_R_D_A_08.c3d	125_P_T2_sh_R_D_A_08.c3d	125_P_T2_sh_R_D_A_10.c3d	125_P_T2_sh_R_D_A_10.c3d	125_P_T2_sh_R_D_A_10.c3d	125_P_T2_sh_R_D_A_10.c3d	125_P_T2_sh_R_D_A_10.c3d	125_P_T2_sh_R_D_A_10.c3d	125_P_T2_sh_R_D_A_10.c3d	125_P_T2_sh_R_D_A_10.c3d
	Biceps femoris_lat	Semitendinosus_lat	Vastus lateralis_lat	Vastus medialis_lat	Biceps femoris_med	Semitendinosus_med	Vastus lateralis_med	Vastus medialis_med	Biceps femoris_lat	Semitendinosus_lat	Vastus lateralis_lat	Vastus medialis_lat	Biceps femoris_med	Semitendinosus_med	Vastus lateralis_med	Vastus medialis_med	Biceps femoris_lat	Semitendinosus_lat	Vastus lateralis_lat	Vastus medialis_lat	Biceps femoris_med	Semitendinosus_med	Vastus lateralis_med	Vastus medialis_med	Biceps femoris_lat	Semitendinosus_lat	Vastus lateralis_lat	Vastus medialis_lat	Biceps femoris_med	Semitendinosus_med	Vastus lateralis_med	Vastus medialis_med	Biceps femoris_lat	Semitendinosus_lat	Vastus lateralis_lat	Vastus medialis_lat	Biceps femoris_med	Semitendinosus_med	Vastus lateralis_med	Vastus medialis_med	Biceps femoris_lat	Semitendinosus_lat	Vastus lateralis_lat	Vastus medialis_lat	Biceps femoris_med	Semitendinosus_med	Vastus lateralis_med	Vastus medialis_med	Biceps femoris_lat	Semitendinosus_lat	Vastus lateralis_lat	Vastus medialis_lat	Biceps femoris_med	Semitendinosus_med	Vastus lateralis_med	Vastus medialis_med	Biceps femoris_lat	Semitendinosus_lat	Vastus lateralis_lat	Vastus medialis_lat	Biceps femoris_med	Semitendinosus_med	Vastus lateralis_med	Vastus medialis_med
	P2D	P2D	P2D	P2D	P2D	P2D	P2D	P2D	P2D	P2D	P2D	P2D	P2D	P2D	P2D	P2D	P2D	P2D	P2D	P2D	P2D	P2D	P2D	P2D	P2D	P2D	P2D	P2D	P2D	P2D	P2D	P2D	P2D	P2D	P2D	P2D	P2D	P2D	P2D	P2D	P2D	P2D	P2D	P2D	P2D	P2D	P2D	P2D	P2D	P2D	P2D	P2D	P2D	P2D	P2D	P2D	P2D	P2D	P2D	P2D	P2D	P2D	P2D	P2D
	EMG_lat	EMG_lat	EMG_lat	EMG_lat	EMG_med	EMG_med	EMG_med	EMG_med	EMG_lat	EMG_lat	EMG_lat	EMG_lat	EMG_med	EMG_med	EMG_med	EMG_med	EMG_lat	EMG_lat	EMG_lat	EMG_lat	EMG_med	EMG_med	EMG_med	EMG_med	EMG_lat	EMG_lat	EMG_lat	EMG_lat	EMG_med	EMG_med	EMG_med	EMG_med	EMG_lat	EMG_lat	EMG_lat	EMG_lat	EMG_med	EMG_med	EMG_med	EMG_med	EMG_lat	EMG_lat	EMG_lat	EMG_lat	EMG_med	EMG_med	EMG_med	EMG_med	EMG_lat	EMG_lat	EMG_lat	EMG_lat	EMG_med	EMG_med	EMG_med	EMG_med	EMG_lat	EMG_lat	EMG_lat	EMG_lat	EMG_med	EMG_med	EMG_med	EMG_med
ITEM	Y	Y	Y	Y	Y	Y	Y	Y	Y	Y	Y	Y	Y	Y	Y	Y	Y	Y	Y	Y	Y	Y	Y	Y	Y	Y	Y	Y	Y	Y	Y	Y	Y	Y	Y	Y	Y	Y	Y	Y	Y	Y	Y	Y	Y	Y	Y	Y	Y	Y	Y	Y	Y	Y	Y	Y	Y	Y	Y	Y	Y	Y	Y	Y
1	0.581213	0.335655	0.116193	0.115134	0.499414	0.111228	0.191120	0.143741	0.471926	0.381735	0.133111	0.210612	1.098220	0.183564	0.071453	0.081467	0.903193	0.546870	0.194931	0.167667	0.246401	0.351233	0.294942	0.102073	0.315058	0.265482	0.278969	0.158463	0.407511	0.424822	0.101633	0.036564	0.388918	0.113406	0.153320	0.178259	0.754863	0.577590	0.171173	0.092495	1.022297	0.171788	0.093450	0.089174	0.531323	0.127217	0.111409	0.122466	0.474263	0.173346	0.165333	0.117132	0.523781	0.338640	0.138236	0.061864	0.283107	0.058237	0.164096	0.196170	0.583270	0.795136	0.206112	0.166912
2	0.520142	0.352690	0.119449	0.136057	0.522207	0.111836	0.218455	0.148866	0.478314	0.397800	0.141264	0.192533	1.253894	0.209729	0.072342	0.091547	0.900236	0.539813	0.209155	0.207879	0.244332	0.332256	0.309356	0.115539	0.303622	0.259936	0.282149	0.169376	0.296857	0.397992	0.103906	0.036720	0.294823	0.099266	0.147098	0.170761	0.736315	0.592300	0.185474	0.097339	0.915013	0.166636	0.093365	0.075676	0.512802	0.131922	0.111068	0.122610	0.405296	0.172943	0.169739	0.123892	0.558156	0.423609	0.169355	0.063555	0.287584	0.057495	0.181180	0.200415	0.557797	0.735626	0.235595	0.167224
3	0.422720	0.345253	0.131878	0.191124	0.556538	0.117728	0.236098	0.201439	0.489255	0.416974	0.165030	0.178752	1.281589	0.206414	0.085595	0.122413	0.906507	0.519559	0.209562	0.232905	0.256751	0.334121	0.336685	0.121201	0.227399	0.210432	0.287143	0.172957	0.299767	0.388825	0.087233	0.037033	0.228737	0.094344	0.092951	0.153035	0.720849	0.641210	0.166901	0.096667	0.843549	0.202200	0.123994	0.066791	0.512875	0.142552	0.094708	0.131698	0.407987	0.119316	0.193303	0.128377	0.529883	0.437091	0.248413	0.104662	0.273640	0.061317	0.194488	0.155322	0.561375	0.700254	0.235932	0.181247
4	0.369264	0.315193	0.140205	0.195644	0.558395	0.118379	0.246967	0.217580	0.468167	0.425877	0.236877	0.202544	1.289307	0.183050	0.108687	0.138147	0.705953	0.410983	0.212005	0.326904	0.300669	0.338671	0.340928	0.111508	0.201376	0.217035	0.290746	0.177536	0.302408	0.310308	0.128831	0.117645	0.212720	0.100058	0.085347	0.154756	0.645833	0.705469	0.169087	0.096745	0.839418	0.338527	0.149282	0.111351	0.514767	0.387243	0.121943	0.188277	0.334548	0.136418	0.247319	0.127755	0.550555	0.428153	0.276303	0.107036	0.264478	0.070312	0.253994	0.177201	0.559120	0.702267	0.237326	0.189565
5	0.282530	0.300792	0.132698	0.220119	0.572038	0.123466	0.248377	0.199247	0.441435	0.416648	0.273402	0.207884	1.257874	0.225479	0.121077	0.138810	0.629935	0.314763	0.217276	0.338332	0.276428	0.325531	0.354056	0.110414	0.208739	0.243456	0.280596	0.201343	0.319188	0.347514	0.177549	0.173604	0.222154	0.179419	0.110929	0.096809	0.537290	0.652704	0.177226	0.096507	0.785919	0.399468	0.147815	0.123492	0.402436	0.455003	0.145244	0.190550	0.268526	0.200001	0.301353	0.128861	0.577861	0.421380	0.355211	0.116103	0.253851	0.086972	0.275592	0.197875	0.481296	0.684300	0.235309	0.188774
6	0.269034	0.246154	0.125150	0.226275	0.554960	0.119209	0.258904	0.229161	0.378699	0.350790	0.284939	0.231846	1.118845	0.307351	0.135716	0.183838	0.435735	0.349464	0.190691	0.318194	0.367060	0.347605	0.346739	0.117662	0.211868	0.226344	0.249518	0.197255	0.328046	0.323840	0.181944	0.182298	0.285583	0.291910	0.196122	0.203496	0.504946	0.534438	0.183104	0.182425	0.707858	0.545352	0.151125	0.139956	0.404485	0.769730	0.320777	0.197079	0.269736	0.226983	0.303302	0.140748	0.538270	0.388758	0.358308	0.117767	0.222999	0.088557	0.293014	0.205458	0.376404	0.589036	0.248588	0.160042
7	0.305407	0.253751	0.124384	0.225466	0.458344	0.099400	0.287945	0.260272	0.369200	0.303524	0.314430	0.253912	1.020879	0.486159	0.137408	0.286918	0.442388	0.375342	0.139986	0.316778	0.383241	0.365496	0.352377	0.127923	0.210930	0.238331	0.165943	0.194796	0.291386	0.316178	0.179090	0.187490	0.302716	0.318017	0.272953	0.289451	0.511270	0.528640	0.184830	0.204271	0.695997	0.635944	0.162461	0.139087	0.469520	0.800960	0.395719	0.191459	0.287648	0.350573	0.300922	0.147429	0.516393	0.392118	0.361772	0.118135	0.188800	0.102247	0.290393	0.196196	0.366363	0.553089	0.261430	0.161182
8	0.320980	0.255192	0.100873	0.236020	0.455355	0.092238	0.301713	0.262412	0.277464	0.312323	0.309044	0.215210	0.668541	0.506244	0.144107	0.290858	0.493124	0.366963	0.141761	0.295949	0.377437	0.370108	0.263343	0.128496	0.197211	0.230281	0.159222	0.190410	0.329586	0.306576	0.213262	0.190419	0.295570	0.321704	0.289072	0.336969	0.340684	0.528586	0.187670	0.215390	0.312428	0.626734	0.169050	0.131108	0.495274	0.807609	0.433446	0.186939	0.282023	0.392177	0.270118	0.154408	0.512352	0.373192	0.372748	0.137587	0.148451	0.099844	0.271509	0.161082	0.356518	0.439902	0.252983	0.152514
9	0.341350	0.253857	0.098998	0.243528	0.417677	0.090512	0.286369	0.263555	0.259153	0.300116	0.308200	0.213662	0.329456	0.510838	0.139112	0.285562	0.500718	0.361599	0.155976	0.281804	0.367623	0.297395	0.258783	0.131576	0.195382	0.260676	0.162490	0.171980	0.328928	0.304817	0.238495	0.193163	0.251689	0.308172	0.279321	0.354479	0.331387	0.530220	0.187320	0.242538	0.294542	0.623979	0.182422	0.131089	0.492470	0.806927	0.444281	0.188791	0.273075	0.385214	0.264021	0.157830	0.508331	0.351489	0.376006	0.158190	0.125111	0.097773	0.258139	0.150934	0.355426	0.272560	0.243779	0.151613
10	0.362459	0.203690	0.105132	0.237231	0.468848	0.094358	0.294807	0.272658	0.254339	0.287542	0.297370	0.211911	0.442892	0.517587	0.137413	0.278321	0.486034	0.351775	0.173437	0.163709	0.367431	0.307333	0.242365	0.121349	0.200758	0.260182	0.167206	0.160675	0.329383	0.308222	0.242256	0.199968	0.262602	0.283470	0.270950	0.374015	0.333784	0.439155	0.190949	0.252261	0.284850	0.623179	0.255443	0.140043	0.499138	0.806082	0.452326	0.218329	0.270966	0.380487	0.249610	0.153339	0.493104	0.312598	0.364680	0.157535	0.134310	0.093155	0.220540	0.168989	0.302819	0.232403	0.245803	0.140018
11	0.353356	0.230293	0.093201	0.202061	0.447661	0.094666	0.278963	0.278832	0.243206	0.198688	0.283233	0.205319	0.450822	0.522147	0.149038	0.289896	0.477391	0.321368	0.190278	0.131221	0.401320	0.314523	0.199855	0.124090	0.194588	0.250639	0.163032	0.165073	0.336746	0.288958	0.245652	0.202133	0.199676	0.156645	0.190593	0.301319	0.306192	0.387505	0.194321	0.253847	0.249629	0.610733	0.272498	0.151033	0.500579	0.805329	0.459675	0.227238	0.262258	0.373659	0.210110	0.154636	0.396390	0.215177	0.317691	0.148420	0.317641	0.117236	0.160623	0.145562	0.274093	0.259511	0.227498	0.158496
12	0.351153	0.228574	0.083837	0.226742	0.403167	0.090404	0.261321	0.277249	0.251198	0.175941	0.220925	0.268215	0.449449	0.489808	0.147830	0.312089	0.443675	0.166186	0.210161	0.251459	0.390118	0.308792	0.191953	0.147285	0.187709	0.218251	0.135446	0.128026	0.379237	0.354951	0.250637	0.203335	0.244710	0.345914	0.080304	0.307181	0.309257	0.245237	0.202712	0.259014	0.238828	0.547610	0.321835	0.123226	0.466944	0.722975	0.454522	0.190734	0.282289	0.345220	0.159172	0.157994	0.396171	0.209952	0.300853	0.130757	0.375010	0.124681	0.267568	0.194835	0.248170	0.244342	0.207838	0.185460
13	0.496308	0.274263	0.083345	0.208016	0.406427	0.088854	0.341816	0.279360	0.245236	0.139366	0.212104	0.283518	0.457277	0.465778	0.142911	0.254985	0.342138	0.081642	0.212074	0.269141	0.389003	0.311434	0.148480	0.154325	0.164902	0.210051	0.132729	0.128341	0.379484	0.347866	0.218789	0.163968	0.264552	0.452223	0.114306	0.245393	0.278292	0.241959	0.200238	0.256297	0.241575	0.505167	0.337361	0.134614	0.418234	0.696194	0.452438	0.180887	0.277576	0.330383	0.172822	0.152474	0.304285	0.186872	0.206965	0.127609	0.375313	0.116428	0.280422	0.205172	0.190914	0.235728	0.213755	0.175889
14	0.508226	0.285606	0.151342	0.200174	0.388124	0.074362	0.343799	0.279765	0.263093	0.142429	0.188976	0.274273	0.427847	0.240600	0.139289	0.175705	0.236333	0.060519	0.203318	0.322425	0.292588	0.300468	0.144760	0.219739	0.146903	0.192604	0.145918	0.117128	0.358960	0.318488	0.191569	0.120782	0.273478	0.498315	0.130116	0.259538	0.273135	0.227094	0.195574	0.201771	0.240435	0.332317	0.332199	0.125051	0.360444	0.291622	0.377824	0.192073	0.259621	0.185174	0.195736	0.135670	0.275477	0.175385	0.170038	0.123207	0.373575	0.112621	0.311290	0.265101	0.220475	0.228162	0.214346	0.176510
15	0.482883	0.278459	0.156997	0.212198	0.385285	0.075250	0.343559	0.248831	0.252754	0.103806	0.251478	0.271702	0.482130	0.243206	0.128473	0.171626	0.165174	0.082956	0.188739	0.334916	0.315562	0.283416	0.137041	0.227481	0.150070	0.167123	0.145360	0.110785	0.358576	0.343041	0.187703	0.125690	0.247716	0.494493	0.235922	0.293311	0.224862	0.250624	0.190781	0.186358	0.196102	0.074445	0.327724	0.130731	0.278190	0.212260	0.265537	0.190905	0.246933	0.160286	0.180870	0.106234	0.246013	0.127268	0.182639	0.129430	0.384172	0.125183	0.322706	0.304835	0.221130	0.224483	0.208656	0.177361
16	0.471338	0.264222	0.155166	0.207172	0.387308	0.076517	0.323258	0.216314	0.259903	0.103471	0.297948	0.271746	0.551470	0.278556	0.128248	0.168928	0.224055	0.097723	0.159295	0.333438	0.338191	0.369990	0.130513	0.243291	0.150664	0.058209	0.103605	0.123900	0.356603	0.350976	0.190769	0.133915	0.282141	0.489319	0.251127	0.286356	0.216739	0.304967	0.191717	0.177207	0.179831	0.076431	0.324464	0.135473	0.218952	0.169561	0.206940	0.191077	0.315205	0.177338	0.182378	0.097130	0.242606	0.123872	0.175214	0.129694	0.384550	0.130564	0.320942	0.290764	0.223432	0.220643	0.149308	0.171582
17	0.454326	0.258233	0.164629	0.193428	0.352337	0.075415	0.307778	0.224785	0.243057	0.099480	0.311453	0.268422	0.444613	0.367965	0.122337	0.160271	0.232288	0.123137	0.141431	0.335839	0.381089	0.354730	0.128447	0.247793	0.099427	0.054945	0.084958	0.144349	0.325099	0.395519	0.144687	0.137700	0.241109	0.312991	0.248012	0.300628	0.225180	0.351482	0.183574	0.139682	0.176419	0.080413	0.320678	0.142329	0.231459	0.188234	0.177053	0.189484	0.348237	0.192796	0.181414	0.118047	0.244379	0.122888	0.171764	0.097748	0.334222	0.122941	0.319949	0.279749	0.232495	0.227115	0.123031	0.182965
18	0.423101	0.249605	0.167268	0.204452	0.352537	0.074500	0.310526	0.245345	0.229865	0.095650	0.316737	0.272022	0.478447	0.425880	0.073056	0.111503	0.265942	0.181476	0.131224	0.391258	0.387598	0.351513	0.121491	0.247278	0.097387	0.090333	0.080806	0.142164	0.345875	0.417198	0.116066	0.141149	0.239283	0.173589	0.249126	0.286798	0.236574	0.424838	0.150999	0.118198	0.179552	0.086683	0.285949	0.147707	0.233418	0.206918	0.144952	0.162176	0.348229	0.222165	0.194728	0.121315	0.230528	0.126074	0.188814	0.129642	0.186070	0.111654	0.278197	0.268725	0.220509	0.236009	0.112481	0.181749
19	0.422545	0.213841	0.164963	0.202926	0.235335	0.058464	0.313964	0.257168	0.289539	0.101602	0.318686	0.233909	0.482959	0.461443	0.118024	0.133869	0.285975	0.213858	0.136133	0.400485	0.349543	0.351514	0.131710	0.245438	0.112119	0.179534	0.076613	0.138286	0.336232	0.423003	0.113803	0.138249	0.230394	0.163721	0.200847	0.282192	0.241055	0.422277	0.146162	0.113840	0.177548	0.086096	0.256746	0.137760	0.229885	0.213442	0.123291	0.136863	0.394328	0.231984	0.211205	0.202994	0.159917	0.143302	0.183435	0.154943	0.190292	0.125358	0.226847	0.264391	0.298201	0.255810	0.108617	0.178442
20	0.422432	0.207774	0.169095	0.170746	0.188153	0.064125	0.332637	0.256138	0.265996	0.144123	0.317950	0.156585	0.478142	0.521904	0.138495	0.160374	0.311491	0.282528	0.140285	0.410527	0.323259	0.369232	0.126995	0.248238	0.168196	0.285668	0.086503	0.133046	0.326736	0.429431	0.103684	0.137022	0.289869	0.171903	0.381767	0.491063	0.290743	0.488119	0.127695	0.099827	0.173661	0.091324	0.171580	0.135644	0.207406	0.237012	0.109807	0.129098	0.406896	0.261231	0.197282	0.214758	0.135521	0.247197	0.188724	0.161359	0.202584	0.141317	0.184467	0.236367	0.328500	0.286556	0.096751	0.171435
21	0.273594	0.147092	0.174750	0.182210	0.185625	0.144014	0.332203	0.222601	0.262841	0.138962	0.315807	0.144520	0.470190	0.597374	0.149973	0.161849	0.289941	0.274884	0.160929	0.404575	0.316055	0.373417	0.129398	0.256929	0.199793	0.312242	0.084971	0.228886	0.287959	0.507270	0.086818	0.135439	0.243737	0.169186	0.518590	0.530460	0.291261	0.533887	0.076305	0.102438	0.189232	0.093038	0.137883	0.112199	0.209059	0.280058	0.079767	0.119170	0.405553	0.295457	0.229558	0.250939	0.163435	0.355811	0.208966	0.159863	0.192745	0.201058	0.208669	0.157179	0.335415	0.360998	0.094241	0.138097
22	0.340848	0.210188	0.143337	0.180433	0.169775	0.242895	0.283697	0.194161	0.276333	0.173537	0.248257	0.100809	0.394561	0.585760	0.167439	0.168222	0.293489	0.272193	0.180138	0.403681	0.314815	0.362195	0.150029	0.212729	0.205166	0.393975	0.084724	0.257969	0.268993	0.507391	0.086472	0.130334	0.242157	0.142439	0.535357	0.694291	0.292707	0.531432	0.072962	0.155971	0.179414	0.137000	0.137362	0.103818	0.232817	0.268539	0.078089	0.108393	0.405280	0.287118	0.238217	0.258286	0.252678	0.433954	0.202261	0.174914	0.204587	0.392921	0.327216	0.152801	0.346849	0.378980	0.086836	0.109499
23	0.345245	0.303182	0.145313	0.159527	0.153806	0.279289	0.301223	0.246234	0.270919	0.178421	0.224012	0.101478	0.307041	0.583380	0.170298	0.169613	0.308835	0.261698	0.169230	0.386378	0.255558	0.364508	0.175092	0.264486	0.201412	0.415516	0.105721	0.250126	0.275095	0.506742	0.096452	0.149713	0.310680	0.167861	0.532356	0.714068	0.294970	0.519554	0.099630	0.261578	0.183327	0.287845	0.134947	0.094768	0.245203	0.279128	0.065281	0.124517	0.331483	0.329985	0.241115	0.337698	0.294234	0.538433	0.199896	0.195955	0.243347	0.392420	0.330053	0.186326	0.322857	0.379589	0.063213	0.108216
24	0.375501	0.335735	0.186687	0.165282	0.240386	0.279127	0.290440	0.277331	0.270554	0.248844	0.143306	0.183444	0.303607	0.530245	0.175347	0.186201	0.282733	0.253028	0.153299	0.251643	0.279892	0.261477	0.181200	0.274829	0.216547	0.426108	0.106832	0.247349	0.285907	0.519643	0.088799	0.252036	0.311509	0.163389	0.528562	0.690910	0.306678	0.494645	0.103292	0.273917	0.147420	0.326215	0.138873	0.090184	0.242064	0.281529	0.053197	0.129830	0.297183	0.375256	0.276781	0.346820	0.363067	0.572529	0.184097	0.215887	0.218035	0.387940	0.333655	0.214686	0.365360	0.401435	0.085194	0.105496
25	0.444660	0.498700	0.221631	0.191637	0.246566	0.284640	0.298329	0.281725	0.387584	0.291951	0.137119	0.266977	0.197548	0.470787	0.174215	0.188416	0.315511	0.249362	0.152275	0.219883	0.256375	0.334558	0.394005	0.266061	0.228241	0.440841	0.125121	0.265923	0.287184	0.537047	0.084916	0.286564	0.234719	0.129170	0.396095	0.529656	0.306266	0.488763	0.121303	0.289258	0.146457	0.368502	0.123418	0.083748	0.225833	0.273281	0.067118	0.134712	0.294064	0.371641	0.250634	0.405125	0.373040	0.587072	0.193347	0.238073	0.224073	0.382984	0.325429	0.205200	0.442557	0.466987	0.104237	0.133750
26	0.459522	0.500512	0.241262	0.267211	0.320442	0.326808	0.307009	0.292016	0.428085	0.511344	0.111013	0.270207	0.199019	0.427244	0.204208	0.137491	0.304768	0.189398	0.150981	0.105836	0.246791	0.350394	0.436732	0.266627	0.219152	0.408383	0.259881	0.270876	0.275660	0.501470	0.088116	0.284561	0.240645	0.140076	0.115861	0.411763	0.271690	0.426199	0.125703	0.329735	0.167144	0.369571	0.169016	0.164529	0.208241	0.288674	0.099635	0.145974	0.153709	0.360640	0.248616	0.390288	0.371759	0.598336	0.174000	0.249821	0.211030	0.384654	0.322338	0.283060	0.455057	0.496106	0.107901	0.296863
27	0.471571	0.502918	0.246983	0.274074	0.345249	0.481528	0.300736	0.283639	0.437148	0.509523	0.145689	0.310105	0.202750	0.359594	0.221437	0.147193	0.290966	0.250771	0.255932	0.135821	0.300593	0.341629	0.519728	0.263980	0.187843	0.368052	0.286634	0.286999	0.244366	0.489679	0.087318	0.285628	0.182998	0.130785	0.111414	0.109866	0.278778	0.403689	0.133967	0.342899	0.169579	0.379066	0.182487	0.193229	0.202262	0.337222	0.160278	0.193159	0.128915	0.342195	0.249714	0.470031	0.369683	0.597709	0.179616	0.233069	0.207904	0.367782	0.348801	0.312283	0.473491	0.524197	0.111646	0.494771
28	0.471130	0.504128	0.303780	0.319271	0.426381	0.481929	0.289507	0.264382	0.440541	0.504485	0.144835	0.329369	0.185886	0.270362	0.317209	0.179841	0.227788	0.248836	0.409938	0.379446	0.305991	0.323464	0.523253	0.258558	0.159431	0.383863	0.453557	0.248894	0.233127	0.501756	0.107007	0.286506	0.191927	0.289517	0.115889	0.133151	0.223654	0.311750	0.140743	0.343090	0.178267	0.396337	0.183446	0.204177	0.213153	0.353031	0.166892	0.204064	0.120196	0.305439	0.241105	0.466534	0.376392	0.574350	0.185219	0.240141	0.176732	0.144767	0.260262	0.392015	0.444440	0.539085	0.111437	0.506760
29	0.444315	0.498797	0.320965	0.326716	0.431435	0.482098	0.271072	0.271866	0.437950	0.494958	0.149962	0.329802	0.209125	0.353504	0.442453	0.188396	0.220593	0.242961	0.467824	0.454990	0.306967	0.312828	0.538648	0.268542	0.187734	0.308638	0.465690	0.227777	0.251758	0.508742	0.143884	0.326070	0.315911	0.423061	0.115029	0.153550	0.239395	0.229071	0.172599	0.346472	0.158126	0.395692	0.214876	0.205448	0.226770	0.342299	0.199062	0.270669	0.120532	0.287986	0.250928	0.494775	0.361144	0.553230	0.187019	0.267967	0.110831	0.124412	0.254205	0.397830	0.454519	0.539346	0.121161	0.577031
30	0.336749	0.475197	0.312812	0.343794	0.460997	0.471232	0.278611	0.312239	0.438076	0.506528	0.166652	0.328436	0.198999	0.347959	0.501759	0.188620	0.227255	0.214867	0.477089	0.620633	0.305835	0.317592	0.544386	0.282916	0.208065	0.294522	0.477382	0.249061	0.266648	0.380880	0.193348	0.339745	0.440606	0.445773	0.142811	0.173998	0.266788	0.254839	0.322877	0.353394	0.159333	0.382842	0.220093	0.212235	0.224571	0.354432	0.236015	0.360175	0.142825	0.233796	0.315053	0.502779	0.345846	0.446965	0.230838	0.273593	0.102367	0.119812	0.278774	0.389217	0.467336	0.456347	0.157530	0.669470
31	0.331869	0.437867	0.334558	0.359966	0.476532	0.435730	0.236271	0.313556	0.440690	0.504652	0.188704	0.324870	0.223771	0.344019	0.632480	0.187951	0.155927	0.194623	0.474146	0.647261	0.311223	0.365716	0.533971	0.226448	0.244248	0.282722	0.488549	0.263854	0.271557	0.412091	0.201903	0.391054	0.436489	0.444846	0.159755	0.199194	0.263551	0.289418	0.443442	0.353400	0.170161	0.291316	0.243452	0.216583	0.321414	0.366229	0.237303	0.377876	0.119868	0.137628	0.320435	0.494594	0.273648	0.307738	0.239971	0.262568	0.063680	0.122208	0.277472	0.510272	0.456428	0.436527	0.220003	0.701444
32	0.296749	0.441562	0.347464	0.367849	0.488849	0.413586	0.195135	0.278970	0.419484	0.481702	0.191546	0.234663	0.233596	0.355623	0.630316	0.259485	0.155065	0.183768	0.471517	0.644496	0.271049	0.431439	0.532184	0.201728	0.268993	0.256955	0.495762	0.242291	0.237512	0.410278	0.220162	0.441173	0.438476	0.442197	0.144677	0.181100	0.250295	0.310212	0.515990	0.346665	0.184945	0.251290	0.254555	0.219507	0.335459	0.358960	0.257785	0.414880	0.120771	0.114388	0.361489	0.457895	0.203075	0.223978	0.298861	0.248221	0.065630	0.124980	0.267822	0.560490	0.454188	0.435356	0.247562	0.704028
33	0.182707	0.329571	0.355001	0.375833	0.455487	0.413829	0.200124	0.247148	0.315587	0.385446	0.214448	0.212701	0.247103	0.354449	0.625026	0.270152	0.160141	0.138727	0.370836	0.633660	0.309992	0.548336	0.452484	0.234558	0.268094	0.260455	0.445164	0.237921	0.235054	0.397199	0.334600	0.390671	0.390088	0.341218	0.129224	0.158846	0.219701	0.303818	0.526752	0.361875	0.188559	0.182282	0.341094	0.221982	0.338053	0.367631	0.403507	0.506475	0.122630	0.112477	0.376036	0.525107	0.158193	0.228237	0.333188	0.254510	0.098300	0.170641	0.249782	0.542175	0.440410	0.436632	0.320083	0.710263
34	0.240823	0.355900	0.360564	0.337528	0.448191	0.410217	0.202178	0.256628	0.302293	0.233796	0.210512	0.175747	0.247037	0.310480	0.598810	0.262007	0.204005	0.196390	0.231638	0.534868	0.312519	0.535369	0.399096	0.247654	0.292710	0.260494	0.455027	0.214291	0.237229	0.371460	0.423409	0.392298	0.315558	0.297989	0.191653	0.166791	0.219708	0.303198	0.533286	0.358718	0.165959	0.177285	0.361798	0.301327	0.367743	0.354062	0.417115	0.534694	0.155253	0.118087	0.380104	0.476410	0.151670	0.168492	0.330885	0.245432	0.136818	0.173278	0.202384	0.505378	0.389059	0.378000	0.325245	0.712403
35	0.219416	0.355409	0.444978	0.328845	0.402774	0.388896	0.186403	0.261952	0.310414	0.245881	0.255867	0.146928	0.240029	0.289348	0.559969	0.232674	0.320635	0.359722	0.110575	0.460768	0.272439	0.540552	0.336126	0.278202	0.300008	0.204569	0.302776	0.189772	0.261470	0.372610	0.499134	0.470108	0.347964	0.415973	0.378920	0.229603	0.204996	0.307045	0.536299	0.383064	0.178997	0.156843	0.384831	0.325504	0.404364	0.313004	0.440136	0.536053	0.231182	0.142141	0.360589	0.487502	0.157479	0.150686	0.329410	0.238167	0.207533	0.234178	0.187433	0.497352	0.333476	0.349834	0.334106	0.691100
36	0.220717	0.351729	0.421488	0.325462	0.377895	0.133578	0.203441	0.256656	0.296674	0.245716	0.304053	0.393657	0.202050	0.176755	0.438903	0.232994	0.449679	0.494645	0.061882	0.441833	0.285742	0.588758	0.333919	0.530767	0.281428	0.189290	0.292127	0.198264	0.263285	0.361013	0.622286	0.486744	0.349063	0.414213	0.469805	0.226923	0.279881	0.306263	0.534901	0.400064	0.206351	0.096438	0.413493	0.370109	0.401988	0.292264	0.485108	0.600316	0.250792	0.176680	0.350870	0.499153	0.150658	0.151120	0.352381	0.265667	0.236727	0.332920	0.183472	0.506013	0.323819	0.270401	0.341158	0.562128
37	0.223643	0.346680	0.455793	0.370889	0.271262	0.129532	0.206986	0.295682	0.287305	0.238246	0.380616	0.421471	0.187476	0.123324	0.343492	0.242434	0.444893	0.498036	0.086565	0.434353	0.290996	0.673463	0.367076	0.536426	0.265627	0.185756	0.263549	0.163022	0.265203	0.347452	0.631548	0.492253	0.374654	0.408635	0.485525	0.256494	0.270886	0.308676	0.527336	0.422010	0.209999	0.094707	0.499368	0.482822	0.407868	0.253043	0.476532	0.604789	0.271894	0.208298	0.284366	0.458191	0.168413	0.168205	0.353758	0.269284	0.236999	0.344638	0.175549	0.412289	0.296833	0.248152	0.349976	0.560198
38	0.222768	0.335341	0.474414	0.365932	0.267206	0.139174	0.203404	0.315063	0.352622	0.207449	0.384020	0.489995	0.136867	0.103530	0.108841	0.213383	0.445206	0.493080	0.110433	0.498279	0.372493	0.784070	0.351040	0.606193	0.213251	0.207082	0.252411	0.126072	0.248576	0.320284	0.654452	0.492432	0.358964	0.335803	0.485153	0.257206	0.284569	0.290996	0.455235	0.447614	0.253406	0.106482	0.517067	0.526731	0.404997	0.236886	0.457786	0.556089	0.281160	0.243724	0.251896	0.456444	0.179035	0.193509	0.319264	0.257406	0.302043	0.345208	0.237119	0.284840	0.273577	0.236480	0.365528	0.718238
39	0.217613	0.311659	0.458515	0.355739	0.254226	0.134705	0.211465	0.286117	0.357418	0.208820	0.407582	0.528232	0.134786	0.114371	0.095263	0.116019	0.457951	0.557245	0.111532	0.522828	0.389760	0.773291	0.356931	0.772532	0.171740	0.209656	0.250351	0.147671	0.206356	0.263135	0.644214	0.527575	0.299823	0.197086	0.451197	0.196561	0.295424	0.253857	0.331040	0.402123	0.260756	0.089278	0.510829	0.528681	0.321004	0.191169	0.456225	0.531117	0.295432	0.316426	0.174509	0.440292	0.171653	0.204858	0.309751	0.250897	0.313936	0.343801	0.264470	0.271035	0.174418	0.218041	0.351616	0.653884
40	0.216148	0.268728	0.438476	0.340986	0.234140	0.120748	0.209714	0.283028	0.346936	0.199515	0.414140	0.538039	0.291763	0.146565	0.095931	0.099855	0.467639	0.547107	0.111794	0.518382	0.417598	0.729885	0.370735	0.826035	0.172773	0.209162	0.247873	0.161048	0.192143	0.222003	0.642378	0.506850	0.297642	0.137636	0.323704	0.166395	0.303545	0.220674	0.197305	0.396311	0.251584	0.118927	0.504855	0.530412	0.281887	0.178623	0.451107	0.509479	0.301703	0.322456	0.105698	0.329231	0.171219	0.235988	0.268801	0.249002	0.307115	0.433152	0.260225	0.282068	0.224917	0.223079	0.341730	0.668249
41	0.216891	0.149936	0.418022	0.340094	0.215851	0.109585	0.211359	0.281319	0.311696	0.156169	0.411883	0.545722	0.318221	0.199847	0.102864	0.141871	0.400355	0.460409	0.155593	0.516906	0.366037	0.613248	0.351408	0.820540	0.167848	0.209663	0.176889	0.159408	0.191729	0.207219	0.635056	0.464919	0.294991	0.192539	0.145093	0.121374	0.323852	0.171523	0.150664	0.368597	0.247051	0.162451	0.451581	0.540399	0.277179	0.147883	0.328539	0.420053	0.300971	0.321384	0.078204	0.296915	0.149113	0.218617	0.225771	0.235575	0.281190	0.430445	0.286451	0.329055	0.241261	0.204642	0.344084	0.787466
42	0.114117	0.061723	0.398962	0.330973	0.215051	0.107654	0.204119	0.284894	0.265218	0.124040	0.412964	0.560020	0.372804	0.274258	0.103396	0.149934	0.444937	0.320382	0.527290	0.480951	0.362261	0.597136	0.337626	0.815898	0.174809	0.224321	0.154493	0.140648	0.174907	0.141863	0.572678	0.569540	0.261362	0.200404	0.137324	0.109163	0.362194	0.177537	0.121550	0.336327	0.277044	0.171856	0.425152	0.480467	0.254351	0.137662	0.293694	0.371433	0.287284	0.339711	0.039011	0.255810	0.142262	0.205239	0.174674	0.201100	0.238219	0.365139	0.288430	0.334539	0.302734	0.217032	0.291470	0.842814
43	0.114071	0.053320	0.305222	0.328729	0.208334	0.106613	0.184411	0.277177	0.275269	0.204536	0.404312	0.489315	0.423805	0.313712	0.105135	0.153099	0.450935	0.315617	0.574963	0.470096	0.354485	0.595052	0.266141	0.813844	0.214344	0.328422	0.149218	0.129126	0.188535	0.145972	0.528284	0.583998	0.267310	0.214736	0.132276	0.113710	0.395868	0.223004	0.094022	0.294625	0.342419	0.194171	0.403882	0.453690	0.190970	0.119625	0.239644	0.356336	0.271026	0.344078	0.011600	0.140147	0.134238	0.194382	0.170609	0.205275	0.261732	0.369458	0.294800	0.335300	0.346830	0.232674	0.242688	0.843801
44	0.110138	0.062446	0.290826	0.291964	0.204427	0.103560	0.175675	0.254551	0.285549	0.271460	0.325860	0.389439	0.461360	0.320695	0.258127	0.218236	0.451233	0.313504	0.752661	0.478253	0.337231	0.552041	0.253195	0.680143	0.219453	0.377094	0.147226	0.130501	0.204424	0.161866	0.442543	0.536906	0.240978	0.227335	0.123084	0.097954	0.344943	0.251068	0.092156	0.274050	0.349627	0.216489	0.377764	0.413037	0.284983	0.125227	0.076077	0.224785	0.244247	0.419816	0.033377	0.082631	0.133517	0.194345	0.135349	0.181389	0.239726	0.379881	0.263245	0.322959	0.350577	0.222264	0.238590	0.842434
45	0.121131	0.062340	0.213909	0.210508	0.196569	0.103599	0.151090	0.256915	0.391550	0.384946	0.288672	0.360517	0.462840	0.315109	0.409690	0.236467	0.507604	0.336177	0.770982	0.502795	0.335799	0.434711	0.168892	0.658363	0.236890	0.385982	0.132389	0.126039	0.219462	0.166829	0.317647	0.563149	0.192044	0.280809	0.095765	0.097463	0.334685	0.273092	0.079191	0.234159	0.412377	0.274519	0.233239	0.272003	0.266864	0.237061	0.046546	0.107630	0.242920	0.394876	0.048675	0.098789	0.105047	0.185600	0.057208	0.109993	0.221998	0.419885	0.239076	0.288423	0.353235	0.219998	0.221372	0.842219
46	0.156752	0.062410	0.175114	0.194456	0.193406	0.103603	0.145940	0.213781	0.403275	0.476966	0.222007	0.305964	0.483577	0.317729	0.423782	0.254067	0.514372	0.401691	0.775765	0.504642	0.240644	0.231366	0.150991	0.608304	0.247625	0.394260	0.070072	0.292426	0.224308	0.155247	0.299636	0.576535	0.208935	0.393414	0.083179	0.069344	0.316069	0.276449	0.052511	0.112830	0.576209	0.305441	0.193432	0.166802	0.250277	0.246276	0.042094	0.082009	0.251812	0.516799	0.115787	0.122740	0.072666	0.164173	0.052275	0.077696	0.214392	0.320047	0.242159	0.333351	0.356951	0.207185	0.208718	0.840857
47	0.162357	0.064328	0.178576	0.205484	0.179862	0.088000	0.137503	0.159579	0.420752	0.505655	0.209130	0.313480	0.418792	0.311803	0.427505	0.259037	0.514933	0.423882	0.786573	0.490117	0.207394	0.100759	0.136191	0.379982	0.270943	0.391033	0.078321	0.415822	0.232738	0.150112	0.240571	0.551408	0.194365	0.408969	0.092368	0.076579	0.362822	0.316972	0.051554	0.063063	0.603020	0.372232	0.186031	0.157279	0.249275	0.351477	0.039589	0.081781	0.242979	0.555445	0.161928	0.125516	0.064552	0.155106	0.061116	0.077188	0.213015	0.296414	0.429833	0.381267	0.362776	0.202332	0.198736	0.711441
48	0.167577	0.069846	0.219082	0.204721	0.119376	0.064066	0.100745	0.135602	0.448780	0.511647	0.180623	0.308141	0.403076	0.266665	0.620365	0.294369	0.350263	0.441114	0.608804	0.384888	0.135388	0.122331	0.092365	0.168706	0.286146	0.399106	0.079995	0.420103	0.239292	0.133096	0.241050	0.511199	0.222884	0.399079	0.082737	0.072133	0.362443	0.341825	0.053505	0.062418	0.605429	0.365356	0.189426	0.145709	0.266726	0.450122	0.035006	0.079688	0.319225	0.758143	0.180898	0.126211	0.062106	0.204671	0.068736	0.075326	0.225062	0.255186	0.454171	0.355601	0.365374	0.201905	0.189385	0.641362
49	0.164714	0.144395	0.210482	0.170139	0.133776	0.237904	0.137801	0.134362	0.471733	0.546815	0.148952	0.279610	0.395814	0.207097	0.753844	0.401321	0.358185	0.453039	0.584651	0.380921	0.131758	0.124731	0.059215	0.151739	0.273880	0.392125	0.090384	0.422105	0.238093	0.127877	0.240268	0.494174	0.237304	0.386433	0.101811	0.106136	0.352843	0.333727	0.053722	0.064280	0.755821	0.402099	0.188155	0.094038	0.311646	0.466904	0.029747	0.059661	0.323050	0.779591	0.189009	0.123558	0.173330	0.248799	0.108832	0.074513	0.196462	0.250228	0.453477	0.428872	0.354063	0.214816	0.195522	0.624926
50	0.164598	0.171407	0.215189	0.162084	0.395437	0.599234	0.168499	0.208390	0.486532	0.573905	0.110939	0.265719	0.348836	0.307024	0.768604	0.417119	0.354268	0.445238	0.377589	0.290451	0.142070	0.136183	0.055952	0.172540	0.255433	0.335911	0.266268	0.478262	0.238460	0.150126	0.238760	0.483304	0.235457	0.388902	0.106024	0.125048	0.320634	0.344124	0.081058	0.097214	0.788568	0.413517	0.143441	0.074139	0.306749	0.479141	0.036291	0.030732	0.339271	0.778440	0.209941	0.127138	0.226784	0.283537	0.129028	0.146060	0.188673	0.331840	0.484639	0.469712	0.334939	0.220882	0.135897	0.493305
51	0.195873	0.172264	0.207387	0.169677	0.767199	0.875610	0.177526	0.306246	0.480322	0.590860	0.110858	0.274332	0.368935	0.484215	0.707561	0.392185	0.237835	0.326031	0.367988	0.244355	0.156783	0.159710	0.059470	0.168727	0.259895	0.281322	0.293924	0.496803	0.252482	0.181060	0.232724	0.338912	0.280546	0.360456	0.098768	0.125687	0.290466	0.325407	0.107172	0.297037	0.759102	0.409014	0.129306	0.081501	0.322329	0.498816	0.035580	0.024130	0.343733	0.737607	0.229102	0.157231	0.238449	0.309101	0.142871	0.285469	0.151758	0.274276	0.480235	0.473333	0.300138	0.200196	0.121787	0.293613
52	0.247509	0.195495	0.195270	0.163111	0.860442	1.106645	0.215108	0.334338	0.449372	0.556722	0.121757	0.274156	0.367786	0.500883	0.660282	0.386501	0.175833	0.299043	0.349951	0.239572	0.167897	0.163296	0.093505	0.173529	0.260972	0.246944	0.308898	0.497689	0.265845	0.253549	0.222641	0.301042	0.311121	0.541877	0.132415	0.288472	0.307011	0.321454	0.167368	0.361922	0.745081	0.399762	0.116055	0.078387	0.256116	0.502333	0.037640	0.048790	0.358474	0.733457	0.257716	0.144034	0.260522	0.449335	0.153123	0.303345	0.149036	0.268422	0.550526	0.493662	0.227586	0.217421	0.128770	0.251619
53	0.264011	0.242831	0.192891	0.228712	0.969851	1.116324	0.223966	0.351609	0.339230	0.447061	0.119251	0.250867	0.295424	0.497712	0.653531	0.372166	0.195129	0.283527	0.299200	0.228845	0.164199	0.173342	0.107056	0.172136	0.253588	0.228282	0.520647	0.404405	0.265199	0.374273	0.194329	0.296659	0.323562	0.543285	0.286515	0.339049	0.320914	0.309357	0.180221	0.363959	0.715204	0.377976	0.106243	0.080959	0.269335	0.470679	0.123064	0.167459	0.356077	0.705921	0.313911	0.128928	0.331022	0.453170	0.248714	0.309033	0.187251	0.270933	0.460950	0.442263	0.193808	0.403644	0.125681	0.263114
54	0.278812	0.351453	0.206464	0.302985	1.023380	1.117130	0.268730	0.387961	0.339495	0.410093	0.126535	0.189221	0.290122	0.496406	0.643206	0.366861	0.277742	0.408904	0.286180	0.182433	0.185137	0.171792	0.110331	0.161902	0.222335	0.223225	0.560685	0.302300	0.292461	0.386954	0.122303	0.220571	0.344170	0.532335	0.277492	0.387866	0.320376	0.303008	0.268471	0.414904	0.669141	0.413259	0.103708	0.124058	0.326648	0.486274	0.206030	0.242451	0.404771	0.736183	0.327937	0.158714	0.342999	0.457962	0.258984	0.329282	0.182253	0.271899	0.432535	0.444786	0.177341	0.427547	0.125772	0.267269
55	0.289188	0.367583	0.304481	0.468805	1.045632	1.117202	0.310369	0.425526	0.284936	0.374943	0.180792	0.201000	0.282781	0.494402	0.399842	0.299785	0.390044	0.521224	0.225151	0.181689	0.197750	0.195750	0.138698	0.166905	0.206788	0.171355	0.606674	0.306398	0.287360	0.480342	0.114460	0.168480	0.390524	0.475658	0.346835	0.517600	0.285944	0.271665	0.327771	0.448907	0.660673	0.367376	0.097827	0.127856	0.427237	0.434240	0.281372	0.254613	0.438769	0.583596	0.362171	0.152878	0.344472	0.453231	0.260555	0.364571	0.188394	0.269190	0.493007	0.417464	0.218735	0.435771	0.122185	0.264927
56	0.302887	0.421004	0.486780	0.479858	1.053669	1.117370	0.324907	0.436818	0.242620	0.366446	0.231666	0.204277	0.217616	0.482641	0.222272	0.163439	0.438125	0.545586	0.134691	0.163937	0.192914	0.199770	0.202728	0.189613	0.257070	0.171631	0.666967	0.327230	0.277675	0.482107	0.113125	0.179232	0.338702	0.375462	0.357318	0.533123	0.356756	0.285095	0.426760	0.451347	0.678098	0.373279	0.085675	0.144821	0.429627	0.336559	0.282371	0.283704	0.487149	0.542236	0.458758	0.174531	0.347897	0.432344	0.303620	0.370409	0.158858	0.135781	0.472480	0.363687	0.213337	0.439318	0.137935	0.271159
57	0.308077	0.414716	0.518042	0.492007	1.054674	1.117573	0.333717	0.437528	0.227670	0.351100	0.272652	0.222874	0.191915	0.412476	0.191513	0.110436	0.440250	0.564967	0.125666	0.146150	0.191946	0.210830	0.219674	0.187248	0.253367	0.118660	0.648230	0.254005	0.278921	0.503383	0.115718	0.183096	0.306208	0.063639	0.319160	0.447652	0.369436	0.295471	0.466517	0.452197	0.527136	0.316680	0.078698	0.154116	0.403220	0.296760	0.294908	0.306693	0.494817	0.530958	0.479938	0.220297	0.330603	0.413624	0.338895	0.378945	0.185405	0.075787	0.467967	0.351338	0.231041	0.460757	0.147795	0.332712
58	0.304333	0.405072	0.575804	0.500318	1.050679	1.100644	0.431871	0.481851	0.295640	0.235269	0.273272	0.248888	0.058041	0.122746	0.178628	0.097046	0.439259	0.546752	0.143848	0.148071	0.188985	0.202525	0.222444	0.174729	0.273178	0.168149	0.638885	0.224511	0.280690	0.535995	0.122239	0.199264	0.271129	0.133551	0.237490	0.432809	0.368369	0.296358	0.479775	0.470568	0.467783	0.299721	0.271889	0.292415	0.429549	0.287341	0.304763	0.316227	0.494374	0.526568	0.483829	0.211970	0.297929	0.403672	0.429910	0.387111	0.207696	0.095971	0.421969	0.316781	0.244251	0.478333	0.142031	0.331180
59	0.288683	0.404219	0.593668	0.547388	0.989449	0.963247	0.516531	0.509827	0.302507	0.219997	0.342028	0.244796	0.068437	0.101604	0.194939	0.091979	0.425067	0.575953	0.159734	0.166168	0.176152	0.188468	0.230905	0.222006	0.267633	0.190758	0.631252	0.222927	0.284729	0.528921	0.143620	0.246810	0.208539	0.137369	0.230669	0.313512	0.372023	0.282711	0.479496	0.384074	0.468034	0.293015	0.286323	0.433872	0.451454	0.296890	0.342292	0.347757	0.479794	0.525008	0.465872	0.212424	0.271344	0.420646	0.530709	0.339829	0.187003	0.138617	0.332961	0.295952	0.239941	0.481365	0.166687	0.312741
60	0.249175	0.393190	0.602205	0.559540	0.756726	0.765455	0.534712	0.471933	0.298455	0.208455	0.362984	0.255843	0.070786	0.076908	0.192939	0.084366	0.365530	0.495960	0.172748	0.184887	0.155208	0.187893	0.225089	0.219974	0.283597	0.224546	0.466618	0.225149	0.268777	0.519910	0.388837	0.338136	0.251604	0.156538	0.092718	0.119297	0.387038	0.274955	0.487397	0.346614	0.479471	0.296964	0.321247	0.437380	0.543299	0.326866	0.361726	0.357383	0.474631	0.384515	0.417932	0.210288	0.270951	0.300453	0.568499	0.296593	0.186837	0.195455	0.369403	0.331823	0.239575	0.483379	0.171385	0.349602
61	0.243904	0.366502	0.630050	0.550552	0.663023	0.212669	0.597182	0.446839	0.300775	0.236676	0.383190	0.279087	0.069499	0.075061	0.150597	0.092836	0.252438	0.391620	0.212443	0.171202	0.155184	0.183319	0.227974	0.254393	0.312977	0.308457	0.432364	0.217909	0.248949	0.469968	0.548410	0.473179	0.337353	0.219177	0.141662	0.104270	0.384521	0.333473	0.572542	0.383629	0.472547	0.276260	0.449679	0.459510	0.556668	0.398177	0.349500	0.335155	0.426487	0.249995	0.389500	0.185852	0.178236	0.287558	0.673030	0.312202	0.226070	0.195582	0.281604	0.293883	0.249733	0.481626	0.168124	0.362657
62	0.231365	0.269403	0.633639	0.521608	0.499249	0.213232	0.602527	0.458239	0.304288	0.240373	0.526836	0.252018	0.106124	0.116870	0.141159	0.186637	0.214516	0.354309	0.236264	0.164752	0.147238	0.169768	0.262857	0.305147	0.308124	0.306253	0.365228	0.213339	0.203729	0.395504	0.564384	0.515493	0.351864	0.311581	0.213303	0.105529	0.435518	0.340775	0.545215	0.343834	0.319953	0.175576	0.585984	0.562027	0.524927	0.358559	0.390635	0.308141	0.295025	0.092940	0.352429	0.187636	0.157387	0.279986	0.778123	0.334858	0.281408	0.211758	0.346000	0.325133	0.243073	0.417954	0.238449	0.445855
63	0.225242	0.247353	0.605594	0.372055	0.389593	0.211418	0.590722	0.455140	0.317446	0.239714	0.544513	0.274098	0.120976	0.187157	0.247284	0.207051	0.208932	0.344796	0.588125	0.212003	0.194763	0.160818	0.261712	0.313699	0.268914	0.305737	0.227619	0.166575	0.183738	0.375304	0.623789	0.569304	0.390875	0.298724	0.277541	0.083505	0.432165	0.347560	0.528182	0.300290	0.269874	0.146190	0.599522	0.588377	0.445892	0.357470	0.391102	0.325376	0.199734	0.088474	0.226271	0.234340	0.174898	0.281752	0.792007	0.326487	0.277361	0.240646	0.344449	0.354087	0.240145	0.325438	0.296680	0.472530
64	0.205118	0.143092	0.451335	0.357569	0.332663	0.564553	0.582129	0.443761	0.325620	0.208058	0.527929	0.286348	0.117095	0.204706	0.322818	0.229328	0.208771	0.351815	0.614964	0.263205	0.198016	0.169377	0.209490	0.297733	0.296670	0.303379	0.136025	0.139465	0.220536	0.254635	0.729174	0.717738	0.489468	0.312664	0.355880	0.112763	0.373536	0.315345	0.453776	0.298073	0.214951	0.119591	0.631288	0.586518	0.433770	0.359252	0.403305	0.303362	0.151959	0.092738	0.184135	0.210605	0.201604	0.284802	0.790140	0.303861	0.299615	0.273728	0.345642	0.355239	0.219285	0.287418	0.303220	0.472445
65	0.196314	0.108286	0.416036	0.338556	0.387160	0.844566	0.577436	0.448808	0.236935	0.196668	0.525556	0.235880	0.167185	0.206167	0.524518	0.273461	0.233858	0.275973	0.714445	0.246630	0.195306	0.157214	0.320142	0.310315	0.277901	0.288130	0.158218	0.187335	0.238423	0.261600	0.765775	0.848156	0.504353	0.443279	0.442381	0.268259	0.350390	0.313636	0.415807	0.296503	0.143122	0.113507	0.689036	0.585675	0.433134	0.355287	0.401134	0.279797	0.144481	0.122283	0.157857	0.215679	0.197644	0.282342	0.766542	0.300287	0.300765	0.256849	0.349724	0.342429	0.190488	0.277468	0.327567	0.480253
66	0.191544	0.106029	0.345120	0.334999	0.453276	0.980414	0.574324	0.450767	0.219798	0.194950	0.495665	0.232274	0.184940	0.222550	0.570327	0.276712	0.239768	0.228155	0.801514	0.258246	0.208245	0.166058	0.369413	0.317344	0.275099	0.290536	0.151215	0.199753	0.271392	0.227785	0.765687	0.886409	0.476119	0.382919	0.553866	0.290537	0.358969	0.314241	0.395410	0.256182	0.137635	0.108501	0.704262	0.551591	0.407617	0.348457	0.389738	0.271834	0.133032	0.142786	0.163559	0.221615	0.229521	0.301639	0.750906	0.283902	0.290685	0.230024	0.337586	0.288434	0.188500	0.265272	0.332097	0.451464
67	0.179994	0.116477	0.317692	0.261768	0.533527	1.079076	0.509133	0.429887	0.211488	0.196804	0.482015	0.238068	0.193662	0.243423	0.613025	0.276663	0.235274	0.210846	0.808032	0.284112	0.237132	0.179339	0.375767	0.282225	0.290102	0.312604	0.168364	0.223793	0.284641	0.156934	0.764932	0.883551	0.488959	0.369892	0.600071	0.390327	0.344707	0.314546	0.389882	0.245939	0.174618	0.115711	0.722228	0.475929	0.380205	0.300616	0.365225	0.227066	0.146613	0.146225	0.166771	0.228784	0.248172	0.222155	0.650688	0.248094	0.262692	0.216384	0.328212	0.278416	0.199454	0.219488	0.332207	0.443328
68	0.187886	0.133769	0.317237	0.234260	0.543807	1.091079	0.406519	0.365668	0.221313	0.162860	0.470470	0.254878	0.192037	0.257333	0.614634	0.286079	0.221241	0.196169	0.799940	0.280409	0.238337	0.179461	0.402475	0.277047	0.268104	0.241469	0.154996	0.247304	0.281593	0.156992	0.760412	0.873454	0.451221	0.603814	0.589371	0.415479	0.313821	0.320799	0.356292	0.211778	0.181203	0.111405	0.707639	0.475347	0.223473	0.276343	0.343121	0.215977	0.148048	0.142467	0.165413	0.231703	0.251628	0.204558	0.636317	0.241221	0.215012	0.210222	0.242093	0.320674	0.214188	0.202015	0.350808	0.495656
69	0.186794	0.153269	0.281184	0.193690	0.543031	1.094318	0.390276	0.341603	0.260542	0.287189	0.395503	0.266558	0.174895	0.223233	0.616238	0.280158	0.224484	0.169136	0.588608	0.226244	0.252945	0.185273	0.414207	0.246831	0.277641	0.250958	0.159336	0.241341	0.280713	0.157052	0.653672	0.840370	0.319802	0.587499	0.512185	0.387126	0.300245	0.247000	0.180220	0.124557	0.199950	0.115352	0.633231	0.452706	0.104405	0.100876	0.340854	0.199636	0.147471	0.136980	0.196537	0.247360	0.254133	0.162098	0.542673	0.221905	0.223123	0.175524	0.264301	0.299621	0.214326	0.173602	0.387106	0.525859
70	0.222409	0.168976	0.273423	0.159383	0.498916	1.092659	0.255480	0.338333	0.290888	0.406774	0.240970	0.249382	0.170837	0.176975	0.686999	0.279785	0.227551	0.237472	0.606151	0.219600	0.249050	0.186539	0.391385	0.178179	0.300638	0.288446	0.178780	0.261869	0.297502	0.163992	0.553459	0.771929	0.253581	0.542881	0.498806	0.387133	0.207981	0.234994	0.150920	0.076238	0.201536	0.100446	0.509547	0.302019	0.099269	0.109365	0.284396	0.170045	0.137479	0.135562	0.184543	0.222872	0.242941	0.154712	0.317074	0.179545	0.179325	0.137787	0.281526	0.287448	0.203096	0.164285	0.393206	0.516434
71	0.379638	0.318468	0.247663	0.163094	0.508228	1.082911	0.229961	0.310134	0.277582	0.414015	0.210830	0.230216	0.167196	0.165090	0.634169	0.302487	0.200671	0.236288	0.459734	0.219560	0.199102	0.172384	0.385624	0.143419	0.267647	0.289186	0.254003	0.257812	0.317371	0.244501	0.533351	0.747211	0.227180	0.545392	0.299893	0.375662	0.182838	0.209376	0.077701	0.090356	0.205063	0.131139	0.498345	0.255702	0.109547	0.101255	0.169088	0.091923	0.136975	0.119611	0.216868	0.229872	0.222931	0.147861	0.170823	0.108888	0.193186	0.115513	0.347533	0.331438	0.201381	0.143396	0.390900	0.479661
72	0.390500	0.332790	0.243632	0.172969	0.502640	1.083219	0.226865	0.263158	0.272673	0.444235	0.194357	0.234115	0.130510	0.157810	0.568063	0.299363	0.191432	0.271713	0.339069	0.192881	0.188029	0.144875	0.385201	0.142023	0.270625	0.279137	0.262671	0.241578	0.308126	0.252664	0.451521	0.696060	0.194414	0.442865	0.258404	0.292218	0.181413	0.207965	0.063509	0.086097	0.213482	0.258120	0.468220	0.256749	0.104010	0.079076	0.132565	0.082850	0.133628	0.104707	0.226822	0.218933	0.189292	0.143429	0.164381	0.078004	0.236484	0.107587	0.470560	0.382751	0.199076	0.126786	0.321745	0.406706
73	0.403204	0.336090	0.267983	0.173136	0.495954	0.975908	0.190264	0.217483	0.317896	0.482229	0.194386	0.233955	0.135446	0.150036	0.523605	0.314869	0.190639	0.260824	0.315926	0.172526	0.189166	0.130706	0.306577	0.111289	0.273543	0.302468	0.291797	0.241817	0.274977	0.266541	0.241838	0.532642	0.155103	0.194912	0.266941	0.296353	0.181435	0.203720	0.058028	0.085608	0.395050	0.262066	0.378381	0.255851	0.171978	0.079810	0.117012	0.083330	0.159021	0.146259	0.273618	0.225416	0.179925	0.131315	0.155112	0.077047	0.252332	0.103672	0.491385	0.425690	0.197745	0.131475	0.311229	0.403499
74	0.404119	0.348334	0.256712	0.199722	0.443316	0.723924	0.178271	0.174158	0.336696	0.537222	0.187046	0.231481	0.156205	0.139938	0.520350	0.316898	0.197202	0.282344	0.315505	0.194765	0.185884	0.124156	0.215208	0.070561	0.280916	0.255796	0.486741	0.212609	0.255702	0.269613	0.104890	0.291232	0.186218	0.136677	0.293801	0.313919	0.149984	0.209110	0.078123	0.084264	0.489903	0.367514	0.233998	0.198487	0.230386	0.125238	0.117646	0.081808	0.150405	0.183611	0.492864	0.653237	0.150405	0.089669	0.139301	0.074188	0.260141	0.109472	0.477623	0.388018	0.193026	0.131057	0.295941	0.399018
75	0.470780	0.360225	0.285234	0.275853	0.364986	0.557464	0.173463	0.168320	0.376284	0.628781	0.167980	0.218509	0.155190	0.149812	0.521967	0.281535	0.330429	0.283498	0.305223	0.232654	0.139926	0.153458	0.196777	0.069851	0.276171	0.377516	0.516424	0.190765	0.261859	0.306365	0.100873	0.178322	0.301630	0.314637	0.227588	0.224400	0.157682	0.207442	0.079765	0.082071	0.494373	0.418335	0.157929	0.130355	0.228861	0.140090	0.112628	0.076589	0.161643	0.209974	0.505959	0.828855	0.084860	0.069430	0.117398	0.069476	0.269488	0.134923	0.475765	0.356728	0.194043	0.129050	0.262911	0.396739
76	0.521284	0.359845	0.274821	0.307966	0.244855	0.262199	0.157093	0.103234	0.359006	0.600270	0.138586	0.208432	0.155723	0.166179	0.483589	0.247206	0.353190	0.265676	0.234150	0.241916	0.156300	0.242986	0.131531	0.068389	0.333162	0.374988	0.525257	0.200947	0.365008	0.381648	0.098097	0.174311	0.306576	0.402678	0.223202	0.199903	0.184048	0.215150	0.078942	0.080159	0.500288	0.451995	0.176530	0.162062	0.233262	0.144340	0.114794	0.067038	0.182812	0.239538	0.506391	0.876572	0.079820	0.101637	0.091697	0.063590	0.277977	0.147900	0.550873	0.381970	0.149364	0.120853	0.263803	0.377461
77	0.565935	0.368343	0.301436	0.367115	0.202447	0.195407	0.142592	0.064818	0.290933	0.546846	0.098175	0.208687	0.166319	0.211413	0.356761	0.236672	0.401562	0.302487	0.234999	0.254573	0.157375	0.296147	0.038738	0.040566	0.474018	0.349663	0.519660	0.187013	0.407681	0.400565	0.084783	0.166456	0.315164	0.410401	0.232333	0.229801	0.201570	0.264687	0.078559	0.080813	0.518985	0.564968	0.180886	0.181794	0.242644	0.165448	0.109847	0.057874	0.221595	0.241324	0.609724	0.958020	0.112822	0.106246	0.066031	0.059415	0.273764	0.147417	0.567290	0.367583	0.080619	0.117367	0.254410	0.324839
78	0.588041	0.359282	0.333120	0.388617	0.198139	0.177937	0.108280	0.064698	0.287722	0.539826	0.071305	0.199995	0.178891	0.248887	0.303233	0.171906	0.417560	0.292203	0.367248	0.283698	0.154131	0.295844	0.035116	0.033951	0.489204	0.352045	0.502272	0.211697	0.443336	0.501775	0.066645	0.147182	0.340102	0.430682	0.234697	0.187072	0.224036	0.263269	0.079353	0.073065	0.543920	0.578865	0.225359	0.184915	0.246280	0.170009	0.101286	0.052161	0.231172	0.245112	0.627402	0.984941	0.118407	0.139147	0.049269	0.053646	0.260076	0.177635	0.478085	0.336745	0.072378	0.120745	0.180186	0.211415
79	0.500661	0.239868	0.340984	0.385524	0.195038	0.181597	0.109867	0.101826	0.289060	0.529438	0.075665	0.183024	0.165396	0.256716	0.300240	0.204389	0.445259	0.297612	0.570575	0.307623	0.178155	0.308885	0.061212	0.036138	0.515157	0.393437	0.562378	0.234359	0.579013	0.517341	0.082426	0.164004	0.330637	0.396479	0.196267	0.154060	0.214160	0.263248	0.077558	0.111851	0.542953	0.584070	0.316954	0.172804	0.282722	0.198317	0.078026	0.059680	0.265236	0.239323	0.628244	0.988888	0.121456	0.182923	0.041427	0.042802	0.247220	0.256272	0.399126	0.278160	0.073721	0.115373	0.126869	0.129802
80	0.509304	0.233732	0.393234	0.380996	0.151920	0.186536	0.100643	0.157309	0.274564	0.503340	0.126132	0.176678	0.147265	0.258371	0.247699	0.244820	0.458279	0.282094	0.656762	0.318380	0.206000	0.311098	0.085483	0.071652	0.515523	0.449590	0.593320	0.254457	0.577606	0.480786	0.144630	0.237344	0.280083	0.364878	0.247875	0.179522	0.211491	0.251618	0.076734	0.150590	0.539521	0.542253	0.327399	0.193008	0.304559	0.235773	0.072098	0.075050	0.249039	0.212331	0.629215	0.984051	0.144279	0.188682	0.091719	0.048779	0.396723	0.268514	0.426060	0.249551	0.071460	0.108184	0.106515	0.115407
81	0.559573	0.247252	0.381559	0.388631	0.103076	0.184915	0.105921	0.172871	0.240713	0.449073	0.194551	0.184725	0.244108	0.243574	0.198791	0.258819	0.367378	0.265091	0.838580	0.414606	0.201011	0.311472	0.088080	0.115076	0.511852	0.501850	0.467264	0.267169	0.577534	0.476870	0.187122	0.237510	0.272082	0.278966	0.249276	0.182091	0.221419	0.246922	0.071481	0.157820	0.424239	0.540496	0.344975	0.198558	0.284293	0.271234	0.083813	0.087032	0.242329	0.187614	0.487367	0.750980	0.152484	0.249481	0.108627	0.095387	0.489693	0.282090	0.464898	0.280210	0.085538	0.120993	0.103765	0.115526
82	0.595688	0.231936	0.384097	0.360282	0.101747	0.153528	0.148266	0.179510	0.177743	0.475491	0.203290	0.231055	0.252182	0.297386	0.206378	0.293546	0.390873	0.233458	0.839945	0.396484	0.196827	0.311668	0.099721	0.122872	0.655353	0.430831	0.458571	0.293088	0.583188	0.468579	0.200938	0.250164	0.263522	0.262244	0.263563	0.143545	0.228629	0.221564	0.068806	0.160921	0.310511	0.474239	0.375664	0.198051	0.236218	0.312243	0.082119	0.087873	0.235293	0.152234	0.496799	0.601946	0.159838	0.280644	0.114589	0.149542	0.500791	0.290327	0.427678	0.267907	0.268374	0.130665	0.099280	0.114786
83	0.549836	0.207307	0.445432	0.338825	0.232690	0.289157	0.175099	0.192125	0.153829	0.447579	0.241417	0.199018	0.275591	0.386302	0.196844	0.307474	0.332024	0.170457	0.850188	0.399715	0.203104	0.302641	0.121552	0.134074	0.683714	0.462826	0.483674	0.303273	0.583308	0.456485	0.293264	0.270710	0.253871	0.278239	0.264564	0.168205	0.220199	0.210325	0.268585	0.195472	0.284527	0.425703	0.398308	0.194721	0.247842	0.321721	0.081804	0.088589	0.216048	0.109290	0.482749	0.526212	0.167067	0.297532	0.135186	0.167455	0.557387	0.298688	0.384821	0.244463	0.323480	0.201483	0.098644	0.116595
84	0.500477	0.194826	0.502562	0.408961	0.398726	0.426238	0.183596	0.201525	0.215731	0.432334	0.442033	0.199990	0.308380	0.348950	0.192363	0.311220	0.350053	0.146062	0.790139	0.406881	0.193295	0.227576	0.137953	0.172597	0.651629	0.484320	0.513714	0.325235	0.556928	0.421957	0.336645	0.291285	0.218621	0.240217	0.249624	0.217010	0.189486	0.169045	0.280897	0.206634	0.249661	0.386642	0.391497	0.231826	0.246194	0.347294	0.066590	0.095319	0.217429	0.135115	0.357709	0.428971	0.168739	0.285438	0.243355	0.193175	0.618365	0.296165	0.420455	0.208407	0.351954	0.208535	0.088266	0.112683
85	0.440823	0.153741	0.532027	0.370000	0.496477	0.602805	0.188457	0.201551	0.268402	0.401714	0.561597	0.320464	0.305881	0.343156	0.167223	0.309362	0.311889	0.138116	0.672092	0.395119	0.168588	0.119328	0.150489	0.208991	0.677432	0.482004	0.541819	0.332410	0.494260	0.364847	0.341597	0.293459	0.360212	0.215613	0.216556	0.200717	0.183849	0.084782	0.313796	0.209522	0.187916	0.191815	0.406007	0.249342	0.244401	0.354943	0.062724	0.109392	0.281778	0.329294	0.391032	0.394286	0.141002	0.289875	0.269395	0.197052	0.628947	0.242489	0.433792	0.199104	0.360869	0.208886	0.096640	0.104512
86	0.383438	0.160752	0.558265	0.351476	0.635051	0.604249	0.201577	0.203464	0.335491	0.396568	0.564367	0.329817	0.306407	0.337114	0.284071	0.256746	0.288511	0.188227	0.562422	0.479826	0.187542	0.117465	0.223352	0.237605	0.655838	0.442579	0.489532	0.336911	0.476636	0.351497	0.354061	0.294769	0.418977	0.211197	0.226148	0.211440	0.163437	0.100858	0.342029	0.235666	0.097432	0.146717	0.474172	0.268658	0.264177	0.352464	0.068766	0.134645	0.263655	0.388036	0.448851	0.407395	0.140520	0.297886	0.269873	0.196803	0.586798	0.245978	0.417896	0.244520	0.363388	0.203905	0.095142	0.108334
87	0.400621	0.232490	0.580674	0.388432	0.685171	0.605706	0.228373	0.206098	0.361651	0.393808	0.568453	0.350424	0.290434	0.327243	0.441781	0.230486	0.281663	0.200345	0.331847	0.507825	0.197828	0.072707	0.232349	0.283682	0.682489	0.360912	0.449777	0.366091	0.429783	0.219021	0.357821	0.294258	0.481135	0.252190	0.209543	0.226706	0.173702	0.101490	0.343095	0.270948	0.114076	0.108041	0.498052	0.280794	0.231064	0.338243	0.078268	0.151151	0.318921	0.400836	0.689914	0.640027	0.137707	0.281186	0.283427	0.200823	0.476090	0.241736	0.369532	0.237934	0.362730	0.200374	0.091338	0.100262
88	0.408562	0.245819	0.559029	0.450892	0.685480	0.612342	0.255511	0.238494	0.363954	0.394290	0.572821	0.353384	0.216293	0.321307	0.596941	0.202524	0.298966	0.243363	0.456515	0.594451	0.178985	0.096377	0.224289	0.285336	0.683409	0.276923	0.428836	0.380017	0.207680	0.197704	0.350048	0.253648	0.505554	0.364221	0.215347	0.201953	0.176170	0.101240	0.344669	0.274854	0.118792	0.102638	0.491383	0.323158	0.200296	0.319783	0.081683	0.190426	0.355753	0.440104	0.753317	0.700540	0.127979	0.268301	0.287140	0.215585	0.522289	0.215009	0.349322	0.239932	0.366864	0.219089	0.100388	0.102437
89	0.362478	0.250869	0.559397	0.512426	0.686830	0.610803	0.260443	0.268150	0.380643	0.298490	0.740346	0.360479	0.215375	0.245571	0.640235	0.203654	0.347366	0.324964	0.439085	0.597503	0.197215	0.127722	0.230288	0.308131	0.544773	0.278864	0.456646	0.352302	0.193289	0.212124	0.330729	0.191827	0.524151	0.406173	0.289839	0.175269	0.177754	0.098744	0.345853	0.276815	0.141475	0.105260	0.490793	0.339886	0.270586	0.294573	0.104182	0.253304	0.475009	0.444214	0.805061	0.738269	0.109916	0.245997	0.296590	0.226172	0.510951	0.241884	0.293311	0.230382	0.381135	0.221776	0.108646	0.112931
90	0.307361	0.253370	0.554181	0.545202	0.687537	0.610570	0.269182	0.262380	0.394794	0.232589	0.795348	0.352341	0.152117	0.074375	0.710707	0.202919	0.392383	0.483207	0.434862	0.601664	0.212921	0.140334	0.276066	0.354288	0.453819	0.217481	0.423063	0.408981	0.222579	0.215436	0.322206	0.189500	0.409246	0.493747	0.295406	0.195369	0.167245	0.094110	0.344198	0.274664	0.162462	0.110742	0.482946	0.349313	0.264779	0.223607	0.114710	0.275938	0.627551	0.478826	0.873549	0.748096	0.148214	0.203126	0.295907	0.235966	0.449668	0.241686	0.224287	0.368234	0.390380	0.215442	0.130015	0.146815
91	0.296808	0.253702	0.487667	0.525016	0.687390	0.609361	0.269567	0.296457	0.375478	0.161762	0.763522	0.376695	0.151828	0.101553	0.852120	0.282342	0.392853	0.532808	0.448546	0.605794	0.244413	0.157733	0.293097	0.431077	0.347563	0.160587	0.510519	0.511854	0.214147	0.231083	0.337994	0.169766	0.460694	0.529711	0.306940	0.189274	0.166838	0.093734	0.224753	0.250412	0.180219	0.118561	0.474363	0.355835	0.249919	0.198682	0.115206	0.353482	0.611820	0.470052	1.017035	0.724898	0.143708	0.135239	0.300031	0.223711	0.404458	0.235906	0.187005	0.545525	0.353098	0.215273	0.155483	0.149188
92	0.294293	0.268588	0.441700	0.527900	0.656412	0.565628	0.255521	0.324737	0.389642	0.168055	0.652499	0.323885	0.195680	0.106672	0.898213	0.295463	0.417555	0.525104	0.443301	0.539482	0.255830	0.170798	0.296213	0.445046	0.290220	0.160056	0.519621	0.525583	0.234467	0.272881	0.267432	0.132505	0.407415	0.521976	0.351085	0.183018	0.168730	0.091523	0.220249	0.241083	0.179720	0.112555	0.512536	0.347223	0.251128	0.157454	0.117788	0.379880	0.582537	0.343824	1.036043	0.759151	0.137829	0.135920	0.279993	0.205009	0.402955	0.215734	0.411265	0.536703	0.240806	0.164541	0.181660	0.148690
93	0.321658	0.289063	0.458889	0.746368	0.579558	0.498758	0.260601	0.325748	0.338900	0.163163	0.638535	0.277323	0.198361	0.110179	0.912188	0.480402	0.473051	0.528800	0.415514	0.412331	0.263244	0.177645	0.294304	0.428529	0.332860	0.179677	0.598812	0.656399	0.230433	0.270271	0.253804	0.090969	0.382144	0.427688	0.327380	0.174327	0.154039	0.079281	0.179631	0.239898	0.195553	0.104968	0.502367	0.336157	0.251454	0.097189	0.123584	0.385573	0.588975	0.305278	1.011388	0.822252	0.144984	0.150387	0.197356	0.211019	0.389873	0.196150	0.463474	0.645830	0.219415	0.149838	0.178303	0.147840
94	0.354610	0.298616	0.412656	0.890909	0.498438	0.368905	0.262002	0.355937	0.294944	0.160736	0.638240	0.331110	0.196200	0.111113	0.923788	0.496344	0.426010	0.660581	0.356457	0.347874	0.263428	0.202112	0.253573	0.418148	0.355267	0.202567	0.635096	0.680023	0.220372	0.268893	0.251773	0.090403	0.363775	0.349355	0.275617	0.210419	0.123885	0.064224	0.141443	0.220426	0.193400	0.103954	0.423816	0.385059	0.226832	0.084659	0.149694	0.382947	0.570388	0.280079	0.854609	0.685450	0.143996	0.107865	0.199873	0.209642	0.335391	0.195452	0.466992	0.780996	0.183392	0.156109	0.177910	0.155745
95	0.342125	0.247958	0.389703	0.884291	0.336089	0.384012	0.256399	0.363887	0.319634	0.178148	0.639443	0.353474	0.195982	0.114661	0.860525	0.521395	0.406533	0.712513	0.342840	0.434733	0.242502	0.209438	0.243444	0.399513	0.349783	0.203052	0.633031	0.721674	0.195420	0.236059	0.240110	0.098597	0.380923	0.347446	0.307765	0.173035	0.104071	0.055217	0.138973	0.149381	0.191273	0.098671	0.333351	0.379927	0.223740	0.073732	0.162264	0.377586	0.554356	0.220780	0.801536	0.633122	0.147138	0.112041	0.193644	0.209105	0.277945	0.141779	0.492491	0.819221	0.206487	0.157379	0.178912	0.165344
96	0.310483	0.219009	0.479152	0.877298	0.228405	0.381906	0.244757	0.366173	0.345174	0.166398	0.524027	0.349757	0.193571	0.115163	0.869629	0.562907	0.335800	0.603791	0.350156	0.411792	0.238701	0.201566	0.242251	0.399898	0.351083	0.175458	0.595842	0.769619	0.181647	0.211273	0.239468	0.111741	0.374386	0.332007	0.327351	0.189643	0.091918	0.048281	0.135477	0.102521	0.221045	0.122888	0.382829	0.334265	0.215800	0.059515	0.160665	0.362933	0.444489	0.243435	0.737013	0.582569	0.150994	0.119399	0.164264	0.204852	0.286292	0.261783	0.482528	0.819047	0.254267	0.161463	0.240915	0.163925
97	0.300685	0.197240	0.502566	0.906784	0.225993	0.372011	0.255933	0.358301	0.332870	0.158157	0.297699	0.362751	0.189619	0.111251	0.772502	0.552672	0.388988	0.574754	0.345759	0.384276	0.226787	0.186088	0.237100	0.375428	0.360201	0.175235	0.616659	0.769492	0.177613	0.197703	0.239301	0.121799	0.371880	0.394350	0.337042	0.190569	0.055904	0.041505	0.146167	0.086688	0.207899	0.128869	0.389266	0.398026	0.091214	0.059185	0.145105	0.312483	0.238443	0.181915	0.654585	0.615564	0.157464	0.163000	0.144313	0.194645	0.222079	0.284180	0.718992	0.744317	0.258165	0.159788	0.267694	0.160581
98	0.333928	0.209459	0.540681	0.932695	0.228562	0.372203	0.258748	0.325883	0.502544	0.193095	0.258686	0.353605	0.160535	0.085310	0.630260	0.547435	0.377651	0.564789	0.418553	0.443620	0.208069	0.174848	0.182808	0.334147	0.375178	0.183847	0.703029	0.703093	0.167407	0.184915	0.248245	0.133775	0.385846	0.466852	0.341830	0.193436	0.039915	0.039400	0.152488	0.089884	0.194122	0.144417	0.429486	0.419002	0.086790	0.051271	0.132842	0.299935	0.244262	0.190588	0.438651	0.647994	0.214231	0.208381	0.121862	0.161934	0.232312	0.292060	0.969315	0.857210	0.246122	0.140154	0.278370	0.176458
99	0.337779	0.219490	0.554234	0.950535	0.230834	0.381649	0.247918	0.321918	0.601902	0.246722	0.266308	0.385536	0.099882	0.052116	0.589809	0.524758	0.361538	0.553655	0.385003	0.492080	0.161790	0.157146	0.130793	0.221399	0.396481	0.180607	0.722278	0.703644	0.123511	0.179639	0.257936	0.133515	0.331842	0.471036	0.351432	0.225030	0.038517	0.040018	0.173958	0.090411	0.367154	0.227950	0.500314	0.511446	0.085352	0.051003	0.131810	0.211088	0.239613	0.193864	0.555175	0.711524	0.242276	0.220718	0.134633	0.142917	0.259919	0.292262	1.005833	0.848995	0.222133	0.147299	0.279974	0.169469
100	0.336864	0.205930	0.560272	0.922187	0.232527	0.386213	0.237006	0.288919	0.586482	0.246374	0.243899	0.394425	0.103464	0.046320	0.464850	0.368499	0.372879	0.352299	0.368866	0.459678	0.129290	0.136842	0.109680	0.157212	0.378532	0.175759	0.738706	0.595362	0.110867	0.158521	0.224927	0.130818	0.296983	0.460200	0.390821	0.246874	0.031312	0.039653	0.164250	0.089514	0.597119	0.325262	0.514750	0.509876	0.081853	0.054346	0.138887	0.144963	0.199229	0.178225	1.018459	0.716738	0.259528	0.243389	0.134786	0.165487	0.289577	0.293963	1.033788	0.752931	0.217166	0.168608	0.293902	0.163202
101	0.311687	0.176428	0.527798	0.855085	0.233046	0.383597	0.238586	0.245273	0.589389	0.251973	0.237626	0.370622	0.099192	0.043382	0.304964	0.354286	0.353938	0.092910	0.380892	0.368381	0.117450	0.130318	0.095803	0.161895	0.307873	0.153715	0.724533	0.551286	0.071954	0.094012	0.213740	0.128198	0.235255	0.434263	0.420929	0.247374	0.041213	0.035686	0.154365	0.089898	0.622073	0.337073	0.560285	0.573877	0.063087	0.048216	0.137263	0.127456	0.222428	0.170372	1.033410	0.693879	0.262663	0.248721	0.152858	0.152719	0.257085	0.292900	1.038198	0.706481	0.212851	0.180941	0.272924	0.164126
