	127_P_T2_sh_R_D_A_02.c3d	127_P_T2_sh_R_D_A_02.c3d	127_P_T2_sh_R_D_A_02.c3d	127_P_T2_sh_R_D_A_02.c3d	127_P_T2_sh_R_D_A_02.c3d	127_P_T2_sh_R_D_A_02.c3d	127_P_T2_sh_R_D_A_02.c3d	127_P_T2_sh_R_D_A_02.c3d	127_P_T2_sh_R_D_A_03.c3d	127_P_T2_sh_R_D_A_03.c3d	127_P_T2_sh_R_D_A_03.c3d	127_P_T2_sh_R_D_A_03.c3d	127_P_T2_sh_R_D_A_03.c3d	127_P_T2_sh_R_D_A_03.c3d	127_P_T2_sh_R_D_A_03.c3d	127_P_T2_sh_R_D_A_03.c3d	127_P_T2_sh_R_D_A_04.c3d	127_P_T2_sh_R_D_A_04.c3d	127_P_T2_sh_R_D_A_04.c3d	127_P_T2_sh_R_D_A_04.c3d	127_P_T2_sh_R_D_A_04.c3d	127_P_T2_sh_R_D_A_04.c3d	127_P_T2_sh_R_D_A_04.c3d	127_P_T2_sh_R_D_A_04.c3d	127_P_T2_sh_R_D_A_05.c3d	127_P_T2_sh_R_D_A_05.c3d	127_P_T2_sh_R_D_A_05.c3d	127_P_T2_sh_R_D_A_05.c3d	127_P_T2_sh_R_D_A_05.c3d	127_P_T2_sh_R_D_A_05.c3d	127_P_T2_sh_R_D_A_05.c3d	127_P_T2_sh_R_D_A_05.c3d	127_P_T2_sh_R_D_A_06.c3d	127_P_T2_sh_R_D_A_06.c3d	127_P_T2_sh_R_D_A_06.c3d	127_P_T2_sh_R_D_A_06.c3d	127_P_T2_sh_R_D_A_06.c3d	127_P_T2_sh_R_D_A_06.c3d	127_P_T2_sh_R_D_A_06.c3d	127_P_T2_sh_R_D_A_06.c3d	127_P_T2_sh_R_D_A_07.c3d	127_P_T2_sh_R_D_A_07.c3d	127_P_T2_sh_R_D_A_07.c3d	127_P_T2_sh_R_D_A_07.c3d	127_P_T2_sh_R_D_A_07.c3d	127_P_T2_sh_R_D_A_07.c3d	127_P_T2_sh_R_D_A_07.c3d	127_P_T2_sh_R_D_A_07.c3d	127_P_T2_sh_R_D_A_08.c3d	127_P_T2_sh_R_D_A_08.c3d	127_P_T2_sh_R_D_A_08.c3d	127_P_T2_sh_R_D_A_08.c3d	127_P_T2_sh_R_D_A_08.c3d	127_P_T2_sh_R_D_A_08.c3d	127_P_T2_sh_R_D_A_08.c3d	127_P_T2_sh_R_D_A_08.c3d	127_P_T2_sh_R_D_A_09.c3d	127_P_T2_sh_R_D_A_09.c3d	127_P_T2_sh_R_D_A_09.c3d	127_P_T2_sh_R_D_A_09.c3d	127_P_T2_sh_R_D_A_09.c3d	127_P_T2_sh_R_D_A_09.c3d	127_P_T2_sh_R_D_A_09.c3d	127_P_T2_sh_R_D_A_09.c3d	127_P_T2_sh_R_D_A_10.c3d	127_P_T2_sh_R_D_A_10.c3d	127_P_T2_sh_R_D_A_10.c3d	127_P_T2_sh_R_D_A_10.c3d	127_P_T2_sh_R_D_A_10.c3d	127_P_T2_sh_R_D_A_10.c3d	127_P_T2_sh_R_D_A_10.c3d	127_P_T2_sh_R_D_A_10.c3d
	Biceps femoris_lat	Semitendinosus_lat	Vastus lateralis_lat	Vastus medialis_lat	Biceps femoris_med	Semitendinosus_med	Vastus lateralis_med	Vastus medialis_med	Biceps femoris_lat	Semitendinosus_lat	Vastus lateralis_lat	Vastus medialis_lat	Biceps femoris_med	Semitendinosus_med	Vastus lateralis_med	Vastus medialis_med	Biceps femoris_lat	Semitendinosus_lat	Vastus lateralis_lat	Vastus medialis_lat	Biceps femoris_med	Semitendinosus_med	Vastus lateralis_med	Vastus medialis_med	Biceps femoris_lat	Semitendinosus_lat	Vastus lateralis_lat	Vastus medialis_lat	Biceps femoris_med	Semitendinosus_med	Vastus lateralis_med	Vastus medialis_med	Biceps femoris_lat	Semitendinosus_lat	Vastus lateralis_lat	Vastus medialis_lat	Biceps femoris_med	Semitendinosus_med	Vastus lateralis_med	Vastus medialis_med	Biceps femoris_lat	Semitendinosus_lat	Vastus lateralis_lat	Vastus medialis_lat	Biceps femoris_med	Semitendinosus_med	Vastus lateralis_med	Vastus medialis_med	Biceps femoris_lat	Semitendinosus_lat	Vastus lateralis_lat	Vastus medialis_lat	Biceps femoris_med	Semitendinosus_med	Vastus lateralis_med	Vastus medialis_med	Biceps femoris_lat	Semitendinosus_lat	Vastus lateralis_lat	Vastus medialis_lat	Biceps femoris_med	Semitendinosus_med	Vastus lateralis_med	Vastus medialis_med	Biceps femoris_lat	Semitendinosus_lat	Vastus lateralis_lat	Vastus medialis_lat	Biceps femoris_med	Semitendinosus_med	Vastus lateralis_med	Vastus medialis_med
	P2D	P2D	P2D	P2D	P2D	P2D	P2D	P2D	P2D	P2D	P2D	P2D	P2D	P2D	P2D	P2D	P2D	P2D	P2D	P2D	P2D	P2D	P2D	P2D	P2D	P2D	P2D	P2D	P2D	P2D	P2D	P2D	P2D	P2D	P2D	P2D	P2D	P2D	P2D	P2D	P2D	P2D	P2D	P2D	P2D	P2D	P2D	P2D	P2D	P2D	P2D	P2D	P2D	P2D	P2D	P2D	P2D	P2D	P2D	P2D	P2D	P2D	P2D	P2D	P2D	P2D	P2D	P2D	P2D	P2D	P2D	P2D
	EMG_lat	EMG_lat	EMG_lat	EMG_lat	EMG_med	EMG_med	EMG_med	EMG_med	EMG_lat	EMG_lat	EMG_lat	EMG_lat	EMG_med	EMG_med	EMG_med	EMG_med	EMG_lat	EMG_lat	EMG_lat	EMG_lat	EMG_med	EMG_med	EMG_med	EMG_med	EMG_lat	EMG_lat	EMG_lat	EMG_lat	EMG_med	EMG_med	EMG_med	EMG_med	EMG_lat	EMG_lat	EMG_lat	EMG_lat	EMG_med	EMG_med	EMG_med	EMG_med	EMG_lat	EMG_lat	EMG_lat	EMG_lat	EMG_med	EMG_med	EMG_med	EMG_med	EMG_lat	EMG_lat	EMG_lat	EMG_lat	EMG_med	EMG_med	EMG_med	EMG_med	EMG_lat	EMG_lat	EMG_lat	EMG_lat	EMG_med	EMG_med	EMG_med	EMG_med	EMG_lat	EMG_lat	EMG_lat	EMG_lat	EMG_med	EMG_med	EMG_med	EMG_med
ITEM	Y	Y	Y	Y	Y	Y	Y	Y	Y	Y	Y	Y	Y	Y	Y	Y	Y	Y	Y	Y	Y	Y	Y	Y	Y	Y	Y	Y	Y	Y	Y	Y	Y	Y	Y	Y	Y	Y	Y	Y	Y	Y	Y	Y	Y	Y	Y	Y	Y	Y	Y	Y	Y	Y	Y	Y	Y	Y	Y	Y	Y	Y	Y	Y	Y	Y	Y	Y	Y	Y	Y	Y
1	0.102650	0.102164	0.173586	0.334783	0.043178	0.172749	0.241947	0.379122	0.022968	0.117192	0.150850	0.349273	0.136655	0.403276	0.132800	0.274802	0.135711	0.665980	0.096120	0.249229	0.221030	0.135352	0.337152	0.494299	0.074347	0.188014	0.119260	0.307935	0.038904	0.175402	0.227130	0.323128	0.045134	0.082488	0.201288	0.288466	0.037606	0.043157	0.202710	0.303831	0.098883	0.092645	0.215328	0.223239	0.043061	0.180205	0.315818	0.306533	0.041234	0.075467	0.316731	0.496625	0.150181	0.124882	0.459844	0.354566	0.044477	0.080334	0.083312	0.164101	0.134148	0.133388	0.131746	0.347482	0.039249	0.141311	0.161793	0.224176	0.020409	0.170983	0.275398	0.387548
2	0.096789	0.070806	0.167636	0.356421	0.030755	0.160558	0.211144	0.376323	0.022086	0.117510	0.157975	0.389580	0.145991	0.402793	0.123146	0.385594	0.142835	0.722956	0.093215	0.249158	0.218977	0.130642	0.335403	0.495079	0.066422	0.188825	0.123872	0.306859	0.039746	0.177115	0.233002	0.351010	0.029352	0.076253	0.155613	0.268437	0.037243	0.044413	0.231972	0.300590	0.088586	0.083625	0.218950	0.225687	0.043218	0.180016	0.388287	0.316064	0.042061	0.085364	0.313806	0.430693	0.146547	0.138957	0.452839	0.363717	0.042564	0.082284	0.089541	0.164265	0.160584	0.127672	0.109919	0.352755	0.037120	0.144724	0.175695	0.217521	0.022036	0.169892	0.256714	0.370592
3	0.092749	0.055530	0.157170	0.374358	0.022351	0.159084	0.242547	0.338048	0.022052	0.117039	0.155643	0.392703	0.150155	0.383562	0.153563	0.390043	0.139733	0.763683	0.089814	0.247457	0.197058	0.123443	0.335836	0.498314	0.058949	0.182965	0.144112	0.324419	0.040231	0.177027	0.225712	0.362846	0.021051	0.075433	0.134440	0.174931	0.037201	0.043772	0.250203	0.269706	0.078521	0.083791	0.231163	0.222816	0.042307	0.176913	0.419888	0.342214	0.038646	0.100050	0.281653	0.333129	0.138287	0.156145	0.454300	0.377193	0.035548	0.089486	0.084926	0.165656	0.179392	0.128880	0.118564	0.403856	0.034941	0.144624	0.172520	0.222909	0.020972	0.169419	0.253519	0.366547
4	0.086357	0.050497	0.150147	0.378081	0.021283	0.156031	0.247684	0.307773	0.023897	0.109952	0.197245	0.415710	0.151829	0.424358	0.155747	0.387241	0.132573	0.788552	0.088907	0.250366	0.169568	0.127763	0.336541	0.503887	0.049797	0.171874	0.169133	0.367260	0.040109	0.177909	0.206878	0.366992	0.019039	0.071462	0.135011	0.156791	0.041739	0.049896	0.253092	0.273643	0.075921	0.085512	0.223028	0.220971	0.042203	0.179327	0.427845	0.370112	0.032040	0.102804	0.248763	0.323502	0.128697	0.157922	0.458387	0.404373	0.029100	0.091941	0.093510	0.165532	0.182266	0.129032	0.137343	0.461199	0.035971	0.143338	0.161445	0.244659	0.022742	0.162367	0.256337	0.380694
5	0.084083	0.046054	0.158422	0.388295	0.020693	0.159032	0.247253	0.270187	0.023096	0.098537	0.208047	0.447933	0.150233	0.415318	0.160938	0.384607	0.127444	0.799321	0.104546	0.252310	0.164185	0.117987	0.326796	0.486194	0.038464	0.152572	0.181530	0.399728	0.040474	0.178161	0.212137	0.355997	0.019165	0.075139	0.131709	0.161978	0.046726	0.056752	0.260206	0.233435	0.072176	0.086581	0.195616	0.216579	0.042506	0.201203	0.427380	0.349805	0.039673	0.103607	0.240008	0.281997	0.126546	0.154577	0.458807	0.400852	0.026681	0.097712	0.115534	0.163407	0.180155	0.129996	0.158523	0.466998	0.036981	0.141233	0.159399	0.257152	0.024599	0.138664	0.261352	0.349429
6	0.050833	0.047860	0.155793	0.393208	0.019400	0.154142	0.258702	0.241505	0.022436	0.081522	0.202822	0.465345	0.139167	0.395719	0.150232	0.392484	0.113009	0.802274	0.119304	0.236354	0.129842	0.111779	0.321722	0.469377	0.033770	0.140373	0.187123	0.411723	0.044113	0.179252	0.294412	0.340137	0.019238	0.079663	0.118482	0.161243	0.047157	0.062492	0.264130	0.222798	0.041210	0.088371	0.195784	0.202762	0.042067	0.222384	0.423652	0.302793	0.047153	0.110591	0.239313	0.200722	0.117041	0.156358	0.458862	0.397436	0.027125	0.103878	0.121035	0.158038	0.172631	0.131083	0.167941	0.449990	0.036829	0.138123	0.160618	0.269147	0.025657	0.114986	0.255752	0.354003
7	0.041273	0.047735	0.134963	0.362781	0.019526	0.142018	0.279017	0.265649	0.022265	0.066755	0.202322	0.466771	0.124530	0.364745	0.149518	0.433939	0.113680	0.801207	0.121074	0.214045	0.119423	0.111258	0.315457	0.462147	0.031329	0.131566	0.188067	0.418336	0.050448	0.186645	0.311595	0.337006	0.021229	0.075709	0.123337	0.152831	0.047092	0.067290	0.259633	0.247834	0.027781	0.081054	0.200588	0.330501	0.041308	0.201962	0.426650	0.334554	0.048784	0.112597	0.237731	0.114265	0.117243	0.155816	0.460769	0.392888	0.032402	0.103765	0.127127	0.145725	0.164615	0.128853	0.168409	0.448385	0.036819	0.137604	0.182901	0.279656	0.034311	0.109216	0.253988	0.341622
8	0.042422	0.053619	0.111296	0.344825	0.019929	0.125457	0.285387	0.272748	0.024051	0.060825	0.219890	0.480951	0.110940	0.366410	0.155112	0.484851	0.112461	0.797347	0.119904	0.217271	0.119225	0.107654	0.264731	0.365940	0.031183	0.122701	0.195739	0.416420	0.053314	0.189667	0.308602	0.320570	0.031174	0.069755	0.176533	0.201419	0.047142	0.069204	0.263636	0.248614	0.025358	0.057898	0.178389	0.385193	0.041120	0.195970	0.431990	0.489565	0.052010	0.115369	0.237672	0.105421	0.116265	0.157712	0.437781	0.390364	0.041446	0.122926	0.145316	0.140363	0.162375	0.121363	0.169285	0.438635	0.038026	0.138279	0.227289	0.280059	0.041065	0.095538	0.243007	0.374334
9	0.042370	0.060269	0.114962	0.362472	0.020251	0.117998	0.284926	0.255829	0.026352	0.061596	0.236236	0.492273	0.099177	0.340512	0.161655	0.507298	0.100579	0.765759	0.120177	0.217614	0.118389	0.097807	0.217942	0.326092	0.031742	0.129256	0.216133	0.427081	0.053470	0.184082	0.322051	0.296763	0.043994	0.107756	0.222887	0.245848	0.045516	0.069284	0.279905	0.240317	0.024864	0.069584	0.150237	0.382042	0.042623	0.207051	0.409569	0.528976	0.052931	0.117410	0.234425	0.105007	0.116047	0.159573	0.419298	0.394580	0.048003	0.165116	0.165336	0.146693	0.160934	0.119241	0.175227	0.454316	0.040829	0.137091	0.251753	0.280309	0.042590	0.071095	0.238619	0.380584
10	0.041454	0.059629	0.122104	0.379351	0.023191	0.126847	0.284561	0.334520	0.027095	0.059241	0.247343	0.483255	0.099364	0.292460	0.166621	0.514071	0.090797	0.643332	0.154603	0.219699	0.111983	0.088940	0.220585	0.343408	0.035889	0.165510	0.243992	0.425667	0.051712	0.165820	0.321721	0.294915	0.053043	0.132326	0.259963	0.278545	0.045171	0.072687	0.283399	0.247634	0.025402	0.083092	0.142821	0.398446	0.043952	0.202583	0.402282	0.524881	0.058747	0.117136	0.233966	0.107742	0.115675	0.159674	0.421888	0.381194	0.050279	0.184058	0.178484	0.149141	0.158637	0.117465	0.175062	0.471228	0.041852	0.134502	0.255060	0.281844	0.044952	0.069572	0.225731	0.392402
11	0.034623	0.057855	0.120040	0.373210	0.024578	0.129570	0.308665	0.350884	0.027814	0.051260	0.238477	0.406299	0.099172	0.280086	0.181063	0.635000	0.089338	0.547032	0.209256	0.305790	0.101860	0.081197	0.215788	0.375107	0.039383	0.201235	0.274047	0.406710	0.047373	0.138244	0.324635	0.299707	0.055784	0.142516	0.267176	0.354004	0.045313	0.082228	0.274165	0.265312	0.025212	0.085096	0.141315	0.529021	0.046760	0.197518	0.395813	0.525546	0.064782	0.117412	0.231964	0.121053	0.104275	0.158635	0.432190	0.385951	0.050114	0.186829	0.181400	0.154476	0.156168	0.099975	0.172517	0.476791	0.037652	0.122175	0.257678	0.294358	0.045432	0.067167	0.205081	0.392945
12	0.030444	0.059743	0.128281	0.425788	0.022171	0.112246	0.319616	0.362208	0.027953	0.041829	0.241974	0.397826	0.090001	0.254427	0.190827	0.680386	0.087873	0.530284	0.241505	0.340877	0.099606	0.079697	0.212102	0.357873	0.039364	0.217282	0.276074	0.390101	0.043636	0.113106	0.323758	0.307009	0.056370	0.148376	0.264272	0.385538	0.045322	0.088219	0.270441	0.268109	0.025298	0.080957	0.190854	0.558199	0.049040	0.198132	0.330361	0.525179	0.067142	0.119064	0.214327	0.123794	0.085556	0.157412	0.434594	0.368371	0.050404	0.187190	0.182901	0.173994	0.147188	0.076624	0.165310	0.493211	0.036877	0.113068	0.273106	0.282735	0.045567	0.063361	0.185857	0.406545
13	0.042107	0.087521	0.176966	0.565923	0.022914	0.105598	0.304465	0.402664	0.028330	0.041235	0.238470	0.403760	0.060367	0.249704	0.178620	0.723319	0.067285	0.495578	0.250834	0.326856	0.086202	0.080734	0.212388	0.348898	0.038751	0.219256	0.290802	0.399147	0.043149	0.092878	0.321004	0.328948	0.057547	0.152898	0.278544	0.397557	0.039743	0.087659	0.269949	0.274040	0.027349	0.101055	0.234423	0.610481	0.048324	0.198271	0.264921	0.518974	0.066720	0.118530	0.178876	0.123721	0.074320	0.155949	0.428196	0.352236	0.051424	0.187608	0.197648	0.180788	0.140138	0.067797	0.156983	0.495819	0.034550	0.110294	0.301208	0.259668	0.044113	0.048264	0.198260	0.391742
14	0.051358	0.118312	0.195440	0.571270	0.024765	0.092220	0.275255	0.418927	0.027059	0.041267	0.195684	0.381304	0.047218	0.211341	0.158728	0.726175	0.039168	0.380268	0.254202	0.321959	0.048149	0.083751	0.207362	0.348160	0.036870	0.219549	0.313276	0.418032	0.043112	0.086515	0.319394	0.335098	0.058098	0.153094	0.302838	0.421991	0.039277	0.096576	0.269288	0.302293	0.032417	0.126034	0.230761	0.644427	0.048327	0.192658	0.288664	0.531785	0.070377	0.116186	0.151886	0.135848	0.073701	0.155472	0.392873	0.375468	0.050884	0.191131	0.221048	0.181259	0.138147	0.072024	0.163542	0.491235	0.032795	0.110170	0.311851	0.252689	0.044373	0.056548	0.218427	0.385405
15	0.050662	0.137079	0.196102	0.600829	0.031732	0.090524	0.262292	0.417657	0.025312	0.042484	0.182146	0.319609	0.037920	0.112455	0.161553	0.815542	0.034649	0.268824	0.294902	0.338538	0.047763	0.087210	0.200061	0.348618	0.034570	0.219455	0.321476	0.433405	0.043163	0.086876	0.318162	0.353412	0.060411	0.153846	0.311818	0.439414	0.041398	0.104895	0.261668	0.351633	0.036345	0.147051	0.239875	0.703729	0.047923	0.187792	0.322360	0.581647	0.089310	0.122702	0.148310	0.149030	0.067836	0.150710	0.352845	0.406013	0.049925	0.196779	0.237750	0.190532	0.114629	0.072845	0.164710	0.491666	0.034587	0.129027	0.304285	0.252453	0.045295	0.055299	0.225561	0.384107
16	0.051010	0.143794	0.190373	0.612829	0.034196	0.083563	0.260589	0.403339	0.023880	0.052042	0.189671	0.300419	0.034201	0.107965	0.144678	0.889263	0.035927	0.174639	0.328982	0.384088	0.047704	0.087298	0.194974	0.345078	0.031173	0.220584	0.317103	0.436657	0.045005	0.085700	0.318731	0.402918	0.061995	0.154637	0.313275	0.449657	0.042741	0.107891	0.240871	0.384209	0.035649	0.147207	0.272179	0.717404	0.043830	0.145909	0.331240	0.606877	0.093968	0.123554	0.151864	0.146333	0.057825	0.137370	0.339649	0.410803	0.048781	0.195645	0.254585	0.221002	0.064813	0.071121	0.170962	0.486468	0.038545	0.169789	0.304252	0.245198	0.044736	0.054030	0.219287	0.361302
17	0.054377	0.143629	0.206225	0.632612	0.036889	0.074193	0.245503	0.403185	0.027801	0.063530	0.188241	0.316519	0.040492	0.097614	0.144707	0.888409	0.046172	0.114415	0.327355	0.410587	0.043366	0.085025	0.180738	0.324172	0.030818	0.220356	0.312870	0.411327	0.044555	0.080846	0.332363	0.482113	0.064254	0.156163	0.313748	0.455940	0.044117	0.108688	0.204396	0.395978	0.034989	0.147445	0.292861	0.784775	0.041277	0.114621	0.328096	0.608400	0.095097	0.122442	0.153342	0.146636	0.040730	0.112505	0.340684	0.404773	0.048140	0.188818	0.256197	0.236076	0.031174	0.071290	0.176022	0.436092	0.037881	0.192911	0.307455	0.223196	0.043569	0.053901	0.212990	0.350391
18	0.056247	0.144888	0.248113	0.714782	0.037170	0.073459	0.214145	0.390824	0.026530	0.062682	0.171239	0.286514	0.041815	0.084008	0.146369	0.866926	0.057678	0.101306	0.323185	0.416624	0.032232	0.083273	0.178732	0.296953	0.032653	0.217614	0.351942	0.635330	0.041340	0.075674	0.328342	0.524827	0.065992	0.159001	0.311246	0.457659	0.042138	0.107572	0.181222	0.387220	0.036660	0.148782	0.308817	0.788556	0.039174	0.108398	0.320000	0.531111	0.092797	0.122571	0.153382	0.149225	0.027478	0.075853	0.338502	0.400247	0.048115	0.186312	0.245385	0.239526	0.026559	0.070591	0.173709	0.384681	0.036317	0.202901	0.308347	0.199724	0.043171	0.053926	0.226004	0.282506
19	0.055256	0.145497	0.282544	0.730229	0.042319	0.074407	0.185999	0.397610	0.023810	0.058303	0.154816	0.282006	0.047060	0.064681	0.138702	0.843371	0.057339	0.102786	0.328216	0.475108	0.032010	0.083191	0.185613	0.271452	0.046522	0.213458	0.419073	0.803271	0.032241	0.055509	0.344308	0.536741	0.063860	0.159092	0.294512	0.450542	0.033979	0.102339	0.172389	0.390097	0.037574	0.147384	0.330243	0.789328	0.038760	0.096444	0.287856	0.418331	0.088939	0.114680	0.155872	0.168926	0.026366	0.066631	0.343161	0.388152	0.047518	0.180495	0.248943	0.242944	0.026298	0.068097	0.183296	0.381680	0.036328	0.208453	0.308190	0.203088	0.037065	0.051378	0.230899	0.276549
20	0.054416	0.141607	0.282879	0.726086	0.043011	0.072014	0.178082	0.411607	0.023629	0.056577	0.142308	0.289574	0.052762	0.065065	0.137641	0.836362	0.068646	0.100132	0.331305	0.698808	0.031560	0.082932	0.186325	0.275295	0.056217	0.214634	0.463869	0.807222	0.038086	0.042810	0.339964	0.536978	0.057401	0.138170	0.266934	0.429313	0.032674	0.098751	0.158839	0.384054	0.037028	0.139202	0.334456	0.786158	0.036329	0.066700	0.258920	0.416279	0.088158	0.113555	0.160757	0.169380	0.025684	0.069635	0.357209	0.377374	0.046766	0.178115	0.296244	0.259282	0.027293	0.066897	0.245672	0.385717	0.037376	0.209184	0.298752	0.192414	0.027947	0.046013	0.245149	0.233327
21	0.054795	0.141274	0.307212	0.710693	0.041581	0.054457	0.211409	0.361874	0.023449	0.054818	0.149237	0.319272	0.052427	0.063188	0.127726	0.824117	0.097058	0.105390	0.330503	0.786866	0.029102	0.083297	0.180673	0.269006	0.060444	0.212946	0.463367	0.808531	0.051266	0.045408	0.331660	0.538538	0.049889	0.110849	0.232724	0.417006	0.034321	0.095748	0.156185	0.363405	0.034500	0.135896	0.333091	0.737682	0.035535	0.062998	0.247062	0.424755	0.088840	0.113316	0.161798	0.168834	0.024504	0.066098	0.366184	0.378994	0.043299	0.174404	0.416632	0.325098	0.029486	0.066472	0.265388	0.383942	0.036974	0.208206	0.262898	0.193871	0.028043	0.045699	0.242729	0.227885
22	0.061215	0.144453	0.441339	0.755758	0.039589	0.035432	0.204182	0.334322	0.022641	0.054215	0.146118	0.294081	0.051834	0.088520	0.105743	0.718153	0.104878	0.111169	0.318051	0.791218	0.025123	0.082272	0.188418	0.247754	0.060309	0.187147	0.462958	0.804577	0.054989	0.046986	0.330375	0.531832	0.046112	0.101666	0.212006	0.378230	0.036998	0.095111	0.153576	0.355824	0.034535	0.135167	0.323821	0.665655	0.028508	0.056627	0.243514	0.422958	0.091655	0.112320	0.167916	0.194070	0.020441	0.066846	0.326554	0.384829	0.038535	0.145771	0.478593	0.330519	0.036961	0.067185	0.270004	0.349220	0.035221	0.209211	0.236386	0.188927	0.031085	0.045575	0.225698	0.252963
23	0.105491	0.172230	0.501274	0.826947	0.039738	0.039086	0.170585	0.392889	0.022035	0.052533	0.143539	0.283255	0.053055	0.112577	0.088626	0.612527	0.103690	0.110399	0.289170	0.775954	0.024657	0.081736	0.192349	0.162823	0.059716	0.147958	0.500578	0.795314	0.055328	0.045434	0.327065	0.525136	0.045231	0.110258	0.212398	0.329856	0.037831	0.098165	0.152311	0.355988	0.034283	0.126890	0.283910	0.641769	0.030054	0.049142	0.243327	0.422405	0.092615	0.115209	0.168020	0.205507	0.021883	0.060392	0.295315	0.373616	0.034605	0.103077	0.476164	0.324119	0.049450	0.070288	0.269814	0.319704	0.033394	0.211652	0.234704	0.181951	0.035822	0.046749	0.219496	0.255217
24	0.166684	0.202893	0.507951	0.766580	0.039440	0.039708	0.174286	0.380584	0.022613	0.055614	0.152990	0.279319	0.052361	0.114129	0.083299	0.560027	0.104134	0.109672	0.274998	0.782690	0.024104	0.082674	0.199989	0.148387	0.069618	0.145413	0.522444	0.791478	0.056373	0.046672	0.336761	0.559213	0.044054	0.128805	0.197775	0.322668	0.036676	0.099722	0.152306	0.352034	0.036989	0.110178	0.270366	0.604939	0.036138	0.066986	0.223069	0.395733	0.089046	0.116655	0.169408	0.210251	0.023627	0.056536	0.278742	0.406555	0.035409	0.091500	0.481952	0.334665	0.059952	0.072277	0.270817	0.316729	0.036549	0.212443	0.236524	0.173688	0.039762	0.050380	0.224780	0.244212
25	0.217861	0.205067	0.506395	0.744003	0.039042	0.038134	0.186833	0.364003	0.035156	0.063584	0.151643	0.286816	0.054222	0.117474	0.080642	0.531385	0.105731	0.113406	0.275693	0.832224	0.019009	0.082493	0.201694	0.174633	0.078988	0.173590	0.529152	0.783946	0.058775	0.050007	0.349000	0.560039	0.043548	0.146252	0.156294	0.288887	0.035724	0.093733	0.153347	0.339390	0.040106	0.088828	0.267404	0.543583	0.047863	0.074279	0.136495	0.307540	0.087214	0.115346	0.166768	0.235867	0.027367	0.055648	0.257205	0.452006	0.043311	0.090130	0.506200	0.362606	0.064894	0.072165	0.323378	0.294407	0.049826	0.222599	0.223899	0.171186	0.043368	0.046586	0.228201	0.268278
26	0.234652	0.192693	0.507790	0.725851	0.034011	0.037130	0.191018	0.410567	0.043490	0.067146	0.140106	0.276668	0.057225	0.119269	0.102230	0.339178	0.108998	0.130922	0.275330	0.874488	0.016472	0.082180	0.235563	0.186225	0.091769	0.205246	0.520639	0.779844	0.061467	0.053198	0.353232	0.540044	0.040879	0.147318	0.122921	0.266181	0.035272	0.087984	0.156868	0.334151	0.047812	0.105884	0.248586	0.513936	0.057876	0.129449	0.100462	0.210959	0.087593	0.116791	0.178022	0.284881	0.028487	0.054931	0.245069	0.493351	0.052907	0.095306	0.533600	0.376808	0.067782	0.071267	0.365842	0.280666	0.063986	0.231347	0.234364	0.211064	0.042516	0.035744	0.211101	0.301352
27	0.263349	0.202787	0.507829	0.701862	0.030142	0.049482	0.196792	0.456771	0.042053	0.062142	0.139307	0.254861	0.060789	0.157098	0.118655	0.177360	0.113093	0.148780	0.233128	0.889214	0.015742	0.070774	0.303872	0.190212	0.098178	0.225795	0.510330	0.787041	0.062826	0.056076	0.353123	0.519403	0.037509	0.145443	0.116695	0.237285	0.035417	0.088457	0.175018	0.333190	0.049754	0.135623	0.202939	0.432399	0.056772	0.151826	0.089928	0.176238	0.087752	0.124957	0.206036	0.319993	0.031154	0.058212	0.261223	0.518278	0.057152	0.102681	0.541218	0.392047	0.070570	0.067512	0.383483	0.286446	0.074757	0.238653	0.275201	0.216869	0.042346	0.032752	0.215930	0.307929
28	0.327141	0.228114	0.503378	0.690636	0.026966	0.091792	0.198388	0.462306	0.042969	0.061246	0.138211	0.248962	0.059320	0.188500	0.118945	0.163462	0.117403	0.159040	0.171617	0.876019	0.022272	0.069762	0.309086	0.217758	0.101051	0.236757	0.504334	0.785681	0.062520	0.069144	0.352643	0.487765	0.033839	0.145158	0.115077	0.232600	0.034949	0.081009	0.186823	0.310174	0.048567	0.153988	0.173432	0.240627	0.056806	0.150534	0.090711	0.175111	0.068181	0.117003	0.207593	0.332537	0.038057	0.062314	0.284152	0.507839	0.057235	0.106521	0.544178	0.407679	0.081543	0.062110	0.383520	0.293888	0.085204	0.233718	0.304636	0.219865	0.044690	0.031801	0.239129	0.309547
29	0.351790	0.241308	0.486682	0.602450	0.026339	0.128571	0.205925	0.461984	0.045072	0.061293	0.135867	0.227018	0.058201	0.208635	0.117490	0.153993	0.120485	0.159021	0.167245	0.860753	0.039117	0.118890	0.303057	0.219679	0.101329	0.236043	0.503697	0.792092	0.062427	0.073016	0.331977	0.421615	0.034636	0.148790	0.112543	0.228308	0.035228	0.086969	0.190871	0.247371	0.047595	0.154853	0.131219	0.162117	0.057028	0.150866	0.094574	0.173847	0.059590	0.102786	0.208596	0.369139	0.055682	0.065075	0.291640	0.477660	0.058710	0.103681	0.544399	0.406464	0.086697	0.056337	0.387784	0.306964	0.084720	0.205034	0.306602	0.222229	0.047452	0.031917	0.250582	0.316715
30	0.355124	0.240282	0.461273	0.575083	0.022944	0.139898	0.221989	0.446862	0.048442	0.067555	0.142983	0.215300	0.053440	0.279918	0.117011	0.146998	0.121379	0.153505	0.172892	0.857324	0.055522	0.157112	0.285657	0.228091	0.101117	0.235333	0.478282	0.652109	0.062915	0.075789	0.268077	0.368321	0.056853	0.146883	0.098219	0.226235	0.037709	0.124107	0.195982	0.182776	0.049131	0.159837	0.093150	0.153546	0.056720	0.151187	0.094287	0.172638	0.057610	0.092073	0.249245	0.382447	0.060090	0.064675	0.292642	0.462053	0.060395	0.107377	0.544128	0.403552	0.097490	0.067829	0.404066	0.278327	0.099052	0.185538	0.304368	0.228819	0.051542	0.032466	0.249090	0.318849
31	0.355950	0.241002	0.456746	0.578165	0.018536	0.139857	0.248941	0.424729	0.052521	0.117390	0.139193	0.165059	0.048279	0.314462	0.114976	0.144093	0.130020	0.156547	0.163834	0.834681	0.084580	0.171642	0.277631	0.283955	0.100124	0.241377	0.424068	0.369784	0.062904	0.081668	0.198632	0.338243	0.068677	0.153412	0.091002	0.210263	0.039941	0.152873	0.202242	0.164269	0.063833	0.177598	0.091517	0.157739	0.057054	0.151644	0.153511	0.178603	0.057787	0.090098	0.301839	0.400853	0.078041	0.064608	0.288306	0.464212	0.074118	0.117939	0.547558	0.409344	0.112122	0.081221	0.424533	0.257764	0.123858	0.184005	0.317316	0.260454	0.055402	0.036605	0.244682	0.332512
32	0.356109	0.248574	0.450928	0.578557	0.033276	0.140482	0.245646	0.425413	0.057564	0.131962	0.123732	0.121773	0.047441	0.321798	0.113885	0.126514	0.129739	0.160090	0.157604	0.663341	0.101561	0.173442	0.282598	0.308569	0.102818	0.244519	0.368686	0.354352	0.061426	0.085616	0.186616	0.337018	0.069598	0.157673	0.080731	0.201081	0.041835	0.165319	0.204142	0.195511	0.067759	0.182829	0.092100	0.161029	0.070529	0.156710	0.190848	0.173714	0.061314	0.090647	0.355854	0.403099	0.091688	0.063701	0.280558	0.466516	0.081270	0.123892	0.549441	0.412115	0.115158	0.083737	0.434534	0.265801	0.125849	0.178504	0.334725	0.258172	0.057359	0.036681	0.235447	0.332458
33	0.355635	0.254337	0.350643	0.516973	0.062751	0.141382	0.224461	0.418523	0.064455	0.186016	0.121025	0.116587	0.047393	0.318860	0.113382	0.139017	0.112514	0.155591	0.159198	0.548738	0.117481	0.177983	0.294376	0.304327	0.101906	0.241806	0.356331	0.337898	0.052357	0.091689	0.170348	0.338943	0.085006	0.194592	0.078408	0.170493	0.044602	0.166257	0.205154	0.191609	0.068665	0.189960	0.086583	0.156359	0.094559	0.161666	0.234934	0.162326	0.061475	0.091093	0.374450	0.409968	0.097349	0.060509	0.265521	0.456816	0.089537	0.127899	0.540380	0.413390	0.114681	0.083300	0.409300	0.274958	0.130605	0.176836	0.345067	0.255381	0.058979	0.037985	0.227610	0.326640
34	0.348149	0.241404	0.220964	0.350263	0.083253	0.141007	0.223227	0.362467	0.064619	0.190910	0.110559	0.123259	0.048189	0.325721	0.113637	0.140454	0.104703	0.152587	0.163736	0.548495	0.156372	0.181937	0.302361	0.304646	0.102500	0.244371	0.342094	0.330393	0.047778	0.091104	0.163931	0.339260	0.133299	0.204629	0.081851	0.152017	0.048219	0.167808	0.204679	0.184822	0.068661	0.190024	0.069131	0.150189	0.113767	0.161004	0.288256	0.219123	0.058142	0.091543	0.375056	0.426809	0.101261	0.053431	0.247962	0.448417	0.100697	0.132483	0.482459	0.469228	0.116931	0.082500	0.385193	0.303371	0.134870	0.177046	0.345734	0.257657	0.057660	0.038061	0.240667	0.293321
35	0.325613	0.211927	0.158008	0.239323	0.086149	0.142996	0.215862	0.320069	0.060000	0.196155	0.125906	0.119392	0.050003	0.326844	0.113279	0.142756	0.105542	0.156535	0.166250	0.541534	0.165883	0.182070	0.303118	0.311485	0.106401	0.245034	0.244654	0.324292	0.047231	0.098897	0.170188	0.330063	0.142378	0.196885	0.094893	0.154335	0.048630	0.173848	0.205979	0.196170	0.064823	0.185782	0.041540	0.147923	0.120093	0.154570	0.316262	0.250395	0.053095	0.089148	0.373228	0.419660	0.105147	0.047445	0.221914	0.448297	0.104364	0.135175	0.384166	0.567865	0.124297	0.081638	0.379111	0.334272	0.135089	0.176170	0.343811	0.261196	0.055098	0.036865	0.244362	0.294978
36	0.294987	0.269457	0.125510	0.210362	0.092132	0.146078	0.204532	0.319522	0.054316	0.198123	0.142388	0.224444	0.048739	0.330712	0.115922	0.154857	0.137128	0.180396	0.155692	0.495434	0.170103	0.182701	0.297919	0.325449	0.117804	0.238173	0.180799	0.329253	0.046998	0.103632	0.153831	0.271224	0.145485	0.194830	0.111041	0.273469	0.048713	0.185549	0.212747	0.206040	0.058925	0.173671	0.038545	0.147356	0.123487	0.156347	0.347316	0.310951	0.045968	0.085978	0.374926	0.412810	0.107654	0.042625	0.208976	0.440698	0.111408	0.139016	0.371256	0.585978	0.121277	0.080252	0.378508	0.334983	0.135319	0.172141	0.349625	0.259022	0.052430	0.031254	0.240124	0.286426
37	0.281472	0.446932	0.135984	0.212492	0.099654	0.149685	0.207242	0.273337	0.056345	0.201781	0.144129	0.278066	0.047461	0.331633	0.116050	0.149333	0.146972	0.187696	0.136565	0.409591	0.171640	0.185953	0.294911	0.325321	0.127286	0.296065	0.134467	0.336220	0.044041	0.102799	0.113767	0.206431	0.149040	0.203120	0.133782	0.322179	0.047234	0.187782	0.210623	0.206552	0.054414	0.175070	0.039557	0.212497	0.169616	0.130505	0.354662	0.375394	0.043008	0.086319	0.375540	0.410144	0.108963	0.040615	0.242892	0.433177	0.128716	0.153782	0.376520	0.584135	0.155842	0.096442	0.381283	0.321993	0.135073	0.162711	0.361881	0.257903	0.049577	0.032771	0.225657	0.352306
38	0.270769	0.501835	0.155639	0.224793	0.103173	0.159130	0.247477	0.180803	0.057806	0.203053	0.144619	0.280417	0.042145	0.324092	0.183118	0.218743	0.149049	0.184811	0.131312	0.311149	0.171632	0.208790	0.289889	0.329357	0.120231	0.325263	0.109157	0.338186	0.039072	0.103343	0.140248	0.203302	0.150846	0.253002	0.136533	0.322069	0.048053	0.186215	0.192998	0.203666	0.054009	0.168008	0.068309	0.293603	0.179228	0.133188	0.356405	0.383573	0.042286	0.089293	0.385721	0.396577	0.109752	0.041403	0.288059	0.419430	0.133974	0.166601	0.356684	0.568503	0.196863	0.116972	0.376043	0.313126	0.131906	0.139256	0.376858	0.269015	0.049002	0.061052	0.236308	0.371108
39	0.191797	0.518740	0.171252	0.257090	0.110426	0.162176	0.356776	0.137813	0.059997	0.203288	0.141310	0.288017	0.044600	0.331239	0.279831	0.395150	0.148329	0.174085	0.134674	0.242440	0.171931	0.217485	0.210306	0.340281	0.115116	0.329276	0.104493	0.304768	0.037601	0.103639	0.152861	0.195072	0.150833	0.257971	0.186906	0.316730	0.049245	0.186146	0.216059	0.205177	0.053889	0.160209	0.148840	0.311282	0.179099	0.135899	0.356944	0.419562	0.052793	0.087132	0.390841	0.368906	0.110018	0.042703	0.322356	0.367552	0.137766	0.178121	0.312177	0.548192	0.197739	0.121015	0.330783	0.306576	0.125630	0.119474	0.364176	0.253790	0.049072	0.065066	0.233158	0.366588
40	0.124237	0.659204	0.214287	0.263755	0.142112	0.174453	0.531219	0.149946	0.061205	0.203476	0.124665	0.312388	0.049793	0.305672	0.282368	0.406425	0.144924	0.165121	0.135058	0.222514	0.172562	0.218265	0.178973	0.314266	0.112404	0.322992	0.108349	0.249659	0.036203	0.098780	0.155748	0.189732	0.150887	0.253047	0.312365	0.310052	0.050552	0.186362	0.225831	0.209717	0.054475	0.159963	0.176788	0.366424	0.179193	0.135979	0.378174	0.447703	0.060207	0.074785	0.370836	0.335646	0.108935	0.043692	0.333573	0.305101	0.137472	0.181837	0.270641	0.539559	0.198776	0.121245	0.300653	0.295148	0.119651	0.103538	0.322405	0.248942	0.053659	0.073688	0.208144	0.396139
41	0.132063	0.720609	0.223888	0.255397	0.188511	0.194719	0.622560	0.268524	0.058272	0.184233	0.258938	0.350529	0.050833	0.236592	0.283633	0.406270	0.140415	0.156254	0.132330	0.219958	0.170677	0.200914	0.182797	0.309921	0.112699	0.322747	0.113337	0.215189	0.036139	0.120175	0.156453	0.162802	0.144527	0.255302	0.398043	0.305004	0.051378	0.185841	0.243815	0.210005	0.048105	0.162152	0.177797	0.386173	0.180984	0.170056	0.380873	0.466868	0.064742	0.068104	0.366890	0.317991	0.108577	0.044351	0.346254	0.244204	0.138398	0.174886	0.244729	0.524937	0.198970	0.120936	0.288393	0.292409	0.111775	0.089357	0.290714	0.247013	0.053272	0.075080	0.192783	0.432063
42	0.133943	0.737417	0.222362	0.254289	0.211680	0.218504	0.619936	0.327992	0.058632	0.175377	0.484091	0.366956	0.051293	0.214099	0.327307	0.411414	0.135605	0.151315	0.133050	0.222400	0.168126	0.169588	0.203125	0.306371	0.114009	0.323583	0.118136	0.210169	0.035096	0.131203	0.171611	0.262042	0.138156	0.254428	0.419007	0.302969	0.051293	0.185886	0.372444	0.219131	0.030522	0.148707	0.178328	0.385318	0.182255	0.209657	0.355219	0.459921	0.072123	0.067718	0.400275	0.274256	0.108100	0.038618	0.384977	0.217818	0.138811	0.168590	0.222214	0.518034	0.197485	0.121350	0.286500	0.263094	0.111003	0.097457	0.293971	0.315543	0.049736	0.094927	0.177056	0.442737
43	0.134051	0.743650	0.245128	0.268342	0.221393	0.231563	0.615243	0.340852	0.065906	0.122989	0.562469	0.398776	0.055104	0.195747	0.501921	0.428076	0.126318	0.146899	0.134035	0.266948	0.159344	0.149281	0.217883	0.282412	0.113234	0.325971	0.113943	0.204765	0.035185	0.132486	0.178087	0.353853	0.136267	0.253234	0.418284	0.305666	0.050137	0.182965	0.503035	0.218580	0.033813	0.157176	0.193183	0.413694	0.187066	0.208406	0.357167	0.463210	0.072841	0.067014	0.413672	0.262148	0.104303	0.030020	0.408128	0.473158	0.147821	0.166956	0.209887	0.533433	0.218216	0.126295	0.268996	0.244602	0.100768	0.101462	0.340766	0.463097	0.047049	0.097495	0.188126	0.456994
44	0.134105	0.742536	0.297320	0.321368	0.220337	0.231588	0.625960	0.340601	0.067728	0.115998	0.568849	0.434910	0.062587	0.189701	0.610963	0.485642	0.122161	0.142091	0.136076	0.295785	0.145441	0.142631	0.232873	0.241667	0.106292	0.335477	0.111490	0.209841	0.028516	0.131344	0.179362	0.368246	0.132954	0.235054	0.419032	0.306597	0.046579	0.163297	0.546470	0.225789	0.037132	0.152883	0.283066	0.417135	0.190926	0.208038	0.357754	0.455882	0.075298	0.078829	0.394586	0.240117	0.105491	0.037958	0.418347	0.737111	0.151174	0.161978	0.217413	0.532241	0.233345	0.125743	0.231898	0.265590	0.064314	0.082334	0.366583	0.502347	0.054163	0.101099	0.186084	0.489296
45	0.134141	0.742636	0.346264	0.379147	0.214148	0.232188	0.652617	0.338618	0.069600	0.103069	0.594937	0.434058	0.065116	0.169540	0.616955	0.506637	0.122719	0.142247	0.137075	0.282135	0.142260	0.140513	0.260230	0.237398	0.104214	0.342357	0.106515	0.215724	0.023634	0.126758	0.189668	0.370847	0.084340	0.210391	0.423987	0.394696	0.045037	0.136507	0.553583	0.220912	0.036194	0.152457	0.400507	0.443973	0.184042	0.210108	0.375325	0.423475	0.079535	0.084232	0.354910	0.219601	0.143277	0.089119	0.419561	0.827445	0.145910	0.150444	0.208461	0.526734	0.239600	0.122810	0.189981	0.292512	0.058944	0.089257	0.385086	0.511530	0.065060	0.103093	0.167969	0.618052
46	0.133673	0.742870	0.429432	0.492133	0.212766	0.234351	0.685840	0.352917	0.071329	0.096001	0.703202	0.392034	0.065237	0.168567	0.639197	0.535110	0.122695	0.141302	0.135438	0.290536	0.100390	0.131434	0.257150	0.252819	0.104194	0.340975	0.107684	0.235583	0.023238	0.127753	0.206443	0.400584	0.059625	0.208857	0.423377	0.486029	0.043699	0.119102	0.553344	0.187191	0.041469	0.155539	0.486010	0.543938	0.182481	0.209504	0.376341	0.411819	0.087310	0.084834	0.329289	0.213763	0.193079	0.128952	0.428872	0.837318	0.142319	0.146742	0.211861	0.525173	0.269284	0.122484	0.192191	0.293877	0.048360	0.105087	0.448292	0.514863	0.068283	0.103995	0.148042	0.628707
47	0.128646	0.729795	0.524114	0.520005	0.228080	0.240433	0.711789	0.350917	0.073234	0.091401	0.849546	0.374294	0.068052	0.157729	0.682749	0.579088	0.129511	0.139486	0.125847	0.337430	0.066533	0.129124	0.257960	0.273449	0.100740	0.340405	0.188490	0.263566	0.023410	0.127518	0.207314	0.443117	0.053451	0.193711	0.433273	0.504500	0.042733	0.118380	0.582551	0.210148	0.042258	0.152443	0.493550	0.556645	0.156837	0.194340	0.364272	0.344501	0.093922	0.081164	0.331760	0.174154	0.268980	0.164812	0.455185	0.836253	0.134642	0.143581	0.274594	0.504084	0.283211	0.138312	0.255739	0.278037	0.034274	0.108685	0.512920	0.531987	0.071908	0.106395	0.140473	0.644622
48	0.111928	0.643021	0.550138	0.592977	0.323689	0.377928	0.724677	0.345054	0.079785	0.098184	0.924358	0.413652	0.066867	0.155214	0.691877	0.610266	0.105656	0.110844	0.196756	0.543876	0.052709	0.128877	0.294999	0.272961	0.083483	0.339781	0.425535	0.419393	0.022815	0.133976	0.210343	0.461735	0.048610	0.191828	0.428158	0.539552	0.038625	0.118174	0.658446	0.271284	0.042500	0.112122	0.536941	0.528081	0.125907	0.182962	0.372713	0.337050	0.096641	0.081744	0.345424	0.226139	0.311316	0.172833	0.505103	0.862465	0.127827	0.139745	0.448013	0.483589	0.332224	0.204777	0.322418	0.369518	0.032762	0.108980	0.564636	0.556788	0.072102	0.106760	0.143896	0.645594
49	0.104700	0.579810	0.545902	0.593383	0.472072	0.511312	0.720841	0.344341	0.082408	0.103748	0.944171	0.423868	0.066834	0.086157	0.671742	0.569588	0.106274	0.094579	0.438301	0.689654	0.042745	0.128939	0.319748	0.271785	0.058338	0.278261	0.545132	0.444846	0.021678	0.145744	0.260821	0.497328	0.045544	0.120903	0.431303	0.548419	0.038923	0.112680	0.741946	0.271076	0.045806	0.111774	0.625010	0.496119	0.175687	0.190068	0.384726	0.303480	0.103710	0.095932	0.419032	0.477457	0.346146	0.173677	0.552685	0.937968	0.126691	0.140754	0.530305	0.587279	0.397958	0.241476	0.340954	0.518492	0.033719	0.111155	0.596681	0.585866	0.072056	0.108229	0.154362	0.602670
50	0.107626	0.570503	0.556433	0.604910	0.608053	0.537115	0.686959	0.343679	0.082830	0.107505	0.945432	0.419737	0.065496	0.060282	0.660668	0.497828	0.111185	0.083552	0.561341	0.695425	0.055517	0.121868	0.323582	0.261091	0.056200	0.211729	0.642231	0.433096	0.033394	0.154793	0.300589	0.549668	0.047293	0.094168	0.432047	0.651241	0.041754	0.096676	0.785006	0.289729	0.051985	0.115005	0.713505	0.478154	0.252402	0.204502	0.377624	0.258490	0.127367	0.109806	0.562100	0.531560	0.352747	0.183496	0.579763	1.015504	0.110201	0.130407	0.527707	0.596950	0.398718	0.239810	0.340800	0.534693	0.033893	0.114552	0.591909	0.654729	0.074667	0.094947	0.195399	0.575958
51	0.103942	0.411849	0.603122	0.599945	0.693076	0.532245	0.572770	0.385319	0.082123	0.100910	0.930508	0.393902	0.065666	0.071764	0.723713	0.498117	0.110860	0.075962	0.608064	0.747322	0.072063	0.132248	0.337416	0.236737	0.061955	0.186107	0.710566	0.423519	0.043562	0.166959	0.367675	0.576596	0.049375	0.100142	0.382537	0.731612	0.048923	0.092575	0.797715	0.316761	0.052300	0.101983	0.770076	0.442184	0.310529	0.208069	0.360064	0.215261	0.142469	0.117475	0.700729	0.538043	0.375269	0.226486	0.585027	1.064265	0.097883	0.113074	0.544074	0.642709	0.374253	0.229390	0.342357	0.535963	0.031611	0.118016	0.604355	0.705781	0.089606	0.093167	0.217138	0.594607
52	0.075522	0.251851	0.657543	0.626937	0.705766	0.530041	0.440184	0.340762	0.079636	0.097442	0.877542	0.381309	0.068723	0.127759	0.852198	0.513137	0.114267	0.072359	0.621864	0.792615	0.085657	0.144106	0.372908	0.234997	0.065230	0.184554	0.721124	0.511540	0.048854	0.168188	0.415962	0.710641	0.049822	0.098510	0.308310	0.791096	0.051574	0.095144	0.805242	0.318678	0.054459	0.098883	0.785709	0.455068	0.341727	0.166868	0.360181	0.194626	0.147565	0.128587	0.755862	0.545401	0.425450	0.256046	0.575129	1.082920	0.090325	0.092550	0.555400	0.683457	0.368882	0.224278	0.358530	0.567662	0.031522	0.122917	0.641626	0.717822	0.094100	0.087163	0.218890	0.589273
53	0.061394	0.174766	0.750992	0.634041	0.732845	0.549596	0.447565	0.268143	0.070844	0.090955	0.879013	0.524492	0.074069	0.181106	0.929514	0.520159	0.114925	0.079687	0.626417	0.876061	0.091504	0.145413	0.398992	0.251818	0.064334	0.185038	0.821174	0.647523	0.050189	0.151322	0.419263	0.820220	0.052169	0.093994	0.279644	0.871072	0.054911	0.105246	0.799367	0.318242	0.053865	0.087813	0.792957	0.463837	0.345568	0.169828	0.361081	0.185065	0.148902	0.137340	0.758164	0.665586	0.479923	0.261706	0.559798	1.093321	0.079637	0.067215	0.556147	0.691756	0.369901	0.224286	0.403414	0.573589	0.032523	0.124656	0.655353	0.737062	0.095117	0.085114	0.223811	0.561697
54	0.064000	0.138552	0.903779	0.627582	0.802767	0.561378	0.460056	0.247037	0.074166	0.087410	0.896923	0.693378	0.074300	0.186192	0.896730	0.535267	0.114372	0.083094	0.664782	0.908686	0.093126	0.148033	0.409209	0.253962	0.061289	0.183239	0.956551	0.682177	0.050316	0.140105	0.430004	0.804432	0.052634	0.093434	0.319545	0.894465	0.057943	0.140562	0.795565	0.340979	0.052198	0.130535	0.781106	0.480142	0.378509	0.222225	0.341578	0.182448	0.149569	0.138153	0.780548	0.798411	0.486211	0.272280	0.545709	1.095762	0.081217	0.067075	0.557357	0.698970	0.372391	0.225701	0.429956	0.585465	0.033114	0.125136	0.669241	0.762992	0.095908	0.065397	0.244534	0.547732
55	0.065013	0.131344	0.975025	0.602549	0.869062	0.568549	0.452476	0.255662	0.074179	0.085451	0.881125	0.702893	0.068929	0.186690	0.869055	0.481257	0.113822	0.080709	0.726113	0.910288	0.145732	0.162855	0.404655	0.249140	0.062264	0.166270	1.032458	0.694632	0.050539	0.134289	0.473610	0.814916	0.051587	0.078829	0.360972	0.894752	0.060682	0.170407	0.791441	0.370207	0.053054	0.178874	0.743187	0.521119	0.439229	0.242216	0.306125	0.179530	0.146556	0.138856	0.796089	0.824792	0.486547	0.290786	0.540101	1.094514	0.080703	0.073334	0.570799	0.698986	0.372226	0.234774	0.434133	0.620757	0.037395	0.116731	0.702605	0.761148	0.095328	0.067277	0.246181	0.547091
56	0.065017	0.131511	1.003554	0.588777	0.887576	0.570150	0.436542	0.259772	0.071679	0.083180	0.810145	0.710028	0.065436	0.190215	0.867593	0.502109	0.115937	0.086891	0.767314	0.923047	0.168002	0.167586	0.447976	0.237705	0.081295	0.132614	1.072125	0.712669	0.052334	0.132531	0.527503	0.901272	0.051637	0.075712	0.370755	0.873764	0.061443	0.175521	0.752665	0.388181	0.050705	0.190296	0.674600	0.467118	0.444646	0.238603	0.261100	0.177565	0.146177	0.139932	0.801666	0.823020	0.488617	0.297108	0.523964	1.092059	0.076144	0.074426	0.590266	0.693165	0.367248	0.242411	0.434253	0.709189	0.049888	0.112019	0.701914	0.725400	0.090706	0.110417	0.246999	0.613097
57	0.065412	0.129390	0.989827	0.482685	0.902949	0.569419	0.428045	0.240424	0.072038	0.077430	0.670992	0.717615	0.064857	0.191996	0.846290	0.463861	0.128351	0.109828	0.771032	0.927778	0.171676	0.168496	0.493811	0.245208	0.088061	0.115340	1.075070	0.764291	0.058118	0.130674	0.553365	0.953301	0.051151	0.075665	0.367635	0.827524	0.061207	0.188953	0.670791	0.430954	0.048150	0.191075	0.651120	0.359266	0.448273	0.242059	0.253791	0.172339	0.146360	0.134721	0.824587	0.832326	0.489916	0.297967	0.485162	1.080464	0.049765	0.072636	0.616334	0.682124	0.349254	0.239282	0.429563	0.786722	0.056777	0.112103	0.682494	0.686273	0.081344	0.148249	0.254535	0.501670
58	0.065606	0.130898	0.943713	0.471384	0.913011	0.568985	0.395560	0.237442	0.068108	0.072947	0.567717	0.738485	0.059329	0.193004	0.826817	0.424912	0.135789	0.124584	0.786616	0.936032	0.174110	0.194439	0.505204	0.255224	0.089160	0.119266	1.076006	0.770883	0.061101	0.128178	0.548705	0.946643	0.049332	0.077827	0.356411	0.803805	0.073282	0.194317	0.623629	0.430080	0.048196	0.201475	0.639744	0.355811	0.460657	0.258160	0.262999	0.126613	0.148998	0.138532	0.844012	0.865304	0.496676	0.299405	0.462033	0.961493	0.044682	0.079890	0.624567	0.690518	0.341123	0.242216	0.427537	0.787478	0.059613	0.104653	0.666931	0.674207	0.076549	0.159719	0.260123	0.498246
59	0.070297	0.147930	0.934017	0.405696	0.892270	0.520556	0.369557	0.242862	0.061922	0.069874	0.535505	0.746189	0.060521	0.204065	0.838748	0.367661	0.131592	0.126122	0.796357	0.939295	0.175088	0.233219	0.503831	0.293072	0.093047	0.120949	1.069442	0.773675	0.063380	0.124310	0.551930	0.935952	0.044466	0.085384	0.362024	0.746990	0.086323	0.192705	0.618967	0.465238	0.046374	0.227925	0.572208	0.353701	0.456646	0.285768	0.244410	0.118182	0.148835	0.144030	0.845474	0.882356	0.504189	0.296754	0.453275	0.795587	0.045375	0.081064	0.632403	0.691406	0.328548	0.247341	0.425507	0.778096	0.061636	0.089465	0.635946	0.675958	0.072789	0.168021	0.269590	0.519629
60	0.068096	0.158200	0.969707	0.415476	0.831448	0.388424	0.352519	0.248311	0.057518	0.060959	0.533163	0.744850	0.059404	0.214847	0.840932	0.370788	0.126885	0.124028	0.788467	0.870979	0.175134	0.250326	0.491431	0.280400	0.093413	0.116948	1.072635	0.772765	0.063442	0.112205	0.556618	0.929462	0.038741	0.085826	0.389416	0.841742	0.089634	0.190712	0.631328	0.528811	0.040546	0.252271	0.456806	0.353969	0.426852	0.276643	0.239569	0.118621	0.148176	0.148909	0.844374	0.883654	0.492665	0.290520	0.453589	0.729436	0.050092	0.081079	0.640525	0.692563	0.304828	0.255789	0.411863	0.780661	0.062636	0.090691	0.607791	0.664853	0.072558	0.172610	0.273965	0.549452
61	0.061366	0.154617	1.009225	0.385885	0.736528	0.320168	0.359739	0.252171	0.057714	0.059334	0.513773	0.741955	0.055629	0.214464	0.853333	0.362312	0.113896	0.122803	0.753418	0.745591	0.175275	0.260534	0.473489	0.262995	0.090685	0.115005	1.096426	0.755636	0.064824	0.096008	0.539369	0.948666	0.036332	0.097664	0.408643	0.894584	0.093112	0.189994	0.633805	0.569073	0.034760	0.259425	0.317106	0.354853	0.384526	0.266289	0.236836	0.112232	0.147282	0.150632	0.839509	0.874184	0.467932	0.275418	0.445368	0.724280	0.059672	0.086940	0.594722	0.691374	0.295180	0.237467	0.375466	0.762809	0.062397	0.093617	0.578032	0.643797	0.072828	0.213662	0.273068	0.560236
62	0.059125	0.147767	1.010502	0.385903	0.646570	0.314195	0.388502	0.222802	0.057894	0.060502	0.440847	0.740319	0.054060	0.210949	0.779277	0.360431	0.102838	0.121786	0.786234	0.742988	0.173632	0.272540	0.467294	0.260853	0.090404	0.113197	1.062291	0.807840	0.061388	0.083442	0.510122	0.954022	0.031975	0.093622	0.406030	0.834498	0.094537	0.189907	0.584662	0.571502	0.031765	0.258766	0.245719	0.342077	0.345119	0.262458	0.235401	0.137068	0.146758	0.149917	0.811662	0.779931	0.433551	0.259354	0.417354	0.719584	0.061949	0.087419	0.477302	0.571921	0.168071	0.183079	0.365905	0.666980	0.061237	0.091359	0.537806	0.620050	0.070718	0.228291	0.236097	0.558304
63	0.058540	0.141113	0.978402	0.395389	0.603140	0.323612	0.422446	0.225651	0.055201	0.064910	0.328037	0.637354	0.049560	0.171900	0.635986	0.325328	0.103916	0.128762	0.893801	0.695346	0.170653	0.271345	0.464149	0.269978	0.085919	0.108182	1.025477	0.834376	0.055385	0.045784	0.492307	0.978271	0.028468	0.090808	0.389030	0.794802	0.093629	0.190170	0.473951	0.574102	0.030776	0.258709	0.228385	0.321353	0.332725	0.278215	0.228480	0.181671	0.132537	0.144956	0.729858	0.742919	0.405783	0.260685	0.351578	0.671343	0.060738	0.084215	0.442494	0.610891	0.108849	0.182555	0.374341	0.610170	0.061547	0.087009	0.560009	0.559049	0.055900	0.233215	0.208349	0.561382
64	0.056915	0.137548	0.923899	0.386747	0.574146	0.302668	0.417818	0.238568	0.049699	0.067147	0.277639	0.395565	0.039592	0.165034	0.488178	0.301780	0.104433	0.138655	0.959048	0.649686	0.165332	0.271752	0.443142	0.277841	0.083317	0.108012	1.062695	0.823041	0.056270	0.040504	0.486807	0.922359	0.024598	0.092188	0.375116	0.713653	0.092413	0.188756	0.374023	0.574533	0.033019	0.251928	0.216880	0.335086	0.310110	0.281294	0.223049	0.201501	0.121316	0.139165	0.593174	0.741488	0.379146	0.265844	0.274402	0.550976	0.061942	0.084885	0.429834	0.605802	0.106915	0.191979	0.378129	0.615112	0.064689	0.082243	0.639727	0.555775	0.046420	0.237832	0.217466	0.558544
65	0.055006	0.133200	0.778760	0.398933	0.489350	0.265899	0.401440	0.232607	0.048469	0.070562	0.309174	0.370336	0.039421	0.163299	0.416401	0.249414	0.110138	0.152282	0.979981	0.544049	0.161668	0.272180	0.413197	0.335810	0.083524	0.108141	1.088564	0.760942	0.055398	0.043469	0.496924	0.827628	0.022020	0.094036	0.345189	0.663601	0.088056	0.184259	0.329487	0.558828	0.035293	0.215169	0.227855	0.312136	0.211381	0.275269	0.220762	0.203465	0.118230	0.129547	0.497654	0.734249	0.388845	0.336202	0.229180	0.410684	0.064048	0.087583	0.409579	0.575171	0.104225	0.191963	0.359519	0.602109	0.073272	0.074892	0.700121	0.598932	0.046607	0.240380	0.223181	0.556818
66	0.052753	0.127197	0.649522	0.406067	0.327868	0.240511	0.400307	0.228362	0.049230	0.072135	0.300171	0.355766	0.045605	0.170791	0.410864	0.238997	0.118175	0.162168	0.957924	0.473558	0.160659	0.271987	0.391473	0.342847	0.084278	0.111164	1.074673	0.736324	0.055313	0.043491	0.486109	0.816729	0.021772	0.094554	0.302905	0.699435	0.085756	0.185968	0.303162	0.561687	0.040906	0.196092	0.241002	0.273016	0.144578	0.294235	0.211918	0.205456	0.112987	0.119402	0.490279	0.640454	0.405988	0.398369	0.215718	0.321073	0.095589	0.105742	0.407993	0.587072	0.101998	0.192088	0.313583	0.585235	0.078348	0.074158	0.752689	0.606169	0.051848	0.242776	0.214486	0.556105
67	0.052733	0.123141	0.562821	0.402117	0.259797	0.235112	0.381946	0.232009	0.043288	0.071011	0.270059	0.320467	0.050977	0.210342	0.415938	0.153695	0.123980	0.167715	0.918369	0.463132	0.140426	0.266658	0.386200	0.373217	0.082191	0.116826	1.038088	0.723506	0.055050	0.044756	0.442633	0.803488	0.021975	0.095033	0.293148	0.729931	0.082934	0.187662	0.296830	0.568921	0.047749	0.190236	0.244946	0.271072	0.143221	0.290432	0.194665	0.226501	0.128275	0.123706	0.454436	0.566607	0.457718	0.421883	0.194841	0.293113	0.124506	0.117559	0.411501	0.661295	0.096262	0.191701	0.257335	0.578457	0.083800	0.077796	0.757704	0.595734	0.053487	0.240919	0.202677	0.538500
68	0.052451	0.123031	0.527239	0.399911	0.206512	0.238488	0.357072	0.238728	0.037745	0.061150	0.253856	0.198583	0.053640	0.230231	0.404162	0.140366	0.125827	0.165664	0.904143	0.431566	0.082194	0.258741	0.359279	0.429247	0.063095	0.110812	1.010464	0.709686	0.052564	0.046590	0.379852	0.733837	0.021404	0.096602	0.300639	0.722407	0.080167	0.171723	0.296605	0.565565	0.054386	0.178996	0.245822	0.333322	0.108934	0.289916	0.168999	0.277255	0.150320	0.132006	0.393864	0.745773	0.507793	0.424344	0.176931	0.261356	0.149759	0.123834	0.404109	0.729354	0.086581	0.185983	0.237237	0.565698	0.088387	0.086242	0.742802	0.583672	0.053716	0.224559	0.206186	0.440178
69	0.052938	0.122598	0.526378	0.448092	0.133781	0.250113	0.349373	0.234691	0.040333	0.054145	0.246961	0.127104	0.053261	0.232243	0.372254	0.138744	0.116297	0.154213	0.928014	0.424266	0.069868	0.265016	0.258639	0.487782	0.051137	0.103751	1.011616	0.650535	0.049046	0.059737	0.336837	0.667937	0.021877	0.095285	0.303222	0.715008	0.077176	0.150017	0.296639	0.552881	0.055106	0.157528	0.242833	0.416477	0.069259	0.251108	0.145423	0.287584	0.155000	0.132502	0.340503	0.826894	0.523615	0.496455	0.174668	0.255861	0.165031	0.122611	0.391096	0.763317	0.093020	0.179058	0.240484	0.488490	0.083941	0.081773	0.795237	0.550444	0.053536	0.200071	0.204561	0.408538
70	0.049970	0.106457	0.526229	0.509079	0.119258	0.239768	0.348298	0.229712	0.045675	0.050837	0.247213	0.091559	0.050940	0.219192	0.335856	0.129181	0.112169	0.153580	0.951052	0.389408	0.060836	0.274250	0.177109	0.543807	0.046500	0.096218	1.009458	0.636769	0.049604	0.065961	0.339652	0.667319	0.028858	0.090030	0.319633	0.715653	0.075745	0.140739	0.295789	0.545246	0.055223	0.118744	0.240139	0.417656	0.068509	0.249312	0.148626	0.286548	0.155586	0.134944	0.257275	0.870221	0.620272	0.631821	0.177246	0.263460	0.173150	0.122469	0.370483	0.795191	0.099851	0.178442	0.246038	0.321997	0.079544	0.079340	0.871794	0.583905	0.053593	0.188742	0.198385	0.393311
71	0.045755	0.077453	0.485648	0.492745	0.121206	0.220125	0.349051	0.221804	0.046392	0.051171	0.247012	0.099811	0.051387	0.213134	0.297119	0.126131	0.151799	0.188887	0.991946	0.345318	0.055205	0.250790	0.186664	0.541436	0.036644	0.088924	1.015222	0.646019	0.049325	0.065930	0.334000	0.659022	0.030669	0.089293	0.310629	0.638554	0.075722	0.127289	0.293758	0.509619	0.057285	0.066325	0.224572	0.435050	0.069189	0.249950	0.203343	0.311402	0.159217	0.139294	0.164460	0.892490	0.687389	0.702706	0.194996	0.264326	0.206229	0.138586	0.362012	0.808126	0.105986	0.173484	0.249777	0.209072	0.077448	0.079263	0.914248	0.594389	0.054477	0.181125	0.185448	0.331621
72	0.045103	0.060076	0.413286	0.502130	0.123073	0.221744	0.342829	0.221875	0.046955	0.051201	0.247825	0.197950	0.053779	0.210893	0.270351	0.127011	0.183815	0.222537	1.027900	0.262909	0.054751	0.222792	0.176648	0.536292	0.030397	0.088631	0.975243	0.624845	0.049917	0.078501	0.324810	0.655532	0.036700	0.079288	0.266624	0.437810	0.070327	0.109885	0.286720	0.499908	0.059834	0.057214	0.202095	0.474746	0.068453	0.250136	0.250025	0.322193	0.159882	0.134934	0.149715	0.905898	0.728394	0.720969	0.229136	0.262253	0.249381	0.167828	0.363541	0.805586	0.113593	0.168368	0.250893	0.211880	0.076274	0.078444	0.922636	0.591940	0.057422	0.177743	0.175822	0.273538
73	0.043324	0.061885	0.326422	0.520832	0.122927	0.217039	0.314269	0.193163	0.048017	0.046706	0.251580	0.288818	0.055288	0.210351	0.263124	0.126471	0.207007	0.245163	0.997738	0.258564	0.054786	0.218962	0.159105	0.535902	0.035033	0.098248	0.917747	0.680467	0.049093	0.109291	0.321325	0.610259	0.037897	0.071692	0.267358	0.397259	0.047710	0.107126	0.272592	0.500448	0.060012	0.055472	0.192165	0.497368	0.065357	0.243674	0.255426	0.299460	0.158944	0.129464	0.146845	0.920047	0.752958	0.731372	0.266633	0.252520	0.254300	0.178468	0.342579	0.809960	0.113599	0.168868	0.251810	0.212414	0.079193	0.070826	0.911401	0.604053	0.072539	0.131153	0.168370	0.248827
74	0.038375	0.061452	0.289167	0.508850	0.121377	0.199486	0.262080	0.156248	0.047678	0.042302	0.240074	0.298517	0.056863	0.200330	0.257274	0.122177	0.212204	0.253801	0.906134	0.238809	0.055600	0.213034	0.151167	0.535751	0.039740	0.099807	0.962388	0.650450	0.048744	0.145668	0.319206	0.554868	0.038859	0.071779	0.315177	0.382599	0.036058	0.105993	0.243585	0.475616	0.059771	0.054911	0.195879	0.496954	0.060968	0.203180	0.254126	0.275314	0.158911	0.133452	0.152499	0.996871	0.761341	0.734936	0.295469	0.267273	0.254269	0.176486	0.312693	0.823943	0.136557	0.173768	0.241723	0.207335	0.084428	0.064943	0.897439	0.621009	0.089412	0.102485	0.167602	0.246388
75	0.037083	0.061129	0.302743	0.487178	0.116016	0.150604	0.220286	0.121278	0.056379	0.048166	0.201607	0.308594	0.057591	0.185779	0.237586	0.116661	0.213544	0.256192	0.763634	0.235974	0.050652	0.210308	0.151138	0.530868	0.049808	0.097645	1.017170	0.628964	0.047679	0.149775	0.274817	0.486412	0.040151	0.069947	0.352800	0.367274	0.024482	0.103481	0.194649	0.420249	0.058115	0.050437	0.193526	0.468991	0.057329	0.172685	0.242417	0.271485	0.224573	0.190900	0.140668	1.060761	0.770484	0.734159	0.298125	0.282267	0.261004	0.184155	0.309094	0.851483	0.151946	0.170300	0.214428	0.203721	0.089829	0.064857	0.897241	0.633399	0.089729	0.090209	0.160396	0.194850
76	0.032451	0.053368	0.305416	0.481481	0.106637	0.147887	0.198637	0.118931	0.059522	0.048440	0.164555	0.348370	0.053326	0.190656	0.208205	0.106324	0.211630	0.251444	0.661831	0.240231	0.041488	0.191549	0.155264	0.535303	0.066033	0.109957	1.038388	0.596780	0.039422	0.159596	0.191546	0.427131	0.040063	0.066933	0.362632	0.378898	0.011211	0.101187	0.133550	0.370896	0.053768	0.047016	0.192275	0.480008	0.057171	0.094707	0.248595	0.290153	0.301096	0.249015	0.101568	1.073816	0.772389	0.734052	0.291531	0.286312	0.314371	0.202743	0.322359	0.815488	0.152135	0.165735	0.177170	0.199361	0.089670	0.067187	0.886736	0.628563	0.086777	0.075861	0.144757	0.163757
77	0.030012	0.050865	0.304536	0.475688	0.093570	0.150722	0.194187	0.114939	0.061193	0.048885	0.146654	0.382087	0.047875	0.178255	0.186874	0.112001	0.208034	0.241991	0.623173	0.373446	0.032852	0.185201	0.166549	0.512437	0.077334	0.133664	0.981871	0.556968	0.039508	0.187316	0.143484	0.405429	0.043949	0.066003	0.368549	0.336933	0.011436	0.100641	0.128798	0.344519	0.048641	0.046654	0.237503	0.480600	0.052289	0.078970	0.252041	0.295848	0.304173	0.251096	0.096124	1.096350	0.770768	0.733837	0.298188	0.283362	0.326423	0.263004	0.323008	0.765051	0.151908	0.147154	0.163153	0.188680	0.089308	0.082178	0.824943	0.571643	0.084001	0.067460	0.124882	0.163850
78	0.030228	0.051229	0.315144	0.473508	0.085015	0.151509	0.191377	0.112867	0.060798	0.050602	0.158857	0.382795	0.042395	0.111957	0.176764	0.146542	0.203682	0.234943	0.634156	0.457808	0.043893	0.185563	0.173970	0.491697	0.083567	0.143949	0.864724	0.622888	0.040196	0.230987	0.142882	0.402984	0.051484	0.066054	0.372106	0.235907	0.019326	0.104386	0.146447	0.348647	0.040082	0.046931	0.239056	0.474612	0.047103	0.080180	0.260728	0.271357	0.302197	0.275289	0.110084	1.139639	0.770737	0.733308	0.316897	0.288222	0.392130	0.484348	0.320039	0.762563	0.152391	0.146409	0.163120	0.188451	0.109327	0.122885	0.740131	0.489636	0.092387	0.060770	0.097156	0.156092
79	0.030279	0.056591	0.323386	0.478629	0.077318	0.147231	0.167577	0.158366	0.068910	0.060603	0.172701	0.380549	0.040477	0.087047	0.176791	0.179480	0.199996	0.230249	0.666693	0.456573	0.071852	0.195203	0.174327	0.487471	0.082946	0.139679	0.814046	0.657512	0.045732	0.301697	0.144625	0.348990	0.055879	0.062360	0.376531	0.242281	0.019900	0.110330	0.160274	0.367340	0.035893	0.049801	0.266288	0.386742	0.038618	0.074959	0.272863	0.250603	0.304676	0.321019	0.122300	1.172864	0.770029	0.728659	0.339682	0.301081	0.418997	0.612316	0.316526	0.742790	0.154401	0.147112	0.166586	0.202752	0.168187	0.163861	0.678168	0.453452	0.101837	0.060827	0.087398	0.153230
80	0.031495	0.060949	0.319849	0.469307	0.060597	0.121809	0.093712	0.168912	0.106366	0.078758	0.171943	0.380330	0.040919	0.079176	0.178307	0.206375	0.198473	0.230417	0.656250	0.455383	0.113050	0.212080	0.171771	0.451867	0.085786	0.144587	0.802020	0.663249	0.047765	0.394814	0.138966	0.256930	0.055474	0.063157	0.377980	0.268339	0.019880	0.131755	0.163385	0.385234	0.036377	0.046645	0.389223	0.386238	0.031827	0.064391	0.282298	0.377064	0.321611	0.379234	0.127764	1.139762	0.761328	0.689691	0.356676	0.296189	0.475033	0.678874	0.308393	0.690114	0.153561	0.146778	0.166207	0.206608	0.220427	0.178558	0.674563	0.417221	0.104219	0.060587	0.086759	0.159924
81	0.028495	0.061303	0.296370	0.356795	0.045712	0.123149	0.051589	0.183797	0.108930	0.079508	0.184244	0.380362	0.042155	0.077703	0.178449	0.203245	0.195737	0.229756	0.616381	0.474989	0.173559	0.233062	0.160508	0.402509	0.086398	0.149098	0.823143	0.664274	0.045594	0.398096	0.125877	0.216568	0.052499	0.056557	0.365048	0.315394	0.019907	0.143262	0.164012	0.375192	0.035593	0.045953	0.456463	0.382231	0.028347	0.069497	0.297596	0.449257	0.370587	0.418837	0.158981	1.004569	0.726101	0.648942	0.364950	0.262559	0.603858	0.696819	0.307155	0.605515	0.151905	0.147132	0.164220	0.202959	0.229114	0.175433	0.674522	0.403188	0.104835	0.059936	0.083472	0.165497
82	0.027062	0.061449	0.266629	0.322712	0.034113	0.124414	0.042717	0.198742	0.108192	0.079980	0.193025	0.342037	0.041001	0.081184	0.157570	0.196246	0.194207	0.224253	0.574369	0.496468	0.217162	0.226515	0.148995	0.321474	0.086633	0.154592	0.833068	0.661474	0.041947	0.396909	0.109116	0.195942	0.050670	0.050725	0.342000	0.318119	0.020652	0.162154	0.163016	0.368681	0.029095	0.045465	0.463290	0.337272	0.027927	0.085754	0.268296	0.439432	0.423913	0.424478	0.182986	0.937179	0.656966	0.638583	0.367622	0.244412	0.650930	0.747678	0.296846	0.556970	0.148375	0.145785	0.159722	0.195356	0.230021	0.181990	0.604158	0.392323	0.104871	0.059227	0.078071	0.159552
83	0.025587	0.060447	0.256510	0.348879	0.028169	0.116184	0.066177	0.204712	0.107307	0.079592	0.182881	0.276663	0.035279	0.081632	0.119071	0.197900	0.193408	0.208725	0.505000	0.517889	0.222501	0.218134	0.119445	0.244572	0.086588	0.157151	0.826855	0.645025	0.039580	0.398310	0.100253	0.180656	0.054955	0.049340	0.339717	0.318787	0.023342	0.161131	0.163795	0.353301	0.027691	0.044590	0.491823	0.292367	0.028324	0.089209	0.262282	0.437980	0.434437	0.458496	0.199979	0.889703	0.609875	0.634233	0.367731	0.247327	0.745013	0.963540	0.283513	0.546840	0.143386	0.136481	0.151844	0.193064	0.248803	0.201525	0.488879	0.326852	0.104466	0.057858	0.085640	0.157588
84	0.027069	0.060254	0.259795	0.322168	0.031448	0.093445	0.154902	0.315217	0.106354	0.080250	0.171870	0.273502	0.030269	0.084674	0.086269	0.241004	0.198333	0.197672	0.446972	0.518009	0.252862	0.246324	0.104253	0.222055	0.086552	0.156481	0.799416	0.588681	0.037787	0.408060	0.098231	0.192771	0.061239	0.050797	0.330049	0.302728	0.026063	0.179259	0.167777	0.343412	0.027968	0.042477	0.565771	0.270187	0.027655	0.087378	0.266463	0.446758	0.470880	0.503476	0.216593	0.836672	0.582779	0.547592	0.368043	0.241093	0.788827	1.044448	0.244863	0.604731	0.139153	0.138275	0.145766	0.185899	0.288072	0.226300	0.397461	0.362242	0.102730	0.055973	0.107751	0.158069
85	0.028800	0.063489	0.267160	0.362172	0.042565	0.095727	0.232514	0.416022	0.101140	0.074151	0.158883	0.288653	0.025274	0.081799	0.078727	0.310567	0.207972	0.252573	0.441840	0.520074	0.280259	0.264398	0.111976	0.219685	0.086620	0.152280	0.761419	0.508944	0.037017	0.404516	0.133417	0.229903	0.064390	0.049223	0.284447	0.325148	0.027612	0.191618	0.173229	0.343547	0.028239	0.044892	0.601904	0.260002	0.027051	0.085247	0.262934	0.466320	0.479522	0.515373	0.243271	0.798588	0.474654	0.380289	0.365127	0.233757	0.813978	1.068297	0.218479	0.630916	0.133623	0.148996	0.153066	0.179829	0.289921	0.227337	0.352505	0.421263	0.093357	0.048086	0.118216	0.167883
86	0.029855	0.064988	0.293012	0.360130	0.050724	0.091122	0.242448	0.426292	0.099317	0.071112	0.167379	0.286168	0.023086	0.075552	0.116986	0.356527	0.244581	0.327742	0.449821	0.526935	0.300590	0.270848	0.123725	0.220042	0.083242	0.148854	0.696372	0.469452	0.035772	0.393167	0.145979	0.289105	0.076190	0.047238	0.216773	0.397908	0.028172	0.199679	0.168006	0.343937	0.028559	0.048520	0.602877	0.210817	0.024262	0.077987	0.254602	0.478728	0.481235	0.515898	0.248352	0.790844	0.392973	0.283625	0.349899	0.233857	0.857425	1.070276	0.220229	0.639776	0.130241	0.173208	0.163264	0.175947	0.291270	0.228924	0.354718	0.474861	0.076551	0.037131	0.119498	0.205346
87	0.029323	0.064937	0.301470	0.356981	0.053782	0.079999	0.249028	0.431062	0.100121	0.070002	0.173456	0.419899	0.026549	0.065961	0.160787	0.359373	0.291033	0.340044	0.449862	0.528498	0.330721	0.258571	0.129525	0.218584	0.077922	0.144902	0.619788	0.455750	0.035085	0.390792	0.146551	0.291158	0.088162	0.044676	0.211902	0.388341	0.028624	0.200270	0.159528	0.335975	0.029232	0.047057	0.603160	0.204711	0.018898	0.075288	0.238379	0.489673	0.486026	0.517681	0.265612	0.705647	0.321484	0.251858	0.324338	0.233928	0.858684	1.106031	0.204562	0.668985	0.117492	0.212804	0.165907	0.167268	0.295005	0.244661	0.379443	0.486864	0.072642	0.035821	0.119595	0.200242
88	0.029451	0.065078	0.300002	0.350217	0.055587	0.076893	0.266020	0.433606	0.099743	0.069785	0.160916	0.474645	0.030518	0.067448	0.188071	0.361934	0.401085	0.342522	0.461365	0.531243	0.348357	0.257658	0.124829	0.215906	0.064732	0.130325	0.520268	0.473096	0.035047	0.387094	0.156024	0.304793	0.093158	0.045740	0.197705	0.388790	0.028940	0.200280	0.158075	0.282873	0.029528	0.047342	0.644431	0.240638	0.026837	0.074058	0.235811	0.484352	0.474240	0.506804	0.298273	0.601354	0.303749	0.271012	0.310286	0.250408	0.866392	1.133411	0.181841	0.661001	0.072471	0.233001	0.161526	0.163672	0.325703	0.269630	0.389591	0.473168	0.071156	0.036285	0.120445	0.194916
89	0.029677	0.066420	0.290978	0.383086	0.056641	0.076051	0.268505	0.443145	0.094034	0.061959	0.154064	0.476974	0.030499	0.073926	0.188575	0.356353	0.451328	0.371947	0.540315	0.451486	0.354317	0.255664	0.112159	0.211710	0.049921	0.105718	0.439252	0.468774	0.034090	0.375059	0.175575	0.352148	0.094612	0.047976	0.180086	0.414024	0.029317	0.200536	0.157725	0.256060	0.028562	0.043991	0.679226	0.274357	0.048307	0.074904	0.223380	0.481412	0.424123	0.480897	0.307777	0.560164	0.352883	0.342279	0.324814	0.280320	0.866076	1.134112	0.150725	0.635675	0.055753	0.316778	0.163552	0.163728	0.367970	0.276306	0.384186	0.496947	0.071744	0.039891	0.119948	0.193037
90	0.029558	0.062507	0.279773	0.400676	0.056514	0.081345	0.281385	0.452284	0.090118	0.070961	0.220320	0.489524	0.031845	0.078241	0.191923	0.352577	0.701855	0.532893	0.575989	0.374401	0.354483	0.254485	0.098612	0.304632	0.038479	0.091500	0.430293	0.364065	0.033223	0.348831	0.188687	0.390303	0.093435	0.046970	0.163609	0.412553	0.036752	0.202729	0.156470	0.256935	0.029242	0.042828	0.655207	0.255668	0.055753	0.075194	0.217340	0.439717	0.420635	0.488007	0.312118	0.513363	0.446162	0.436780	0.334517	0.280533	0.860421	1.132640	0.155438	0.644194	0.054357	0.335743	0.163741	0.165834	0.385139	0.273670	0.376245	0.522690	0.057691	0.036584	0.118712	0.192953
91	0.028042	0.054819	0.288152	0.379530	0.057944	0.088420	0.325168	0.470087	0.165678	0.130541	0.258540	0.541182	0.037935	0.091882	0.239408	0.350850	0.817835	0.586496	0.537549	0.397243	0.352138	0.257088	0.097445	0.343956	0.040275	0.091983	0.425965	0.298280	0.026127	0.306287	0.188122	0.394646	0.095992	0.044858	0.207235	0.413797	0.048905	0.205239	0.149635	0.256751	0.028166	0.046151	0.584849	0.245078	0.056092	0.073601	0.189078	0.327457	0.427319	0.490083	0.310755	0.410336	0.556774	0.500682	0.329415	0.285774	0.844531	1.088191	0.158570	0.652595	0.054752	0.336958	0.156897	0.160080	0.382899	0.264354	0.372965	0.528638	0.032075	0.031171	0.120042	0.193264
92	0.027899	0.050375	0.311039	0.377003	0.062265	0.094224	0.367667	0.501635	0.228132	0.155006	0.255570	0.599056	0.043959	0.108405	0.355547	0.353367	0.819622	0.592835	0.538937	0.395632	0.362805	0.291386	0.096166	0.337068	0.037569	0.082920	0.411738	0.284367	0.021124	0.159451	0.187767	0.432018	0.105420	0.050360	0.217531	0.370888	0.062782	0.209117	0.131149	0.242276	0.033136	0.055871	0.562048	0.249918	0.069190	0.052961	0.142361	0.266453	0.427872	0.464591	0.307019	0.295174	0.685975	0.522191	0.316912	0.321160	0.849777	1.045982	0.158396	0.646598	0.043457	0.336276	0.149962	0.135311	0.411993	0.278258	0.359798	0.529105	0.022242	0.037399	0.127932	0.192581
93	0.032698	0.052339	0.305892	0.375083	0.066665	0.101574	0.383350	0.504594	0.297603	0.162055	0.255324	0.616123	0.048418	0.117624	0.428001	0.352425	0.822274	0.606748	0.593301	0.378914	0.361710	0.291150	0.095179	0.329614	0.037265	0.078215	0.357096	0.317145	0.020152	0.142923	0.186349	0.486116	0.151478	0.070489	0.230855	0.367567	0.081491	0.209652	0.110735	0.205484	0.035421	0.058013	0.563245	0.288036	0.097882	0.034919	0.116044	0.259606	0.415362	0.418851	0.305549	0.265319	0.702719	0.541923	0.305029	0.374404	0.871522	1.020773	0.156928	0.645117	0.036627	0.337622	0.162328	0.118816	0.418422	0.303856	0.324635	0.532283	0.044584	0.065270	0.136229	0.206721
94	0.034533	0.056605	0.290077	0.419684	0.076669	0.116820	0.397363	0.504922	0.320291	0.190314	0.253607	0.621762	0.049995	0.119918	0.494334	0.349066	0.864424	0.627884	0.627918	0.352961	0.359246	0.277462	0.097900	0.338726	0.053941	0.071691	0.338115	0.350968	0.017126	0.143038	0.184383	0.494468	0.158916	0.071368	0.229812	0.370079	0.103085	0.199535	0.102564	0.152969	0.037715	0.061149	0.524321	0.311836	0.101664	0.036938	0.095023	0.255269	0.369404	0.382554	0.291408	0.253534	0.745209	0.646010	0.285988	0.401713	0.825029	0.997533	0.159413	0.643731	0.035517	0.339275	0.194533	0.110587	0.438855	0.337095	0.316377	0.534882	0.069381	0.079700	0.167931	0.215793
95	0.034129	0.056730	0.295193	0.478893	0.086980	0.124760	0.383582	0.466695	0.410856	0.244449	0.278649	0.617863	0.049568	0.117306	0.516428	0.344326	0.954089	0.634901	0.625096	0.353683	0.371427	0.276485	0.155261	0.337509	0.057406	0.066058	0.334578	0.350774	0.014792	0.140538	0.185860	0.496614	0.155998	0.073921	0.236256	0.479848	0.118940	0.183331	0.123889	0.130612	0.034920	0.062466	0.452372	0.314477	0.104570	0.040332	0.093698	0.227812	0.329559	0.412555	0.276240	0.228215	0.852971	0.753909	0.263443	0.406133	0.733666	1.021627	0.159704	0.639309	0.035543	0.339422	0.219756	0.125560	0.472850	0.353604	0.310161	0.527018	0.092836	0.081167	0.205688	0.215635
96	0.035505	0.053165	0.318613	0.460418	0.119959	0.133929	0.336177	0.369249	0.445679	0.257768	0.431460	0.722583	0.076208	0.120995	0.530462	0.318861	0.988318	0.637035	0.606489	0.402328	0.371417	0.264033	0.207762	0.338076	0.073434	0.066336	0.334215	0.347398	0.015704	0.101892	0.191811	0.496103	0.156111	0.078884	0.241259	0.523009	0.120330	0.172245	0.148978	0.130380	0.033722	0.062177	0.438614	0.317560	0.104896	0.050032	0.095242	0.173838	0.358308	0.407723	0.263479	0.224280	0.901938	0.791333	0.253916	0.409699	0.691895	0.928665	0.160592	0.626174	0.035686	0.337453	0.231357	0.153476	0.494237	0.346586	0.298472	0.535720	0.119186	0.081170	0.231326	0.215942
97	0.038912	0.050478	0.293064	0.465300	0.143787	0.135034	0.327023	0.343745	0.447933	0.257999	0.570455	0.652685	0.115596	0.133298	0.578538	0.284928	1.064371	0.680575	0.588021	0.407999	0.436126	0.270816	0.209383	0.338269	0.107964	0.068390	0.319367	0.362151	0.015754	0.085776	0.208310	0.485052	0.177562	0.097909	0.254509	0.466692	0.127390	0.169946	0.152833	0.130796	0.033448	0.062233	0.428825	0.348603	0.111442	0.057254	0.095541	0.112986	0.316430	0.346985	0.245471	0.222862	0.952024	0.800978	0.261564	0.415467	0.603057	0.767888	0.152935	0.551850	0.034720	0.335828	0.231485	0.193266	0.475832	0.330317	0.294889	0.512492	0.130521	0.085583	0.243073	0.234260
98	0.041357	0.050566	0.261330	0.467496	0.149958	0.132765	0.323501	0.340443	0.448399	0.258241	0.592996	0.625324	0.133831	0.136850	0.658293	0.291780	1.147106	0.677590	0.580248	0.400402	0.431128	0.262089	0.214452	0.337830	0.186316	0.094524	0.283522	0.389925	0.014772	0.081298	0.238136	0.443942	0.257713	0.128156	0.303785	0.478884	0.143236	0.145694	0.150967	0.126934	0.032535	0.066116	0.401498	0.366245	0.112294	0.075374	0.096413	0.052336	0.296754	0.328621	0.229520	0.205574	0.980967	0.799847	0.267606	0.421107	0.590268	0.715722	0.137524	0.460286	0.033015	0.334206	0.226643	0.273992	0.477140	0.333515	0.293748	0.462437	0.166648	0.124065	0.247951	0.213818
99	0.042719	0.049299	0.265442	0.472195	0.149911	0.138056	0.315944	0.335766	0.452312	0.259267	0.594813	0.659353	0.141590	0.134272	0.707001	0.313619	1.182934	0.675179	0.580545	0.398262	0.423066	0.266090	0.227910	0.341679	0.271515	0.127800	0.280897	0.473440	0.014585	0.081765	0.239618	0.441241	0.290626	0.140256	0.349049	0.503515	0.157029	0.134539	0.149656	0.126142	0.050689	0.083523	0.417154	0.345937	0.128292	0.093268	0.092124	0.043154	0.292686	0.328538	0.274578	0.232729	0.986217	0.796875	0.267756	0.433467	0.508832	0.699868	0.127882	0.463580	0.027474	0.323489	0.219465	0.443647	0.479383	0.334577	0.299037	0.402307	0.200692	0.140126	0.286434	0.210272
100	0.055514	0.048770	0.280401	0.479850	0.205809	0.160232	0.326268	0.327609	0.446879	0.257050	0.618728	0.688430	0.145904	0.130183	0.725749	0.327027	1.174052	0.675395	0.572633	0.382919	0.408187	0.268921	0.232462	0.338886	0.292240	0.136395	0.267761	0.502531	0.014788	0.082578	0.237300	0.443678	0.322393	0.148806	0.358978	0.490182	0.170717	0.120622	0.145779	0.124358	0.120420	0.116407	0.541092	0.396514	0.132472	0.095215	0.076623	0.045464	0.318783	0.324383	0.352148	0.341168	0.988143	0.794622	0.268469	0.435349	0.492573	0.698258	0.126578	0.429929	0.028535	0.299471	0.258129	0.583526	0.483752	0.325867	0.277474	0.378752	0.202349	0.140295	0.328719	0.210054
101	0.068521	0.053237	0.324944	0.607914	0.325722	0.195241	0.325702	0.293898	0.424109	0.246151	0.654107	0.649596	0.194606	0.131790	0.727760	0.323840	1.160345	0.664698	0.504073	0.379900	0.410909	0.287610	0.231469	0.336263	0.294109	0.137796	0.261911	0.490706	0.014602	0.082286	0.229646	0.417286	0.348062	0.151582	0.359142	0.476305	0.176120	0.118449	0.144704	0.114314	0.156241	0.135773	0.621476	0.391822	0.132354	0.098934	0.066464	0.045352	0.320100	0.326661	0.382692	0.328345	0.986369	0.791576	0.269606	0.439834	0.516946	0.645605	0.134624	0.348398	0.030527	0.254451	0.286780	0.596615	0.466005	0.305787	0.268605	0.382098	0.202204	0.140232	0.373340	0.204547
