	128_P_T2_sh_L_ND_A_01.c3d	128_P_T2_sh_L_ND_A_01.c3d	128_P_T2_sh_L_ND_A_01.c3d	128_P_T2_sh_L_ND_A_01.c3d	128_P_T2_sh_L_ND_A_01.c3d	128_P_T2_sh_L_ND_A_01.c3d	128_P_T2_sh_L_ND_A_01.c3d	128_P_T2_sh_L_ND_A_01.c3d	128_P_T2_sh_L_ND_A_02.c3d	128_P_T2_sh_L_ND_A_02.c3d	128_P_T2_sh_L_ND_A_02.c3d	128_P_T2_sh_L_ND_A_02.c3d	128_P_T2_sh_L_ND_A_02.c3d	128_P_T2_sh_L_ND_A_02.c3d	128_P_T2_sh_L_ND_A_02.c3d	128_P_T2_sh_L_ND_A_02.c3d	128_P_T2_sh_L_ND_A_03.c3d	128_P_T2_sh_L_ND_A_03.c3d	128_P_T2_sh_L_ND_A_03.c3d	128_P_T2_sh_L_ND_A_03.c3d	128_P_T2_sh_L_ND_A_03.c3d	128_P_T2_sh_L_ND_A_03.c3d	128_P_T2_sh_L_ND_A_03.c3d	128_P_T2_sh_L_ND_A_03.c3d	128_P_T2_sh_L_ND_A_04.c3d	128_P_T2_sh_L_ND_A_04.c3d	128_P_T2_sh_L_ND_A_04.c3d	128_P_T2_sh_L_ND_A_04.c3d	128_P_T2_sh_L_ND_A_04.c3d	128_P_T2_sh_L_ND_A_04.c3d	128_P_T2_sh_L_ND_A_04.c3d	128_P_T2_sh_L_ND_A_04.c3d	128_P_T2_sh_L_ND_A_05.c3d	128_P_T2_sh_L_ND_A_05.c3d	128_P_T2_sh_L_ND_A_05.c3d	128_P_T2_sh_L_ND_A_05.c3d	128_P_T2_sh_L_ND_A_05.c3d	128_P_T2_sh_L_ND_A_05.c3d	128_P_T2_sh_L_ND_A_05.c3d	128_P_T2_sh_L_ND_A_05.c3d	128_P_T2_sh_L_ND_A_06.c3d	128_P_T2_sh_L_ND_A_06.c3d	128_P_T2_sh_L_ND_A_06.c3d	128_P_T2_sh_L_ND_A_06.c3d	128_P_T2_sh_L_ND_A_06.c3d	128_P_T2_sh_L_ND_A_06.c3d	128_P_T2_sh_L_ND_A_06.c3d	128_P_T2_sh_L_ND_A_06.c3d	128_P_T2_sh_L_ND_A_07.c3d	128_P_T2_sh_L_ND_A_07.c3d	128_P_T2_sh_L_ND_A_07.c3d	128_P_T2_sh_L_ND_A_07.c3d	128_P_T2_sh_L_ND_A_07.c3d	128_P_T2_sh_L_ND_A_07.c3d	128_P_T2_sh_L_ND_A_07.c3d	128_P_T2_sh_L_ND_A_07.c3d	128_P_T2_sh_L_ND_A_08.c3d	128_P_T2_sh_L_ND_A_08.c3d	128_P_T2_sh_L_ND_A_08.c3d	128_P_T2_sh_L_ND_A_08.c3d	128_P_T2_sh_L_ND_A_08.c3d	128_P_T2_sh_L_ND_A_08.c3d	128_P_T2_sh_L_ND_A_08.c3d	128_P_T2_sh_L_ND_A_08.c3d	128_P_T2_sh_L_ND_A_09.c3d	128_P_T2_sh_L_ND_A_09.c3d	128_P_T2_sh_L_ND_A_09.c3d	128_P_T2_sh_L_ND_A_09.c3d	128_P_T2_sh_L_ND_A_09.c3d	128_P_T2_sh_L_ND_A_09.c3d	128_P_T2_sh_L_ND_A_09.c3d	128_P_T2_sh_L_ND_A_09.c3d
	Biceps femoris_lat	Semitendinosus_lat	Vastus lateralis_lat	Vastus medialis_lat	Biceps femoris_med	Semitendinosus_med	Vastus lateralis_med	Vastus medialis_med	Biceps femoris_lat	Semitendinosus_lat	Vastus lateralis_lat	Vastus medialis_lat	Biceps femoris_med	Semitendinosus_med	Vastus lateralis_med	Vastus medialis_med	Biceps femoris_lat	Semitendinosus_lat	Vastus lateralis_lat	Vastus medialis_lat	Biceps femoris_med	Semitendinosus_med	Vastus lateralis_med	Vastus medialis_med	Biceps femoris_lat	Semitendinosus_lat	Vastus lateralis_lat	Vastus medialis_lat	Biceps femoris_med	Semitendinosus_med	Vastus lateralis_med	Vastus medialis_med	Biceps femoris_lat	Semitendinosus_lat	Vastus lateralis_lat	Vastus medialis_lat	Biceps femoris_med	Semitendinosus_med	Vastus lateralis_med	Vastus medialis_med	Biceps femoris_lat	Semitendinosus_lat	Vastus lateralis_lat	Vastus medialis_lat	Biceps femoris_med	Semitendinosus_med	Vastus lateralis_med	Vastus medialis_med	Biceps femoris_lat	Semitendinosus_lat	Vastus lateralis_lat	Vastus medialis_lat	Biceps femoris_med	Semitendinosus_med	Vastus lateralis_med	Vastus medialis_med	Biceps femoris_lat	Semitendinosus_lat	Vastus lateralis_lat	Vastus medialis_lat	Biceps femoris_med	Semitendinosus_med	Vastus lateralis_med	Vastus medialis_med	Biceps femoris_lat	Semitendinosus_lat	Vastus lateralis_lat	Vastus medialis_lat	Biceps femoris_med	Semitendinosus_med	Vastus lateralis_med	Vastus medialis_med
	P2D	P2D	P2D	P2D	P2D	P2D	P2D	P2D	P2D	P2D	P2D	P2D	P2D	P2D	P2D	P2D	P2D	P2D	P2D	P2D	P2D	P2D	P2D	P2D	P2D	P2D	P2D	P2D	P2D	P2D	P2D	P2D	P2D	P2D	P2D	P2D	P2D	P2D	P2D	P2D	P2D	P2D	P2D	P2D	P2D	P2D	P2D	P2D	P2D	P2D	P2D	P2D	P2D	P2D	P2D	P2D	P2D	P2D	P2D	P2D	P2D	P2D	P2D	P2D	P2D	P2D	P2D	P2D	P2D	P2D	P2D	P2D
	EMG_lat	EMG_lat	EMG_lat	EMG_lat	EMG_med	EMG_med	EMG_med	EMG_med	EMG_lat	EMG_lat	EMG_lat	EMG_lat	EMG_med	EMG_med	EMG_med	EMG_med	EMG_lat	EMG_lat	EMG_lat	EMG_lat	EMG_med	EMG_med	EMG_med	EMG_med	EMG_lat	EMG_lat	EMG_lat	EMG_lat	EMG_med	EMG_med	EMG_med	EMG_med	EMG_lat	EMG_lat	EMG_lat	EMG_lat	EMG_med	EMG_med	EMG_med	EMG_med	EMG_lat	EMG_lat	EMG_lat	EMG_lat	EMG_med	EMG_med	EMG_med	EMG_med	EMG_lat	EMG_lat	EMG_lat	EMG_lat	EMG_med	EMG_med	EMG_med	EMG_med	EMG_lat	EMG_lat	EMG_lat	EMG_lat	EMG_med	EMG_med	EMG_med	EMG_med	EMG_lat	EMG_lat	EMG_lat	EMG_lat	EMG_med	EMG_med	EMG_med	EMG_med
ITEM	Y	Y	Y	Y	Y	Y	Y	Y	Y	Y	Y	Y	Y	Y	Y	Y	Y	Y	Y	Y	Y	Y	Y	Y	Y	Y	Y	Y	Y	Y	Y	Y	Y	Y	Y	Y	Y	Y	Y	Y	Y	Y	Y	Y	Y	Y	Y	Y	Y	Y	Y	Y	Y	Y	Y	Y	Y	Y	Y	Y	Y	Y	Y	Y	Y	Y	Y	Y	Y	Y	Y	Y
1	0.659384	0.354062	0.064671	0.095898	0.444209	0.386385	0.297263	0.242106	0.608485	0.624669	0.159686	0.105162	0.312872	0.335817	0.261857	0.242989	0.600087	0.523977	0.198268	0.202838	0.448939	0.505457	0.123134	0.087483	0.422934	0.451815	0.204889	0.094371	0.266661	0.313245	0.272272	0.268713	0.955619	0.938762	0.115706	0.134589	0.487291	0.601000	0.075033	0.165228	0.477037	0.380529	0.087652	0.132845	0.311303	0.200761	0.144696	0.099528	0.251547	0.206574	0.177079	0.288468	0.371135	0.176066	0.152138	0.154873	0.512461	0.488316	0.295999	0.254640	0.282798	0.293957	0.126634	0.296232	0.634289	0.351322	0.086814	0.107604	0.170437	0.090640	0.039005	0.174304
2	0.702490	0.403755	0.063347	0.081713	0.439359	0.389027	0.351680	0.252689	0.762781	0.777876	0.237010	0.122653	0.314246	0.335878	0.228041	0.169552	0.553060	0.469710	0.264788	0.194320	0.378449	0.461217	0.124364	0.101565	0.426691	0.453653	0.281374	0.164190	0.267084	0.296817	0.294614	0.269722	1.027454	0.976572	0.116969	0.140633	0.486212	0.603402	0.086673	0.167794	0.503220	0.390708	0.094412	0.132479	0.309571	0.200612	0.143121	0.114604	0.239410	0.228063	0.261108	0.309352	0.344256	0.157856	0.151633	0.152880	0.527332	0.538980	0.296727	0.254532	0.246750	0.266134	0.141754	0.296345	0.618625	0.408474	0.107554	0.106366	0.129681	0.096780	0.112896	0.183915
3	0.693949	0.431273	0.088587	0.109942	0.434331	0.382770	0.364800	0.255989	0.741589	0.782753	0.252463	0.146339	0.316793	0.332459	0.193813	0.166511	0.499300	0.519649	0.266610	0.230784	0.383536	0.443291	0.123877	0.174912	0.424794	0.436593	0.302211	0.177101	0.266320	0.274074	0.312370	0.270602	1.017136	1.013111	0.187611	0.154073	0.468257	0.603674	0.091955	0.168974	0.533810	0.380549	0.124848	0.165057	0.334212	0.202425	0.143471	0.113174	0.252218	0.262028	0.296757	0.387192	0.108041	0.159122	0.138221	0.153835	0.523499	0.568739	0.297349	0.254489	0.225070	0.229320	0.146329	0.286408	0.622683	0.412539	0.105890	0.095954	0.090556	0.132014	0.175672	0.190674
4	0.640170	0.488008	0.155377	0.246910	0.417732	0.381546	0.364906	0.262592	0.700039	0.707940	0.253270	0.147378	0.319887	0.329812	0.190432	0.134253	0.475081	0.589099	0.266761	0.233578	0.403130	0.473554	0.123011	0.198819	0.422969	0.415327	0.308671	0.191691	0.246160	0.245232	0.331150	0.283825	0.985554	1.010446	0.226839	0.150281	0.461937	0.602152	0.088419	0.170968	0.564565	0.426575	0.132971	0.164975	0.336857	0.202895	0.146374	0.159375	0.317312	0.376173	0.295778	0.412532	0.099341	0.157448	0.130442	0.206177	0.521935	0.611620	0.296451	0.253223	0.225663	0.219193	0.145124	0.260588	0.608387	0.547791	0.112380	0.111684	0.087188	0.131328	0.195749	0.190510
5	0.577298	0.492725	0.228680	0.281565	0.421511	0.389061	0.364796	0.269470	0.678918	0.638931	0.326296	0.226162	0.318418	0.324741	0.122818	0.097210	0.558066	0.603156	0.266055	0.235260	0.435979	0.532119	0.122503	0.200043	0.428292	0.377483	0.310319	0.198143	0.228685	0.241311	0.336757	0.300196	0.959676	0.802367	0.254612	0.159364	0.436902	0.567458	0.086608	0.173769	0.607177	0.469458	0.135279	0.175707	0.336818	0.205752	0.143874	0.170311	0.412805	0.425905	0.293953	0.413846	0.116227	0.156463	0.149335	0.219348	0.527841	0.620182	0.272318	0.228326	0.225253	0.222862	0.144908	0.244739	0.581028	0.686486	0.111902	0.142643	0.087046	0.127634	0.203921	0.200363
6	0.466719	0.513465	0.291940	0.288242	0.423335	0.410855	0.364943	0.275659	0.673412	0.646926	0.526782	0.462668	0.282811	0.296815	0.102422	0.082634	0.594007	0.544835	0.270838	0.242159	0.367344	0.529582	0.124063	0.202587	0.449661	0.353000	0.355999	0.207762	0.224332	0.236931	0.337133	0.314564	0.897962	0.577978	0.386791	0.191882	0.376022	0.470419	0.086744	0.173967	0.628061	0.425685	0.142517	0.182312	0.333492	0.210276	0.139883	0.170245	0.493871	0.422885	0.294313	0.415669	0.122679	0.162508	0.163290	0.215393	0.529041	0.620587	0.237076	0.174266	0.225198	0.222904	0.144464	0.222429	0.517763	0.693366	0.111952	0.163411	0.086232	0.129035	0.244497	0.221902
7	0.386531	0.505993	0.318952	0.289534	0.427896	0.434959	0.363004	0.279367	0.657120	0.632730	0.687613	0.529764	0.202926	0.256782	0.198107	0.089042	0.559125	0.513935	0.275605	0.266742	0.350092	0.523973	0.161294	0.203752	0.453213	0.342139	0.362942	0.266885	0.208811	0.216398	0.337382	0.328540	0.893741	0.567071	0.400392	0.216333	0.334578	0.359218	0.089094	0.181346	0.622283	0.360642	0.158012	0.185591	0.334093	0.203874	0.143046	0.183403	0.559611	0.432131	0.289739	0.416266	0.136882	0.166725	0.166009	0.222871	0.492085	0.619398	0.221955	0.153108	0.214298	0.202803	0.146883	0.201633	0.527473	0.715335	0.112721	0.166247	0.106734	0.159864	0.273929	0.234573
8	0.389581	0.507059	0.459941	0.350906	0.422690	0.450805	0.359905	0.283982	0.638515	0.624378	0.733566	0.545181	0.133695	0.220957	0.289237	0.077196	0.689220	0.592288	0.268595	0.281423	0.359578	0.538450	0.270302	0.208575	0.441783	0.339328	0.361985	0.311198	0.185191	0.195858	0.333628	0.334286	0.860562	0.547614	0.402705	0.216716	0.330668	0.359883	0.088582	0.193155	0.603158	0.365469	0.154712	0.205756	0.315735	0.191258	0.127882	0.191286	0.618095	0.461054	0.271748	0.376137	0.139236	0.168475	0.163764	0.244125	0.530346	0.620144	0.201525	0.153154	0.197405	0.167689	0.151953	0.198094	0.687099	0.770627	0.127836	0.174607	0.109445	0.180776	0.287966	0.241466
9	0.434430	0.569476	0.493647	0.425900	0.375882	0.456560	0.362009	0.286428	0.638416	0.626014	0.755809	0.558614	0.120008	0.219551	0.336197	0.085027	0.719880	0.657022	0.292179	0.275572	0.362206	0.541247	0.337699	0.256915	0.442221	0.340538	0.362003	0.312929	0.160837	0.188963	0.323746	0.327520	0.625332	0.508029	0.404308	0.216931	0.327823	0.304911	0.088527	0.196636	0.540378	0.370108	0.171402	0.223322	0.268238	0.196822	0.112992	0.188349	0.618419	0.464975	0.265326	0.340672	0.150778	0.178374	0.187780	0.246237	0.493671	0.613816	0.099078	0.119644	0.200177	0.183310	0.158243	0.193102	0.734232	0.780966	0.135062	0.202720	0.118897	0.182997	0.292582	0.242196
10	0.525510	0.658208	0.514466	0.435771	0.327065	0.454443	0.361081	0.276176	0.633842	0.614592	0.920273	0.641214	0.137652	0.226666	0.343039	0.111903	0.742280	0.672879	0.252560	0.312848	0.369680	0.589461	0.348902	0.264617	0.440006	0.344102	0.372588	0.321905	0.141637	0.193220	0.306259	0.314313	0.428140	0.417431	0.402612	0.216245	0.328492	0.305552	0.089794	0.194550	0.502962	0.375451	0.221355	0.252597	0.214983	0.218215	0.112382	0.187720	0.617550	0.454646	0.259758	0.315521	0.176052	0.191953	0.256823	0.244204	0.492299	0.515837	0.065266	0.060831	0.209283	0.219699	0.169775	0.174026	0.734291	0.773857	0.135148	0.213282	0.131207	0.202539	0.293707	0.243085
11	0.575755	0.712752	0.536296	0.436657	0.270143	0.429183	0.338258	0.268234	0.609517	0.647066	0.994399	0.748284	0.144958	0.227995	0.343894	0.134066	0.727380	0.611033	0.248143	0.346788	0.403975	0.635930	0.374212	0.302850	0.416938	0.343591	0.397471	0.326840	0.133065	0.202920	0.278215	0.269998	0.204613	0.313429	0.369354	0.202936	0.314920	0.303880	0.108599	0.186292	0.508022	0.373222	0.228746	0.269477	0.192100	0.223342	0.111916	0.189541	0.612540	0.448652	0.250726	0.307476	0.186902	0.189945	0.286105	0.244795	0.484129	0.362160	0.067086	0.043613	0.207297	0.243072	0.176080	0.166737	0.738087	0.756097	0.130287	0.210956	0.139164	0.230572	0.296226	0.245469
12	0.540336	0.714243	0.537840	0.435185	0.259179	0.411187	0.323476	0.271106	0.562702	0.616773	1.005617	0.771425	0.155223	0.254008	0.343606	0.170335	0.690368	0.538343	0.248936	0.367503	0.443332	0.669226	0.452194	0.340869	0.392758	0.332767	0.429422	0.323315	0.141781	0.224095	0.269533	0.255452	0.252458	0.314928	0.356127	0.212041	0.266474	0.288568	0.176094	0.194548	0.477211	0.363954	0.224007	0.269097	0.184980	0.242847	0.119017	0.190579	0.595488	0.460880	0.142615	0.276071	0.179133	0.174065	0.289077	0.270815	0.537018	0.390408	0.064006	0.046599	0.223294	0.270226	0.172270	0.147451	0.739878	0.728997	0.109845	0.207104	0.141592	0.247288	0.307155	0.242279
13	0.526578	0.700090	0.548429	0.436038	0.258798	0.384386	0.361100	0.288096	0.368988	0.498100	1.003106	0.768772	0.205202	0.315664	0.347528	0.209074	0.624953	0.516094	0.247547	0.369357	0.447911	0.668730	0.477781	0.341902	0.313677	0.230123	0.423966	0.322281	0.154476	0.244617	0.258263	0.243475	0.295651	0.334615	0.345397	0.210170	0.228361	0.257124	0.270557	0.197652	0.449559	0.362081	0.210655	0.252924	0.183332	0.263143	0.141914	0.198163	0.588468	0.439756	0.107639	0.148150	0.178780	0.159046	0.360603	0.287676	0.591097	0.307288	0.077648	0.056219	0.248087	0.280314	0.197411	0.111035	0.742141	0.725096	0.094601	0.204129	0.155569	0.271496	0.316122	0.209929
14	0.523688	0.658496	0.567896	0.389053	0.254984	0.364513	0.395446	0.308765	0.361072	0.507132	1.003182	0.765796	0.233999	0.342083	0.356614	0.214490	0.569256	0.524040	0.240921	0.370464	0.440840	0.643592	0.483558	0.305055	0.261411	0.172025	0.375089	0.297602	0.161283	0.249847	0.242046	0.239526	0.294118	0.289410	0.194160	0.190856	0.214582	0.243505	0.329538	0.199506	0.389406	0.284084	0.218403	0.253025	0.191947	0.291718	0.195824	0.207033	0.569613	0.369824	0.120970	0.097867	0.178281	0.162279	0.476780	0.290063	0.850594	0.264795	0.138605	0.176256	0.245101	0.274993	0.216586	0.089036	0.706983	0.723390	0.093025	0.203334	0.175784	0.283391	0.301173	0.171699
15	0.523463	0.635844	0.561781	0.348314	0.252422	0.353084	0.411559	0.321091	0.352374	0.496604	1.002421	0.766423	0.238030	0.345245	0.362123	0.214877	0.579590	0.529701	0.187766	0.344432	0.413403	0.608134	0.483949	0.302771	0.277048	0.182201	0.345310	0.283710	0.158043	0.240316	0.226953	0.237131	0.283757	0.352503	0.173628	0.165645	0.191278	0.239522	0.356498	0.186848	0.316429	0.207524	0.227592	0.246134	0.212406	0.290753	0.229927	0.220976	0.506723	0.346780	0.126852	0.096495	0.188029	0.186418	0.498818	0.264239	0.844773	0.265545	0.203035	0.261900	0.244927	0.280626	0.208784	0.087495	0.658341	0.636099	0.095127	0.192427	0.176960	0.269697	0.268367	0.162049
16	0.523356	0.617425	0.531928	0.340952	0.236896	0.345062	0.405596	0.321955	0.375910	0.505975	0.963063	0.718040	0.236952	0.345625	0.376242	0.249602	0.395669	0.421244	0.179914	0.316625	0.372254	0.528327	0.484450	0.303920	0.288228	0.212623	0.341515	0.278042	0.154352	0.233575	0.197529	0.228942	0.293993	0.379931	0.178180	0.170757	0.179105	0.251930	0.376974	0.177844	0.225658	0.179169	0.219568	0.250108	0.239349	0.288484	0.237505	0.216995	0.434499	0.347457	0.129806	0.086068	0.176417	0.185783	0.490668	0.244901	0.840346	0.274686	0.220956	0.284958	0.238354	0.286867	0.206575	0.088196	0.663944	0.538410	0.111910	0.173896	0.174824	0.266830	0.253284	0.161714
17	0.512425	0.588011	0.522443	0.339688	0.232650	0.340844	0.368333	0.310200	0.409191	0.509575	0.854302	0.610929	0.238102	0.348949	0.396081	0.318816	0.349333	0.302586	0.151688	0.313837	0.377124	0.488526	0.486741	0.307400	0.284420	0.236541	0.346720	0.275991	0.153047	0.235490	0.178855	0.216109	0.308390	0.385840	0.182609	0.197321	0.221795	0.287302	0.378845	0.174432	0.178699	0.176686	0.222340	0.242902	0.257972	0.287255	0.237789	0.218226	0.325565	0.336671	0.157316	0.097529	0.176527	0.190535	0.485106	0.241295	0.838650	0.276683	0.279251	0.285379	0.246354	0.293060	0.206101	0.103784	0.640961	0.542549	0.122291	0.161133	0.173797	0.266794	0.257446	0.154348
18	0.513516	0.587196	0.420128	0.309327	0.225209	0.340033	0.326186	0.302370	0.422665	0.512092	0.752257	0.571569	0.240203	0.356108	0.402047	0.391618	0.287251	0.229989	0.149101	0.286989	0.381340	0.486693	0.465573	0.328190	0.237903	0.228894	0.326228	0.279745	0.152798	0.233777	0.185689	0.203775	0.334144	0.407558	0.183890	0.202165	0.259203	0.308401	0.455672	0.187919	0.183341	0.204312	0.249856	0.220942	0.304354	0.285572	0.236567	0.186683	0.261740	0.286922	0.168861	0.099983	0.182186	0.203350	0.484379	0.233307	0.790804	0.274946	0.411482	0.314343	0.255846	0.294274	0.207852	0.124830	0.631624	0.478794	0.120835	0.166994	0.177712	0.269819	0.229193	0.123852
19	0.492630	0.555294	0.345439	0.170757	0.208748	0.339312	0.332795	0.295984	0.413424	0.528512	0.727911	0.565081	0.247188	0.350021	0.402303	0.434338	0.287017	0.229400	0.152509	0.203697	0.368518	0.483619	0.405774	0.335265	0.203812	0.225534	0.294966	0.251065	0.154546	0.231905	0.188950	0.189912	0.355517	0.419126	0.213435	0.213542	0.270317	0.312770	0.570051	0.242662	0.191375	0.335578	0.235168	0.193615	0.317311	0.286514	0.239330	0.181825	0.262191	0.289548	0.273694	0.139952	0.185616	0.207049	0.485165	0.204616	0.790486	0.285233	0.441023	0.365934	0.260036	0.295590	0.212726	0.125834	0.420950	0.414980	0.105314	0.152629	0.176217	0.260899	0.190019	0.092745
20	0.388208	0.431527	0.326760	0.136317	0.183464	0.334209	0.344987	0.289220	0.434305	0.548466	0.661985	0.531173	0.249464	0.325180	0.370740	0.438546	0.284128	0.225833	0.192563	0.161828	0.368986	0.483469	0.365207	0.336141	0.212150	0.226065	0.296060	0.171287	0.165577	0.240754	0.188284	0.173593	0.319111	0.392842	0.227504	0.237121	0.272726	0.320226	0.613205	0.285531	0.176692	0.449428	0.194691	0.149194	0.340709	0.311154	0.244299	0.180202	0.255525	0.345981	0.342030	0.183639	0.178645	0.198541	0.472605	0.196626	0.779547	0.300674	0.442098	0.389540	0.261167	0.294915	0.214515	0.126304	0.427334	0.457995	0.105573	0.115438	0.174876	0.242755	0.166232	0.071477
21	0.299348	0.305056	0.278354	0.150337	0.176560	0.322199	0.349508	0.284131	0.437094	0.544224	0.395107	0.397134	0.247285	0.323881	0.304019	0.438215	0.276714	0.188415	0.265944	0.182290	0.363516	0.407767	0.360662	0.352137	0.230051	0.228449	0.295912	0.153702	0.174507	0.246019	0.186897	0.181095	0.282822	0.376516	0.225883	0.239176	0.279485	0.333730	0.626729	0.313914	0.161992	0.485373	0.191847	0.126307	0.450517	0.348462	0.242800	0.168291	0.253875	0.344881	0.357501	0.195434	0.171977	0.188311	0.438814	0.199666	0.748085	0.331950	0.445646	0.393161	0.257927	0.285472	0.206210	0.126477	0.427402	0.486662	0.154506	0.101296	0.170407	0.240950	0.156889	0.068731
22	0.251306	0.218476	0.293201	0.149621	0.155033	0.289111	0.349275	0.280927	0.398747	0.479963	0.249296	0.172243	0.243702	0.326307	0.247551	0.436799	0.259894	0.141138	0.294598	0.196062	0.294972	0.304806	0.303520	0.311112	0.251735	0.234158	0.288199	0.147787	0.182084	0.239218	0.177582	0.185789	0.282531	0.368058	0.227796	0.229565	0.279856	0.338598	0.630461	0.329871	0.181679	0.497347	0.259859	0.161606	0.498288	0.343111	0.248726	0.157937	0.256568	0.334409	0.373950	0.194240	0.178156	0.189021	0.423817	0.204075	0.712137	0.297092	0.450543	0.393799	0.248717	0.261334	0.190635	0.124400	0.447794	0.487011	0.271583	0.206726	0.162613	0.236011	0.154498	0.067382
23	0.248337	0.187508	0.295563	0.151753	0.131636	0.255581	0.348336	0.280619	0.351649	0.401241	0.151033	0.122554	0.234323	0.325085	0.234012	0.432386	0.230812	0.120504	0.314418	0.191780	0.262373	0.257047	0.169671	0.281814	0.268602	0.236913	0.261011	0.133660	0.202689	0.235892	0.164020	0.197103	0.290881	0.310077	0.224923	0.223482	0.262981	0.324689	0.631422	0.328031	0.202324	0.498400	0.383946	0.299829	0.561700	0.341424	0.266192	0.161263	0.257325	0.341159	0.471852	0.230645	0.191157	0.246218	0.423382	0.172073	0.500247	0.291876	0.458370	0.386801	0.251618	0.254516	0.179449	0.108565	0.469991	0.492524	0.312757	0.279819	0.164416	0.324453	0.151460	0.058678
24	0.252234	0.186624	0.232457	0.151085	0.118017	0.233541	0.344300	0.279262	0.334233	0.351906	0.105690	0.123576	0.229550	0.324995	0.232178	0.428009	0.204138	0.124629	0.371060	0.228714	0.242264	0.259166	0.115734	0.278725	0.277097	0.237273	0.208539	0.132832	0.206077	0.270590	0.161280	0.206274	0.344514	0.282736	0.231905	0.211488	0.250634	0.312677	0.631663	0.325582	0.242613	0.501758	0.449184	0.369701	0.576722	0.332371	0.288970	0.162479	0.253326	0.425154	0.512132	0.284866	0.205917	0.428013	0.360679	0.145854	0.309667	0.293738	0.455685	0.361450	0.251127	0.264013	0.178095	0.100669	0.467047	0.469721	0.327927	0.286911	0.174371	0.538382	0.128864	0.057769
25	0.244733	0.187739	0.174141	0.151238	0.113223	0.214807	0.337750	0.281135	0.369807	0.404869	0.096346	0.126492	0.229340	0.312477	0.231030	0.418846	0.099009	0.122178	0.412057	0.248476	0.233930	0.260964	0.102766	0.278649	0.275666	0.244702	0.169314	0.148045	0.196590	0.344309	0.157878	0.203692	0.357404	0.282765	0.238374	0.173731	0.245126	0.304930	0.631605	0.338889	0.247432	0.509995	0.459388	0.369005	0.576768	0.329319	0.293942	0.160209	0.290085	0.553640	0.515763	0.300835	0.243906	0.561545	0.183237	0.131888	0.319302	0.288340	0.442757	0.358966	0.223706	0.276191	0.169700	0.100419	0.464902	0.461510	0.371266	0.306068	0.164585	0.578543	0.101875	0.057047
26	0.248509	0.188846	0.161998	0.151429	0.113148	0.205390	0.336390	0.283304	0.437422	0.651437	0.093961	0.121938	0.202607	0.261296	0.225909	0.401001	0.128899	0.149979	0.398519	0.251359	0.212304	0.261528	0.102023	0.273275	0.276619	0.244799	0.176084	0.238727	0.199055	0.358110	0.136049	0.203118	0.418478	0.259324	0.236398	0.172025	0.244615	0.302367	0.629663	0.354213	0.246789	0.516626	0.534155	0.394702	0.576744	0.317506	0.290471	0.158373	0.283891	0.561323	0.514531	0.300620	0.240071	0.588410	0.110676	0.110790	0.326624	0.348638	0.439066	0.352119	0.187132	0.276506	0.126916	0.098829	0.454435	0.412562	0.383937	0.307847	0.168444	0.583308	0.112373	0.056916
27	0.250904	0.186867	0.162417	0.150131	0.110565	0.198542	0.336131	0.276477	0.447807	0.879905	0.093913	0.111052	0.175638	0.258037	0.216315	0.396630	0.134705	0.154496	0.424839	0.276318	0.203006	0.273733	0.094902	0.270550	0.269223	0.237539	0.179995	0.300260	0.205606	0.362174	0.097317	0.202935	0.400688	0.227242	0.236051	0.237438	0.244327	0.301826	0.618562	0.354735	0.243940	0.516771	0.635044	0.460463	0.576558	0.287198	0.277106	0.149467	0.305542	0.599692	0.507305	0.297634	0.259808	0.606658	0.121059	0.111165	0.320863	0.433783	0.380954	0.357353	0.185722	0.273683	0.099949	0.098001	0.443130	0.411535	0.422820	0.343138	0.209872	0.598090	0.162966	0.086788
28	0.236850	0.148163	0.181212	0.151973	0.120391	0.183150	0.311210	0.248066	0.469548	0.949429	0.101997	0.095109	0.165919	0.360516	0.213116	0.395864	0.137586	0.170396	0.433927	0.289543	0.211052	0.265575	0.070691	0.254350	0.249854	0.215440	0.177072	0.307218	0.205953	0.364588	0.086785	0.200276	0.415463	0.217355	0.249791	0.343793	0.244583	0.295731	0.586584	0.352007	0.250259	0.501132	0.642772	0.481338	0.573400	0.259974	0.241108	0.135361	0.400647	0.666068	0.499945	0.301471	0.259181	0.637650	0.140938	0.128639	0.312830	0.486412	0.308521	0.346874	0.180074	0.269935	0.096715	0.098381	0.448273	0.405933	0.466907	0.377512	0.210373	0.613812	0.208467	0.090676
29	0.217268	0.144335	0.239175	0.189560	0.134491	0.167603	0.249964	0.202665	0.469189	1.113064	0.229169	0.191225	0.164243	0.477185	0.190432	0.377331	0.144293	0.182221	0.398841	0.275283	0.245048	0.271660	0.067393	0.231303	0.271058	0.190896	0.162283	0.305521	0.221951	0.364661	0.086401	0.199741	0.421595	0.191580	0.305279	0.364191	0.244599	0.285232	0.553195	0.353866	0.278847	0.408887	0.644527	0.482209	0.565596	0.258356	0.213565	0.104054	0.426208	0.678750	0.441638	0.279237	0.250912	0.641244	0.150866	0.146237	0.238012	0.483803	0.311006	0.319583	0.183929	0.294568	0.096488	0.094029	0.420505	0.399514	0.608437	0.389948	0.219661	0.629804	0.216054	0.107772
30	0.321048	0.323908	0.286235	0.196312	0.143688	0.187329	0.199171	0.173596	0.472236	1.115479	0.490031	0.534572	0.158391	0.504741	0.134198	0.325760	0.142031	0.178126	0.407341	0.464162	0.356424	0.293369	0.051946	0.209612	0.282887	0.167957	0.175511	0.321590	0.226934	0.373171	0.072966	0.240330	0.416106	0.166393	0.300485	0.409513	0.246742	0.281716	0.536025	0.354392	0.291444	0.305956	0.645790	0.482495	0.551950	0.257865	0.208014	0.099271	0.426412	0.661304	0.395821	0.259600	0.248390	0.645020	0.151515	0.150075	0.245373	0.513707	0.306389	0.310650	0.179313	0.299413	0.096268	0.070970	0.297397	0.357679	0.699116	0.407792	0.222095	0.643518	0.211355	0.106039
31	0.425315	0.401913	0.309862	0.189622	0.157390	0.235763	0.172932	0.179147	0.507521	1.143745	0.738189	0.751282	0.152578	0.502330	0.108105	0.243539	0.135427	0.164424	0.433193	0.733496	0.359707	0.275573	0.037576	0.135807	0.282499	0.159028	0.204018	0.360345	0.277463	0.396226	0.070230	0.276225	0.398269	0.167822	0.305912	0.435225	0.253002	0.277323	0.524569	0.348069	0.327872	0.244820	0.644658	0.482275	0.529528	0.260983	0.208434	0.080289	0.434374	0.661542	0.388135	0.259509	0.245488	0.647976	0.153920	0.147868	0.281790	0.498649	0.302859	0.308224	0.169158	0.311817	0.089892	0.040698	0.272925	0.290040	0.712619	0.418881	0.249462	0.661197	0.280712	0.106877
32	0.551028	0.488848	0.313287	0.207350	0.171249	0.252751	0.166974	0.187343	0.523128	1.158276	0.817462	0.784145	0.155076	0.521454	0.094766	0.170051	0.156147	0.182590	0.418399	0.748421	0.375301	0.252209	0.028968	0.089702	0.288721	0.159841	0.207569	0.398984	0.284891	0.398162	0.072652	0.279885	0.357972	0.180365	0.292787	0.441483	0.231484	0.257974	0.527997	0.358647	0.331776	0.274489	0.611887	0.462248	0.508321	0.296996	0.207705	0.079195	0.481958	0.649688	0.359735	0.265135	0.232999	0.647720	0.158748	0.149278	0.310681	0.500141	0.289598	0.308205	0.182658	0.353960	0.076172	0.040470	0.270486	0.261801	0.696781	0.416538	0.258607	0.664321	0.355052	0.108779
33	0.563722	0.507860	0.329003	0.266605	0.185349	0.293874	0.167684	0.187855	0.531453	1.167244	0.853614	0.813018	0.161575	0.521537	0.087005	0.181300	0.251327	0.228438	0.461938	0.843734	0.371265	0.251850	0.028501	0.093407	0.295468	0.159625	0.205883	0.409847	0.275959	0.389262	0.074465	0.275578	0.335055	0.171472	0.285021	0.445893	0.185175	0.253554	0.485982	0.364858	0.349740	0.284475	0.536453	0.372054	0.506697	0.362938	0.204427	0.075173	0.518075	0.644529	0.201396	0.229822	0.218983	0.645960	0.154972	0.146785	0.323495	0.517205	0.268538	0.303388	0.202689	0.386231	0.076174	0.044760	0.181970	0.250316	0.661330	0.378044	0.260742	0.664686	0.365553	0.120876
34	0.593544	0.723233	0.351355	0.306619	0.196983	0.345541	0.157451	0.196818	0.545378	1.174313	1.038292	0.941267	0.162942	0.525169	0.087575	0.192977	0.252775	0.289248	0.495300	0.996581	0.370908	0.262988	0.033057	0.084941	0.275546	0.147342	0.205641	0.408502	0.267485	0.382794	0.100893	0.268318	0.225244	0.170741	0.298082	0.493427	0.161681	0.250308	0.343745	0.339647	0.417993	0.423038	0.495768	0.319989	0.483560	0.410202	0.198408	0.069966	0.498431	0.541191	0.100978	0.162497	0.216163	0.627138	0.153296	0.145521	0.354296	0.515798	0.248363	0.262457	0.226771	0.408727	0.079197	0.053228	0.149217	0.221459	0.650556	0.373040	0.264355	0.663015	0.365591	0.120520
35	0.668895	1.017169	0.374940	0.322220	0.199387	0.346918	0.131826	0.234518	0.571244	1.211141	1.190244	1.073997	0.178798	0.542611	0.087533	0.191250	0.264279	0.334182	0.481593	1.015816	0.371301	0.262187	0.046653	0.076326	0.298861	0.134866	0.205202	0.406432	0.254675	0.375747	0.109700	0.260850	0.212340	0.170468	0.308125	0.562562	0.159709	0.257512	0.231568	0.298762	0.421513	0.588569	0.537987	0.416039	0.384201	0.397507	0.194498	0.061162	0.506450	0.438758	0.159356	0.185682	0.208127	0.518795	0.160782	0.147855	0.496818	0.570261	0.240895	0.239424	0.239610	0.427475	0.079274	0.054186	0.177220	0.189996	0.644245	0.367603	0.261459	0.622216	0.365407	0.127724
36	0.716025	1.098677	0.378901	0.325830	0.211574	0.374453	0.116296	0.272703	0.576357	1.190671	1.233878	1.121746	0.209083	0.566314	0.088752	0.192416	0.262529	0.328491	0.460748	1.010950	0.372459	0.260247	0.057439	0.119883	0.319087	0.134911	0.204589	0.404831	0.261600	0.352977	0.111509	0.254147	0.181347	0.166590	0.277187	0.509230	0.150939	0.249163	0.181223	0.266287	0.425812	0.591371	0.506074	0.545320	0.328626	0.410935	0.170428	0.057808	0.504724	0.432668	0.300534	0.467985	0.172079	0.375269	0.165668	0.152540	0.577848	0.532099	0.237556	0.240138	0.245352	0.432636	0.080391	0.053854	0.331407	0.167581	0.661078	0.357729	0.253704	0.448701	0.365683	0.131242
37	0.717654	1.114152	0.429281	0.378657	0.225228	0.438286	0.108783	0.290068	0.516189	1.057943	1.241879	1.127400	0.229999	0.586164	0.089419	0.196996	0.258610	0.322769	0.460615	1.013721	0.370485	0.256077	0.157147	0.328210	0.403871	0.125513	0.196412	0.402608	0.270815	0.305244	0.114356	0.245602	0.154857	0.150699	0.197639	0.492833	0.157498	0.249410	0.167691	0.237475	0.486581	0.605580	0.410427	0.515757	0.205097	0.413233	0.134465	0.048645	0.482781	0.359399	0.415110	0.641423	0.172484	0.318908	0.169479	0.155316	0.608603	0.460262	0.199529	0.215704	0.245457	0.419563	0.080185	0.055029	0.366821	0.144864	0.701337	0.361465	0.257581	0.359445	0.366450	0.132555
38	0.715744	1.127817	0.499653	0.528161	0.222378	0.444391	0.107561	0.294375	0.495665	0.901944	1.244012	1.128230	0.239254	0.597690	0.091062	0.202603	0.268763	0.322554	0.434033	0.963063	0.369021	0.294332	0.313786	0.496412	0.464754	0.189441	0.171028	0.377826	0.306831	0.277058	0.118769	0.250211	0.164235	0.150819	0.196380	0.456347	0.184331	0.278489	0.166392	0.236037	0.490894	0.610033	0.396773	0.509225	0.186822	0.424635	0.080026	0.049272	0.412791	0.231198	0.533117	0.702493	0.140328	0.285351	0.163153	0.156983	0.612767	0.435086	0.140507	0.172971	0.244927	0.396010	0.076842	0.063994	0.476516	0.198100	0.721576	0.363173	0.252201	0.340399	0.366240	0.132215
39	0.722497	1.127771	0.516717	0.557036	0.222369	0.447113	0.107666	0.290105	0.453610	0.777281	1.241292	1.128268	0.230488	0.596378	0.091611	0.209264	0.342483	0.324475	0.397861	0.759481	0.357025	0.316747	0.467068	0.748035	0.483099	0.194249	0.165602	0.318618	0.327333	0.301456	0.122345	0.265253	0.165294	0.155286	0.182470	0.435776	0.187462	0.279426	0.165594	0.246306	0.474945	0.610725	0.467171	0.575994	0.188945	0.441097	0.060306	0.058341	0.425177	0.187835	0.550097	0.707359	0.136178	0.202863	0.179574	0.239396	0.618068	0.409176	0.134742	0.158751	0.248220	0.393769	0.073508	0.065420	0.514955	0.224746	0.690426	0.358153	0.210192	0.315316	0.395041	0.135144
40	0.727973	1.106405	0.508435	0.565714	0.222906	0.445904	0.106165	0.285892	0.448682	0.626379	1.214638	1.096261	0.222677	0.583356	0.082755	0.213113	0.440614	0.316937	0.361668	0.730495	0.298136	0.311759	0.521854	0.856151	0.495783	0.194638	0.203798	0.359649	0.338195	0.303170	0.126825	0.277811	0.208653	0.177433	0.190603	0.452870	0.191024	0.282768	0.165693	0.236083	0.474653	0.614922	0.498927	0.650416	0.218117	0.449515	0.058588	0.068683	0.427906	0.179171	0.589771	0.758597	0.134415	0.176163	0.243153	0.449000	0.605572	0.380253	0.139218	0.158092	0.252954	0.395829	0.072096	0.064753	0.517962	0.227453	0.555765	0.343271	0.216422	0.286226	0.511788	0.164895
41	0.636220	1.091253	0.525295	0.568601	0.229503	0.458140	0.100288	0.283815	0.445608	0.603100	1.124041	0.957167	0.221886	0.526029	0.062964	0.216466	0.398932	0.289573	0.261655	0.667457	0.209236	0.300773	0.522292	0.876214	0.486119	0.189770	0.242008	0.488193	0.337374	0.305155	0.141053	0.279930	0.254202	0.252948	0.285005	0.488917	0.214806	0.299962	0.165848	0.210254	0.444917	0.608366	0.504930	0.671007	0.248821	0.520265	0.061252	0.078507	0.418391	0.267959	0.621603	0.858777	0.133768	0.154303	0.290593	0.533477	0.594966	0.364035	0.139610	0.168508	0.250594	0.391164	0.073813	0.065083	0.518737	0.227287	0.526658	0.352207	0.214939	0.247334	0.596144	0.177636
42	0.549989	1.057179	0.550635	0.586501	0.238611	0.464345	0.097739	0.283290	0.373048	0.526749	1.007538	0.866838	0.221288	0.421163	0.064554	0.218494	0.527699	0.257690	0.131444	0.398460	0.198929	0.332793	0.545040	0.990202	0.477955	0.204997	0.247123	0.532480	0.333843	0.303344	0.212182	0.392929	0.259626	0.279027	0.379595	0.442490	0.242987	0.327351	0.165433	0.198050	0.421796	0.591579	0.507852	0.671873	0.248589	0.562914	0.062169	0.093932	0.366338	0.320693	0.667958	0.911580	0.136577	0.146935	0.301901	0.537740	0.595660	0.347123	0.139124	0.171229	0.237159	0.367063	0.079629	0.083676	0.518935	0.225991	0.540406	0.406958	0.221133	0.213646	0.610265	0.183377
43	0.517040	1.047413	0.533996	0.599674	0.246200	0.501936	0.097779	0.286349	0.378958	0.495810	0.985315	0.864744	0.219162	0.374523	0.078686	0.216516	0.564355	0.189716	0.115142	0.294161	0.177831	0.358006	0.640138	1.102639	0.486078	0.213567	0.217243	0.513616	0.327586	0.275734	0.320532	0.607782	0.406285	0.315040	0.402525	0.309864	0.268477	0.349354	0.165787	0.197271	0.403262	0.589437	0.507704	0.672864	0.248012	0.571316	0.061482	0.108041	0.323273	0.329824	0.709468	0.932940	0.143886	0.145167	0.300016	0.543924	0.608707	0.338709	0.158011	0.180450	0.234548	0.367729	0.134840	0.166927	0.521967	0.232112	0.547122	0.431818	0.216270	0.146067	0.604092	0.193799
44	0.520520	0.979620	0.568586	0.598563	0.241345	0.545492	0.101250	0.289624	0.355057	0.478816	0.916084	0.810658	0.218166	0.372481	0.079392	0.213180	0.597416	0.206848	0.171291	0.292170	0.199812	0.384748	0.702464	1.187335	0.495119	0.222514	0.220158	0.487019	0.307840	0.264499	0.434789	0.693777	0.422652	0.333077	0.414286	0.277963	0.291118	0.362430	0.164688	0.191486	0.306982	0.434444	0.494579	0.670975	0.248592	0.571723	0.058785	0.116461	0.281400	0.331311	0.723621	0.940113	0.210104	0.169784	0.300104	0.543043	0.580232	0.312999	0.295350	0.331666	0.230723	0.344588	0.192282	0.240081	0.530724	0.271446	0.548696	0.412179	0.207405	0.126821	0.663138	0.230719
45	0.438850	0.677036	0.598274	0.626254	0.231268	0.561335	0.101390	0.295549	0.338062	0.433179	0.675890	0.628234	0.205549	0.332640	0.123307	0.222499	0.602621	0.203565	0.171480	0.290843	0.226980	0.408024	0.724208	1.231534	0.479598	0.221520	0.290793	0.500896	0.312941	0.265082	0.481283	0.698785	0.429176	0.337992	0.450226	0.278176	0.297380	0.370215	0.161746	0.186607	0.302454	0.270036	0.427861	0.589776	0.246978	0.569262	0.056054	0.120692	0.256622	0.339170	0.706016	0.925434	0.240560	0.239245	0.305476	0.543808	0.434871	0.216565	0.463978	0.644527	0.214873	0.299968	0.281120	0.268684	0.547687	0.320784	0.548726	0.397233	0.219789	0.193409	0.713855	0.252187
46	0.344383	0.418303	0.601908	0.646950	0.236822	0.555396	0.103432	0.291298	0.258831	0.306147	0.453736	0.416440	0.192570	0.318410	0.231973	0.210858	0.618522	0.207979	0.287906	0.297364	0.229450	0.409270	0.733068	1.256974	0.476186	0.221198	0.305118	0.542309	0.352577	0.270928	0.492761	0.746391	0.446031	0.339095	0.503813	0.280957	0.292595	0.369170	0.150226	0.186003	0.287694	0.233241	0.352059	0.464935	0.239392	0.549210	0.054089	0.122651	0.259720	0.352423	0.655657	0.800148	0.253259	0.292343	0.318825	0.544987	0.352126	0.201760	0.502580	0.701669	0.190646	0.262971	0.362681	0.272078	0.541455	0.343258	0.533028	0.396263	0.235351	0.243271	0.719552	0.257912
47	0.366254	0.397684	0.578653	0.638284	0.268455	0.539725	0.108929	0.270764	0.197629	0.226380	0.367598	0.334664	0.203529	0.320094	0.354840	0.202619	0.590078	0.223792	0.512024	0.304949	0.234396	0.415628	0.739957	1.271576	0.463076	0.223811	0.318329	0.550793	0.361783	0.279040	0.571636	0.875343	0.443945	0.345389	0.523022	0.275627	0.284926	0.364776	0.127647	0.168260	0.178378	0.201915	0.334729	0.454577	0.232388	0.502875	0.050677	0.123989	0.283996	0.352689	0.583419	0.686720	0.248292	0.300185	0.321967	0.561782	0.323942	0.180360	0.504462	0.719986	0.163582	0.226603	0.385460	0.272238	0.471168	0.346660	0.478760	0.396995	0.252170	0.263738	0.719726	0.260893
48	0.420443	0.412073	0.515621	0.526870	0.310125	0.538585	0.114238	0.266062	0.215937	0.221420	0.350735	0.326962	0.206732	0.303838	0.445339	0.251653	0.537683	0.258161	0.707455	0.289359	0.241126	0.418077	0.718787	1.228923	0.449286	0.258118	0.324961	0.553389	0.372501	0.336288	0.623992	0.975020	0.412840	0.528371	0.529783	0.234109	0.281779	0.351692	0.108001	0.141739	0.183318	0.178522	0.319398	0.441242	0.225914	0.448382	0.050762	0.124712	0.305700	0.372006	0.490724	0.637041	0.252159	0.298933	0.399099	0.631522	0.329481	0.171043	0.664868	0.816539	0.146733	0.184453	0.387191	0.283412	0.421462	0.345114	0.385469	0.372987	0.258787	0.263376	0.719841	0.273873
49	0.428715	0.486211	0.471915	0.458892	0.339146	0.534703	0.118283	0.267942	0.305302	0.312548	0.346061	0.328003	0.182678	0.259035	0.494408	0.297754	0.541582	0.263839	0.800672	0.213577	0.249385	0.411808	0.649806	1.163496	0.436176	0.291529	0.325445	0.568374	0.387803	0.386912	0.658545	1.012013	0.394789	0.605974	0.483893	0.131128	0.281823	0.353081	0.097002	0.136290	0.188536	0.189363	0.181918	0.332821	0.227636	0.442510	0.070870	0.125388	0.314704	0.401476	0.475039	0.634344	0.253964	0.299589	0.452080	0.712200	0.331628	0.227207	0.769260	0.941339	0.136723	0.163619	0.395249	0.288146	0.302300	0.309408	0.319674	0.334247	0.253254	0.260583	0.719927	0.278136
50	0.411967	0.552073	0.445644	0.442931	0.347495	0.534796	0.120969	0.259422	0.434876	0.504860	0.346011	0.331828	0.153983	0.211571	0.517580	0.301586	0.440264	0.241256	0.816285	0.187810	0.257278	0.395556	0.555613	1.010045	0.285333	0.297488	0.330985	0.598746	0.375524	0.386761	0.677018	1.016306	0.388416	0.716733	0.404415	0.119250	0.284195	0.351197	0.093799	0.142161	0.191927	0.182459	0.100291	0.159587	0.217785	0.420100	0.104221	0.140619	0.434684	0.481905	0.426468	0.548536	0.265681	0.320096	0.458076	0.711917	0.354510	0.298558	0.786085	0.981875	0.189303	0.223180	0.402883	0.343834	0.255388	0.294678	0.305767	0.325604	0.254622	0.269894	0.720030	0.297855
51	0.470357	0.626300	0.438092	0.438237	0.347852	0.539195	0.114120	0.222932	0.470726	0.516725	0.329182	0.326483	0.134887	0.206898	0.523925	0.294579	0.383558	0.263499	0.891116	0.181414	0.258130	0.393901	0.531804	0.977774	0.280047	0.305656	0.347598	0.605776	0.358922	0.375458	0.678932	1.014582	0.277965	0.831520	0.360278	0.099249	0.283753	0.345228	0.093487	0.149166	0.299505	0.192240	0.070054	0.093268	0.208649	0.414938	0.145226	0.187697	0.510583	0.481861	0.373671	0.376826	0.278812	0.338200	0.430085	0.602419	0.351697	0.300904	0.789203	0.986000	0.215484	0.270514	0.416141	0.417469	0.254541	0.309975	0.274334	0.321128	0.260392	0.275860	0.703546	0.342192
52	0.589788	0.716865	0.397394	0.427280	0.336937	0.504320	0.106795	0.184173	0.572634	0.582973	0.267454	0.265323	0.146125	0.226665	0.535138	0.290415	0.343291	0.248277	1.000404	0.212465	0.241781	0.375790	0.530096	0.943376	0.239253	0.309480	0.350824	0.592655	0.344710	0.365741	0.677929	1.015185	0.254132	0.853892	0.380278	0.100608	0.273781	0.339308	0.096312	0.149800	0.431072	0.261685	0.048384	0.091484	0.198224	0.406233	0.193243	0.251043	0.524066	0.463741	0.280496	0.240625	0.280652	0.340902	0.399353	0.531832	0.306223	0.308823	0.789561	0.987178	0.210419	0.274711	0.464922	0.492247	0.267869	0.523434	0.174454	0.270626	0.255629	0.273423	0.616158	0.367930
53	0.632547	0.741634	0.399845	0.373808	0.331696	0.462720	0.104607	0.162940	0.718061	0.645753	0.214036	0.185623	0.182378	0.246668	0.627373	0.295508	0.327342	0.258196	1.072529	0.209355	0.230959	0.344813	0.485714	0.817811	0.234812	0.306307	0.327453	0.513827	0.339504	0.369238	0.677345	1.019463	0.252127	0.865856	0.417430	0.099649	0.249698	0.312272	0.171186	0.167178	0.458663	0.392535	0.047768	0.085293	0.199705	0.390781	0.230672	0.295776	0.521653	0.458259	0.172499	0.160748	0.286721	0.349975	0.390440	0.527540	0.287640	0.324939	0.775523	0.981164	0.206084	0.275412	0.507875	0.547054	0.339540	0.784765	0.105560	0.174920	0.247260	0.273255	0.520275	0.375472
54	0.611448	0.725420	0.355394	0.334767	0.332242	0.460681	0.108157	0.155478	0.771407	0.703687	0.178110	0.156956	0.235831	0.309940	0.718265	0.315160	0.295096	0.274011	1.076069	0.194595	0.221744	0.315283	0.342037	0.678401	0.225805	0.292783	0.311475	0.418232	0.345551	0.389391	0.666711	1.008186	0.221506	0.867375	0.360585	0.087875	0.243060	0.310589	0.319848	0.227958	0.613241	0.446004	0.049032	0.088475	0.165262	0.373420	0.234770	0.306948	0.524649	0.456021	0.139778	0.131773	0.296018	0.370008	0.386101	0.518783	0.285464	0.324210	0.704625	0.879495	0.208632	0.281474	0.514579	0.570339	0.354047	0.804339	0.085194	0.124000	0.239524	0.269670	0.497736	0.376372
55	0.599576	0.721590	0.249206	0.270493	0.331369	0.474771	0.163186	0.166371	0.795631	0.738704	0.172080	0.157424	0.322324	0.403712	0.768782	0.348079	0.294590	0.281023	0.997209	0.181562	0.192149	0.264501	0.222492	0.538162	0.211267	0.291910	0.310197	0.403309	0.348733	0.409004	0.630637	0.909182	0.228701	0.866410	0.334902	0.088802	0.245333	0.315095	0.451215	0.266862	0.637943	0.511062	0.047332	0.084582	0.133257	0.258480	0.260378	0.304808	0.534623	0.451444	0.171275	0.148229	0.266139	0.383423	0.384064	0.518450	0.295876	0.314376	0.631156	0.724555	0.207617	0.280579	0.512334	0.568068	0.544813	0.816560	0.085596	0.116844	0.206636	0.262180	0.480538	0.372603
56	0.617141	0.782428	0.213816	0.199658	0.331030	0.483606	0.256110	0.174928	0.797334	0.744138	0.089639	0.153914	0.373853	0.462314	0.792435	0.367590	0.266288	0.260767	0.874965	0.173857	0.163145	0.232806	0.167755	0.462196	0.168098	0.308657	0.306213	0.400923	0.345812	0.418059	0.564700	0.791733	0.253874	0.764623	0.320191	0.093712	0.241676	0.309951	0.535855	0.325749	0.636992	0.522241	0.042292	0.087310	0.133589	0.172454	0.295508	0.309790	0.542207	0.446968	0.184926	0.156759	0.238180	0.353726	0.377401	0.518172	0.513580	0.323781	0.617340	0.709808	0.206263	0.279238	0.498138	0.550947	0.666453	0.800065	0.087572	0.115184	0.197571	0.260642	0.335873	0.361449
57	0.615412	0.820689	0.210606	0.185569	0.326238	0.471024	0.356740	0.173929	0.798485	0.745943	0.078198	0.153880	0.412646	0.498113	0.798419	0.367894	0.234496	0.242807	0.770993	0.176390	0.160483	0.232357	0.112458	0.386743	0.174114	0.328650	0.262962	0.379183	0.342618	0.424766	0.501104	0.770090	0.250484	0.687527	0.326103	0.121049	0.212775	0.285799	0.581912	0.386966	0.665180	0.523984	0.037882	0.084816	0.133375	0.164729	0.323948	0.320975	0.525528	0.459671	0.183815	0.155207	0.222451	0.311294	0.363583	0.518439	0.510336	0.326008	0.583215	0.658414	0.208988	0.285957	0.475768	0.555705	0.697563	0.796536	0.216907	0.141782	0.183473	0.220384	0.152575	0.351123
58	0.584366	0.793977	0.216388	0.184921	0.321064	0.457657	0.429057	0.183407	0.810575	0.761630	0.089228	0.155794	0.427362	0.519860	0.795890	0.352416	0.217260	0.256515	0.761048	0.165638	0.142702	0.210209	0.058979	0.326262	0.235737	0.360563	0.209717	0.316035	0.326980	0.423441	0.491507	0.754661	0.250163	0.555744	0.327850	0.117144	0.184998	0.256340	0.588477	0.424889	0.670481	0.538489	0.043632	0.079247	0.130281	0.174885	0.340321	0.336816	0.502577	0.440635	0.185876	0.152828	0.226623	0.321403	0.358448	0.500731	0.510359	0.324080	0.323979	0.488644	0.214090	0.298374	0.422666	0.565429	0.697395	0.797709	0.386487	0.161246	0.153773	0.156374	0.112335	0.352482
59	0.574528	0.784005	0.222135	0.187721	0.318259	0.408857	0.451651	0.219403	0.806347	0.817462	0.089096	0.167195	0.428603	0.530428	0.772299	0.342635	0.148132	0.223065	0.684939	0.162275	0.119763	0.171902	0.065737	0.319290	0.428335	0.478042	0.200545	0.280659	0.290939	0.422988	0.421811	0.638575	0.194815	0.331531	0.339309	0.114620	0.144278	0.241136	0.613099	0.430056	0.667910	0.535837	0.047378	0.084730	0.136946	0.200932	0.343126	0.348485	0.488006	0.487062	0.209650	0.161544	0.228903	0.327276	0.269696	0.407751	0.503532	0.260447	0.149054	0.235726	0.221207	0.311422	0.377171	0.569684	0.748248	0.821856	0.553491	0.161281	0.119770	0.113219	0.111431	0.350727
60	0.560559	0.723818	0.221913	0.187213	0.318622	0.362256	0.454567	0.237727	0.769788	0.834677	0.095904	0.214308	0.445790	0.536973	0.727347	0.340360	0.147951	0.235514	0.523024	0.124491	0.090959	0.118013	0.122910	0.307466	0.540073	0.646445	0.181289	0.283138	0.276630	0.397366	0.316585	0.439359	0.195710	0.250244	0.297353	0.132423	0.169381	0.306281	0.654696	0.434293	0.665351	0.539492	0.081042	0.091703	0.154164	0.225766	0.395455	0.349545	0.330357	0.373089	0.227105	0.169803	0.225866	0.323117	0.195659	0.256579	0.517630	0.289889	0.098738	0.145083	0.221924	0.314423	0.367504	0.570047	0.908269	0.839641	0.635592	0.163668	0.100630	0.106218	0.118383	0.339958
61	0.524795	0.673992	0.223342	0.168729	0.319152	0.343174	0.478068	0.245465	0.721874	0.920148	0.110627	0.244531	0.487645	0.588811	0.673037	0.311034	0.159608	0.232990	0.355393	0.115087	0.066055	0.076971	0.264927	0.288405	0.555128	0.829904	0.198869	0.283598	0.228429	0.344110	0.225097	0.268212	0.189717	0.251281	0.167533	0.130913	0.227061	0.444377	0.680976	0.450353	0.611265	0.537107	0.139300	0.139516	0.163263	0.229061	0.492704	0.380209	0.267492	0.352691	0.233413	0.168896	0.220900	0.302961	0.218564	0.221063	0.511231	0.318945	0.080600	0.134795	0.219753	0.311748	0.363371	0.564356	0.911092	0.842330	0.646805	0.150214	0.099727	0.105700	0.125679	0.335480
62	0.421278	0.602425	0.207299	0.186488	0.320964	0.347321	0.481812	0.244184	0.713999	0.934277	0.114163	0.260268	0.516491	0.620667	0.636317	0.262805	0.152384	0.214301	0.274997	0.107306	0.063405	0.063074	0.358190	0.287487	0.581680	0.866428	0.236762	0.249851	0.204830	0.389662	0.124525	0.210339	0.204822	0.424327	0.144800	0.126907	0.257946	0.533974	0.692201	0.457754	0.536636	0.498479	0.142840	0.161985	0.160247	0.235407	0.554795	0.422752	0.230867	0.364328	0.233098	0.158576	0.229403	0.280383	0.249533	0.251029	0.556904	0.410451	0.076217	0.141271	0.196152	0.289212	0.353926	0.559996	0.911558	0.826917	0.704427	0.147060	0.081938	0.081154	0.123961	0.322166
63	0.306108	0.592330	0.188461	0.204555	0.303555	0.372234	0.484257	0.243804	0.573496	0.989350	0.115119	0.262689	0.530089	0.632681	0.616060	0.252107	0.153538	0.369188	0.268289	0.104516	0.071367	0.061645	0.413135	0.304259	0.586974	0.971739	0.311429	0.247922	0.190855	0.411277	0.087153	0.210110	0.201569	0.554777	0.141257	0.126227	0.276552	0.553318	0.700217	0.462948	0.522845	0.406768	0.155821	0.178527	0.167083	0.242314	0.569293	0.438725	0.226705	0.548598	0.225464	0.153804	0.227214	0.279797	0.262903	0.269551	0.561159	0.446973	0.077643	0.146811	0.136000	0.226931	0.343582	0.519359	0.908558	0.648115	0.708395	0.146442	0.032538	0.031333	0.109406	0.273418
64	0.344000	0.612578	0.195004	0.206275	0.272833	0.390103	0.482819	0.241720	0.465481	0.990312	0.118135	0.262845	0.533684	0.626750	0.609387	0.252508	0.145819	0.584852	0.267836	0.104163	0.077811	0.079917	0.439316	0.347380	0.615146	1.024584	0.385166	0.262111	0.184218	0.409954	0.092591	0.194075	0.209260	0.619159	0.140930	0.126138	0.299324	0.564539	0.711520	0.464921	0.299525	0.335555	0.174053	0.178645	0.190914	0.261439	0.565608	0.435325	0.228599	0.616346	0.210048	0.144892	0.217463	0.267326	0.264516	0.270556	0.554583	0.450281	0.097451	0.147191	0.116572	0.192566	0.320389	0.460798	0.895033	0.440012	0.721444	0.149025	0.022140	0.023755	0.115790	0.263868
65	0.344930	0.650598	0.263322	0.219568	0.266933	0.393605	0.482540	0.242376	0.362844	0.951980	0.120710	0.263048	0.532013	0.619326	0.603995	0.250831	0.208130	0.660438	0.274293	0.085035	0.082311	0.097459	0.447042	0.345818	0.665465	1.058003	0.419254	0.269323	0.195676	0.411239	0.117782	0.165202	0.193749	0.680903	0.129242	0.112595	0.316448	0.578061	0.724411	0.463664	0.291605	0.295259	0.240940	0.178191	0.205626	0.278876	0.579601	0.416368	0.201344	0.776686	0.184537	0.124016	0.201383	0.235108	0.295430	0.275120	0.516505	0.449293	0.162371	0.146076	0.120778	0.190249	0.227140	0.380377	0.888608	0.451511	0.748274	0.190493	0.027297	0.029301	0.156187	0.297868
66	0.348049	0.716311	0.299430	0.223448	0.294687	0.424817	0.489411	0.244797	0.390767	0.942042	0.122248	0.260723	0.526687	0.618019	0.519984	0.241979	0.223994	0.706532	0.285656	0.076979	0.082625	0.097057	0.468681	0.337888	0.838877	1.106041	0.420921	0.272091	0.222612	0.398558	0.193525	0.133060	0.196428	0.690363	0.123829	0.114558	0.318971	0.578078	0.743151	0.465628	0.292481	0.372481	0.265485	0.172042	0.205164	0.272816	0.629325	0.393779	0.172389	0.797819	0.174537	0.118298	0.197356	0.200938	0.327513	0.284893	0.387091	0.459771	0.260650	0.152691	0.120281	0.182929	0.143291	0.306421	0.727943	0.444895	0.806522	0.218988	0.030787	0.026520	0.184733	0.315587
67	0.374209	0.683380	0.317737	0.225158	0.310322	0.457795	0.515500	0.240102	0.502169	0.966429	0.118797	0.247047	0.515408	0.603026	0.384046	0.214423	0.252831	0.719129	0.291115	0.084171	0.085381	0.093733	0.501281	0.370146	0.871306	1.131729	0.442261	0.272368	0.226592	0.381336	0.282807	0.120576	0.234692	0.773954	0.082394	0.109240	0.318857	0.585948	0.774306	0.470323	0.186463	0.446933	0.323513	0.170506	0.204523	0.273160	0.660501	0.416000	0.167233	0.795946	0.176124	0.119063	0.218268	0.189372	0.338502	0.290358	0.387862	0.461815	0.279733	0.154501	0.109713	0.168726	0.134183	0.276035	0.671341	0.447025	0.897314	0.221325	0.032229	0.031389	0.215177	0.316839
68	0.367234	0.724811	0.337043	0.229959	0.324935	0.480679	0.557463	0.237377	0.507092	0.970818	0.109686	0.231829	0.469600	0.553755	0.263615	0.154151	0.260071	0.719441	0.250811	0.090186	0.099710	0.099893	0.580859	0.438716	0.880392	1.142703	0.544560	0.273574	0.221046	0.366950	0.346663	0.123326	0.256976	0.807878	0.077257	0.083997	0.321991	0.597116	0.782352	0.471976	0.164961	0.458581	0.480161	0.174555	0.202273	0.272535	0.682474	0.433763	0.165882	0.798598	0.169858	0.109508	0.226054	0.189370	0.372670	0.331592	0.387966	0.462169	0.289502	0.168642	0.113263	0.168271	0.140491	0.277292	0.634969	0.462485	0.897228	0.210263	0.034312	0.030675	0.227344	0.315756
69	0.354869	0.719437	0.337804	0.233582	0.333943	0.494506	0.600417	0.237146	0.488054	0.949696	0.103237	0.233670	0.428948	0.510070	0.189036	0.094441	0.249242	0.726995	0.208426	0.124288	0.141212	0.141385	0.600838	0.489625	0.881983	1.137667	0.664828	0.289555	0.213246	0.355312	0.415108	0.162909	0.297236	0.794786	0.097816	0.111102	0.326954	0.603589	0.746921	0.446393	0.154905	0.470144	0.594616	0.173121	0.209469	0.276122	0.684879	0.437453	0.149206	0.758480	0.150311	0.108476	0.225941	0.153682	0.382948	0.360293	0.371876	0.451932	0.307701	0.178868	0.126767	0.167030	0.158620	0.263890	0.627988	0.461613	0.839267	0.211917	0.045304	0.032014	0.228954	0.317229
70	0.482296	0.707138	0.382597	0.234047	0.336374	0.498184	0.622689	0.241306	0.484912	0.896079	0.102303	0.224378	0.391411	0.474573	0.187192	0.075168	0.251963	0.729567	0.223684	0.130215	0.145536	0.154607	0.600017	0.513149	0.878004	1.133831	0.702428	0.317912	0.211032	0.363042	0.449462	0.171293	0.347564	0.713764	0.255358	0.431043	0.330914	0.613549	0.679134	0.423330	0.179368	0.474664	0.611650	0.176710	0.216478	0.282206	0.680283	0.432639	0.139941	0.759511	0.263392	0.119696	0.234626	0.172943	0.383436	0.366738	0.361510	0.429962	0.360615	0.173512	0.130578	0.166950	0.191476	0.230873	0.491961	0.437354	0.741627	0.208193	0.048590	0.040368	0.233661	0.321080
71	0.521689	0.705830	0.544811	0.235229	0.336936	0.476213	0.608110	0.233238	0.469812	0.759661	0.090456	0.187585	0.374955	0.451771	0.215937	0.082268	0.280581	0.683173	0.233524	0.135350	0.158585	0.181252	0.582818	0.535981	0.847251	1.117471	0.704983	0.321716	0.216708	0.395590	0.454123	0.173157	0.344568	0.612251	0.314168	0.558421	0.328447	0.623212	0.609504	0.388280	0.235859	0.484569	0.667202	0.158287	0.226058	0.282178	0.674533	0.421127	0.134534	0.752529	0.403822	0.188516	0.291151	0.212032	0.409461	0.369951	0.345202	0.348646	0.375652	0.170255	0.120090	0.177478	0.255009	0.268025	0.248974	0.456248	0.699914	0.205795	0.052244	0.060715	0.239789	0.320018
72	0.558780	0.746530	0.650003	0.213455	0.349625	0.475829	0.569917	0.229228	0.461103	0.613896	0.115499	0.175366	0.382067	0.436722	0.254354	0.100769	0.307829	0.509324	0.393907	0.152334	0.193773	0.210325	0.532028	0.543212	0.775777	1.049759	0.717977	0.317778	0.243074	0.424558	0.458614	0.181248	0.320284	0.536275	0.321626	0.592896	0.335250	0.632366	0.560691	0.330912	0.238239	0.486154	0.788700	0.143319	0.235646	0.278040	0.670271	0.406801	0.120346	0.740258	0.448281	0.194062	0.297258	0.217000	0.475642	0.395803	0.262338	0.284170	0.396823	0.166481	0.115760	0.158553	0.329790	0.344261	0.248823	0.457679	0.685169	0.205850	0.052450	0.063842	0.245031	0.319502
73	0.551805	0.720316	0.670244	0.209018	0.374728	0.497251	0.509810	0.228648	0.446180	0.572604	0.232761	0.185497	0.382654	0.426915	0.318711	0.149295	0.282855	0.395761	0.483467	0.218016	0.201749	0.224243	0.481931	0.529773	0.758635	0.932429	0.721563	0.313353	0.246100	0.429454	0.477564	0.221951	0.327390	0.462102	0.405446	0.709922	0.339451	0.640006	0.548810	0.272362	0.311224	0.518583	0.845261	0.135744	0.235524	0.258569	0.668656	0.397593	0.100966	0.611437	0.456934	0.198246	0.279015	0.218079	0.480044	0.420547	0.323644	0.296855	0.487069	0.192623	0.119929	0.157006	0.394653	0.370603	0.238520	0.454809	0.653203	0.205047	0.055287	0.070258	0.241131	0.321291
74	0.522434	0.703221	0.681103	0.244851	0.399767	0.509343	0.460619	0.210280	0.429436	0.340806	0.256283	0.185806	0.356056	0.348089	0.462184	0.242201	0.279473	0.306730	0.487646	0.254930	0.201254	0.226541	0.440135	0.498647	0.732373	0.815905	0.724156	0.289963	0.248108	0.382461	0.524175	0.297373	0.325812	0.450374	0.490905	0.785352	0.342672	0.644831	0.532855	0.256939	0.470359	0.578872	0.853996	0.134029	0.228649	0.235159	0.631793	0.396219	0.103899	0.534091	0.475259	0.219925	0.278782	0.216662	0.486071	0.424248	0.359061	0.319157	0.496837	0.220518	0.123235	0.180035	0.441377	0.373546	0.212654	0.443131	0.672352	0.231582	0.075816	0.103654	0.242398	0.322093
75	0.520968	0.687412	0.781312	0.236794	0.411393	0.506117	0.450218	0.163793	0.418694	0.297026	0.256171	0.188006	0.340525	0.292708	0.623153	0.390336	0.268436	0.245475	0.487260	0.266433	0.203838	0.223078	0.462438	0.456886	0.728080	0.740388	0.734631	0.258042	0.284179	0.339156	0.589567	0.346920	0.327131	0.313914	0.514425	0.798040	0.331430	0.625628	0.479996	0.253681	0.516673	0.550458	0.841811	0.135992	0.224601	0.233032	0.559393	0.360532	0.145767	0.360288	0.485813	0.266472	0.282201	0.215389	0.486955	0.425446	0.344930	0.301773	0.472669	0.226011	0.124686	0.199490	0.466149	0.374965	0.170194	0.403065	0.685344	0.238172	0.096339	0.134528	0.258844	0.320164
76	0.531440	0.573728	0.808722	0.233725	0.413553	0.505032	0.449104	0.131288	0.413937	0.296180	0.293427	0.189867	0.330331	0.265174	0.691146	0.437869	0.252299	0.239458	0.485635	0.287814	0.210664	0.221087	0.465568	0.455300	0.713060	0.591491	0.716084	0.233923	0.295785	0.325212	0.642895	0.356918	0.323965	0.227159	0.560520	0.873437	0.295304	0.544321	0.439362	0.225509	0.518261	0.508648	0.837958	0.143189	0.224901	0.230429	0.505613	0.314058	0.165418	0.332493	0.493242	0.317228	0.283993	0.218795	0.472058	0.427754	0.325743	0.280993	0.503208	0.224830	0.127202	0.198745	0.469025	0.373320	0.135748	0.336929	0.690683	0.223261	0.097759	0.142166	0.259893	0.293624
77	0.509605	0.545663	0.802349	0.230337	0.406399	0.498307	0.439918	0.110523	0.322638	0.244348	0.395358	0.196748	0.345749	0.252035	0.705696	0.438029	0.254564	0.205393	0.517089	0.292299	0.222876	0.234897	0.449019	0.453737	0.694445	0.554566	0.680186	0.221016	0.293222	0.328306	0.676399	0.357000	0.286172	0.220014	0.561267	0.897283	0.265297	0.440716	0.419698	0.205197	0.537049	0.448446	0.809724	0.141170	0.218606	0.216035	0.492578	0.294083	0.168246	0.328144	0.497120	0.321347	0.272941	0.208462	0.474960	0.432316	0.313211	0.279685	0.573556	0.220073	0.183507	0.221586	0.480614	0.389993	0.143044	0.333039	0.597463	0.209150	0.096894	0.141396	0.242072	0.232303
78	0.493040	0.484558	0.793756	0.240975	0.390427	0.496477	0.455251	0.114803	0.237759	0.146075	0.426342	0.205315	0.343044	0.246274	0.712063	0.438487	0.249344	0.194885	0.622136	0.518625	0.232537	0.252938	0.391317	0.418912	0.489833	0.450851	0.674161	0.213324	0.273089	0.330719	0.679216	0.358152	0.204799	0.221541	0.525198	0.795986	0.245946	0.391353	0.409109	0.192096	0.541844	0.410572	0.726657	0.159058	0.214867	0.187566	0.495831	0.291729	0.261094	0.390934	0.573419	0.324579	0.250702	0.198042	0.502764	0.427764	0.313240	0.277714	0.579174	0.202588	0.213252	0.240726	0.515512	0.433755	0.139078	0.323023	0.480143	0.206896	0.101124	0.145177	0.258536	0.198356
79	0.517093	0.509723	0.790899	0.237720	0.378738	0.478091	0.463622	0.124440	0.261212	0.127706	0.428033	0.206860	0.339734	0.230644	0.790961	0.450509	0.218861	0.165696	0.697343	0.585651	0.230833	0.268317	0.284209	0.355624	0.348352	0.375338	0.687950	0.212867	0.248801	0.327249	0.655301	0.355990	0.204206	0.223279	0.561918	0.737998	0.218180	0.375734	0.390410	0.181543	0.539696	0.396768	0.674316	0.172449	0.196332	0.175724	0.466409	0.287838	0.327877	0.421041	0.695899	0.317245	0.238352	0.195634	0.496631	0.401521	0.311058	0.265637	0.561320	0.196989	0.215204	0.241386	0.597410	0.489755	0.212359	0.334103	0.438786	0.192061	0.132134	0.175912	0.253647	0.202185
80	0.489110	0.551787	0.785614	0.235758	0.363276	0.446321	0.467762	0.129451	0.317992	0.138136	0.447394	0.210002	0.342710	0.204110	0.955476	0.499573	0.195139	0.182507	0.651802	0.588593	0.228800	0.282218	0.298423	0.311083	0.318995	0.301844	0.701593	0.212571	0.238715	0.321561	0.624000	0.351315	0.211251	0.229012	0.579737	0.728599	0.187847	0.364797	0.366364	0.177660	0.527076	0.381894	0.747407	0.163614	0.194967	0.200480	0.379642	0.261662	0.345246	0.422254	0.682823	0.311104	0.233740	0.196030	0.489626	0.374141	0.294701	0.242926	0.534980	0.189760	0.228460	0.244592	0.688766	0.540647	0.287505	0.364967	0.467499	0.214491	0.167660	0.212739	0.242860	0.188370
81	0.445888	0.577214	0.716686	0.244503	0.335379	0.404824	0.466355	0.119861	0.313499	0.129673	0.567442	0.195596	0.338622	0.194487	1.033289	0.564050	0.215936	0.209333	0.701036	0.621316	0.242376	0.303805	0.344127	0.291226	0.309065	0.282328	0.643116	0.201789	0.240766	0.322899	0.584590	0.341211	0.205299	0.203910	0.526417	0.613963	0.179125	0.362619	0.332840	0.167758	0.504634	0.364970	0.772689	0.182364	0.192804	0.201311	0.311475	0.161758	0.343523	0.420770	0.616646	0.283023	0.212373	0.167039	0.491775	0.367905	0.310972	0.243379	0.531037	0.186795	0.232305	0.244415	0.747572	0.582828	0.320958	0.359472	0.573122	0.262113	0.181441	0.225627	0.243761	0.171086
82	0.400210	0.501096	0.624728	0.264144	0.305971	0.362267	0.458476	0.109887	0.313989	0.130453	0.758402	0.182728	0.340246	0.202824	1.048083	0.613633	0.250999	0.303104	0.725206	0.647548	0.243106	0.306895	0.359693	0.247337	0.305323	0.275213	0.601049	0.153149	0.240782	0.322004	0.549036	0.331309	0.209606	0.204107	0.455562	0.527259	0.183675	0.364843	0.257147	0.151796	0.502059	0.362611	0.690331	0.180201	0.188809	0.208513	0.263681	0.095521	0.342270	0.418747	0.595026	0.299219	0.129655	0.125187	0.462181	0.355748	0.324906	0.228224	0.486828	0.179646	0.224503	0.244150	0.755852	0.588038	0.330502	0.347760	0.601250	0.298061	0.181431	0.225319	0.240860	0.148632
83	0.395845	0.474739	0.590889	0.266432	0.290897	0.327800	0.428123	0.109601	0.313804	0.132421	0.833264	0.156655	0.343673	0.216793	1.050082	0.619382	0.351880	0.433328	0.723300	0.648876	0.224596	0.296583	0.354723	0.229893	0.269163	0.255626	0.600729	0.107730	0.239537	0.290236	0.543974	0.331099	0.163631	0.149956	0.430181	0.517859	0.182623	0.358658	0.198584	0.137556	0.435868	0.294531	0.643360	0.225480	0.176743	0.227557	0.229978	0.074918	0.353260	0.417297	0.601057	0.336590	0.129081	0.158458	0.362905	0.291279	0.218856	0.235477	0.423328	0.115507	0.221737	0.228830	0.747656	0.571449	0.332798	0.343979	0.591536	0.318723	0.188706	0.230747	0.237195	0.145337
84	0.394341	0.454021	0.601349	0.229435	0.275385	0.306080	0.375518	0.109940	0.317679	0.134015	0.818121	0.146870	0.342981	0.220617	1.044722	0.618955	0.387516	0.472856	0.724839	0.642508	0.221335	0.289338	0.356573	0.228980	0.210267	0.188022	0.591705	0.104896	0.219790	0.235656	0.550669	0.329664	0.133764	0.128288	0.369856	0.377490	0.173476	0.348481	0.291523	0.155162	0.271624	0.141993	0.750396	0.257176	0.170334	0.230020	0.206301	0.058420	0.384464	0.389149	0.626104	0.344073	0.180755	0.223619	0.339171	0.218665	0.269508	0.252501	0.427834	0.100650	0.227306	0.222759	0.719857	0.535120	0.389916	0.387332	0.644080	0.328104	0.209320	0.247529	0.235452	0.148752
85	0.401462	0.450878	0.505760	0.223449	0.269644	0.291648	0.312622	0.102813	0.318015	0.160409	0.841732	0.147763	0.334085	0.220796	1.036231	0.616575	0.389186	0.475059	0.708635	0.639071	0.221119	0.289342	0.343772	0.228569	0.171033	0.161187	0.587105	0.100195	0.203867	0.210534	0.545755	0.311581	0.125155	0.142561	0.367174	0.316737	0.166563	0.329794	0.456839	0.282551	0.247929	0.099872	0.893580	0.259528	0.156838	0.234729	0.205106	0.111956	0.402370	0.384127	0.656446	0.295148	0.236040	0.261533	0.325253	0.197965	0.279703	0.278539	0.411371	0.087791	0.243535	0.264236	0.683030	0.491842	0.463465	0.453654	0.766926	0.391457	0.215863	0.252668	0.234670	0.144468
86	0.394821	0.453480	0.435957	0.203522	0.269206	0.289186	0.277523	0.091653	0.318975	0.161381	0.963265	0.148432	0.310590	0.220296	1.020233	0.607709	0.393315	0.485005	0.611158	0.499979	0.224650	0.297313	0.343377	0.229541	0.145481	0.158689	0.602018	0.091900	0.202807	0.201581	0.520385	0.266081	0.128734	0.201758	0.342729	0.316623	0.152687	0.309878	0.629411	0.392829	0.260490	0.098535	0.947140	0.265862	0.141068	0.231704	0.223192	0.162388	0.406535	0.403335	0.661858	0.258980	0.240023	0.261254	0.325168	0.198399	0.285604	0.287509	0.288669	0.087868	0.257112	0.293831	0.648524	0.481986	0.469008	0.460561	0.774055	0.460059	0.211269	0.243039	0.234893	0.142801
87	0.390375	0.471917	0.455801	0.198009	0.266862	0.288715	0.276235	0.094508	0.322265	0.164809	1.107307	0.171745	0.267105	0.213192	0.969115	0.580549	0.395336	0.491553	0.514509	0.400735	0.244687	0.325019	0.440788	0.224295	0.132385	0.170186	0.596790	0.114867	0.172287	0.163536	0.449244	0.162234	0.125849	0.209273	0.222218	0.257903	0.134033	0.285334	0.754460	0.447289	0.209732	0.129352	0.959387	0.282728	0.129231	0.232473	0.235044	0.187828	0.404719	0.395902	0.669463	0.265495	0.238293	0.259501	0.340352	0.185202	0.292416	0.292306	0.208286	0.162812	0.261239	0.288754	0.621312	0.484358	0.493242	0.460928	0.762047	0.463213	0.202301	0.228075	0.216454	0.144273
88	0.422837	0.509413	0.488662	0.220481	0.244835	0.268526	0.331993	0.108144	0.323678	0.243866	1.129942	0.189529	0.218716	0.192190	0.875779	0.495616	0.404436	0.479143	0.488389	0.389617	0.268025	0.353474	0.491997	0.214105	0.127582	0.182481	0.554462	0.116625	0.098794	0.128943	0.361981	0.107470	0.132009	0.240691	0.195243	0.202482	0.129604	0.267778	0.802931	0.463540	0.220820	0.249596	0.956027	0.274358	0.122429	0.236264	0.237995	0.196365	0.343937	0.312186	0.594552	0.286530	0.248166	0.264195	0.349092	0.163222	0.306871	0.357047	0.218029	0.227775	0.262115	0.286322	0.609703	0.485318	0.502713	0.462453	0.765857	0.462713	0.201309	0.224642	0.204863	0.128586
89	0.448274	0.542494	0.521796	0.278263	0.205637	0.227184	0.445264	0.149392	0.294221	0.315878	1.126769	0.184028	0.203616	0.195663	0.817201	0.443910	0.393835	0.460535	0.306601	0.323192	0.273600	0.357260	0.498061	0.199923	0.112688	0.184955	0.561024	0.128028	0.093579	0.125481	0.269864	0.092322	0.184917	0.248902	0.227599	0.214573	0.133939	0.280076	0.807518	0.465232	0.258849	0.279593	0.934141	0.279530	0.130293	0.287231	0.236400	0.195690	0.295416	0.278710	0.453866	0.287199	0.255545	0.268964	0.330704	0.165162	0.312641	0.357846	0.263784	0.259685	0.254801	0.283955	0.609992	0.485330	0.499358	0.458428	0.762339	0.461989	0.201808	0.228126	0.205442	0.123937
90	0.449055	0.540268	0.521974	0.312858	0.168285	0.205965	0.536242	0.171285	0.279860	0.346568	1.126715	0.184124	0.156918	0.203680	0.803157	0.442479	0.376910	0.422672	0.158516	0.198701	0.269954	0.350187	0.570498	0.186626	0.110878	0.163231	0.574889	0.145076	0.104700	0.115322	0.215086	0.095869	0.190846	0.244139	0.231164	0.193911	0.131828	0.281652	0.864305	0.481456	0.376276	0.287180	0.873831	0.281986	0.139829	0.346412	0.247831	0.198758	0.296104	0.276635	0.419328	0.286312	0.270174	0.287454	0.305449	0.143809	0.317104	0.358273	0.273780	0.260430	0.207972	0.257482	0.600136	0.465097	0.464602	0.424512	0.758344	0.459757	0.200669	0.228717	0.169170	0.119433
91	0.420779	0.513286	0.501957	0.341435	0.185852	0.243390	0.588925	0.176673	0.276537	0.358403	1.111977	0.172776	0.153679	0.205950	0.799354	0.442689	0.280762	0.310577	0.175343	0.201405	0.265929	0.342098	0.650704	0.207132	0.100741	0.132640	0.580065	0.145362	0.133448	0.164463	0.192005	0.095044	0.249517	0.276311	0.234588	0.164681	0.131643	0.278366	1.010784	0.538054	0.381348	0.292107	0.833659	0.275043	0.132072	0.347095	0.254761	0.203937	0.308223	0.286131	0.423835	0.289585	0.280756	0.307719	0.322471	0.178173	0.289773	0.358222	0.296573	0.279610	0.188466	0.246239	0.559620	0.418996	0.424117	0.372573	0.711511	0.449567	0.183321	0.207385	0.146697	0.106674
92	0.409606	0.499749	0.465541	0.326997	0.207497	0.316977	0.598001	0.187694	0.283400	0.364756	1.042979	0.174460	0.144638	0.208246	0.731591	0.434265	0.219842	0.254561	0.172207	0.208769	0.269877	0.344662	0.655654	0.240827	0.087925	0.131109	0.557375	0.145539	0.149891	0.275360	0.185497	0.090593	0.270709	0.297366	0.278954	0.179275	0.177783	0.329257	1.113806	0.619929	0.393190	0.292783	0.852552	0.337115	0.116546	0.351793	0.246839	0.208113	0.312354	0.289674	0.423214	0.267554	0.280201	0.310091	0.355514	0.300942	0.276396	0.346642	0.309005	0.337118	0.185193	0.250816	0.462472	0.349742	0.409742	0.345902	0.644830	0.428975	0.151851	0.172622	0.147345	0.104698
93	0.427327	0.515027	0.454464	0.315413	0.221526	0.346593	0.588732	0.195047	0.277955	0.365442	0.931025	0.166133	0.103668	0.207816	0.496971	0.379739	0.210110	0.267455	0.177097	0.207838	0.263340	0.336552	0.665512	0.244109	0.071286	0.126703	0.510333	0.151446	0.146719	0.315278	0.193072	0.090661	0.288940	0.294112	0.323347	0.179399	0.253472	0.408846	1.162355	0.685512	0.390336	0.297941	0.853381	0.394969	0.127571	0.338530	0.235582	0.208198	0.310026	0.303084	0.393487	0.210213	0.278243	0.304904	0.386301	0.380122	0.284095	0.296877	0.319179	0.372286	0.169180	0.259964	0.303959	0.260334	0.405622	0.332533	0.652924	0.411817	0.128623	0.153490	0.145221	0.101855
94	0.525053	0.592935	0.454437	0.319617	0.239903	0.339286	0.608507	0.191773	0.332218	0.415642	0.890328	0.159335	0.098301	0.195038	0.272662	0.280195	0.213639	0.266896	0.174795	0.185998	0.268777	0.340308	0.677644	0.244240	0.082916	0.126389	0.458142	0.148620	0.145738	0.322782	0.216335	0.125943	0.305802	0.256798	0.344799	0.168217	0.301848	0.439822	1.183943	0.703976	0.386446	0.312683	0.739604	0.496370	0.130710	0.333094	0.228205	0.208581	0.262532	0.297050	0.343740	0.196558	0.263086	0.278419	0.404758	0.408430	0.218174	0.294736	0.332243	0.379478	0.174234	0.273794	0.172189	0.163328	0.396909	0.326942	0.670449	0.423653	0.129438	0.153866	0.142795	0.096379
95	0.589595	0.648042	0.419845	0.349623	0.254299	0.348588	0.704927	0.203657	0.377358	0.453410	0.891471	0.160308	0.093207	0.169198	0.178262	0.118049	0.221155	0.257702	0.212353	0.177096	0.290921	0.366639	0.677254	0.244354	0.093978	0.150150	0.437900	0.158722	0.148102	0.323089	0.239878	0.172186	0.314431	0.251185	0.347649	0.166181	0.308190	0.429059	1.195213	0.704949	0.374665	0.319973	0.574696	0.512695	0.141531	0.343343	0.225596	0.214489	0.211017	0.251247	0.276919	0.207657	0.232825	0.233255	0.407348	0.407322	0.230800	0.279700	0.334025	0.381168	0.195347	0.287641	0.145559	0.132021	0.312331	0.239719	0.571349	0.421414	0.123273	0.143426	0.141982	0.098597
96	0.595830	0.648138	0.362917	0.385714	0.267568	0.383211	0.759693	0.247038	0.382113	0.460873	0.853284	0.156529	0.082484	0.142987	0.144603	0.066126	0.207529	0.269697	0.219087	0.187787	0.308033	0.385024	0.676752	0.245908	0.133468	0.195254	0.434397	0.169157	0.148150	0.332031	0.275946	0.205591	0.371806	0.211477	0.330153	0.160415	0.306100	0.425698	1.197431	0.712648	0.368465	0.328235	0.503724	0.569611	0.140692	0.339673	0.234422	0.225423	0.208988	0.270433	0.265031	0.209512	0.179397	0.190199	0.439747	0.435530	0.235839	0.277410	0.323638	0.372782	0.198396	0.288437	0.164552	0.133557	0.266531	0.150086	0.394091	0.330075	0.082848	0.199534	0.136604	0.128097
97	0.591624	0.629456	0.343728	0.387911	0.315530	0.505800	0.771084	0.266337	0.382471	0.473657	0.666989	0.155953	0.075825	0.131336	0.157378	0.079625	0.172269	0.268085	0.232095	0.205221	0.304262	0.382155	0.643418	0.245235	0.227522	0.277431	0.430860	0.218277	0.155459	0.347776	0.315540	0.241140	0.352118	0.196631	0.313779	0.137623	0.306406	0.437171	1.196975	0.724129	0.369686	0.313026	0.506533	0.685985	0.139488	0.398241	0.240962	0.235056	0.220428	0.339725	0.216254	0.187167	0.171677	0.198808	0.449415	0.491702	0.267707	0.271916	0.312320	0.341556	0.189069	0.273692	0.179969	0.137047	0.271115	0.156760	0.344310	0.267043	0.061244	0.301910	0.138179	0.146898
98	0.571281	0.596781	0.364064	0.384592	0.354299	0.562123	0.770580	0.267295	0.382573	0.468827	0.408408	0.115319	0.073935	0.130972	0.176614	0.084115	0.195785	0.285150	0.351998	0.231852	0.278360	0.350530	0.577676	0.244573	0.287346	0.332454	0.409336	0.294366	0.200184	0.356779	0.322852	0.270850	0.353260	0.195114	0.303078	0.116701	0.308161	0.440477	1.196106	0.731102	0.371979	0.234126	0.623662	0.764639	0.136797	0.515318	0.241102	0.238283	0.218858	0.353131	0.187488	0.155164	0.168679	0.202919	0.432095	0.531988	0.255859	0.234160	0.280393	0.310026	0.160599	0.232599	0.185260	0.134815	0.263757	0.154466	0.340190	0.282392	0.059521	0.371612	0.138749	0.149287
99	0.537979	0.539391	0.404242	0.364581	0.369760	0.588049	0.770966	0.267234	0.359394	0.418974	0.321169	0.082765	0.073997	0.129149	0.194855	0.092157	0.347190	0.306421	0.358484	0.253050	0.248446	0.315456	0.547628	0.243369	0.310031	0.333850	0.382188	0.306360	0.242846	0.356225	0.322839	0.275604	0.327453	0.145296	0.295954	0.122889	0.313297	0.444985	1.181875	0.728475	0.350073	0.207472	0.658602	0.779876	0.137759	0.525152	0.225344	0.215609	0.218357	0.352667	0.186022	0.149848	0.153780	0.195786	0.398535	0.541641	0.257213	0.250767	0.258367	0.299442	0.139465	0.199322	0.183406	0.123993	0.303819	0.189198	0.393909	0.355566	0.091705	0.379997	0.165500	0.150316
100	0.504161	0.484439	0.474808	0.370396	0.369576	0.584144	0.770716	0.267224	0.345088	0.365970	0.343662	0.091690	0.073610	0.125404	0.199167	0.115084	0.387535	0.294304	0.358856	0.236239	0.238853	0.303047	0.535868	0.233296	0.366556	0.328491	0.410742	0.328301	0.247291	0.361344	0.338514	0.286417	0.384213	0.117013	0.260502	0.099083	0.322243	0.451311	1.134344	0.695402	0.219290	0.199618	0.659122	0.852884	0.165680	0.525194	0.201186	0.180977	0.279059	0.359795	0.168677	0.146532	0.140258	0.186612	0.374034	0.539982	0.258781	0.258453	0.235330	0.299658	0.143034	0.198315	0.180731	0.105954	0.335167	0.203253	0.446627	0.402243	0.128676	0.384374	0.170716	0.150595
101	0.484217	0.454044	0.515826	0.372147	0.367226	0.585660	0.770154	0.268253	0.326582	0.377836	0.354754	0.127897	0.070678	0.115251	0.195858	0.138995	0.428448	0.312196	0.356784	0.234404	0.231875	0.290146	0.417513	0.212643	0.379365	0.326906	0.431843	0.433704	0.248701	0.365926	0.395154	0.316398	0.384556	0.108416	0.319246	0.082830	0.330795	0.464137	1.053910	0.636243	0.215452	0.193026	0.691573	1.019338	0.219038	0.527295	0.189316	0.156187	0.320345	0.361453	0.149235	0.127313	0.112273	0.157571	0.376497	0.539517	0.262218	0.267170	0.231315	0.309877	0.145135	0.202820	0.174682	0.092341	0.332956	0.218459	0.449600	0.437683	0.135412	0.410341	0.172265	0.161956
