	133_P_T1_sh_R_D_A_01.c3d	133_P_T1_sh_R_D_A_01.c3d	133_P_T1_sh_R_D_A_01.c3d	133_P_T1_sh_R_D_A_01.c3d	133_P_T1_sh_R_D_A_01.c3d	133_P_T1_sh_R_D_A_01.c3d	133_P_T1_sh_R_D_A_01.c3d	133_P_T1_sh_R_D_A_01.c3d	133_P_T1_sh_R_D_A_02.c3d	133_P_T1_sh_R_D_A_02.c3d	133_P_T1_sh_R_D_A_02.c3d	133_P_T1_sh_R_D_A_02.c3d	133_P_T1_sh_R_D_A_02.c3d	133_P_T1_sh_R_D_A_02.c3d	133_P_T1_sh_R_D_A_02.c3d	133_P_T1_sh_R_D_A_02.c3d	133_P_T1_sh_R_D_A_03.c3d	133_P_T1_sh_R_D_A_03.c3d	133_P_T1_sh_R_D_A_03.c3d	133_P_T1_sh_R_D_A_03.c3d	133_P_T1_sh_R_D_A_03.c3d	133_P_T1_sh_R_D_A_03.c3d	133_P_T1_sh_R_D_A_03.c3d	133_P_T1_sh_R_D_A_03.c3d	133_P_T1_sh_R_D_A_04.c3d	133_P_T1_sh_R_D_A_04.c3d	133_P_T1_sh_R_D_A_04.c3d	133_P_T1_sh_R_D_A_04.c3d	133_P_T1_sh_R_D_A_04.c3d	133_P_T1_sh_R_D_A_04.c3d	133_P_T1_sh_R_D_A_04.c3d	133_P_T1_sh_R_D_A_04.c3d	133_P_T1_sh_R_D_A_05.c3d	133_P_T1_sh_R_D_A_05.c3d	133_P_T1_sh_R_D_A_05.c3d	133_P_T1_sh_R_D_A_05.c3d	133_P_T1_sh_R_D_A_05.c3d	133_P_T1_sh_R_D_A_05.c3d	133_P_T1_sh_R_D_A_05.c3d	133_P_T1_sh_R_D_A_05.c3d	133_P_T1_sh_R_D_A_06.c3d	133_P_T1_sh_R_D_A_06.c3d	133_P_T1_sh_R_D_A_06.c3d	133_P_T1_sh_R_D_A_06.c3d	133_P_T1_sh_R_D_A_06.c3d	133_P_T1_sh_R_D_A_06.c3d	133_P_T1_sh_R_D_A_06.c3d	133_P_T1_sh_R_D_A_06.c3d	133_P_T1_sh_R_D_A_07.c3d	133_P_T1_sh_R_D_A_07.c3d	133_P_T1_sh_R_D_A_07.c3d	133_P_T1_sh_R_D_A_07.c3d	133_P_T1_sh_R_D_A_07.c3d	133_P_T1_sh_R_D_A_07.c3d	133_P_T1_sh_R_D_A_07.c3d	133_P_T1_sh_R_D_A_07.c3d	133_P_T1_sh_R_D_A_08.c3d	133_P_T1_sh_R_D_A_08.c3d	133_P_T1_sh_R_D_A_08.c3d	133_P_T1_sh_R_D_A_08.c3d	133_P_T1_sh_R_D_A_08.c3d	133_P_T1_sh_R_D_A_08.c3d	133_P_T1_sh_R_D_A_08.c3d	133_P_T1_sh_R_D_A_08.c3d	133_P_T1_sh_R_D_A_09.c3d	133_P_T1_sh_R_D_A_09.c3d	133_P_T1_sh_R_D_A_09.c3d	133_P_T1_sh_R_D_A_09.c3d	133_P_T1_sh_R_D_A_09.c3d	133_P_T1_sh_R_D_A_09.c3d	133_P_T1_sh_R_D_A_09.c3d	133_P_T1_sh_R_D_A_09.c3d	133_P_T1_sh_R_D_A_10.c3d	133_P_T1_sh_R_D_A_10.c3d	133_P_T1_sh_R_D_A_10.c3d	133_P_T1_sh_R_D_A_10.c3d	133_P_T1_sh_R_D_A_10.c3d	133_P_T1_sh_R_D_A_10.c3d	133_P_T1_sh_R_D_A_10.c3d	133_P_T1_sh_R_D_A_10.c3d
	Biceps femoris_lat	Semitendinosus_lat	Vastus lateralis_lat	Vastus medialis_lat	Biceps femoris_med	Semitendinosus_med	Vastus lateralis_med	Vastus medialis_med	Biceps femoris_lat	Semitendinosus_lat	Vastus lateralis_lat	Vastus medialis_lat	Biceps femoris_med	Semitendinosus_med	Vastus lateralis_med	Vastus medialis_med	Biceps femoris_lat	Semitendinosus_lat	Vastus lateralis_lat	Vastus medialis_lat	Biceps femoris_med	Semitendinosus_med	Vastus lateralis_med	Vastus medialis_med	Biceps femoris_lat	Semitendinosus_lat	Vastus lateralis_lat	Vastus medialis_lat	Biceps femoris_med	Semitendinosus_med	Vastus lateralis_med	Vastus medialis_med	Biceps femoris_lat	Semitendinosus_lat	Vastus lateralis_lat	Vastus medialis_lat	Biceps femoris_med	Semitendinosus_med	Vastus lateralis_med	Vastus medialis_med	Biceps femoris_lat	Semitendinosus_lat	Vastus lateralis_lat	Vastus medialis_lat	Biceps femoris_med	Semitendinosus_med	Vastus lateralis_med	Vastus medialis_med	Biceps femoris_lat	Semitendinosus_lat	Vastus lateralis_lat	Vastus medialis_lat	Biceps femoris_med	Semitendinosus_med	Vastus lateralis_med	Vastus medialis_med	Biceps femoris_lat	Semitendinosus_lat	Vastus lateralis_lat	Vastus medialis_lat	Biceps femoris_med	Semitendinosus_med	Vastus lateralis_med	Vastus medialis_med	Biceps femoris_lat	Semitendinosus_lat	Vastus lateralis_lat	Vastus medialis_lat	Biceps femoris_med	Semitendinosus_med	Vastus lateralis_med	Vastus medialis_med	Biceps femoris_lat	Semitendinosus_lat	Vastus lateralis_lat	Vastus medialis_lat	Biceps femoris_med	Semitendinosus_med	Vastus lateralis_med	Vastus medialis_med
	P2D	P2D	P2D	P2D	P2D	P2D	P2D	P2D	P2D	P2D	P2D	P2D	P2D	P2D	P2D	P2D	P2D	P2D	P2D	P2D	P2D	P2D	P2D	P2D	P2D	P2D	P2D	P2D	P2D	P2D	P2D	P2D	P2D	P2D	P2D	P2D	P2D	P2D	P2D	P2D	P2D	P2D	P2D	P2D	P2D	P2D	P2D	P2D	P2D	P2D	P2D	P2D	P2D	P2D	P2D	P2D	P2D	P2D	P2D	P2D	P2D	P2D	P2D	P2D	P2D	P2D	P2D	P2D	P2D	P2D	P2D	P2D	P2D	P2D	P2D	P2D	P2D	P2D	P2D	P2D
	EMG_lat	EMG_lat	EMG_lat	EMG_lat	EMG_med	EMG_med	EMG_med	EMG_med	EMG_lat	EMG_lat	EMG_lat	EMG_lat	EMG_med	EMG_med	EMG_med	EMG_med	EMG_lat	EMG_lat	EMG_lat	EMG_lat	EMG_med	EMG_med	EMG_med	EMG_med	EMG_lat	EMG_lat	EMG_lat	EMG_lat	EMG_med	EMG_med	EMG_med	EMG_med	EMG_lat	EMG_lat	EMG_lat	EMG_lat	EMG_med	EMG_med	EMG_med	EMG_med	EMG_lat	EMG_lat	EMG_lat	EMG_lat	EMG_med	EMG_med	EMG_med	EMG_med	EMG_lat	EMG_lat	EMG_lat	EMG_lat	EMG_med	EMG_med	EMG_med	EMG_med	EMG_lat	EMG_lat	EMG_lat	EMG_lat	EMG_med	EMG_med	EMG_med	EMG_med	EMG_lat	EMG_lat	EMG_lat	EMG_lat	EMG_med	EMG_med	EMG_med	EMG_med	EMG_lat	EMG_lat	EMG_lat	EMG_lat	EMG_med	EMG_med	EMG_med	EMG_med
ITEM	Y	Y	Y	Y	Y	Y	Y	Y	Y	Y	Y	Y	Y	Y	Y	Y	Y	Y	Y	Y	Y	Y	Y	Y	Y	Y	Y	Y	Y	Y	Y	Y	Y	Y	Y	Y	Y	Y	Y	Y	Y	Y	Y	Y	Y	Y	Y	Y	Y	Y	Y	Y	Y	Y	Y	Y	Y	Y	Y	Y	Y	Y	Y	Y	Y	Y	Y	Y	Y	Y	Y	Y	Y	Y	Y	Y	Y	Y	Y	Y
1	0.537413	0.201402	0.075590	0.133100	0.229503	0.434564	0.078646	0.224404	0.426273	0.463286	0.064119	0.133829	0.365366	0.483465	0.072839	0.178522	0.426314	0.604214	0.124075	0.213057	0.511122	0.526172	0.148653	0.163392	0.286019	0.272164	0.094064	0.099609	0.395468	0.410701	0.109806	0.135417	0.296077	0.426019	0.083727	0.243985	0.489989	0.439125	0.033255	0.164389	0.503001	0.595153	0.070310	0.220913	0.253650	0.260161	0.215702	0.247796	1.138884	0.485551	0.071491	0.107173	0.227405	0.170289	0.042876	0.121801	0.179458	0.138566	0.056557	0.096515	0.208004	0.235830	0.106251	0.128782	0.103897	0.210142	0.204702	0.364669	0.544721	0.372656	0.155378	0.148416	0.334372	0.300339	0.129383	0.174706	0.091429	0.252102	0.055071	0.174727
2	0.420127	0.199885	0.077797	0.124391	0.344938	0.395742	0.102661	0.223476	0.430931	0.502006	0.065781	0.124000	0.296128	0.443184	0.067738	0.156138	0.416969	0.605159	0.108613	0.202167	0.683923	0.575441	0.166760	0.166485	0.102251	0.235225	0.088136	0.096517	0.354701	0.385382	0.159894	0.182930	0.317590	0.419382	0.089092	0.237895	0.556167	0.441502	0.046705	0.160322	0.534312	0.616233	0.096486	0.239100	0.260026	0.299746	0.210695	0.237398	1.129699	0.560491	0.068664	0.092832	0.177638	0.153488	0.047190	0.145863	0.087802	0.128757	0.039686	0.100077	0.210926	0.236751	0.106369	0.120594	0.098954	0.216020	0.193827	0.334792	0.407073	0.383659	0.151381	0.141473	0.358490	0.358697	0.122102	0.149193	0.081209	0.172043	0.061107	0.199460
3	0.399957	0.221983	0.084938	0.124786	0.497563	0.485887	0.115470	0.212096	0.436547	0.504313	0.067615	0.118044	0.269153	0.285035	0.094104	0.176314	0.415893	0.603834	0.093214	0.172359	0.716519	0.586516	0.166948	0.174069	0.098048	0.230549	0.084721	0.089359	0.328838	0.309713	0.164539	0.220249	0.371276	0.521023	0.089236	0.210907	0.666676	0.442134	0.065300	0.155636	0.585760	0.672121	0.102049	0.245517	0.264330	0.300470	0.216898	0.245745	1.040079	0.598741	0.114526	0.097601	0.172019	0.135496	0.049280	0.149744	0.073673	0.115384	0.083982	0.095067	0.214612	0.272693	0.108397	0.125207	0.090108	0.236929	0.174917	0.252398	0.329792	0.411372	0.149818	0.132511	0.397907	0.434426	0.113008	0.149168	0.077241	0.129614	0.063947	0.191006
4	0.407574	0.238560	0.095853	0.140438	0.618278	0.527191	0.117725	0.209102	0.476468	0.456734	0.068284	0.116153	0.145314	0.120230	0.103202	0.191585	0.428656	0.625192	0.073066	0.133848	0.721911	0.588322	0.171629	0.179033	0.123818	0.249229	0.066211	0.076066	0.310777	0.333708	0.166876	0.222617	0.374832	0.530847	0.093464	0.201749	0.731348	0.450747	0.074211	0.154574	0.600671	0.682418	0.104854	0.247323	0.251393	0.298477	0.201522	0.229672	0.845041	0.597340	0.170981	0.139409	0.155015	0.154120	0.050530	0.175850	0.075206	0.090348	0.173185	0.099027	0.217745	0.289344	0.122859	0.160396	0.088501	0.240690	0.155249	0.232042	0.330637	0.406046	0.152747	0.124283	0.400213	0.441164	0.109137	0.152472	0.064488	0.087976	0.062104	0.189309
5	0.391779	0.229399	0.186492	0.166239	0.626914	0.555845	0.119783	0.179836	0.492570	0.491873	0.057742	0.106746	0.179066	0.183993	0.110937	0.174640	0.448325	0.699101	0.088291	0.106009	0.716647	0.576120	0.174288	0.188646	0.122632	0.239138	0.058280	0.115007	0.337002	0.358383	0.173836	0.225747	0.372478	0.605075	0.123939	0.238463	0.774385	0.472716	0.076480	0.153731	0.595839	0.692116	0.133346	0.247725	0.242063	0.275207	0.169851	0.193182	0.721443	0.579256	0.203606	0.149887	0.168416	0.218597	0.063690	0.181882	0.065027	0.086256	0.179613	0.106294	0.252326	0.314191	0.133772	0.212045	0.094261	0.248049	0.154977	0.222065	0.330105	0.405302	0.145662	0.108468	0.477084	0.649557	0.095161	0.132155	0.047612	0.068573	0.062336	0.180968
6	0.394434	0.239793	0.273899	0.215136	0.628089	0.536136	0.110655	0.165122	0.673728	0.484722	0.093397	0.093146	0.176753	0.228224	0.112897	0.163678	0.435804	0.727662	0.107908	0.113461	0.711219	0.548535	0.171455	0.193140	0.121955	0.234180	0.070095	0.201422	0.354558	0.396533	0.171374	0.222391	0.532714	0.778779	0.176887	0.278030	0.780435	0.475298	0.078108	0.154152	0.575406	0.686699	0.178462	0.252807	0.203420	0.255904	0.150517	0.191258	0.381496	0.525850	0.208899	0.149569	0.188907	0.233466	0.065473	0.189282	0.060506	0.091526	0.208502	0.131024	0.257584	0.347301	0.132790	0.228566	0.087869	0.256960	0.131255	0.190852	0.314372	0.416313	0.124701	0.129076	0.495360	0.720446	0.109263	0.100442	0.048671	0.058192	0.063397	0.178341
7	0.183798	0.191492	0.281959	0.225368	0.618689	0.506212	0.141652	0.158111	0.706634	0.470847	0.164225	0.094769	0.189754	0.231404	0.120472	0.179105	0.436752	0.713152	0.128442	0.160747	0.687864	0.457296	0.166801	0.168593	0.120135	0.225183	0.100276	0.245080	0.374913	0.458223	0.159377	0.214508	0.581068	0.766590	0.238154	0.304538	0.782381	0.450843	0.078632	0.153786	0.581885	0.722686	0.217313	0.250275	0.187001	0.248688	0.210963	0.237274	0.220746	0.493323	0.241225	0.162483	0.196041	0.243984	0.064979	0.184621	0.054164	0.105262	0.314714	0.155327	0.254849	0.327455	0.133928	0.227696	0.090330	0.244065	0.098391	0.163333	0.329931	0.408399	0.115185	0.125418	0.488855	0.738922	0.121130	0.102085	0.039938	0.074711	0.071482	0.160292
8	0.175851	0.202134	0.380104	0.290066	0.554987	0.475540	0.211488	0.145059	0.618553	0.427995	0.175115	0.166514	0.191246	0.265692	0.152802	0.182154	0.403086	0.607987	0.146530	0.188489	0.628890	0.398043	0.159334	0.130387	0.112249	0.225347	0.160964	0.247731	0.368543	0.472259	0.155347	0.214404	0.592456	0.747812	0.274387	0.298749	0.777051	0.372515	0.088519	0.148538	0.582028	0.743445	0.221662	0.291522	0.183713	0.221025	0.232224	0.288921	0.188705	0.473778	0.326110	0.169311	0.228230	0.258615	0.068218	0.182936	0.052619	0.100558	0.326386	0.167083	0.240935	0.324198	0.145330	0.237558	0.137759	0.445156	0.084094	0.138114	0.302288	0.342568	0.071039	0.123688	0.493756	0.749520	0.122115	0.123448	0.046282	0.086029	0.082270	0.192752
9	0.191597	0.213295	0.459194	0.324609	0.474674	0.414528	0.268484	0.143861	0.587303	0.427799	0.229970	0.181196	0.198783	0.321049	0.177996	0.166682	0.295298	0.498082	0.157555	0.204843	0.620029	0.338761	0.158358	0.121140	0.113317	0.201350	0.189949	0.255603	0.355265	0.441457	0.151476	0.210545	0.596496	0.732660	0.278926	0.274703	0.745449	0.344003	0.119090	0.172629	0.564141	0.742061	0.229633	0.334639	0.177107	0.220108	0.226141	0.279986	0.182156	0.459185	0.347523	0.172551	0.246506	0.282535	0.094183	0.160029	0.047252	0.104869	0.327279	0.163757	0.226426	0.325354	0.138290	0.242095	0.160105	0.487482	0.078160	0.104692	0.264406	0.282210	0.083695	0.133031	0.489105	0.748719	0.133627	0.134286	0.051002	0.107467	0.113898	0.174674
10	0.190163	0.198261	0.461870	0.332830	0.175511	0.288406	0.294899	0.124039	0.586305	0.390780	0.283668	0.226732	0.209372	0.395873	0.184630	0.137792	0.276663	0.483108	0.266295	0.208687	0.545590	0.341561	0.139323	0.130120	0.113179	0.216160	0.206361	0.274385	0.331330	0.391009	0.099867	0.171801	0.596760	0.732356	0.320936	0.281113	0.744260	0.289122	0.174937	0.212941	0.549824	0.684959	0.234674	0.325582	0.148158	0.198632	0.225895	0.299662	0.186295	0.458862	0.347199	0.176351	0.245125	0.283684	0.098213	0.134600	0.047032	0.106160	0.317838	0.163531	0.170714	0.320202	0.140940	0.237090	0.196879	0.518161	0.065961	0.090931	0.239584	0.202414	0.086072	0.131483	0.492406	0.722825	0.164520	0.142033	0.053282	0.113753	0.126807	0.173660
11	0.176830	0.199995	0.455832	0.318409	0.104627	0.203181	0.325507	0.128544	0.592548	0.394910	0.291090	0.267915	0.201383	0.413369	0.226992	0.148167	0.266982	0.460000	0.338646	0.244628	0.455173	0.258144	0.128767	0.129944	0.106427	0.230417	0.243414	0.293387	0.299234	0.391722	0.121989	0.120043	0.595074	0.722121	0.374543	0.305983	0.673168	0.251765	0.227110	0.231807	0.420618	0.559440	0.238089	0.320204	0.138184	0.125504	0.225031	0.325394	0.185609	0.440861	0.348996	0.177295	0.241524	0.282139	0.102005	0.132506	0.040941	0.104600	0.281937	0.160745	0.178605	0.309749	0.149450	0.247334	0.196639	0.518786	0.060239	0.084565	0.183943	0.157562	0.102193	0.127703	0.426063	0.693009	0.177251	0.166043	0.055672	0.127762	0.192014	0.176087
12	0.172959	0.212583	0.420307	0.295416	0.091502	0.191369	0.329530	0.118116	0.563598	0.390462	0.292109	0.299159	0.167927	0.396852	0.228347	0.172819	0.266830	0.480031	0.346237	0.277770	0.175675	0.169350	0.141618	0.122191	0.104388	0.228764	0.262983	0.308336	0.277167	0.371468	0.130853	0.125578	0.583472	0.720692	0.380465	0.321822	0.593603	0.256998	0.230345	0.232667	0.373144	0.530003	0.287452	0.310045	0.111849	0.140619	0.251829	0.342144	0.185384	0.342176	0.351093	0.177434	0.223047	0.273922	0.102000	0.142924	0.029639	0.108904	0.281366	0.166828	0.180548	0.309521	0.159370	0.255016	0.196697	0.512571	0.064994	0.083149	0.180251	0.157613	0.110045	0.127964	0.350614	0.637380	0.193221	0.170663	0.061548	0.146945	0.205279	0.178478
13	0.150932	0.204582	0.415034	0.267368	0.089657	0.175662	0.316495	0.128675	0.543751	0.323052	0.299969	0.304922	0.147371	0.374162	0.227583	0.174328	0.262376	0.485566	0.345276	0.289500	0.106060	0.182660	0.147648	0.114759	0.090858	0.242003	0.268772	0.316174	0.238515	0.364738	0.151497	0.145103	0.566522	0.682089	0.383827	0.327639	0.471477	0.280347	0.256481	0.223866	0.291256	0.442414	0.313729	0.306413	0.113375	0.151849	0.263889	0.348571	0.184628	0.207987	0.352950	0.174573	0.210870	0.229853	0.094363	0.170971	0.030575	0.102071	0.254516	0.191227	0.182660	0.306732	0.159398	0.264422	0.196627	0.509364	0.072201	0.084447	0.174005	0.157793	0.109112	0.124323	0.346361	0.633888	0.226690	0.161448	0.060697	0.145731	0.219302	0.178480
14	0.140126	0.177582	0.423182	0.244592	0.076954	0.177312	0.289416	0.143376	0.273520	0.275391	0.289772	0.300843	0.118121	0.373893	0.222892	0.165247	0.239618	0.452126	0.343722	0.292314	0.093945	0.284774	0.155879	0.117223	0.058748	0.212232	0.271770	0.317824	0.195936	0.348638	0.192410	0.162388	0.525271	0.614410	0.383917	0.329269	0.382621	0.297001	0.258983	0.218732	0.253259	0.438760	0.312997	0.309446	0.116360	0.151640	0.259767	0.349321	0.180462	0.173128	0.334684	0.142550	0.195399	0.208224	0.096165	0.167547	0.037630	0.082417	0.099831	0.195413	0.180962	0.264938	0.155933	0.292189	0.196913	0.510765	0.074714	0.083968	0.106119	0.099478	0.122036	0.109947	0.253458	0.487393	0.225600	0.154066	0.059851	0.143578	0.220958	0.185814
15	0.111614	0.169502	0.304120	0.173092	0.078670	0.154543	0.200968	0.141837	0.185964	0.280514	0.264061	0.299754	0.116351	0.357740	0.202344	0.186914	0.199546	0.329302	0.340599	0.291115	0.101934	0.348608	0.160540	0.130059	0.062011	0.211212	0.273849	0.298218	0.123456	0.290303	0.201739	0.164553	0.522359	0.609764	0.381528	0.325449	0.218072	0.258112	0.259909	0.229376	0.247160	0.431180	0.306145	0.311825	0.116538	0.139549	0.256357	0.349392	0.180672	0.129858	0.329089	0.113301	0.181539	0.203764	0.101165	0.190835	0.044471	0.084051	0.072402	0.181402	0.177069	0.274690	0.140834	0.285642	0.191759	0.504807	0.094331	0.075294	0.100897	0.161099	0.127688	0.135466	0.162504	0.302833	0.222104	0.153113	0.057125	0.131050	0.219115	0.177413
16	0.051448	0.204455	0.223370	0.107970	0.079746	0.137874	0.174549	0.142857	0.170549	0.285677	0.278577	0.275412	0.107060	0.351309	0.176673	0.189316	0.196005	0.265968	0.335619	0.286549	0.108867	0.354734	0.153678	0.130257	0.062313	0.225810	0.270270	0.244217	0.104420	0.270690	0.202921	0.163656	0.501497	0.431670	0.369759	0.291170	0.195031	0.238609	0.267668	0.247824	0.239604	0.424968	0.290303	0.310452	0.115045	0.189630	0.209499	0.326232	0.180029	0.124027	0.325426	0.112897	0.144021	0.213451	0.100517	0.217853	0.046192	0.078704	0.073539	0.200139	0.114608	0.266347	0.133718	0.257706	0.184170	0.487683	0.094457	0.084275	0.100398	0.317966	0.119903	0.127149	0.150686	0.251033	0.215740	0.154780	0.046300	0.126762	0.210309	0.134663
17	0.046689	0.265244	0.221112	0.121947	0.060568	0.111346	0.086802	0.132423	0.155175	0.242663	0.255987	0.280036	0.109411	0.352465	0.147238	0.197906	0.165428	0.239928	0.328924	0.271405	0.108560	0.374065	0.151360	0.134146	0.072826	0.221251	0.261015	0.210343	0.094894	0.270443	0.196997	0.170362	0.261156	0.170671	0.342802	0.254045	0.178194	0.247442	0.279604	0.269677	0.162188	0.361814	0.265244	0.303367	0.115076	0.224810	0.167772	0.267072	0.174985	0.147695	0.322371	0.103568	0.057418	0.183959	0.085803	0.223600	0.046636	0.095319	0.083134	0.223706	0.102273	0.282323	0.132814	0.249861	0.182167	0.469339	0.092217	0.081274	0.100502	0.388266	0.115766	0.126444	0.130586	0.219073	0.217964	0.150049	0.041316	0.124140	0.195392	0.130887
18	0.056228	0.256382	0.212198	0.142310	0.066105	0.215969	0.060544	0.134165	0.138183	0.174788	0.211137	0.246310	0.110047	0.341986	0.067851	0.169782	0.122497	0.220584	0.321202	0.260834	0.110381	0.391982	0.151726	0.135409	0.098058	0.255772	0.226286	0.209288	0.086181	0.265693	0.197748	0.175742	0.181556	0.168947	0.299344	0.213254	0.184433	0.244544	0.282088	0.279200	0.107567	0.306571	0.262473	0.243404	0.115662	0.246034	0.163261	0.256754	0.127523	0.140255	0.260469	0.097824	0.054198	0.180529	0.088169	0.223642	0.049564	0.096734	0.107264	0.230307	0.102660	0.292371	0.130132	0.247876	0.140332	0.273786	0.093721	0.086699	0.048096	0.446556	0.108355	0.158160	0.122198	0.208025	0.215375	0.142062	0.040831	0.337783	0.166038	0.115844
19	0.069151	0.262383	0.204973	0.163850	0.061358	0.214787	0.075513	0.132296	0.076545	0.127682	0.213978	0.209136	0.149004	0.407594	0.065361	0.152869	0.112308	0.218509	0.316921	0.250115	0.111352	0.405675	0.155029	0.169688	0.109942	0.285178	0.211575	0.203733	0.078767	0.261319	0.185244	0.203898	0.129224	0.149924	0.273975	0.202813	0.185103	0.244135	0.272898	0.266899	0.108071	0.293238	0.255544	0.172591	0.116294	0.247363	0.161102	0.235207	0.079376	0.125375	0.181773	0.092846	0.051499	0.222831	0.082610	0.223818	0.065062	0.091039	0.213537	0.246694	0.104162	0.307935	0.119766	0.236273	0.113651	0.235874	0.096845	0.113854	0.057893	0.447450	0.105193	0.176454	0.101761	0.208432	0.197406	0.141869	0.040245	0.412275	0.108226	0.115739
20	0.070806	0.320515	0.115839	0.192950	0.061695	0.214460	0.091633	0.083332	0.052719	0.121730	0.218371	0.178473	0.174027	0.455516	0.096369	0.155673	0.111150	0.217405	0.237937	0.245972	0.110362	0.406425	0.158135	0.196065	0.138533	0.300775	0.188367	0.194904	0.075903	0.256184	0.181339	0.222577	0.123261	0.146708	0.269695	0.197763	0.181675	0.244189	0.250589	0.226098	0.110604	0.272663	0.256447	0.162553	0.086440	0.241580	0.159543	0.191585	0.046851	0.123621	0.177935	0.084533	0.050781	0.232315	0.079316	0.202999	0.091162	0.107200	0.257237	0.210223	0.110226	0.319358	0.113326	0.243742	0.044520	0.162750	0.104732	0.129784	0.071848	0.460688	0.128640	0.172871	0.083334	0.206016	0.174856	0.128181	0.049538	0.580677	0.109837	0.167772
21	0.071577	0.325382	0.102542	0.187063	0.100442	0.217887	0.098432	0.082589	0.044820	0.121653	0.213292	0.207577	0.173449	0.462956	0.101148	0.142519	0.100085	0.228409	0.115870	0.209894	0.109393	0.404898	0.128414	0.198324	0.140465	0.303493	0.145748	0.177607	0.061414	0.219787	0.156680	0.202396	0.121611	0.152268	0.183900	0.166134	0.180042	0.238234	0.207345	0.205148	0.111182	0.262468	0.253515	0.119095	0.069933	0.232916	0.102205	0.146201	0.044570	0.117388	0.177896	0.089288	0.064186	0.245442	0.077771	0.167860	0.109430	0.151474	0.275012	0.201779	0.108921	0.333097	0.093198	0.251464	0.054538	0.172046	0.108592	0.135279	0.082287	0.460946	0.115881	0.179087	0.055831	0.199988	0.168135	0.186613	0.065521	0.656365	0.140209	0.192434
22	0.073413	0.322694	0.106108	0.257690	0.108224	0.220681	0.096397	0.098566	0.043326	0.115406	0.217410	0.230373	0.175650	0.460947	0.113645	0.161464	0.066712	0.208563	0.094984	0.166686	0.084627	0.395873	0.128599	0.216026	0.140210	0.288713	0.117907	0.151984	0.044997	0.172662	0.100869	0.196794	0.121725	0.144664	0.089318	0.111795	0.178907	0.224911	0.202379	0.205715	0.104815	0.269081	0.186397	0.108702	0.059710	0.231875	0.040470	0.119048	0.046515	0.107890	0.177763	0.095625	0.067553	0.260409	0.086866	0.165969	0.112788	0.195428	0.323956	0.202902	0.097016	0.354926	0.076751	0.237495	0.058857	0.193700	0.105301	0.185615	0.111640	0.463284	0.110999	0.186860	0.054112	0.188563	0.130493	0.219736	0.082082	0.663117	0.157551	0.186218
23	0.073116	0.274233	0.117856	0.300307	0.146301	0.239524	0.128174	0.102361	0.047460	0.103001	0.210874	0.231353	0.185423	0.421541	0.123924	0.177283	0.051156	0.264278	0.098090	0.144058	0.087321	0.375095	0.131020	0.238534	0.139763	0.301240	0.106381	0.135979	0.028651	0.122051	0.075639	0.188846	0.112531	0.137037	0.057883	0.076135	0.153711	0.203449	0.183131	0.212671	0.090553	0.275132	0.127868	0.108301	0.051058	0.298994	0.039758	0.116597	0.047005	0.112248	0.168632	0.106273	0.083894	0.293214	0.111948	0.135447	0.114105	0.229337	0.344307	0.183882	0.084863	0.364088	0.061704	0.233237	0.057491	0.184165	0.114396	0.212214	0.167253	0.405585	0.129916	0.171681	0.058887	0.181986	0.174244	0.226936	0.101844	0.663267	0.169321	0.186073
24	0.076097	0.245611	0.136498	0.310701	0.144929	0.260901	0.130456	0.213321	0.071151	0.131886	0.214981	0.346882	0.174327	0.367521	0.149306	0.162887	0.061949	0.311886	0.098603	0.163806	0.083924	0.295059	0.119610	0.251652	0.142721	0.343312	0.099985	0.132440	0.032333	0.157772	0.073645	0.188400	0.124213	0.140054	0.040595	0.073976	0.131128	0.159848	0.167142	0.211318	0.079325	0.261379	0.125949	0.097052	0.054517	0.334209	0.055532	0.098751	0.050540	0.114423	0.162162	0.144623	0.084165	0.282382	0.146778	0.077532	0.113992	0.225530	0.347817	0.167775	0.078255	0.362827	0.059410	0.211588	0.060735	0.213748	0.132699	0.213431	0.202397	0.345401	0.134412	0.212494	0.059720	0.184394	0.194830	0.229161	0.106855	0.663727	0.211881	0.183255
25	0.085569	0.269462	0.167621	0.338990	0.160223	0.443295	0.249615	0.312402	0.126136	0.151807	0.289581	0.444804	0.179829	0.361768	0.178495	0.167625	0.066469	0.336963	0.115317	0.203986	0.075933	0.295465	0.116298	0.246683	0.157561	0.345759	0.094360	0.132586	0.049669	0.158569	0.078230	0.181995	0.111919	0.138291	0.040972	0.074904	0.104888	0.148536	0.165386	0.203143	0.087284	0.270997	0.115971	0.088376	0.058306	0.307857	0.059295	0.085958	0.052170	0.116290	0.136335	0.172554	0.094446	0.278534	0.148881	0.057417	0.118412	0.225401	0.352900	0.169486	0.076240	0.356225	0.063846	0.162123	0.081875	0.237054	0.118726	0.225546	0.205469	0.175741	0.162940	0.240772	0.072585	0.185423	0.195334	0.239176	0.109057	0.631579	0.268520	0.183769
26	0.112153	0.284946	0.174421	0.354201	0.173652	0.503950	0.414591	0.329458	0.173926	0.324412	0.356517	0.463108	0.142637	0.305335	0.188925	0.182318	0.066604	0.338885	0.129274	0.229838	0.071769	0.360675	0.125779	0.248982	0.165664	0.344899	0.131284	0.141103	0.061444	0.243913	0.088948	0.208137	0.100414	0.132573	0.053059	0.106577	0.090084	0.146396	0.157673	0.186456	0.089395	0.253050	0.094655	0.079726	0.060258	0.281084	0.086894	0.089934	0.050167	0.132007	0.108112	0.182320	0.097658	0.278381	0.172347	0.065731	0.109764	0.226867	0.339963	0.133745	0.073710	0.352313	0.065543	0.145580	0.083891	0.238972	0.136464	0.223524	0.202871	0.180801	0.162649	0.226454	0.070282	0.165460	0.199937	0.247005	0.108643	0.529165	0.275915	0.189932
27	0.123173	0.231223	0.244034	0.358592	0.165614	0.508536	0.448916	0.380768	0.201181	0.344216	0.387232	0.473229	0.128460	0.249842	0.244186	0.202822	0.066320	0.365967	0.129017	0.228812	0.065372	0.360332	0.126172	0.273127	0.160592	0.343727	0.160729	0.151621	0.062360	0.272734	0.085857	0.221053	0.092618	0.164861	0.069913	0.140122	0.080510	0.101667	0.141554	0.150495	0.099322	0.249837	0.082311	0.096669	0.057337	0.263188	0.124387	0.090920	0.047245	0.175054	0.099095	0.185708	0.098891	0.255195	0.208457	0.071904	0.098494	0.238444	0.316381	0.143271	0.073916	0.308695	0.083848	0.148037	0.083233	0.229713	0.137610	0.230563	0.202322	0.224870	0.143444	0.227129	0.078677	0.156986	0.217768	0.248428	0.108146	0.459271	0.293140	0.182708
28	0.123511	0.224835	0.260523	0.355164	0.180173	0.529359	0.455309	0.396918	0.210480	0.362611	0.475923	0.563053	0.143616	0.237666	0.264902	0.209682	0.072111	0.369096	0.133307	0.220044	0.065509	0.325338	0.124578	0.295190	0.147461	0.309006	0.162651	0.152764	0.063659	0.276469	0.086265	0.217638	0.087549	0.208361	0.081687	0.142722	0.048504	0.055066	0.139671	0.125904	0.105504	0.265288	0.078949	0.113016	0.052947	0.270127	0.130591	0.097522	0.048483	0.174792	0.098232	0.184364	0.100765	0.272703	0.229929	0.068487	0.080562	0.234883	0.312490	0.134322	0.075353	0.285480	0.114546	0.149459	0.081508	0.226982	0.138143	0.245597	0.199171	0.226484	0.135542	0.229084	0.090588	0.174942	0.236918	0.258177	0.095366	0.162304	0.285367	0.110360
29	0.129515	0.231746	0.292583	0.287570	0.152946	0.534094	0.471308	0.418794	0.216065	0.370126	0.512318	0.606860	0.143271	0.280297	0.261991	0.183338	0.078616	0.481109	0.146380	0.215540	0.070502	0.311354	0.145472	0.295450	0.128544	0.291250	0.179940	0.138453	0.065939	0.275107	0.089036	0.255268	0.086390	0.214649	0.086088	0.177097	0.045490	0.051964	0.143927	0.125524	0.109026	0.291796	0.086005	0.117224	0.051729	0.325553	0.132504	0.090880	0.056100	0.175705	0.094611	0.198500	0.095342	0.344867	0.242919	0.071083	0.074391	0.216660	0.290041	0.146474	0.073838	0.281558	0.117434	0.146961	0.080415	0.216509	0.135191	0.242160	0.183702	0.225538	0.136274	0.218496	0.102809	0.176243	0.242045	0.261045	0.084801	0.104022	0.266247	0.098591
30	0.135016	0.245133	0.296949	0.274254	0.148702	0.505772	0.468393	0.429889	0.218550	0.370311	0.528464	0.603259	0.150001	0.290082	0.272520	0.199372	0.079994	0.541306	0.154791	0.216073	0.086708	0.311152	0.152555	0.293920	0.106769	0.247594	0.189836	0.111508	0.067040	0.267196	0.089697	0.266617	0.090014	0.214847	0.095905	0.195195	0.048602	0.046121	0.140293	0.148060	0.103866	0.291305	0.072785	0.116827	0.051730	0.437955	0.133759	0.089874	0.075111	0.195510	0.114820	0.270158	0.093695	0.353751	0.249058	0.137579	0.071335	0.180528	0.279478	0.224981	0.066497	0.268211	0.114305	0.130504	0.076404	0.214235	0.132270	0.261910	0.178688	0.219818	0.121936	0.241517	0.110651	0.160845	0.247169	0.231542	0.061779	0.098291	0.263662	0.093748
31	0.130252	0.227385	0.282123	0.263335	0.141331	0.420941	0.457906	0.358906	0.218332	0.370530	0.529685	0.616029	0.152784	0.318771	0.322112	0.230901	0.079657	0.554100	0.155575	0.224551	0.098506	0.310590	0.151299	0.292517	0.106351	0.248019	0.188855	0.092232	0.070379	0.267453	0.094120	0.285770	0.091702	0.216887	0.121436	0.254251	0.052826	0.041320	0.125719	0.158878	0.103367	0.290877	0.100524	0.123809	0.053369	0.481486	0.137695	0.118951	0.095876	0.245580	0.112813	0.322801	0.076773	0.391196	0.240200	0.142684	0.073472	0.177898	0.276576	0.252719	0.055553	0.256206	0.126779	0.094340	0.067998	0.202135	0.142315	0.293454	0.075865	0.218342	0.145884	0.290709	0.115203	0.159371	0.253621	0.250706	0.054260	0.090663	0.239311	0.119206
32	0.120526	0.179097	0.287032	0.228516	0.120576	0.286793	0.287673	0.350641	0.207397	0.355882	0.536301	0.541738	0.141738	0.312581	0.324735	0.230038	0.093685	0.572548	0.149405	0.235856	0.103462	0.309690	0.148835	0.298249	0.107261	0.290900	0.187175	0.092966	0.071375	0.243565	0.140488	0.315945	0.087196	0.212870	0.125617	0.289694	0.064529	0.045130	0.126492	0.148978	0.109364	0.286083	0.113447	0.125662	0.072836	0.529016	0.139512	0.205322	0.119531	0.315238	0.192089	0.325271	0.072567	0.394292	0.231860	0.147157	0.067434	0.178334	0.253483	0.250727	0.046973	0.251308	0.142726	0.078507	0.066268	0.177644	0.172407	0.268478	0.047518	0.218863	0.175097	0.299166	0.113515	0.153014	0.228020	0.270216	0.046164	0.093166	0.194973	0.122075
33	0.092372	0.136377	0.269509	0.190042	0.114364	0.372609	0.240556	0.298934	0.178960	0.342987	0.513685	0.472750	0.138241	0.283243	0.311317	0.221639	0.092647	0.546106	0.147720	0.242893	0.145925	0.299576	0.136174	0.304656	0.106781	0.338252	0.198026	0.097417	0.067325	0.234968	0.234141	0.318557	0.086176	0.211955	0.182148	0.293477	0.069440	0.059387	0.107486	0.141185	0.111159	0.276643	0.138562	0.153936	0.068966	0.602565	0.134093	0.335444	0.124205	0.328757	0.270634	0.337040	0.067040	0.469410	0.268802	0.152547	0.071329	0.198287	0.193141	0.251024	0.053500	0.254531	0.147011	0.081021	0.066662	0.172223	0.162207	0.264832	0.043989	0.230917	0.166100	0.287522	0.117381	0.160102	0.218775	0.270766	0.043559	0.096801	0.148824	0.115862
34	0.079978	0.142227	0.211053	0.180633	0.076008	0.414571	0.216292	0.265601	0.139383	0.192024	0.480876	0.452495	0.130094	0.284003	0.263258	0.275950	0.083779	0.517062	0.147765	0.226338	0.155424	0.290713	0.184719	0.291657	0.102266	0.320176	0.206040	0.127910	0.059340	0.176426	0.250928	0.310766	0.075665	0.200029	0.211210	0.304273	0.068908	0.059519	0.105126	0.163352	0.109625	0.273099	0.146516	0.183210	0.070448	0.614843	0.142810	0.373699	0.127692	0.326266	0.275010	0.354921	0.064649	0.478960	0.280641	0.153390	0.058166	0.202037	0.189563	0.260927	0.061333	0.248829	0.165501	0.083291	0.058565	0.100740	0.161905	0.283043	0.043216	0.221943	0.167254	0.287591	0.112981	0.155354	0.229153	0.270383	0.042329	0.143263	0.132174	0.123476
35	0.079200	0.151995	0.186955	0.180395	0.060938	0.461916	0.156668	0.216456	0.089205	0.161340	0.444065	0.435445	0.124724	0.288014	0.291739	0.308609	0.084526	0.500283	0.134353	0.201270	0.165452	0.218667	0.223850	0.290210	0.071013	0.315780	0.206163	0.168215	0.085238	0.217101	0.333430	0.302132	0.057972	0.191276	0.214316	0.330701	0.071200	0.060280	0.131925	0.179278	0.105915	0.237099	0.170582	0.195264	0.068714	0.616669	0.248617	0.378813	0.133821	0.326262	0.287780	0.360864	0.063425	0.474033	0.254310	0.149390	0.053388	0.211132	0.236265	0.357201	0.057567	0.249107	0.171254	0.107370	0.035189	0.055574	0.180233	0.278960	0.034450	0.241109	0.180124	0.321256	0.111875	0.161498	0.226309	0.301095	0.040571	0.183673	0.095218	0.138159
36	0.058321	0.141013	0.117528	0.186018	0.062113	0.454347	0.160851	0.181363	0.077103	0.134152	0.371424	0.294980	0.124199	0.239372	0.312220	0.305756	0.093560	0.493749	0.153595	0.259286	0.164471	0.071371	0.228047	0.285707	0.063303	0.309706	0.186704	0.168613	0.120617	0.263590	0.384613	0.299228	0.064311	0.184700	0.215768	0.387454	0.072308	0.063889	0.174306	0.179662	0.102477	0.234774	0.178109	0.218016	0.087363	0.617261	0.296565	0.430150	0.154795	0.324977	0.319659	0.357537	0.070474	0.471859	0.239140	0.152578	0.079205	0.216407	0.391744	0.376330	0.062249	0.250016	0.175199	0.197888	0.038158	0.058650	0.170346	0.285265	0.040754	0.244781	0.199774	0.369347	0.104485	0.175780	0.224550	0.300369	0.051155	0.201066	0.095748	0.140884
37	0.049882	0.204805	0.110691	0.163118	0.056168	0.524476	0.130191	0.160063	0.058074	0.120164	0.315825	0.188456	0.103641	0.248630	0.320494	0.294458	0.095555	0.472045	0.178132	0.367437	0.168153	0.066490	0.227935	0.262146	0.059725	0.309172	0.164907	0.178612	0.127001	0.285748	0.390006	0.282727	0.065957	0.183211	0.218617	0.409689	0.071656	0.079867	0.205307	0.179401	0.092430	0.235554	0.256161	0.224621	0.138365	0.622575	0.317921	0.486472	0.167896	0.309383	0.330480	0.394495	0.066043	0.470371	0.230783	0.177307	0.081812	0.221381	0.408049	0.335236	0.062681	0.232686	0.174976	0.245435	0.043642	0.077539	0.184327	0.281640	0.043137	0.249577	0.212301	0.368354	0.099131	0.180404	0.261909	0.339304	0.056162	0.205354	0.145695	0.153141
38	0.053901	0.228656	0.105609	0.139513	0.079454	0.517714	0.083316	0.277406	0.048801	0.119445	0.294182	0.180201	0.093183	0.240542	0.267539	0.277730	0.103301	0.469177	0.176814	0.415254	0.172172	0.067285	0.239105	0.228527	0.051491	0.311826	0.160761	0.203469	0.126322	0.293055	0.412265	0.287982	0.087367	0.158407	0.250450	0.411280	0.071602	0.117828	0.207616	0.234914	0.075501	0.206538	0.315509	0.231553	0.153570	0.605839	0.368995	0.526628	0.166907	0.287398	0.337050	0.519513	0.063481	0.477846	0.221986	0.180998	0.082139	0.226768	0.413271	0.336694	0.067016	0.232764	0.162256	0.283038	0.053899	0.084106	0.186494	0.266011	0.049245	0.373206	0.216540	0.330437	0.092484	0.173893	0.272882	0.388838	0.055786	0.209597	0.187938	0.144806
39	0.053271	0.305166	0.064702	0.115666	0.107097	0.480887	0.352131	0.330018	0.045332	0.122632	0.285385	0.141476	0.090706	0.233873	0.250042	0.271102	0.111617	0.358623	0.200403	0.421773	0.168346	0.067778	0.225189	0.213015	0.051215	0.316804	0.158717	0.206085	0.124681	0.293929	0.459157	0.273637	0.094733	0.158579	0.256607	0.465888	0.071130	0.131717	0.220309	0.380812	0.086577	0.168470	0.320165	0.232758	0.158946	0.538012	0.391504	0.532917	0.167309	0.286510	0.373737	0.562426	0.064453	0.450961	0.231206	0.188920	0.089504	0.231192	0.415719	0.334927	0.069220	0.214737	0.195899	0.293976	0.056953	0.087298	0.189548	0.271409	0.051139	0.388996	0.190687	0.282216	0.086806	0.194433	0.350907	0.409315	0.052217	0.209033	0.188117	0.134414
40	0.061303	0.311361	0.072948	0.119582	0.117244	0.536949	0.450842	0.338871	0.063254	0.144711	0.248450	0.298485	0.090067	0.243533	0.249687	0.264776	0.117543	0.252669	0.225290	0.482679	0.164146	0.073886	0.227787	0.217505	0.064173	0.330266	0.160973	0.221014	0.124157	0.294771	0.453140	0.244868	0.091144	0.160454	0.286219	0.491098	0.070635	0.135915	0.316289	0.427963	0.096121	0.177850	0.320834	0.239896	0.159080	0.492682	0.402291	0.528029	0.169934	0.282118	0.403171	0.548369	0.063665	0.447103	0.220893	0.191413	0.089348	0.244855	0.419170	0.345830	0.069787	0.218581	0.263940	0.302757	0.057020	0.088453	0.201408	0.300995	0.050197	0.413300	0.181448	0.261247	0.077165	0.195997	0.370809	0.385126	0.062917	0.210679	0.177501	0.131135
41	0.067838	0.343241	0.153214	0.271551	0.146328	0.589469	0.486018	0.441470	0.084846	0.170847	0.286371	0.332881	0.085209	0.362370	0.249201	0.177417	0.144389	0.225872	0.226288	0.586882	0.158892	0.086482	0.235634	0.216357	0.071180	0.374220	0.163149	0.257835	0.120698	0.299290	0.427926	0.249020	0.089148	0.193313	0.398441	0.511685	0.081855	0.140534	0.364605	0.427627	0.105771	0.213826	0.317488	0.242577	0.148692	0.409551	0.401980	0.502751	0.164239	0.265162	0.402982	0.569579	0.057746	0.364161	0.175332	0.195885	0.112366	0.234688	0.464177	0.347252	0.071586	0.221516	0.268387	0.366328	0.059063	0.089837	0.206208	0.375833	0.054520	0.406847	0.181782	0.260963	0.076226	0.202697	0.373673	0.361580	0.062930	0.199527	0.174885	0.130956
42	0.112931	0.380576	0.294388	0.288261	0.153866	0.669924	0.561990	0.596925	0.107148	0.186382	0.337844	0.345604	0.084541	0.482286	0.200344	0.181699	0.149289	0.172509	0.302699	0.625796	0.146687	0.088941	0.234857	0.196211	0.069274	0.399973	0.170944	0.262662	0.119586	0.281288	0.423387	0.248244	0.099840	0.199666	0.427949	0.504575	0.081485	0.141682	0.365059	0.431842	0.105823	0.234471	0.322988	0.267525	0.148925	0.227017	0.403545	0.429693	0.161575	0.220628	0.437047	0.629583	0.055380	0.355221	0.120878	0.194074	0.118261	0.202688	0.447844	0.297441	0.077981	0.219593	0.291100	0.444814	0.064310	0.119510	0.189497	0.381377	0.062571	0.385007	0.173394	0.257496	0.067925	0.186761	0.368922	0.383794	0.072198	0.193876	0.174554	0.103909
43	0.156948	0.392964	0.396306	0.317520	0.167021	0.631166	0.615736	0.625334	0.108232	0.192024	0.362693	0.374178	0.097945	0.601960	0.202959	0.257639	0.159202	0.209483	0.349922	0.642271	0.106460	0.084449	0.227890	0.182545	0.068659	0.344676	0.183119	0.285113	0.102795	0.227845	0.368275	0.232547	0.100569	0.214690	0.438857	0.494408	0.071468	0.168834	0.371206	0.466423	0.110709	0.237219	0.355644	0.339995	0.149864	0.181607	0.402657	0.404185	0.150622	0.194712	0.413490	0.660074	0.057296	0.351696	0.120114	0.195341	0.104689	0.189948	0.330313	0.299430	0.092643	0.197706	0.321865	0.488823	0.123691	0.122430	0.187555	0.398229	0.059667	0.468866	0.153615	0.150782	0.083996	0.181496	0.357826	0.390391	0.077416	0.159662	0.185574	0.115310
44	0.152079	0.365404	0.409088	0.331182	0.158975	0.618333	0.649965	0.588297	0.111468	0.218582	0.397734	0.397402	0.096379	0.598929	0.169332	0.251848	0.163520	0.239936	0.354485	0.651132	0.094593	0.081966	0.181436	0.216017	0.074757	0.370940	0.186672	0.295311	0.057261	0.230850	0.326044	0.216492	0.098365	0.222766	0.449802	0.533894	0.073804	0.241862	0.381683	0.523665	0.129080	0.240715	0.419762	0.358900	0.149094	0.175696	0.347521	0.403612	0.148602	0.201892	0.404741	0.656055	0.048559	0.338765	0.113181	0.195647	0.102586	0.188936	0.311380	0.299713	0.090977	0.173818	0.332456	0.498503	0.146455	0.124312	0.174087	0.425698	0.064763	0.476467	0.123398	0.111267	0.095536	0.207291	0.384718	0.358293	0.079188	0.167406	0.215931	0.143841
45	0.183073	0.383670	0.413039	0.368777	0.143981	0.618126	0.599582	0.566944	0.118682	0.250119	0.402061	0.406944	0.101000	0.583929	0.195147	0.253240	0.160213	0.248588	0.367073	0.650373	0.105306	0.076915	0.150710	0.319652	0.072603	0.371323	0.183416	0.299002	0.038572	0.242934	0.321738	0.194804	0.102334	0.234675	0.469964	0.604316	0.081008	0.279887	0.386470	0.567682	0.127416	0.242398	0.452490	0.362664	0.139205	0.177038	0.286266	0.350162	0.153523	0.201957	0.418747	0.646504	0.054041	0.252999	0.099583	0.183350	0.103095	0.214029	0.303605	0.271276	0.087177	0.173301	0.323912	0.499575	0.153500	0.121207	0.175284	0.432865	0.067079	0.429162	0.113097	0.106645	0.094735	0.210291	0.383965	0.354836	0.100960	0.173968	0.201484	0.137524
46	0.210196	0.337813	0.526688	0.520422	0.131313	0.559972	0.537161	0.604456	0.119287	0.251391	0.402162	0.406372	0.103979	0.583153	0.217134	0.262576	0.155175	0.248440	0.358743	0.621206	0.139223	0.078689	0.186214	0.390558	0.072493	0.370835	0.207664	0.312763	0.040768	0.238262	0.301762	0.153860	0.137995	0.248870	0.482902	0.638124	0.096110	0.295370	0.376299	0.583870	0.128596	0.250438	0.460328	0.356114	0.092292	0.148975	0.263540	0.263787	0.143564	0.204781	0.431409	0.650857	0.057848	0.200847	0.100796	0.135737	0.094797	0.207629	0.306877	0.271227	0.083457	0.165022	0.322515	0.488774	0.161566	0.114633	0.183883	0.456983	0.066293	0.373094	0.076934	0.099889	0.091801	0.286663	0.350396	0.325168	0.101365	0.187239	0.217910	0.175938
47	0.214480	0.329629	0.583822	0.594741	0.118228	0.390757	0.557929	0.631738	0.118858	0.278690	0.401871	0.392208	0.103698	0.575545	0.221665	0.268476	0.154817	0.248642	0.346626	0.559899	0.134514	0.083835	0.246228	0.393195	0.073224	0.370526	0.269486	0.306032	0.042317	0.235892	0.224415	0.150253	0.141219	0.251640	0.494656	0.620463	0.097615	0.295831	0.358665	0.588617	0.132506	0.259970	0.426506	0.346482	0.059853	0.167805	0.183700	0.163668	0.118377	0.212750	0.418772	0.646265	0.058844	0.188397	0.090514	0.107073	0.089652	0.165699	0.306190	0.262167	0.080879	0.168183	0.319438	0.457603	0.168605	0.109036	0.191593	0.490753	0.081115	0.343930	0.109062	0.115955	0.089848	0.314897	0.334596	0.253263	0.100158	0.220151	0.284798	0.183843
48	0.212585	0.289453	0.576926	0.561120	0.120727	0.250567	0.517520	0.485952	0.109342	0.299479	0.390366	0.282121	0.104752	0.506188	0.223540	0.273510	0.149026	0.249168	0.353732	0.524392	0.141347	0.126391	0.251430	0.403900	0.074445	0.365155	0.359125	0.291283	0.038756	0.243748	0.214902	0.148965	0.142411	0.257465	0.490048	0.612543	0.099489	0.286939	0.348602	0.581768	0.133260	0.276810	0.401199	0.335000	0.041848	0.235292	0.125046	0.132615	0.114684	0.222003	0.499264	0.586334	0.061528	0.247361	0.091903	0.099585	0.055322	0.142248	0.233966	0.238980	0.079269	0.168484	0.319561	0.435745	0.166568	0.138489	0.234177	0.495343	0.089570	0.343132	0.140660	0.222423	0.088526	0.333119	0.265389	0.202022	0.096868	0.222601	0.289112	0.188902
49	0.181134	0.223291	0.483673	0.569995	0.095123	0.098613	0.484837	0.408587	0.090884	0.376263	0.312962	0.320371	0.102886	0.363704	0.216951	0.230800	0.141713	0.255136	0.353957	0.519321	0.147119	0.183521	0.259312	0.410540	0.075067	0.362274	0.394156	0.289884	0.037227	0.246989	0.190458	0.136079	0.128261	0.236629	0.472597	0.598099	0.099662	0.290677	0.345937	0.504926	0.145003	0.296406	0.454096	0.337916	0.041431	0.258489	0.078753	0.131501	0.126181	0.227690	0.538572	0.513699	0.072401	0.257481	0.100125	0.101071	0.036267	0.134024	0.186476	0.177543	0.073569	0.165228	0.319249	0.412134	0.167972	0.189491	0.250810	0.489072	0.095510	0.326445	0.161574	0.237838	0.090001	0.357381	0.197452	0.185915	0.097788	0.230739	0.293672	0.203486
50	0.163233	0.210625	0.457557	0.667055	0.097780	0.103002	0.452948	0.415255	0.074884	0.380120	0.341146	0.413843	0.086623	0.149359	0.197907	0.144945	0.136743	0.256798	0.338400	0.466043	0.144216	0.185818	0.255985	0.426993	0.061415	0.341571	0.392293	0.283322	0.053605	0.258967	0.201572	0.200803	0.128903	0.254645	0.470595	0.555726	0.099067	0.304212	0.284570	0.466138	0.143132	0.281912	0.464933	0.471893	0.045741	0.285460	0.073674	0.132802	0.118764	0.227127	0.509603	0.503743	0.076987	0.310804	0.115561	0.138136	0.042532	0.128269	0.124795	0.314164	0.072090	0.164885	0.268142	0.412227	0.171755	0.200172	0.240291	0.446287	0.104304	0.286865	0.207242	0.245042	0.091355	0.361560	0.187242	0.184539	0.088562	0.202370	0.295701	0.201496
51	0.165108	0.153596	0.527121	0.751808	0.114569	0.105452	0.453858	0.433494	0.087713	0.379886	0.394141	0.392430	0.077061	0.152629	0.192028	0.137204	0.108135	0.309337	0.334927	0.317787	0.144555	0.212342	0.253811	0.441091	0.058141	0.280082	0.398530	0.267628	0.066620	0.264833	0.225096	0.269590	0.136911	0.249199	0.435690	0.524294	0.091132	0.303757	0.186819	0.464238	0.146204	0.244197	0.460230	0.577863	0.054849	0.300604	0.063888	0.129919	0.116324	0.225624	0.502022	0.493873	0.080653	0.330723	0.117757	0.139342	0.068272	0.125396	0.127370	0.339128	0.072773	0.148662	0.231010	0.402594	0.172572	0.201777	0.241557	0.439659	0.104670	0.147556	0.253357	0.267831	0.092050	0.367053	0.185994	0.139018	0.084595	0.194941	0.287846	0.187884
52	0.116860	0.092349	0.558649	0.739152	0.113825	0.086986	0.405061	0.411641	0.099860	0.364259	0.366024	0.382761	0.068473	0.150183	0.143957	0.123658	0.088396	0.319160	0.275730	0.333430	0.147769	0.217061	0.259727	0.443007	0.060987	0.240255	0.423488	0.268921	0.082734	0.217455	0.231920	0.281619	0.155717	0.261341	0.329566	0.501217	0.085585	0.306754	0.178178	0.462872	0.164411	0.220126	0.453592	0.582354	0.047861	0.303201	0.050927	0.081868	0.097426	0.198376	0.483889	0.417147	0.087493	0.336328	0.122227	0.141292	0.075058	0.086777	0.154585	0.375886	0.072926	0.134180	0.226348	0.331351	0.170977	0.196328	0.281686	0.493806	0.098973	0.146815	0.274749	0.313310	0.083147	0.378044	0.194688	0.096342	0.055594	0.195475	0.277095	0.175067
53	0.132576	0.087171	0.442470	0.630167	0.103248	0.084969	0.347727	0.292498	0.107308	0.368725	0.403598	0.380626	0.170313	0.978490	0.119946	0.103414	0.075288	0.305463	0.240861	0.573807	0.147667	0.242994	0.268287	0.441874	0.057708	0.270490	0.433445	0.245227	0.102729	0.178227	0.237083	0.286299	0.153221	0.294559	0.313291	0.487639	0.087246	0.298796	0.166178	0.437839	0.169459	0.218654	0.422288	0.551857	0.053233	0.326355	0.052557	0.046811	0.098713	0.157475	0.445758	0.336647	0.101132	0.342624	0.139001	0.156939	0.084588	0.083666	0.151716	0.402202	0.067361	0.132188	0.174916	0.222005	0.135708	0.195319	0.337380	0.493215	0.099502	0.141859	0.284175	0.341124	0.081113	0.361993	0.140472	0.108052	0.048606	0.240915	0.265880	0.161139
54	0.138123	0.242573	0.406130	0.585408	0.076486	0.086731	0.277958	0.262927	0.117344	0.390189	0.404107	0.381786	0.226633	1.414271	0.125005	0.095426	0.081879	0.282536	0.346953	0.707095	0.146275	0.247587	0.268940	0.411005	0.051089	0.243037	0.431934	0.216514	0.111285	0.178864	0.229119	0.310723	0.158442	0.294077	0.277084	0.481342	0.085760	0.251302	0.135942	0.367638	0.168772	0.237685	0.355716	0.577780	0.053467	0.350278	0.052846	0.042134	0.098682	0.125001	0.432187	0.303885	0.104892	0.360852	0.160206	0.197733	0.086552	0.081803	0.146677	0.409449	0.046707	0.119543	0.107869	0.138708	0.198122	0.195585	0.375145	0.465613	0.096610	0.138061	0.275069	0.349783	0.092559	0.355950	0.130576	0.132272	0.048379	0.265693	0.206161	0.163294
55	0.155895	0.243946	0.406094	0.689218	0.080547	0.081797	0.228815	0.260255	0.141636	0.376461	0.406298	0.396975	0.435633	1.694147	0.144054	0.085467	0.085893	0.278590	0.477490	0.722002	0.111977	0.298288	0.262501	0.318423	0.052589	0.245990	0.433454	0.226300	0.131287	0.205752	0.243813	0.385481	0.157648	0.303172	0.218981	0.413572	0.078079	0.194886	0.109895	0.268714	0.175330	0.253111	0.299891	0.611088	0.053486	0.392964	0.053797	0.059502	0.097612	0.129382	0.424077	0.299255	0.121903	0.429529	0.271069	0.221348	0.089285	0.116549	0.139964	0.407268	0.043932	0.117387	0.080852	0.120310	0.230641	0.209910	0.374811	0.466914	0.075783	0.140415	0.258047	0.317134	0.102980	0.315073	0.145133	0.132732	0.055099	0.264603	0.180124	0.175919
56	0.197900	0.380679	0.418847	0.698013	0.077910	0.083068	0.129524	0.250495	0.143095	0.483456	0.420356	0.436103	0.666868	1.868045	0.137949	0.077537	0.095340	0.280405	0.492270	0.728067	0.095205	0.402905	0.220770	0.267322	0.054849	0.249126	0.429145	0.286136	0.155960	0.262158	0.283213	0.407004	0.147093	0.290783	0.172864	0.287902	0.060252	0.166186	0.080318	0.207923	0.174850	0.248026	0.286121	0.622899	0.057539	0.375889	0.061382	0.095987	0.082732	0.133742	0.395837	0.291800	0.145805	0.427130	0.309777	0.265744	0.089922	0.143657	0.139377	0.401650	0.044037	0.143672	0.080512	0.128895	0.228867	0.215789	0.376069	0.487938	0.062863	0.150867	0.241846	0.271709	0.137009	0.260599	0.148538	0.141434	0.057441	0.264227	0.174381	0.161381
57	0.194519	0.420743	0.460263	0.583244	0.082210	0.121447	0.138734	0.250488	0.144535	0.482190	0.429162	0.395343	0.678615	1.884920	0.127126	0.100258	0.095648	0.283607	0.532042	0.766725	0.099770	0.420817	0.156169	0.276861	0.073925	0.252791	0.425499	0.288335	0.158308	0.296985	0.302648	0.415678	0.145311	0.296380	0.153077	0.186620	0.045851	0.155478	0.105732	0.190505	0.170807	0.237303	0.296090	0.625435	0.067014	0.342467	0.099850	0.097621	0.097065	0.122041	0.377917	0.334387	0.141118	0.421769	0.322707	0.278191	0.084749	0.232484	0.140651	0.278347	0.044282	0.255524	0.080032	0.138714	0.226931	0.212739	0.391514	0.555981	0.055923	0.151436	0.235813	0.265803	0.139799	0.207125	0.166542	0.151314	0.054697	0.256859	0.194388	0.218979
58	0.192633	0.541972	0.374071	0.489610	0.120265	0.212568	0.218266	0.258665	0.158124	0.722148	0.355043	0.301080	0.692143	1.886114	0.126114	0.146894	0.095952	0.315576	0.548639	0.817564	0.083926	0.486770	0.148705	0.308467	0.089785	0.267157	0.359434	0.306197	0.157204	0.312837	0.302298	0.380481	0.149754	0.583465	0.159745	0.182376	0.041421	0.154140	0.144450	0.215820	0.168096	0.234301	0.288261	0.625583	0.065816	0.326105	0.106923	0.102568	0.145694	0.103398	0.355714	0.351223	0.144325	0.383962	0.335147	0.374810	0.070206	0.302782	0.126512	0.250695	0.044404	0.303913	0.079931	0.134150	0.233027	0.192620	0.431826	0.566709	0.184672	0.123496	0.171531	0.253191	0.144000	0.187049	0.175422	0.155721	0.051587	0.256485	0.219636	0.412304
59	0.202596	0.567673	0.368770	0.481401	0.148278	0.223971	0.256221	0.440003	0.147462	0.735215	0.257850	0.292561	0.694671	1.887822	0.137576	0.160316	0.100119	0.342719	0.538088	0.846397	0.079170	0.490470	0.179532	0.370655	0.097125	0.266228	0.331796	0.340340	0.152585	0.302867	0.285454	0.341933	0.150151	0.754850	0.211010	0.274779	0.040324	0.133680	0.169403	0.301775	0.149369	0.264114	0.185698	0.623552	0.064292	0.302446	0.146446	0.159785	0.180209	0.085725	0.251546	0.328132	0.170799	0.464014	0.361495	0.464273	0.065129	0.339012	0.091694	0.188528	0.047598	0.338761	0.081634	0.138107	0.239124	0.160003	0.516241	0.596577	0.240766	0.154503	0.126358	0.213216	0.151451	0.275810	0.176859	0.178114	0.063986	0.256313	0.224927	0.450364
60	0.173042	0.568048	0.377978	0.486410	0.159698	0.229906	0.271942	0.561103	0.138867	0.736729	0.260545	0.271895	0.679876	1.568780	0.193731	0.170883	0.104820	0.358955	0.535656	0.870183	0.079802	0.492816	0.211793	0.375929	0.103199	0.288216	0.349904	0.367812	0.189111	0.305204	0.330949	0.341205	0.169734	0.892779	0.234885	0.368350	0.042099	0.087833	0.167866	0.304953	0.146539	0.268862	0.157790	0.562810	0.056979	0.306926	0.169488	0.179959	0.177374	0.101203	0.225514	0.322760	0.171154	0.558271	0.364482	0.502134	0.069557	0.404820	0.088410	0.130428	0.049022	0.412160	0.083831	0.154366	0.246795	0.175145	0.536509	0.619896	0.262278	0.158011	0.104822	0.175986	0.151337	0.299906	0.184597	0.188152	0.076065	0.208230	0.230120	0.472770
61	0.193688	0.526230	0.367694	0.443729	0.165942	0.347214	0.290628	0.707140	0.136332	0.732330	0.210433	0.297995	0.663160	1.261921	0.185021	0.180721	0.107807	0.397830	0.567601	0.902261	0.077352	0.491454	0.207228	0.359522	0.114781	0.288600	0.347532	0.382751	0.346666	0.314433	0.330281	0.339176	0.178015	1.031976	0.235769	0.388076	0.052040	0.085542	0.171071	0.286689	0.142546	0.288005	0.169343	0.505530	0.057048	0.306705	0.176767	0.212862	0.242303	0.188804	0.277997	0.309206	0.161248	0.666947	0.361071	0.503489	0.067960	0.410597	0.129407	0.116139	0.053754	0.424929	0.088361	0.147290	0.261381	0.212132	0.547066	0.588744	0.265407	0.200514	0.177812	0.370176	0.150223	0.368142	0.226395	0.228754	0.075504	0.161996	0.293999	0.527790
62	0.199225	0.524111	0.376447	0.239182	0.167562	0.381188	0.384611	0.826111	0.132720	0.757803	0.218080	0.354380	0.543658	0.800911	0.173002	0.188995	0.140611	0.414351	0.644519	0.896927	0.072959	0.486911	0.203519	0.358325	0.124056	0.364084	0.309904	0.382506	0.344978	0.309810	0.344709	0.327184	0.167963	1.043895	0.244006	0.395656	0.047785	0.076312	0.190382	0.321230	0.125697	0.361515	0.179619	0.540375	0.052418	0.282746	0.181378	0.259073	0.290237	0.219750	0.370221	0.277091	0.159694	0.670362	0.349222	0.488129	0.077825	0.422348	0.137693	0.115175	0.059545	0.538834	0.091533	0.133088	0.266223	0.236194	0.563770	0.551003	0.290888	0.239575	0.221681	0.503448	0.146070	0.368175	0.236580	0.255299	0.071757	0.084247	0.305329	0.548531
63	0.167271	0.435555	0.377289	0.177136	0.157699	0.395052	0.403517	0.838855	0.109057	0.773367	0.216082	0.354066	0.214716	0.317891	0.203438	0.253853	0.148723	0.418451	0.693889	0.759582	0.073936	0.477200	0.214743	0.357203	0.124476	0.500157	0.286545	0.381077	0.392335	0.300759	0.336911	0.241144	0.156650	1.033614	0.362637	0.431828	0.044192	0.126519	0.213699	0.363957	0.130197	0.558711	0.319749	0.617945	0.065528	0.261103	0.183054	0.274024	0.313433	0.221860	0.380994	0.269430	0.148277	0.624733	0.283771	0.483703	0.082649	0.418687	0.176314	0.108278	0.058490	0.595525	0.077600	0.129321	0.263256	0.250140	0.552034	0.538058	0.323083	0.347448	0.230373	0.510979	0.136748	0.371078	0.262781	0.245823	0.065898	0.044305	0.304766	0.551547
64	0.166654	0.356674	0.386740	0.189939	0.137807	0.364979	0.385315	0.819253	0.127658	0.683056	0.184846	0.305020	0.173800	0.222883	0.249956	0.292377	0.140287	0.516957	0.656034	0.634721	0.078258	0.473395	0.229002	0.366836	0.123042	0.515294	0.285889	0.379503	0.394394	0.244959	0.301023	0.197480	0.186446	1.029789	0.486155	0.464938	0.048711	0.191416	0.226592	0.382542	0.113764	0.556142	0.491221	0.624367	0.075042	0.190922	0.186218	0.276736	0.344127	0.288606	0.386671	0.267543	0.118895	0.587976	0.218181	0.459810	0.085175	0.371693	0.199297	0.104736	0.057526	0.641228	0.086173	0.130068	0.191563	0.257579	0.539494	0.591488	0.341952	0.433505	0.271237	0.546666	0.128242	0.391113	0.273371	0.258458	0.064462	0.051247	0.300617	0.549767
65	0.163976	0.206527	0.468654	0.155500	0.099969	0.355001	0.375934	0.769813	0.133690	0.647310	0.176493	0.286587	0.118387	0.215212	0.295161	0.276758	0.139546	0.517477	0.578293	0.651269	0.091144	0.412599	0.258949	0.384116	0.122319	0.551847	0.284142	0.343633	0.393513	0.188601	0.275189	0.177481	0.203151	1.029890	0.540288	0.493804	0.049610	0.198349	0.228129	0.387740	0.111557	0.549553	0.581013	0.590897	0.075228	0.194021	0.186063	0.266659	0.356034	0.320973	0.399807	0.273410	0.118949	0.590416	0.199722	0.451077	0.093006	0.355050	0.200227	0.124957	0.061176	0.704606	0.106159	0.132381	0.173316	0.257917	0.536978	0.617405	0.346647	0.433281	0.331677	0.553514	0.102873	0.394671	0.299526	0.293720	0.068151	0.049996	0.277534	0.464796
66	0.152184	0.147279	0.465133	0.145501	0.095689	0.355937	0.413187	0.649431	0.121945	0.370633	0.191479	0.350540	0.101919	0.197702	0.290193	0.275029	0.133406	0.520102	0.600008	0.672902	0.094501	0.344469	0.281720	0.386849	0.119377	0.566601	0.262589	0.297252	0.393080	0.141704	0.253730	0.172745	0.218058	1.028323	0.546576	0.513539	0.055352	0.200328	0.226387	0.388043	0.115851	0.547962	0.585306	0.607612	0.069387	0.161441	0.178030	0.278249	0.355765	0.339967	0.404764	0.281993	0.115350	0.587848	0.168097	0.372339	0.095855	0.313492	0.198963	0.130543	0.062634	0.706872	0.123365	0.125606	0.177684	0.259680	0.542836	0.563813	0.304250	0.432341	0.341360	0.556651	0.088451	0.399857	0.329756	0.337706	0.066354	0.054926	0.245028	0.353539
67	0.147914	0.142296	0.466012	0.126509	0.074076	0.290345	0.411589	0.556429	0.135124	0.350162	0.213514	0.376660	0.070491	0.198388	0.258085	0.274071	0.132712	0.519565	0.587088	0.653981	0.088502	0.282647	0.286695	0.367321	0.116310	0.567358	0.287801	0.292910	0.406039	0.144025	0.242611	0.150579	0.226622	1.028319	0.559061	0.517900	0.055975	0.202356	0.218238	0.391535	0.139159	0.553201	0.616305	0.713004	0.068748	0.169203	0.203448	0.290058	0.355231	0.360290	0.404257	0.237115	0.062469	0.539251	0.099701	0.247115	0.104630	0.228370	0.203873	0.141398	0.070972	0.708511	0.129868	0.114958	0.176258	0.284358	0.526050	0.476581	0.263144	0.423137	0.345172	0.598368	0.084567	0.398022	0.329178	0.371916	0.045298	0.102887	0.237040	0.343885
68	0.111769	0.121232	0.459173	0.163541	0.060970	0.231763	0.338688	0.316410	0.138449	0.338361	0.210770	0.376922	0.073976	0.178988	0.257972	0.274934	0.141781	0.504684	0.566130	0.629443	0.079901	0.183450	0.306805	0.315584	0.131197	0.570407	0.334210	0.298227	0.388309	0.149956	0.142612	0.141240	0.210527	1.011490	0.575257	0.517498	0.063080	0.226159	0.223175	0.384747	0.155983	0.577101	0.668962	0.828071	0.074053	0.184934	0.210007	0.266939	0.347870	0.367079	0.420999	0.185113	0.057633	0.409589	0.107416	0.200152	0.113098	0.219713	0.181102	0.163137	0.076646	0.685791	0.135402	0.110867	0.168295	0.317114	0.489885	0.467536	0.265679	0.418555	0.329860	0.614572	0.069700	0.356218	0.326444	0.369678	0.059429	0.107145	0.178316	0.266510
69	0.073868	0.091655	0.465054	0.180337	0.061971	0.213162	0.298903	0.229818	0.139840	0.328993	0.206235	0.379772	0.088105	0.166557	0.253981	0.268117	0.138171	0.505663	0.583508	0.621996	0.082403	0.176730	0.290622	0.210778	0.161369	0.568574	0.323850	0.346027	0.251606	0.154913	0.134203	0.185410	0.209813	0.831239	0.587890	0.498277	0.085345	0.272089	0.242892	0.327447	0.165249	0.637222	0.686090	0.866326	0.075829	0.194000	0.195412	0.252142	0.321908	0.367338	0.393137	0.252304	0.080727	0.266527	0.168511	0.332851	0.103180	0.186470	0.183115	0.161068	0.075644	0.676813	0.146361	0.132449	0.159231	0.321490	0.429905	0.426037	0.252911	0.401852	0.298132	0.480651	0.085832	0.319178	0.323695	0.371088	0.075094	0.111866	0.079096	0.146344
70	0.105174	0.099699	0.413019	0.182237	0.056324	0.211262	0.279646	0.220553	0.147078	0.194115	0.226468	0.376484	0.088620	0.156859	0.226771	0.195770	0.136957	0.541945	0.678650	0.596998	0.084446	0.170310	0.277430	0.206417	0.260662	0.560370	0.330850	0.356193	0.249987	0.185979	0.150003	0.186031	0.225698	0.759367	0.590182	0.459724	0.093890	0.275377	0.244073	0.282128	0.164349	0.684549	0.686345	0.847789	0.076719	0.238824	0.233811	0.238018	0.317957	0.366673	0.382021	0.342394	0.084604	0.190523	0.197185	0.432300	0.101331	0.196274	0.146734	0.172358	0.077622	0.645116	0.161332	0.132894	0.139489	0.335990	0.430324	0.382841	0.219339	0.383869	0.278573	0.444119	0.085634	0.244665	0.293935	0.381695	0.106986	0.141628	0.079169	0.135578
71	0.111485	0.117777	0.376684	0.215582	0.055297	0.201703	0.264606	0.248834	0.174416	0.134339	0.281022	0.378133	0.083204	0.131827	0.160688	0.129678	0.134707	0.484520	0.710002	0.552255	0.084449	0.171187	0.277421	0.192428	0.381822	0.557564	0.342708	0.342299	0.151394	0.189341	0.195214	0.183708	0.215857	0.455453	0.591991	0.489065	0.107054	0.275618	0.288775	0.279317	0.162280	0.692243	0.685215	0.813533	0.110649	0.241776	0.252463	0.198087	0.317509	0.363697	0.374266	0.369261	0.085691	0.190801	0.197507	0.437662	0.098157	0.193455	0.129006	0.192453	0.076434	0.612779	0.169292	0.122616	0.113913	0.339311	0.436846	0.366242	0.175264	0.113114	0.273842	0.421020	0.108832	0.275401	0.278697	0.425486	0.122739	0.185834	0.098095	0.134241
72	0.147372	0.205515	0.277366	0.262221	0.044677	0.194139	0.253386	0.246888	0.157675	0.121943	0.284627	0.380616	0.080905	0.081120	0.072404	0.124992	0.102240	0.450606	0.679744	0.513429	0.086215	0.192370	0.273558	0.187227	0.478947	0.475331	0.353486	0.379021	0.122872	0.395299	0.197766	0.186254	0.219616	0.234348	0.591549	0.548215	0.111159	0.275881	0.333561	0.252237	0.175226	0.688390	0.683884	0.779679	0.118987	0.235919	0.253302	0.180488	0.222987	0.353618	0.297637	0.374658	0.096725	0.191913	0.204400	0.474096	0.088273	0.119784	0.137567	0.184558	0.072617	0.590946	0.165362	0.146231	0.100354	0.322283	0.406556	0.357667	0.129253	0.120771	0.175724	0.396472	0.109795	0.390498	0.276981	0.438674	0.122513	0.221836	0.101892	0.137056
73	0.153765	0.414382	0.297158	0.277943	0.040372	0.185718	0.263431	0.226482	0.159439	0.114624	0.283594	0.375299	0.078213	0.074897	0.064541	0.117667	0.083503	0.440710	0.679991	0.512085	0.086009	0.230887	0.270447	0.183403	0.544904	0.342985	0.354022	0.411435	0.127306	0.445348	0.201043	0.201565	0.222922	0.202067	0.582719	0.554153	0.112734	0.265269	0.323674	0.187115	0.189809	0.542969	0.632966	0.709589	0.197630	0.228927	0.250699	0.170958	0.219945	0.384915	0.243040	0.364836	0.095780	0.190541	0.283054	0.487784	0.081810	0.117080	0.144982	0.187342	0.071401	0.478946	0.164767	0.215946	0.100659	0.318745	0.388712	0.361616	0.113646	0.194095	0.111298	0.402280	0.110154	0.485738	0.272172	0.440982	0.120558	0.302100	0.135636	0.140687
74	0.153020	0.478037	0.295603	0.280946	0.046254	0.150797	0.259510	0.195035	0.157122	0.205039	0.285905	0.355193	0.075073	0.085313	0.065640	0.100234	0.083852	0.316982	0.680000	0.511390	0.086259	0.245266	0.255731	0.153068	0.551486	0.388533	0.361935	0.418760	0.127135	0.467625	0.227084	0.201748	0.214173	0.196674	0.495095	0.526469	0.112021	0.223380	0.320870	0.160155	0.194300	0.568134	0.516364	0.666369	0.217996	0.228369	0.249874	0.169973	0.177837	0.394682	0.239465	0.360521	0.095722	0.193737	0.306385	0.489363	0.050860	0.116167	0.138739	0.197198	0.089236	0.449971	0.170544	0.233694	0.095045	0.330886	0.377279	0.258870	0.092271	0.216596	0.102308	0.376124	0.123424	0.487818	0.269262	0.432152	0.121627	0.350379	0.150495	0.142189
75	0.152194	0.537528	0.337992	0.257910	0.068012	0.067006	0.246009	0.244783	0.151729	0.520275	0.262586	0.388086	0.075625	0.080774	0.062527	0.074076	0.083382	0.330448	0.664167	0.500801	0.076515	0.302890	0.221645	0.122807	0.557791	0.370805	0.373250	0.417774	0.075802	0.473055	0.232362	0.201319	0.187686	0.172985	0.387142	0.499150	0.112638	0.221179	0.331543	0.146256	0.201902	0.669656	0.434958	0.660880	0.221567	0.229794	0.244086	0.156135	0.082030	0.392403	0.217396	0.362727	0.100915	0.176377	0.313568	0.497114	0.034696	0.131288	0.143067	0.222123	0.091180	0.331169	0.161711	0.330689	0.085940	0.332045	0.377183	0.271440	0.060980	0.220457	0.077519	0.265518	0.126728	0.497813	0.211470	0.399967	0.118837	0.384245	0.154016	0.154412
76	0.137404	0.544412	0.372527	0.450012	0.084884	0.106472	0.315919	0.425486	0.158358	0.633253	0.258112	0.406095	0.063100	0.081352	0.047617	0.081913	0.085255	0.352900	0.634614	0.493671	0.073349	0.311994	0.216391	0.195378	0.560849	0.535563	0.363811	0.415212	0.077538	0.471919	0.233280	0.193821	0.171402	0.157655	0.342931	0.491142	0.111040	0.217686	0.333481	0.148130	0.199278	0.683233	0.446404	0.633458	0.281304	0.230695	0.219869	0.138925	0.087417	0.463403	0.210690	0.352311	0.096674	0.173048	0.308162	0.531752	0.035472	0.132632	0.217434	0.231521	0.092077	0.263585	0.156855	0.391236	0.069264	0.517270	0.360947	0.331821	0.059758	0.225389	0.070799	0.169764	0.136094	0.497992	0.220932	0.408351	0.105296	0.409252	0.163010	0.179431
77	0.128904	0.547351	0.540504	0.649738	0.160672	0.128383	0.411803	0.422341	0.153703	0.676236	0.258119	0.373900	0.067372	0.088197	0.044766	0.084322	0.130734	0.392546	0.626038	0.464364	0.084673	0.324959	0.240385	0.218233	0.558992	0.586983	0.296872	0.424061	0.121550	0.462292	0.231247	0.158679	0.163567	0.165881	0.324985	0.497350	0.116223	0.227511	0.334196	0.150237	0.183920	0.686504	0.399670	0.511790	0.315378	0.215907	0.188585	0.138499	0.089097	0.517888	0.218700	0.349630	0.089659	0.103718	0.288798	0.501812	0.031853	0.114695	0.241505	0.251937	0.093765	0.273496	0.185723	0.396555	0.059914	0.758957	0.350888	0.338920	0.068451	0.276487	0.064215	0.160370	0.138747	0.495308	0.343730	0.438523	0.106591	0.405683	0.158010	0.159732
78	0.119434	0.547858	0.618946	0.643046	0.169363	0.150580	0.396774	0.450540	0.160818	0.723058	0.231403	0.432167	0.081495	0.114380	0.056993	0.082728	0.129377	0.403449	0.639728	0.416902	0.088339	0.329458	0.254411	0.218768	0.557282	0.581089	0.286285	0.403151	0.124029	0.452171	0.194134	0.137284	0.161283	0.176600	0.311276	0.520531	0.118720	0.239520	0.324884	0.162092	0.171094	0.666378	0.301078	0.287793	0.316543	0.188021	0.190323	0.136139	0.098761	0.697893	0.195503	0.350075	0.094490	0.087894	0.272123	0.414182	0.057463	0.122359	0.245886	0.248477	0.085136	0.262378	0.206567	0.417418	0.062161	0.777042	0.314896	0.351305	0.068446	0.287206	0.077258	0.171847	0.138413	0.498282	0.441420	0.449448	0.053538	0.397854	0.155210	0.157924
79	0.075958	0.497659	0.611993	0.644675	0.192930	0.164743	0.422729	0.476587	0.169834	0.766477	0.164247	0.523372	0.089230	0.208845	0.058621	0.121351	0.129389	0.396893	0.645813	0.434504	0.090300	0.334854	0.253335	0.214805	0.545403	0.576788	0.335069	0.341226	0.121147	0.446900	0.143141	0.192718	0.158782	0.161098	0.312435	0.534528	0.108146	0.186237	0.292474	0.171593	0.165564	0.599859	0.266745	0.146508	0.318476	0.145318	0.156541	0.124820	0.093092	0.701342	0.258513	0.325291	0.097305	0.087485	0.271322	0.402665	0.060969	0.131112	0.258667	0.256575	0.098672	0.239292	0.226426	0.466476	0.062632	0.854031	0.272098	0.339921	0.073905	0.302557	0.086882	0.171751	0.141338	0.520052	0.449276	0.435334	0.058152	0.371280	0.172787	0.156883
80	0.078164	0.371344	0.647447	0.685283	0.199716	0.172279	0.434127	0.489825	0.166037	0.780344	0.156132	0.529090	0.101250	0.229315	0.056317	0.157174	0.130296	0.337477	0.562623	0.499126	0.097867	0.345583	0.255767	0.206983	0.494226	0.575651	0.307942	0.333550	0.124624	0.279753	0.170868	0.244567	0.162433	0.157850	0.311684	0.540406	0.093752	0.178237	0.284436	0.258174	0.173037	0.558859	0.302088	0.219233	0.324804	0.159759	0.115564	0.110726	0.103840	0.701865	0.298578	0.241753	0.087355	0.082073	0.269365	0.366638	0.063226	0.133571	0.302948	0.267773	0.099268	0.251663	0.276630	0.502088	0.087028	0.840131	0.243189	0.348573	0.072062	0.297208	0.090686	0.173056	0.128593	0.523044	0.462306	0.372485	0.064664	0.313056	0.168222	0.154600
81	0.086124	0.268740	0.680995	0.749356	0.193971	0.189079	0.461511	0.535623	0.180013	0.778619	0.156567	0.555145	0.098110	0.222908	0.064554	0.175694	0.130994	0.321307	0.626995	0.543520	0.111422	0.371948	0.255687	0.212116	0.403838	0.568768	0.316239	0.333424	0.124073	0.194352	0.204532	0.242726	0.140117	0.134167	0.331025	0.521965	0.082989	0.187465	0.260274	0.340701	0.177716	0.547589	0.386178	0.341662	0.330950	0.178182	0.111623	0.107079	0.101681	0.699767	0.293596	0.142338	0.085889	0.097414	0.214126	0.358569	0.069952	0.128422	0.395324	0.299967	0.098308	0.252361	0.295868	0.518145	0.100350	0.835120	0.185500	0.355885	0.067395	0.278185	0.104823	0.176109	0.130317	0.461731	0.451943	0.344980	0.074429	0.271465	0.137759	0.161163
82	0.085382	0.217592	0.693045	0.761180	0.202147	0.203657	0.456378	0.429891	0.177549	0.751330	0.198375	0.559544	0.094844	0.242142	0.065239	0.227299	0.138215	0.326161	0.657239	0.551107	0.124681	0.370978	0.247427	0.223532	0.264095	0.570147	0.345634	0.293066	0.122016	0.142873	0.177712	0.244313	0.134301	0.133329	0.491165	0.429483	0.084954	0.188991	0.207079	0.350370	0.176128	0.519980	0.449326	0.525314	0.291266	0.226536	0.130941	0.196152	0.094375	0.695466	0.302531	0.099058	0.086502	0.155731	0.201496	0.362468	0.078687	0.250774	0.416547	0.307005	0.098317	0.252476	0.298332	0.522129	0.109261	0.844024	0.144651	0.355735	0.059791	0.258201	0.101424	0.185700	0.132887	0.318899	0.441364	0.343225	0.074023	0.235683	0.141729	0.165537
83	0.085354	0.233987	0.643387	0.607383	0.160301	0.194819	0.364843	0.483019	0.171389	0.563077	0.272027	0.548258	0.095813	0.348157	0.067798	0.233031	0.136121	0.336492	0.610619	0.670517	0.133911	0.362417	0.238535	0.238579	0.156430	0.584824	0.356303	0.254533	0.120865	0.143546	0.171516	0.255127	0.136416	0.135125	0.574376	0.369689	0.081100	0.236667	0.206274	0.358702	0.194033	0.517748	0.496039	0.611486	0.274509	0.245705	0.220676	0.311251	0.093293	0.682995	0.351689	0.169015	0.082519	0.158003	0.214147	0.354957	0.079006	0.294359	0.377340	0.307180	0.098696	0.251924	0.298447	0.510119	0.107879	0.854311	0.142699	0.345861	0.059150	0.261435	0.107559	0.251115	0.122863	0.295242	0.443043	0.338200	0.070938	0.111731	0.131956	0.151984
84	0.073209	0.226652	0.515621	0.473176	0.163113	0.193554	0.378517	0.477752	0.175527	0.495608	0.303359	0.734432	0.090929	0.407200	0.079169	0.241882	0.164062	0.391900	0.657742	0.779585	0.132697	0.334599	0.242447	0.243199	0.141722	0.546287	0.346749	0.267798	0.112863	0.129562	0.173269	0.259315	0.141286	0.131089	0.585501	0.427994	0.086997	0.399740	0.223576	0.393261	0.196543	0.486057	0.507249	0.612952	0.286715	0.274404	0.274832	0.388627	0.101412	0.667819	0.438226	0.269215	0.083642	0.161522	0.213688	0.281285	0.078743	0.420736	0.365068	0.285976	0.092305	0.251379	0.295761	0.485292	0.109372	0.856913	0.180552	0.347965	0.061100	0.209414	0.115438	0.294168	0.115730	0.279695	0.440421	0.333274	0.065696	0.105599	0.133129	0.205478
85	0.071128	0.207178	0.436656	0.536878	0.136685	0.185893	0.321739	0.437787	0.222316	0.464499	0.412534	0.825568	0.079476	0.480042	0.076690	0.245448	0.182088	0.450040	0.718461	0.788266	0.132316	0.304296	0.265922	0.226037	0.114142	0.506184	0.365024	0.271803	0.066851	0.133140	0.177604	0.253604	0.144378	0.131198	0.581623	0.472695	0.085244	0.519891	0.233887	0.437481	0.183630	0.337358	0.486454	0.630407	0.245349	0.271921	0.278755	0.392547	0.117685	0.660896	0.470011	0.346405	0.075820	0.161551	0.229624	0.182767	0.062718	0.423512	0.358360	0.389944	0.075127	0.241079	0.292734	0.478393	0.107481	0.849649	0.192596	0.277614	0.067020	0.200259	0.112173	0.300765	0.099551	0.281720	0.457906	0.370084	0.065358	0.109174	0.176138	0.193744
86	0.068469	0.203891	0.414805	0.579339	0.122067	0.174642	0.294757	0.431258	0.213016	0.395530	0.498760	0.801523	0.077521	0.453358	0.088948	0.231237	0.192587	0.464078	0.721602	0.771722	0.136068	0.292989	0.276091	0.246617	0.101972	0.308245	0.400247	0.269504	0.065540	0.127084	0.175572	0.252507	0.144763	0.133759	0.587322	0.473713	0.091929	0.537998	0.235875	0.464069	0.195397	0.338591	0.478105	0.677565	0.187286	0.277874	0.295277	0.453763	0.147112	0.606262	0.468957	0.358678	0.061507	0.161130	0.232484	0.165005	0.077906	0.442063	0.375415	0.485415	0.072931	0.228025	0.296486	0.413943	0.114256	0.710702	0.183733	0.282796	0.066330	0.185250	0.102759	0.292098	0.096869	0.285366	0.411703	0.440619	0.064516	0.121720	0.173931	0.196954
87	0.053731	0.183261	0.395795	0.533704	0.122608	0.160528	0.271134	0.358942	0.205454	0.319276	0.535795	0.827204	0.064631	0.453337	0.158780	0.211309	0.169060	0.434751	0.716084	0.807240	0.145593	0.309785	0.271698	0.316671	0.099292	0.234884	0.399031	0.265465	0.069545	0.119586	0.173578	0.206300	0.143063	0.130196	0.591245	0.505450	0.089505	0.583298	0.237099	0.473302	0.210286	0.346501	0.499117	0.753674	0.204350	0.299346	0.323751	0.556319	0.145852	0.589332	0.465216	0.361950	0.084929	0.202782	0.232790	0.256757	0.099104	0.446284	0.364407	0.479134	0.073383	0.221245	0.294258	0.392178	0.116970	0.485990	0.189149	0.302013	0.059985	0.126991	0.115136	0.282389	0.120460	0.274464	0.495693	0.447590	0.062670	0.176598	0.166928	0.199557
88	0.045012	0.161893	0.330278	0.508859	0.102203	0.108222	0.209728	0.342969	0.229626	0.341792	0.659011	0.866271	0.058277	0.457694	0.161050	0.193668	0.160132	0.419831	0.706662	0.856286	0.151920	0.289024	0.276244	0.328306	0.083554	0.234901	0.373452	0.271770	0.061930	0.121249	0.144656	0.137794	0.137145	0.136269	0.591149	0.532122	0.087048	0.625113	0.233887	0.470028	0.222238	0.356560	0.529576	0.822089	0.213595	0.314498	0.349665	0.608227	0.142741	0.364847	0.510937	0.362588	0.121185	0.243943	0.252148	0.331797	0.108380	0.447647	0.257578	0.456049	0.076705	0.185082	0.274169	0.398698	0.115022	0.420471	0.198594	0.349172	0.072460	0.112081	0.143567	0.326860	0.150137	0.222966	0.590371	0.445388	0.057736	0.259106	0.169748	0.193948
89	0.042656	0.153163	0.304126	0.501441	0.085526	0.108370	0.191600	0.216328	0.235502	0.419655	0.671194	0.858213	0.050970	0.442917	0.167201	0.127228	0.165018	0.406399	0.693921	0.830942	0.149730	0.278779	0.281543	0.357832	0.081767	0.235307	0.340625	0.250533	0.053089	0.120922	0.084220	0.119398	0.136639	0.169873	0.579964	0.518629	0.089420	0.651774	0.238234	0.471055	0.258683	0.353468	0.531089	0.844809	0.195387	0.305856	0.362268	0.613632	0.166855	0.256468	0.558010	0.372103	0.133553	0.272217	0.260317	0.321039	0.113125	0.382216	0.224288	0.448666	0.074236	0.158277	0.271112	0.363897	0.112479	0.304534	0.219931	0.486259	0.083069	0.123150	0.165924	0.355129	0.150183	0.205794	0.599658	0.443375	0.061475	0.299632	0.166241	0.185146
90	0.044599	0.090702	0.315072	0.552938	0.051729	0.101262	0.102201	0.134508	0.236424	0.545653	0.651827	0.840325	0.047816	0.365806	0.184150	0.138278	0.168332	0.408064	0.691732	0.796479	0.143838	0.263100	0.338783	0.372616	0.081085	0.236444	0.338413	0.236873	0.049600	0.113697	0.079968	0.114955	0.133428	0.203412	0.553040	0.505336	0.094016	0.665200	0.243827	0.520975	0.259330	0.327117	0.510652	0.831104	0.171892	0.299177	0.363691	0.619024	0.165013	0.258539	0.528066	0.406692	0.153921	0.260386	0.239630	0.364732	0.116909	0.344526	0.235771	0.452368	0.056692	0.141275	0.235703	0.294197	0.110902	0.390036	0.310396	0.537647	0.085510	0.120920	0.170257	0.332398	0.150275	0.254655	0.629008	0.469044	0.065368	0.300324	0.164353	0.183801
91	0.076940	0.092697	0.452278	0.554554	0.049586	0.162437	0.063431	0.135027	0.235604	0.676936	0.627973	0.818956	0.051314	0.280744	0.200555	0.180999	0.168095	0.409465	0.579279	0.779769	0.147085	0.244033	0.365923	0.370553	0.081083	0.236338	0.313852	0.245540	0.050102	0.155146	0.074820	0.089480	0.125813	0.219803	0.548100	0.501216	0.105933	0.672344	0.244134	0.609695	0.254757	0.310318	0.448043	0.792979	0.169635	0.263099	0.363265	0.606238	0.165904	0.259681	0.528346	0.429086	0.174182	0.273207	0.255690	0.411147	0.117220	0.187650	0.246980	0.448638	0.053995	0.133394	0.171930	0.231693	0.137125	0.487743	0.351443	0.536239	0.093556	0.127771	0.189836	0.305290	0.158844	0.316973	0.714415	0.585737	0.067025	0.300722	0.162678	0.116242
92	0.083015	0.106174	0.510815	0.457346	0.051634	0.174962	0.059337	0.148325	0.223155	0.683824	0.602467	0.621684	0.056694	0.143622	0.201822	0.184093	0.161096	0.407025	0.554433	0.771586	0.133557	0.222186	0.366186	0.384147	0.068275	0.206856	0.287795	0.291076	0.050033	0.169690	0.060476	0.073409	0.123275	0.223495	0.500386	0.503778	0.115962	0.679338	0.239491	0.660609	0.244081	0.296577	0.391438	0.705450	0.171379	0.247948	0.335819	0.559821	0.178582	0.245106	0.532009	0.432145	0.179529	0.271499	0.269124	0.429269	0.118633	0.178906	0.257952	0.364686	0.052801	0.236890	0.140894	0.198475	0.134532	0.467303	0.358349	0.537153	0.088627	0.129553	0.219849	0.283861	0.199331	0.360319	0.769414	0.694802	0.068669	0.299272	0.136967	0.097305
93	0.100784	0.097735	0.515910	0.422987	0.044983	0.299980	0.063340	0.159164	0.173905	0.672159	0.527548	0.535750	0.046002	0.119448	0.214494	0.216745	0.166230	0.398893	0.545583	0.680674	0.129065	0.219116	0.371487	0.392310	0.056897	0.120863	0.295722	0.361178	0.043633	0.178672	0.046466	0.069157	0.120183	0.240895	0.343594	0.506023	0.127940	0.676111	0.222065	0.663461	0.208342	0.291419	0.379860	0.641366	0.148850	0.219420	0.292890	0.505197	0.183285	0.235250	0.519317	0.449188	0.181509	0.272314	0.248697	0.431025	0.110596	0.123616	0.209805	0.266376	0.054273	0.272692	0.134988	0.194152	0.131647	0.451469	0.357244	0.528584	0.090309	0.131318	0.219093	0.280432	0.212984	0.372656	0.798451	0.741471	0.069761	0.297239	0.100388	0.101916
94	0.123867	0.086654	0.560737	0.363146	0.074871	0.387752	0.102885	0.195137	0.169430	0.746004	0.458935	0.471171	0.044059	0.096734	0.177142	0.232871	0.142456	0.365264	0.614666	0.706901	0.130211	0.220015	0.366397	0.392429	0.058926	0.080049	0.324815	0.363268	0.038080	0.183837	0.046751	0.058248	0.100240	0.256901	0.242874	0.493990	0.142905	0.608017	0.216888	0.688365	0.208325	0.291345	0.414573	0.639339	0.136714	0.229101	0.286854	0.499846	0.185407	0.222374	0.464927	0.409061	0.181098	0.271355	0.237131	0.433422	0.094215	0.109066	0.159597	0.329786	0.052270	0.302629	0.134523	0.201772	0.134235	0.456748	0.342890	0.544713	0.091586	0.131632	0.218442	0.280053	0.217101	0.388000	0.798903	0.729294	0.068677	0.274998	0.109653	0.090419
95	0.123259	0.086938	0.698120	0.503979	0.106391	0.433268	0.192616	0.247992	0.145798	0.753157	0.434002	0.451802	0.048694	0.072192	0.172024	0.248535	0.178244	0.310027	0.881093	0.799639	0.137612	0.225857	0.346129	0.386042	0.061550	0.081596	0.290639	0.376765	0.035631	0.230466	0.053910	0.050032	0.094999	0.272062	0.233589	0.415953	0.145434	0.501556	0.195229	0.716733	0.207242	0.277853	0.417979	0.623339	0.134000	0.234573	0.272564	0.450885	0.179679	0.227402	0.407780	0.348885	0.171191	0.250079	0.240000	0.398795	0.086721	0.125446	0.203860	0.377108	0.049948	0.307048	0.134506	0.204781	0.134507	0.464332	0.349226	0.582371	0.092811	0.129200	0.200268	0.255989	0.217602	0.388170	0.794903	0.668509	0.066329	0.256239	0.102718	0.089769
96	0.123966	0.113271	0.756600	0.576476	0.163549	0.523461	0.297132	0.303178	0.117050	0.733660	0.271631	0.690323	0.058912	0.082912	0.181112	0.259795	0.245436	0.281692	1.068903	0.811145	0.131408	0.217914	0.324716	0.333361	0.071595	0.090076	0.249952	0.399465	0.032716	0.274478	0.055511	0.048453	0.099033	0.361179	0.245387	0.387073	0.148444	0.481933	0.206188	0.728853	0.203827	0.237218	0.432590	0.572009	0.104096	0.205406	0.234173	0.315639	0.167592	0.208904	0.408493	0.316174	0.147618	0.210011	0.239729	0.326197	0.080897	0.145625	0.210664	0.365539	0.049182	0.303642	0.131871	0.195375	0.140590	0.476052	0.371758	0.625318	0.080809	0.125076	0.175099	0.163858	0.229633	0.403973	0.729688	0.711465	0.060012	0.072861	0.101523	0.095076
97	0.120163	0.122030	0.770187	0.619941	0.162450	0.629754	0.340482	0.300231	0.080013	0.698298	0.250728	0.760161	0.063367	0.126536	0.177883	0.250022	0.249677	0.274619	1.096483	0.790394	0.116009	0.236507	0.286459	0.284066	0.092711	0.095026	0.246636	0.391443	0.038655	0.274466	0.055294	0.044373	0.106061	0.381280	0.267051	0.379528	0.151998	0.432906	0.210156	0.729370	0.188955	0.204722	0.424664	0.478932	0.066824	0.157935	0.175753	0.184357	0.167577	0.188366	0.423391	0.319515	0.134701	0.157816	0.224820	0.319584	0.089343	0.140627	0.274343	0.418138	0.046620	0.300851	0.122245	0.169225	0.138501	0.485918	0.473308	0.674876	0.077604	0.128455	0.167923	0.146868	0.243374	0.407704	0.649868	0.818720	0.047999	0.069684	0.102312	0.100153
98	0.102864	0.113582	0.698524	0.717673	0.166127	0.645553	0.387751	0.321471	0.112124	0.627198	0.257789	0.769687	0.064376	0.175460	0.177566	0.214693	0.254886	0.299917	1.148645	0.756076	0.109571	0.405066	0.272175	0.274461	0.108808	0.122415	0.242099	0.385398	0.046125	0.272121	0.053177	0.044224	0.105338	0.405633	0.373316	0.543489	0.152806	0.386033	0.211103	0.728001	0.175674	0.196482	0.394782	0.364677	0.058418	0.155161	0.139855	0.153958	0.167611	0.174313	0.405254	0.318195	0.119482	0.127258	0.219083	0.274020	0.090918	0.139867	0.340571	0.473144	0.047615	0.297938	0.107529	0.140990	0.148478	0.477769	0.574583	0.648917	0.070974	0.125700	0.169411	0.101282	0.265336	0.396660	0.690452	0.862934	0.046838	0.067942	0.103628	0.100224
99	0.098381	0.105265	0.675189	0.740136	0.170089	0.624429	0.392799	0.321600	0.110850	0.500830	0.264036	0.835686	0.064753	0.282758	0.186830	0.232815	0.258829	0.318915	1.255338	0.777702	0.110614	0.459011	0.243643	0.236398	0.136152	0.148107	0.240232	0.404925	0.051393	0.237325	0.059645	0.113833	0.094771	0.428184	0.406984	0.693023	0.152380	0.329108	0.207272	0.727403	0.113584	0.171043	0.386454	0.296055	0.056180	0.153315	0.135914	0.136870	0.153394	0.123178	0.303401	0.315195	0.073043	0.064046	0.172080	0.221688	0.090584	0.137055	0.349339	0.487327	0.041987	0.297127	0.091746	0.129692	0.160133	0.463930	0.622679	0.584243	0.064504	0.103390	0.101486	0.062360	0.345719	0.363248	0.691518	0.881978	0.043470	0.091340	0.103120	0.097593
100	0.064995	0.109473	0.638951	0.739216	0.163484	0.563908	0.413768	0.320814	0.111901	0.473650	0.302476	0.937859	0.072823	0.277938	0.163549	0.235155	0.254553	0.304465	1.335271	0.804966	0.104615	0.581857	0.135913	0.222286	0.143751	0.155493	0.289177	0.399221	0.051516	0.226111	0.076497	0.181573	0.094059	0.450284	0.691163	0.703166	0.152490	0.327162	0.200430	0.695461	0.234073	0.177479	0.396176	0.305683	0.055834	0.169616	0.124423	0.103967	0.148813	0.125240	0.237082	0.319044	0.072878	0.063527	0.152762	0.216548	0.156209	0.191195	0.347847	0.505163	0.040722	0.298869	0.081114	0.128419	0.141835	0.369879	0.606699	0.624568	0.056653	0.094658	0.156270	0.189193	0.402533	0.326605	0.622588	0.835915	0.025398	0.130768	0.092898	0.075985
101	0.040503	0.113616	0.571409	0.732902	0.145208	0.563863	0.419592	0.319218	0.157895	0.457960	0.451177	0.999865	0.076618	0.278694	0.189193	0.312934	0.266923	0.302109	1.380529	0.810858	0.087012	0.678919	0.109230	0.208979	0.163397	0.158851	0.294635	0.397629	0.062796	0.216082	0.097730	0.215823	0.122712	0.488317	0.959762	0.704157	0.142637	0.307784	0.195290	0.578704	0.288850	0.200196	0.420400	0.316571	0.048320	0.166366	0.065132	0.088170	0.155594	0.133958	0.234665	0.274577	0.069844	0.070512	0.189550	0.257344	0.160856	0.236392	0.347327	0.476667	0.047359	0.299814	0.077708	0.125990	0.145810	0.303052	0.760271	0.654035	0.078497	0.100201	0.219526	0.274931	0.409359	0.359609	0.542361	0.739724	0.023046	0.166436	0.047236	0.111368
