	134_P_T1_sh_L_ND_A_01.c3d	134_P_T1_sh_L_ND_A_01.c3d	134_P_T1_sh_L_ND_A_01.c3d	134_P_T1_sh_L_ND_A_01.c3d	134_P_T1_sh_L_ND_A_01.c3d	134_P_T1_sh_L_ND_A_01.c3d	134_P_T1_sh_L_ND_A_01.c3d	134_P_T1_sh_L_ND_A_01.c3d	134_P_T1_sh_L_ND_A_02.c3d	134_P_T1_sh_L_ND_A_02.c3d	134_P_T1_sh_L_ND_A_02.c3d	134_P_T1_sh_L_ND_A_02.c3d	134_P_T1_sh_L_ND_A_02.c3d	134_P_T1_sh_L_ND_A_02.c3d	134_P_T1_sh_L_ND_A_02.c3d	134_P_T1_sh_L_ND_A_02.c3d	134_P_T1_sh_L_ND_A_03.c3d	134_P_T1_sh_L_ND_A_03.c3d	134_P_T1_sh_L_ND_A_03.c3d	134_P_T1_sh_L_ND_A_03.c3d	134_P_T1_sh_L_ND_A_03.c3d	134_P_T1_sh_L_ND_A_03.c3d	134_P_T1_sh_L_ND_A_03.c3d	134_P_T1_sh_L_ND_A_03.c3d	134_P_T1_sh_L_ND_A_04.c3d	134_P_T1_sh_L_ND_A_04.c3d	134_P_T1_sh_L_ND_A_04.c3d	134_P_T1_sh_L_ND_A_04.c3d	134_P_T1_sh_L_ND_A_04.c3d	134_P_T1_sh_L_ND_A_04.c3d	134_P_T1_sh_L_ND_A_04.c3d	134_P_T1_sh_L_ND_A_04.c3d	134_P_T1_sh_L_ND_A_05.c3d	134_P_T1_sh_L_ND_A_05.c3d	134_P_T1_sh_L_ND_A_05.c3d	134_P_T1_sh_L_ND_A_05.c3d	134_P_T1_sh_L_ND_A_05.c3d	134_P_T1_sh_L_ND_A_05.c3d	134_P_T1_sh_L_ND_A_05.c3d	134_P_T1_sh_L_ND_A_05.c3d	134_P_T1_sh_L_ND_A_06.c3d	134_P_T1_sh_L_ND_A_06.c3d	134_P_T1_sh_L_ND_A_06.c3d	134_P_T1_sh_L_ND_A_06.c3d	134_P_T1_sh_L_ND_A_06.c3d	134_P_T1_sh_L_ND_A_06.c3d	134_P_T1_sh_L_ND_A_06.c3d	134_P_T1_sh_L_ND_A_06.c3d	134_P_T1_sh_L_ND_A_08.c3d	134_P_T1_sh_L_ND_A_08.c3d	134_P_T1_sh_L_ND_A_08.c3d	134_P_T1_sh_L_ND_A_08.c3d	134_P_T1_sh_L_ND_A_08.c3d	134_P_T1_sh_L_ND_A_08.c3d	134_P_T1_sh_L_ND_A_08.c3d	134_P_T1_sh_L_ND_A_08.c3d	134_P_T1_sh_L_ND_A_09.c3d	134_P_T1_sh_L_ND_A_09.c3d	134_P_T1_sh_L_ND_A_09.c3d	134_P_T1_sh_L_ND_A_09.c3d	134_P_T1_sh_L_ND_A_09.c3d	134_P_T1_sh_L_ND_A_09.c3d	134_P_T1_sh_L_ND_A_09.c3d	134_P_T1_sh_L_ND_A_09.c3d	134_P_T1_sh_L_ND_A_10.c3d	134_P_T1_sh_L_ND_A_10.c3d	134_P_T1_sh_L_ND_A_10.c3d	134_P_T1_sh_L_ND_A_10.c3d	134_P_T1_sh_L_ND_A_10.c3d	134_P_T1_sh_L_ND_A_10.c3d	134_P_T1_sh_L_ND_A_10.c3d	134_P_T1_sh_L_ND_A_10.c3d
	Biceps femoris_lat	Semitendinosus_lat	Vastus lateralis_lat	Vastus medialis_lat	Biceps femoris_med	Semitendinosus_med	Vastus lateralis_med	Vastus medialis_med	Biceps femoris_lat	Semitendinosus_lat	Vastus lateralis_lat	Vastus medialis_lat	Biceps femoris_med	Semitendinosus_med	Vastus lateralis_med	Vastus medialis_med	Biceps femoris_lat	Semitendinosus_lat	Vastus lateralis_lat	Vastus medialis_lat	Biceps femoris_med	Semitendinosus_med	Vastus lateralis_med	Vastus medialis_med	Biceps femoris_lat	Semitendinosus_lat	Vastus lateralis_lat	Vastus medialis_lat	Biceps femoris_med	Semitendinosus_med	Vastus lateralis_med	Vastus medialis_med	Biceps femoris_lat	Semitendinosus_lat	Vastus lateralis_lat	Vastus medialis_lat	Biceps femoris_med	Semitendinosus_med	Vastus lateralis_med	Vastus medialis_med	Biceps femoris_lat	Semitendinosus_lat	Vastus lateralis_lat	Vastus medialis_lat	Biceps femoris_med	Semitendinosus_med	Vastus lateralis_med	Vastus medialis_med	Biceps femoris_lat	Semitendinosus_lat	Vastus lateralis_lat	Vastus medialis_lat	Biceps femoris_med	Semitendinosus_med	Vastus lateralis_med	Vastus medialis_med	Biceps femoris_lat	Semitendinosus_lat	Vastus lateralis_lat	Vastus medialis_lat	Biceps femoris_med	Semitendinosus_med	Vastus lateralis_med	Vastus medialis_med	Biceps femoris_lat	Semitendinosus_lat	Vastus lateralis_lat	Vastus medialis_lat	Biceps femoris_med	Semitendinosus_med	Vastus lateralis_med	Vastus medialis_med
	P2D	P2D	P2D	P2D	P2D	P2D	P2D	P2D	P2D	P2D	P2D	P2D	P2D	P2D	P2D	P2D	P2D	P2D	P2D	P2D	P2D	P2D	P2D	P2D	P2D	P2D	P2D	P2D	P2D	P2D	P2D	P2D	P2D	P2D	P2D	P2D	P2D	P2D	P2D	P2D	P2D	P2D	P2D	P2D	P2D	P2D	P2D	P2D	P2D	P2D	P2D	P2D	P2D	P2D	P2D	P2D	P2D	P2D	P2D	P2D	P2D	P2D	P2D	P2D	P2D	P2D	P2D	P2D	P2D	P2D	P2D	P2D
	EMG_lat	EMG_lat	EMG_lat	EMG_lat	EMG_med	EMG_med	EMG_med	EMG_med	EMG_lat	EMG_lat	EMG_lat	EMG_lat	EMG_med	EMG_med	EMG_med	EMG_med	EMG_lat	EMG_lat	EMG_lat	EMG_lat	EMG_med	EMG_med	EMG_med	EMG_med	EMG_lat	EMG_lat	EMG_lat	EMG_lat	EMG_med	EMG_med	EMG_med	EMG_med	EMG_lat	EMG_lat	EMG_lat	EMG_lat	EMG_med	EMG_med	EMG_med	EMG_med	EMG_lat	EMG_lat	EMG_lat	EMG_lat	EMG_med	EMG_med	EMG_med	EMG_med	EMG_lat	EMG_lat	EMG_lat	EMG_lat	EMG_med	EMG_med	EMG_med	EMG_med	EMG_lat	EMG_lat	EMG_lat	EMG_lat	EMG_med	EMG_med	EMG_med	EMG_med	EMG_lat	EMG_lat	EMG_lat	EMG_lat	EMG_med	EMG_med	EMG_med	EMG_med
ITEM	Y	Y	Y	Y	Y	Y	Y	Y	Y	Y	Y	Y	Y	Y	Y	Y	Y	Y	Y	Y	Y	Y	Y	Y	Y	Y	Y	Y	Y	Y	Y	Y	Y	Y	Y	Y	Y	Y	Y	Y	Y	Y	Y	Y	Y	Y	Y	Y	Y	Y	Y	Y	Y	Y	Y	Y	Y	Y	Y	Y	Y	Y	Y	Y	Y	Y	Y	Y	Y	Y	Y	Y
1	0.696794	0.026606	0.418955	0.402576	0.115077	0.105745	0.595532	0.345146	0.152664	0.105171	0.250727	0.185108	0.223840	0.133730	0.548334	0.426902	0.279934	0.039994	0.178907	0.174709	0.166913	0.174330	0.207829	0.189803	0.112086	0.027416	0.375988	0.303925	0.139450	0.050683	0.520923	0.313295	0.275588	0.036590	0.540909	0.416543	0.146039	0.259952	0.285115	0.288660	0.143298	0.022397	0.541642	0.462713	0.260097	0.099489	0.288408	0.167525	0.598442	0.029558	0.162536	0.216944	0.102715	0.117725	0.342104	0.386327	0.082413	0.089176	0.373772	0.363218	0.145146	0.179923	0.361300	0.277009	0.221751	0.023049	0.189056	0.223679	0.062007	0.089479	0.381976	0.341674
2	0.413468	0.027997	0.364741	0.367011	0.111287	0.110345	0.578447	0.354560	0.190798	0.107005	0.227268	0.173083	0.222375	0.136764	0.591754	0.479904	0.220861	0.046116	0.172365	0.154685	0.222757	0.141920	0.208413	0.200228	0.156897	0.030906	0.376505	0.332146	0.145766	0.050197	0.533016	0.343712	0.277997	0.037159	0.558756	0.406871	0.109283	0.258471	0.312988	0.276186	0.140198	0.032082	0.538001	0.464572	0.260069	0.100143	0.246624	0.168408	0.559862	0.027016	0.186995	0.212949	0.102517	0.108668	0.344661	0.380430	0.060325	0.093411	0.330545	0.365020	0.140534	0.189352	0.434048	0.279150	0.154964	0.028062	0.190419	0.210387	0.061198	0.106200	0.395224	0.336003
3	0.302493	0.030385	0.356546	0.374813	0.099123	0.108520	0.557107	0.379121	0.197919	0.099876	0.207534	0.184827	0.215703	0.140877	0.596345	0.496979	0.223139	0.052439	0.191963	0.158176	0.231572	0.120606	0.207458	0.212041	0.204910	0.031565	0.377248	0.329255	0.150316	0.051492	0.541832	0.364640	0.257945	0.035557	0.559247	0.390730	0.108096	0.256324	0.315121	0.327150	0.140280	0.044526	0.537657	0.465250	0.258497	0.098351	0.221663	0.180195	0.552222	0.025261	0.208730	0.199341	0.101552	0.099907	0.344851	0.387304	0.051861	0.093378	0.278474	0.352904	0.139446	0.196311	0.485355	0.284567	0.150669	0.037411	0.211207	0.225745	0.062205	0.122396	0.390934	0.319129
4	0.278177	0.027972	0.355457	0.416154	0.074164	0.105168	0.433557	0.465237	0.214419	0.090845	0.206482	0.207294	0.199977	0.143054	0.589024	0.506419	0.222571	0.053742	0.193249	0.181868	0.238736	0.114227	0.206442	0.395768	0.205060	0.034661	0.315279	0.318455	0.147403	0.054782	0.566200	0.448367	0.198772	0.034313	0.551762	0.406184	0.106175	0.247033	0.316249	0.324503	0.139214	0.059583	0.526730	0.464726	0.234876	0.099349	0.222180	0.180389	0.549976	0.035577	0.220800	0.180115	0.095005	0.095689	0.339912	0.393923	0.057193	0.092501	0.281867	0.364295	0.136262	0.200659	0.501638	0.293949	0.111520	0.047030	0.237559	0.301458	0.064591	0.136845	0.382431	0.324441
5	0.264221	0.028765	0.367612	0.425445	0.061723	0.103858	0.350334	0.507187	0.224829	0.086084	0.195275	0.173739	0.179085	0.137439	0.600093	0.478802	0.225893	0.051906	0.218153	0.184835	0.240215	0.121183	0.224824	0.401854	0.204042	0.038995	0.344670	0.308983	0.121557	0.062962	0.558284	0.502756	0.182948	0.037312	0.507175	0.419934	0.106282	0.238597	0.340941	0.310656	0.138597	0.069247	0.502739	0.456677	0.228205	0.105948	0.258896	0.174085	0.533372	0.045542	0.247069	0.175863	0.087784	0.090774	0.339259	0.383311	0.058076	0.093097	0.281489	0.372071	0.132096	0.203966	0.502475	0.288519	0.116409	0.059044	0.532742	0.306617	0.065351	0.149470	0.382534	0.300184
6	0.262058	0.028901	0.347261	0.353527	0.052304	0.106257	0.357170	0.508265	0.295962	0.090730	0.156412	0.207274	0.168854	0.130264	0.611002	0.459364	0.197796	0.048662	0.267331	0.176113	0.237430	0.130499	0.228859	0.459368	0.199931	0.045011	0.395982	0.306165	0.093371	0.077535	0.510439	0.514032	0.183543	0.055009	0.474526	0.418965	0.100398	0.242813	0.344179	0.301012	0.108593	0.077543	0.513260	0.439424	0.204055	0.119520	0.272494	0.219003	0.415572	0.051761	0.248687	0.176717	0.078243	0.089501	0.336484	0.414565	0.071982	0.092465	0.307966	0.348143	0.127065	0.205376	0.508350	0.262064	0.121919	0.069393	0.594422	0.324118	0.052988	0.158274	0.380957	0.323524
7	0.250190	0.032677	0.318354	0.307828	0.049318	0.111430	0.372129	0.538426	0.279708	0.110539	0.139866	0.257434	0.167433	0.123522	0.609707	0.465824	0.197085	0.048338	0.328191	0.179382	0.217267	0.135461	0.228351	0.488203	0.198930	0.048824	0.472804	0.413619	0.089703	0.096549	0.464871	0.507766	0.183694	0.074972	0.491943	0.430688	0.090762	0.256259	0.348733	0.297360	0.106218	0.085759	0.490703	0.415011	0.158143	0.137083	0.256474	0.249655	0.268988	0.053068	0.225824	0.299759	0.070141	0.093729	0.330198	0.425688	0.089893	0.096470	0.340384	0.331001	0.129437	0.207616	0.504314	0.261321	0.121335	0.073817	0.649944	0.304576	0.050738	0.164429	0.388241	0.322541
8	0.207818	0.035551	0.334892	0.308021	0.047975	0.118847	0.377175	0.552706	0.262347	0.133483	0.143476	0.364283	0.117758	0.118822	0.611420	0.481448	0.182659	0.050647	0.328157	0.178481	0.203114	0.136232	0.194936	0.487230	0.194810	0.051437	0.554227	0.487525	0.089829	0.115509	0.472584	0.532435	0.158547	0.088127	0.491701	0.364205	0.088624	0.272993	0.351316	0.327014	0.104068	0.090787	0.486802	0.524676	0.158115	0.153315	0.198050	0.255802	0.143528	0.052439	0.272501	0.322515	0.060350	0.102091	0.324310	0.423594	0.106002	0.107534	0.272091	0.301975	0.128070	0.208168	0.497184	0.274852	0.117141	0.075226	0.688532	0.317455	0.054649	0.168218	0.389409	0.319445
9	0.134369	0.036179	0.339725	0.303552	0.068630	0.126724	0.380686	0.553577	0.264117	0.139581	0.155046	0.414994	0.097546	0.113726	0.565664	0.477037	0.170181	0.062289	0.325179	0.175991	0.199765	0.132932	0.222125	0.500357	0.209113	0.050765	0.561718	0.473708	0.092411	0.136031	0.440165	0.572894	0.135866	0.096018	0.425189	0.368082	0.091201	0.287630	0.349389	0.363701	0.101192	0.091577	0.403267	0.558369	0.143949	0.166203	0.177189	0.302209	0.132441	0.057452	0.281208	0.421054	0.058464	0.120713	0.323436	0.426310	0.111289	0.118914	0.266376	0.326657	0.122549	0.206034	0.494918	0.382316	0.117942	0.075689	0.703435	0.371575	0.061186	0.169831	0.384475	0.319107
10	0.137280	0.034948	0.362667	0.298539	0.072896	0.132764	0.411895	0.553521	0.265495	0.140741	0.171042	0.446917	0.097110	0.106558	0.525073	0.443606	0.194612	0.071873	0.315830	0.216716	0.115812	0.126309	0.427395	0.520600	0.206576	0.049213	0.575862	0.452439	0.107454	0.156550	0.432137	0.630521	0.133737	0.099278	0.367832	0.390421	0.098222	0.302547	0.349088	0.368162	0.097668	0.091875	0.353919	0.536128	0.134878	0.173894	0.190653	0.306836	0.143239	0.085563	0.287915	0.426047	0.059093	0.134971	0.338082	0.431861	0.121752	0.132193	0.255081	0.321535	0.098044	0.200558	0.501876	0.406513	0.115997	0.076900	0.706091	0.386731	0.060970	0.170295	0.337211	0.319832
11	0.127044	0.034378	0.389496	0.283450	0.079127	0.134046	0.487608	0.550758	0.266945	0.138237	0.179797	0.448904	0.098572	0.100260	0.520596	0.406710	0.180442	0.083186	0.325706	0.204466	0.085897	0.117888	0.456067	0.554681	0.206966	0.049725	0.601622	0.478065	0.109243	0.178833	0.425989	0.638328	0.137116	0.101875	0.365346	0.448693	0.106476	0.312254	0.333085	0.412527	0.094902	0.097466	0.410453	0.601843	0.120739	0.178963	0.196561	0.325597	0.124178	0.119569	0.289712	0.446076	0.076917	0.144088	0.331119	0.435671	0.121193	0.140198	0.252515	0.301264	0.071487	0.194609	0.490013	0.410070	0.122965	0.082405	0.708068	0.381099	0.065615	0.170003	0.318980	0.319510
12	0.127392	0.049618	0.374751	0.275886	0.084671	0.131688	0.474686	0.555430	0.185644	0.130633	0.179503	0.438650	0.097812	0.094968	0.427333	0.393762	0.168482	0.095365	0.315097	0.228340	0.071897	0.113246	0.566029	0.624614	0.156052	0.059629	0.634627	0.530603	0.100579	0.205105	0.377255	0.686349	0.156979	0.102728	0.369241	0.455240	0.106259	0.317546	0.312740	0.418246	0.113277	0.123384	0.523683	0.613460	0.101337	0.179151	0.303059	0.322644	0.100036	0.128120	0.271126	0.446599	0.082603	0.151404	0.344117	0.370192	0.119459	0.143628	0.246046	0.279930	0.061176	0.184483	0.491097	0.436559	0.122267	0.092504	0.710568	0.381034	0.078270	0.169356	0.311690	0.313272
13	0.127365	0.076182	0.371113	0.254590	0.087760	0.126584	0.479810	0.523645	0.170162	0.109382	0.204020	0.412477	0.100086	0.090019	0.304170	0.356532	0.163180	0.102449	0.268318	0.238428	0.130424	0.107993	0.787057	0.685810	0.115405	0.083631	0.611077	0.621575	0.097355	0.230529	0.360950	0.716117	0.166460	0.102073	0.370701	0.457716	0.103921	0.318212	0.292306	0.443198	0.114422	0.167246	0.556702	0.615876	0.102087	0.180191	0.360255	0.325172	0.091771	0.125774	0.253559	0.432414	0.080930	0.151972	0.349118	0.310157	0.117372	0.139170	0.247612	0.301534	0.064159	0.170218	0.536126	0.462575	0.120549	0.104874	0.701985	0.356645	0.094323	0.167239	0.322968	0.316383
14	0.126403	0.094738	0.325630	0.242042	0.088792	0.124460	0.492992	0.513297	0.151371	0.079337	0.217950	0.315697	0.100475	0.085614	0.270078	0.279273	0.164315	0.102781	0.220822	0.244392	0.143413	0.102151	0.871246	0.662441	0.116007	0.107457	0.607283	0.654382	0.092145	0.256134	0.350878	0.698582	0.167225	0.099187	0.400449	0.435573	0.093058	0.313522	0.226725	0.519840	0.114531	0.189637	0.553830	0.622917	0.104848	0.180530	0.385456	0.328334	0.079698	0.124707	0.253407	0.404418	0.079322	0.151505	0.347388	0.296215	0.106244	0.131944	0.256067	0.356857	0.067553	0.160009	0.534836	0.475475	0.136424	0.125650	0.670934	0.303607	0.095281	0.164781	0.390657	0.333832
15	0.117794	0.104009	0.299672	0.237853	0.094571	0.125337	0.491644	0.493453	0.141650	0.074499	0.213411	0.260513	0.110450	0.080374	0.279301	0.253218	0.165370	0.103929	0.169429	0.253349	0.145743	0.099814	0.877203	0.623835	0.116532	0.118372	0.582778	0.658882	0.100038	0.277842	0.312076	0.645404	0.164946	0.095739	0.471588	0.436762	0.092015	0.302652	0.225551	0.540419	0.120797	0.199753	0.553338	0.622871	0.109053	0.179607	0.490913	0.354208	0.075935	0.126482	0.239732	0.350729	0.080039	0.150936	0.408093	0.296701	0.083055	0.121484	0.250873	0.352739	0.069496	0.160883	0.496117	0.478198	0.160966	0.150548	0.459416	0.290498	0.100214	0.162031	0.429430	0.386624
16	0.116850	0.107082	0.295339	0.239103	0.096860	0.125973	0.479103	0.401757	0.114459	0.075395	0.192124	0.168330	0.115057	0.076731	0.273763	0.230360	0.133819	0.116439	0.198390	0.279967	0.148811	0.098882	0.876512	0.628212	0.116753	0.120284	0.551267	0.661708	0.103326	0.292711	0.316578	0.601927	0.155926	0.094513	0.520822	0.435095	0.097121	0.286736	0.224006	0.522048	0.151115	0.202186	0.539507	0.622627	0.113695	0.176973	0.567863	0.364746	0.075829	0.127995	0.187042	0.294023	0.087308	0.148738	0.446754	0.339380	0.078129	0.110778	0.235153	0.329617	0.070900	0.186008	0.452330	0.472935	0.192391	0.166168	0.415356	0.273666	0.103200	0.163559	0.443868	0.400863
17	0.119350	0.106931	0.259050	0.226491	0.104463	0.126704	0.460339	0.338073	0.079984	0.075366	0.205667	0.162619	0.114563	0.075150	0.236636	0.231655	0.050666	0.140956	0.197409	0.269112	0.152190	0.097559	0.871754	0.643212	0.115744	0.119719	0.481985	0.629104	0.101941	0.298921	0.320048	0.592515	0.144850	0.109745	0.520578	0.394692	0.105400	0.271000	0.208637	0.520844	0.190226	0.199533	0.494552	0.617662	0.112224	0.172067	0.607769	0.337403	0.068711	0.123978	0.173076	0.186727	0.093024	0.144215	0.449394	0.393485	0.074861	0.108108	0.227586	0.336666	0.082689	0.241281	0.430483	0.465166	0.246142	0.168192	0.305375	0.279448	0.105591	0.163505	0.439307	0.397361
18	0.117330	0.106723	0.219875	0.226517	0.106005	0.124801	0.511068	0.345364	0.070686	0.080503	0.202530	0.165033	0.114371	0.078789	0.231549	0.231073	0.048320	0.167591	0.178653	0.267772	0.155816	0.119266	0.799962	0.640280	0.098262	0.118439	0.448734	0.622989	0.100503	0.294954	0.320562	0.597235	0.130073	0.138603	0.551041	0.365706	0.107780	0.261941	0.189712	0.519194	0.223514	0.196225	0.467052	0.609392	0.111174	0.161464	0.610022	0.319737	0.050195	0.093656	0.102265	0.162418	0.095698	0.140513	0.439832	0.395976	0.060445	0.114257	0.229646	0.334810	0.086042	0.325817	0.429129	0.456404	0.283991	0.167710	0.289974	0.306012	0.107801	0.165166	0.438361	0.387617
19	0.091577	0.109095	0.204422	0.225081	0.106149	0.120217	0.544395	0.318880	0.070362	0.107645	0.218732	0.183577	0.114344	0.091992	0.219547	0.207486	0.047306	0.182423	0.180637	0.243874	0.162617	0.185917	0.825236	0.627096	0.057485	0.118301	0.447571	0.650249	0.101199	0.288503	0.302938	0.574383	0.127246	0.156607	0.590429	0.384903	0.112072	0.269731	0.183714	0.517843	0.265716	0.194880	0.469369	0.492303	0.093721	0.148702	0.610880	0.314272	0.087070	0.059215	0.101126	0.131958	0.099600	0.135250	0.416716	0.358380	0.051317	0.133125	0.231280	0.326816	0.091279	0.449052	0.422599	0.456828	0.362499	0.168719	0.333962	0.302927	0.108732	0.170456	0.425079	0.354949
20	0.085926	0.113802	0.147046	0.215406	0.106674	0.113282	0.548228	0.307081	0.065243	0.154513	0.402833	0.230652	0.108714	0.110913	0.208477	0.176874	0.046491	0.184048	0.174575	0.225970	0.161078	0.262668	0.874142	0.555786	0.064647	0.118562	0.411026	0.646958	0.100211	0.298724	0.302251	0.533915	0.102432	0.161541	0.635431	0.355633	0.116106	0.303200	0.182933	0.511612	0.276640	0.196080	0.468835	0.472352	0.076377	0.133042	0.613251	0.278004	0.093249	0.048413	0.098505	0.146514	0.096207	0.129677	0.410237	0.360796	0.062463	0.146400	0.234531	0.318165	0.087542	0.532008	0.422166	0.456787	0.381699	0.172946	0.365323	0.296335	0.108782	0.182105	0.413858	0.333276
21	0.085780	0.119050	0.159411	0.215182	0.101487	0.105823	0.546697	0.313496	0.060844	0.168259	0.431577	0.285562	0.104092	0.126320	0.198843	0.176694	0.038078	0.186471	0.150057	0.245420	0.124647	0.331170	0.724299	0.345936	0.071419	0.117202	0.349151	0.622019	0.082867	0.346076	0.225364	0.460991	0.078634	0.162939	0.636463	0.363394	0.112246	0.364365	0.196303	0.483002	0.282376	0.198468	0.471600	0.343393	0.072634	0.115195	0.611046	0.270107	0.109349	0.061225	0.086106	0.145964	0.093820	0.128724	0.412679	0.362680	0.072829	0.147701	0.185431	0.307543	0.086264	0.557567	0.414656	0.450272	0.402504	0.178778	0.362223	0.297598	0.106180	0.210352	0.412693	0.331023
22	0.091445	0.118785	0.225866	0.207417	0.095294	0.101058	0.527574	0.316726	0.059767	0.176064	0.534542	0.327957	0.093898	0.129167	0.197189	0.183742	0.042490	0.238441	0.169565	0.251273	0.122178	0.379566	0.572127	0.394517	0.088797	0.112212	0.303444	0.552432	0.078305	0.424017	0.157026	0.451092	0.053568	0.163067	0.636504	0.354274	0.100369	0.436946	0.204366	0.471844	0.275906	0.198209	0.418809	0.244674	0.069087	0.100369	0.618800	0.244862	0.113611	0.076191	0.090662	0.139324	0.093954	0.128040	0.396461	0.357644	0.073732	0.155317	0.128393	0.318503	0.085976	0.570375	0.412662	0.362663	0.405868	0.181042	0.448639	0.299636	0.115791	0.242010	0.390590	0.331140
23	0.092658	0.111169	0.230970	0.140983	0.092022	0.107985	0.449113	0.316438	0.070691	0.218518	0.604369	0.360239	0.092978	0.125350	0.211992	0.210759	0.080743	0.308883	0.144482	0.254247	0.133463	0.398630	0.553219	0.415292	0.088108	0.093701	0.300387	0.461397	0.078036	0.510197	0.157755	0.335269	0.059027	0.162138	0.600259	0.353044	0.089628	0.493333	0.184274	0.450717	0.306927	0.182659	0.296782	0.267543	0.066785	0.097172	0.583364	0.241650	0.203644	0.091776	0.138354	0.155263	0.093378	0.127937	0.358958	0.350369	0.074375	0.167832	0.145709	0.337376	0.086837	0.573456	0.389066	0.319447	0.410546	0.178903	0.563787	0.309575	0.129076	0.254489	0.380267	0.329889
24	0.089681	0.113072	0.230884	0.127011	0.086103	0.128030	0.428160	0.297268	0.067338	0.247913	0.604915	0.363075	0.093920	0.120638	0.233017	0.267830	0.124234	0.329053	0.137874	0.223034	0.195765	0.401008	0.553181	0.413594	0.086811	0.073076	0.335816	0.447256	0.070480	0.592512	0.153369	0.181895	0.061948	0.157285	0.526409	0.350209	0.087097	0.519587	0.167231	0.416131	0.354496	0.151292	0.265497	0.239253	0.063791	0.099292	0.562621	0.259522	0.214276	0.093571	0.165155	0.230436	0.075274	0.121041	0.355570	0.344149	0.081267	0.162842	0.298553	0.573639	0.086933	0.573268	0.371100	0.313782	0.407042	0.164766	0.578973	0.314984	0.133560	0.258343	0.381784	0.329012
25	0.101801	0.116261	0.235132	0.127668	0.085088	0.164399	0.424470	0.286387	0.070808	0.247249	0.658164	0.507875	0.093068	0.118631	0.240750	0.315299	0.130263	0.320431	0.144810	0.230716	0.192421	0.401920	0.570543	0.453441	0.134441	0.064232	0.341970	0.465542	0.068181	0.671704	0.169076	0.193231	0.060617	0.149799	0.469186	0.347613	0.086815	0.522610	0.164757	0.402268	0.372317	0.131662	0.270388	0.232251	0.063328	0.108859	0.550240	0.259289	0.213569	0.098563	0.211183	0.240917	0.073018	0.114657	0.338921	0.351933	0.091073	0.157404	0.531024	0.953435	0.089460	0.577159	0.362624	0.272294	0.394399	0.136402	0.578597	0.316721	0.123946	0.258001	0.379760	0.315590
26	0.114148	0.117821	0.277259	0.142737	0.084223	0.214335	0.420720	0.278964	0.071321	0.224196	0.598096	0.515598	0.087209	0.120455	0.244292	0.340016	0.131224	0.307688	0.170908	0.234517	0.192827	0.406602	0.650650	0.439977	0.172805	0.072674	0.338514	0.432752	0.051415	0.725438	0.254082	0.208574	0.073610	0.131020	0.463593	0.354811	0.089370	0.521092	0.194476	0.315961	0.372851	0.120859	0.270484	0.232948	0.061466	0.121629	0.460341	0.223095	0.203863	0.120063	0.290909	0.268639	0.073953	0.113989	0.327739	0.368744	0.090719	0.143559	0.550660	1.013146	0.094888	0.582188	0.294862	0.182882	0.379655	0.118226	0.580731	0.316036	0.115201	0.256466	0.362094	0.321245
27	0.130228	0.118400	0.305466	0.151428	0.077944	0.265365	0.448518	0.264603	0.080237	0.209908	0.657039	0.477605	0.072625	0.120911	0.249812	0.347801	0.131143	0.313192	0.214796	0.247093	0.187004	0.404175	0.646054	0.407325	0.175344	0.081124	0.325996	0.376587	0.041985	0.737337	0.291128	0.222650	0.089609	0.096493	0.397144	0.345052	0.101249	0.523689	0.228138	0.262557	0.356858	0.116331	0.270849	0.233431	0.051124	0.124538	0.346356	0.204759	0.202707	0.154476	0.300628	0.332212	0.076386	0.113915	0.309474	0.389427	0.108218	0.121443	0.558664	1.143984	0.101414	0.583415	0.217599	0.134530	0.353794	0.119119	0.582838	0.299654	0.120255	0.254968	0.303301	0.316902
28	0.125494	0.133705	0.305805	0.197973	0.074922	0.311807	0.498859	0.264978	0.080187	0.203200	0.586830	0.635921	0.072335	0.122166	0.240825	0.346298	0.130673	0.330027	0.221415	0.216781	0.192879	0.376274	0.533146	0.392489	0.183602	0.090695	0.265053	0.313796	0.073238	0.734847	0.295910	0.231468	0.089685	0.071780	0.304291	0.267469	0.115829	0.526972	0.234057	0.263590	0.339523	0.117166	0.273184	0.233430	0.057425	0.117938	0.271217	0.204961	0.196827	0.177828	0.303181	0.397434	0.086013	0.113999	0.189594	0.387990	0.109591	0.110888	0.598048	1.278986	0.127148	0.580088	0.171807	0.118739	0.317617	0.133731	0.553071	0.219355	0.129006	0.254308	0.249455	0.291895
29	0.124319	0.153967	0.301658	0.240436	0.065236	0.333317	0.560539	0.309560	0.094966	0.157713	0.524233	0.826540	0.075776	0.122673	0.236384	0.344073	0.136655	0.320005	0.211316	0.202951	0.218004	0.331781	0.480074	0.408262	0.182488	0.093915	0.271362	0.263041	0.110029	0.738034	0.304148	0.219231	0.087299	0.068592	0.234779	0.242283	0.111706	0.527352	0.245036	0.270068	0.317507	0.124961	0.282621	0.233549	0.066333	0.109357	0.278009	0.190958	0.194166	0.181541	0.306075	0.413756	0.088982	0.116108	0.126083	0.317176	0.121342	0.116222	0.619511	1.306205	0.135819	0.577594	0.127990	0.123029	0.242585	0.149301	0.507880	0.141702	0.137953	0.253560	0.232173	0.263152
30	0.121653	0.164420	0.288043	0.255205	0.088092	0.338299	0.562758	0.348921	0.095890	0.095389	0.534212	0.844411	0.075490	0.117981	0.250602	0.350330	0.141131	0.247221	0.207038	0.211237	0.239047	0.279666	0.506491	0.373632	0.180130	0.094233	0.293955	0.261770	0.111176	0.750859	0.330233	0.215121	0.081297	0.075119	0.322759	0.254503	0.111566	0.523599	0.244747	0.269991	0.293325	0.143936	0.273224	0.254801	0.065780	0.100365	0.303676	0.177245	0.194139	0.173741	0.329622	0.421921	0.087468	0.121079	0.122388	0.268082	0.137523	0.110582	0.640355	1.312306	0.133501	0.562001	0.127894	0.131570	0.212277	0.152004	0.490152	0.136391	0.136584	0.253435	0.240587	0.248218
31	0.114396	0.179427	0.268631	0.263100	0.104299	0.338734	0.530107	0.309926	0.093062	0.059501	0.458229	0.766492	0.072527	0.110303	0.248409	0.379565	0.119405	0.197291	0.263309	0.329577	0.254329	0.248925	0.515953	0.329493	0.174680	0.094027	0.290679	0.255400	0.120921	0.762625	0.344429	0.220626	0.094308	0.075590	0.347690	0.263568	0.114095	0.513487	0.248264	0.268999	0.280970	0.164541	0.287439	0.266798	0.078111	0.096199	0.308072	0.169600	0.107903	0.167046	0.332328	0.606127	0.086817	0.128808	0.122937	0.285650	0.138250	0.126219	0.642671	1.292989	0.141886	0.519715	0.157580	0.125556	0.166672	0.143828	0.492879	0.133432	0.133316	0.254316	0.242158	0.243437
32	0.110391	0.178067	0.248032	0.262989	0.110672	0.343336	0.521850	0.289820	0.091659	0.037708	0.414475	0.755751	0.073593	0.104009	0.246554	0.416579	0.182814	0.181589	0.316244	0.346180	0.230450	0.248458	0.551489	0.352012	0.167594	0.095229	0.270790	0.253653	0.123297	0.762273	0.363507	0.221090	0.089953	0.077239	0.320480	0.258767	0.109233	0.491129	0.282544	0.265652	0.279654	0.170395	0.300876	0.286479	0.088585	0.097918	0.314798	0.170862	0.115137	0.167087	0.332012	0.747742	0.093884	0.139772	0.118582	0.297846	0.129595	0.154120	0.503208	1.107937	0.138801	0.421590	0.161566	0.134772	0.154487	0.133768	0.430257	0.165309	0.140752	0.252860	0.242201	0.242781
33	0.108360	0.173286	0.249654	0.272514	0.117651	0.352750	0.536830	0.332583	0.081572	0.059213	0.254317	0.768172	0.079724	0.107811	0.247862	0.432287	0.190681	0.180820	0.357645	0.343116	0.245472	0.253425	0.585341	0.554563	0.167847	0.109069	0.264497	0.249253	0.123026	0.740765	0.401589	0.223056	0.089971	0.085209	0.319302	0.264637	0.107316	0.452496	0.296714	0.282913	0.271074	0.164655	0.280051	0.228856	0.091252	0.102412	0.309023	0.166560	0.119497	0.161640	0.312163	0.855319	0.093309	0.149882	0.118064	0.296454	0.132584	0.182649	0.361670	0.894543	0.137468	0.309645	0.158944	0.164851	0.136297	0.132872	0.344173	0.185497	0.147265	0.246686	0.242440	0.242459
34	0.101449	0.177729	0.249136	0.289048	0.120758	0.364142	0.575733	0.353310	0.075697	0.093155	0.238618	0.642505	0.093743	0.130554	0.244396	0.434302	0.219706	0.166260	0.434628	0.365491	0.247121	0.247477	0.507152	0.541511	0.167699	0.129541	0.213650	0.189921	0.126602	0.698309	0.408273	0.222186	0.092868	0.100394	0.327589	0.253863	0.107273	0.386777	0.287248	0.298376	0.220060	0.163810	0.276917	0.212945	0.091338	0.105667	0.289012	0.158155	0.118778	0.140467	0.307408	0.888215	0.093334	0.148956	0.133998	0.298158	0.152065	0.211187	0.385573	0.895321	0.139501	0.289192	0.159900	0.190010	0.129105	0.144090	0.334719	0.183636	0.146148	0.221358	0.239611	0.247150
35	0.091098	0.181553	0.249304	0.309600	0.122004	0.376287	0.609511	0.352371	0.048278	0.134059	0.212317	0.358666	0.094426	0.152430	0.225027	0.412448	0.224573	0.130223	0.553690	0.465824	0.271909	0.224687	0.430376	0.559330	0.113491	0.145329	0.203749	0.163644	0.126511	0.639486	0.407621	0.202663	0.084278	0.115070	0.333097	0.251384	0.110479	0.304530	0.286383	0.298034	0.145813	0.173345	0.273707	0.212403	0.090948	0.106202	0.270077	0.117965	0.136937	0.101550	0.359067	1.025697	0.092437	0.142079	0.125023	0.314493	0.137277	0.229352	0.364828	0.663711	0.142166	0.312722	0.155882	0.206943	0.127479	0.163423	0.365474	0.204156	0.134533	0.200324	0.238985	0.255286
36	0.045863	0.183950	0.231597	0.327982	0.125227	0.384576	0.616927	0.353456	0.087146	0.174020	0.195839	0.408690	0.093944	0.165075	0.235508	0.379783	0.221934	0.078508	0.557957	0.551766	0.307498	0.193926	0.450732	0.575759	0.073888	0.145347	0.198760	0.164483	0.125932	0.560053	0.406853	0.213297	0.078049	0.122657	0.326495	0.238570	0.116765	0.241574	0.283982	0.297277	0.107450	0.191851	0.271102	0.207462	0.087035	0.104325	0.258902	0.088635	0.138113	0.065667	0.435689	1.113621	0.090067	0.142540	0.120769	0.317120	0.136887	0.241755	0.283481	0.499788	0.141231	0.354644	0.154585	0.207113	0.123624	0.174386	0.394490	0.214908	0.123510	0.195339	0.236701	0.260394
37	0.033971	0.179741	0.273730	0.319535	0.127887	0.382930	0.615542	0.353534	0.096538	0.204996	0.252394	0.451065	0.081539	0.171910	0.248503	0.347934	0.215778	0.053396	0.587894	0.567274	0.300196	0.165761	0.475806	0.708978	0.067526	0.140542	0.198799	0.165237	0.125999	0.490571	0.362187	0.207402	0.086350	0.125493	0.359010	0.285208	0.121052	0.235458	0.283277	0.295445	0.097982	0.204138	0.305314	0.208124	0.083430	0.099667	0.252775	0.093935	0.133174	0.057466	0.445348	1.207897	0.091937	0.147808	0.126523	0.316342	0.119837	0.242528	0.251143	0.454220	0.142832	0.394018	0.149295	0.206733	0.116341	0.176222	0.399399	0.223823	0.119750	0.197248	0.251745	0.263423
38	0.037111	0.160732	0.293017	0.403317	0.127339	0.366914	0.605511	0.353365	0.103914	0.218254	0.438144	0.436914	0.073591	0.176183	0.337310	0.365970	0.206593	0.041944	0.600183	0.508363	0.274854	0.142994	0.483985	0.776236	0.038547	0.137533	0.217801	0.158404	0.127338	0.470355	0.330506	0.201195	0.086205	0.119436	0.363990	0.270314	0.122641	0.253622	0.275929	0.293008	0.097601	0.211806	0.318998	0.208153	0.083222	0.099671	0.242121	0.103127	0.121528	0.063998	0.441177	1.220703	0.100062	0.150537	0.132341	0.309870	0.120640	0.248991	0.300567	0.434701	0.142063	0.415015	0.154065	0.206507	0.114119	0.167879	0.390662	0.230111	0.127576	0.200589	0.280738	0.269933
39	0.067985	0.143267	0.522611	0.642669	0.127961	0.341166	0.584167	0.358749	0.108066	0.216078	0.470628	0.418924	0.072523	0.179529	0.389479	0.369553	0.141994	0.038407	0.566633	0.487894	0.250921	0.121406	0.510914	0.841414	0.042160	0.139921	0.193381	0.161801	0.115155	0.472315	0.325351	0.193586	0.083018	0.117036	0.315523	0.257042	0.121297	0.260667	0.248840	0.248946	0.093358	0.214100	0.334365	0.208509	0.080620	0.101875	0.251761	0.105723	0.099359	0.072333	0.452570	1.119452	0.101687	0.151241	0.154810	0.307806	0.121685	0.404612	0.394728	0.499801	0.134480	0.427039	0.161868	0.204664	0.111901	0.153610	0.394682	0.227710	0.128913	0.202303	0.262614	0.257884
40	0.095127	0.119704	0.670531	0.659475	0.127900	0.306543	0.559814	0.357801	0.112059	0.206059	0.501902	0.605601	0.068916	0.181779	0.393012	0.387682	0.132973	0.039547	0.551463	0.489613	0.249680	0.098347	0.537075	0.856957	0.041296	0.147156	0.174483	0.169124	0.083152	0.467190	0.323462	0.201042	0.076520	0.117723	0.310681	0.277862	0.112698	0.258466	0.241741	0.227466	0.091808	0.208539	0.341635	0.206567	0.080605	0.104486	0.238299	0.106526	0.096110	0.081248	0.453211	1.050013	0.100085	0.151267	0.159121	0.293103	0.112170	0.724131	0.432706	0.549675	0.127207	0.435182	0.171297	0.216246	0.109181	0.146787	0.395101	0.228320	0.121407	0.198751	0.238007	0.197265
41	0.102001	0.099277	0.672141	0.659626	0.126043	0.285861	0.486942	0.336886	0.110388	0.195284	0.510882	0.634634	0.066852	0.184370	0.406876	0.390784	0.083509	0.044943	0.483525	0.580941	0.212197	0.079895	0.505947	0.746533	0.043043	0.152343	0.241654	0.187287	0.079732	0.445028	0.295746	0.230492	0.078726	0.116237	0.413483	0.366464	0.104606	0.256094	0.263178	0.251173	0.109331	0.192194	0.344630	0.189035	0.082985	0.105055	0.202654	0.105912	0.091371	0.081940	0.427939	1.031407	0.090291	0.151132	0.154919	0.289777	0.104739	1.038316	0.448492	0.517479	0.101883	0.442253	0.171162	0.241901	0.107779	0.145672	0.386395	0.265994	0.103286	0.190109	0.242286	0.171331
42	0.121890	0.098197	0.687153	0.701956	0.113857	0.282750	0.412177	0.307559	0.089641	0.183846	0.578275	0.651585	0.067455	0.184327	0.403174	0.387683	0.057205	0.046435	0.515217	0.716904	0.208978	0.071159	0.514723	0.731162	0.049719	0.153140	0.300908	0.259595	0.062256	0.409300	0.288663	0.266126	0.078970	0.109512	0.512517	0.372124	0.103283	0.254783	0.310434	0.253231	0.114635	0.176769	0.329819	0.249520	0.092391	0.103929	0.190567	0.113382	0.096915	0.079470	0.415728	1.038538	0.080542	0.152811	0.195818	0.292998	0.076124	1.197339	0.548071	0.460536	0.089037	0.437563	0.174721	0.264694	0.125621	0.143027	0.351294	0.303907	0.093007	0.179504	0.273824	0.229361
43	0.126197	0.082613	0.690170	0.757881	0.097179	0.284768	0.389643	0.334956	0.079274	0.185022	0.615554	0.624524	0.068027	0.179272	0.394710	0.346028	0.059806	0.046101	0.555022	0.667364	0.190860	0.080139	0.516789	0.743158	0.051043	0.142151	0.297090	0.293537	0.066984	0.360854	0.307412	0.294490	0.075776	0.091732	0.521249	0.377504	0.101767	0.253986	0.421330	0.257602	0.116468	0.175032	0.296238	0.227735	0.096297	0.100981	0.169910	0.132704	0.065593	0.075485	0.324379	0.888921	0.079989	0.156064	0.279807	0.282320	0.083989	1.207796	0.601045	0.436956	0.086642	0.431127	0.178639	0.261051	0.147512	0.134009	0.320086	0.305789	0.091222	0.166262	0.274292	0.250659
44	0.167574	0.059794	0.686696	0.796755	0.090903	0.281091	0.388153	0.346141	0.079635	0.224658	0.500516	0.627426	0.067922	0.170126	0.394788	0.328998	0.061071	0.042456	0.578490	0.661853	0.104546	0.109287	0.506817	0.752493	0.052274	0.118656	0.303156	0.330061	0.066573	0.308864	0.289286	0.299869	0.067176	0.068548	0.608001	0.384798	0.101137	0.252515	0.426186	0.311467	0.125405	0.181208	0.289987	0.287239	0.095850	0.096377	0.185487	0.344761	0.097932	0.072202	0.277448	0.762717	0.079296	0.158412	0.284132	0.248445	0.088212	1.266403	0.616545	0.393861	0.064852	0.430120	0.169304	0.261275	0.160370	0.115758	0.313359	0.305211	0.087324	0.152294	0.282098	0.252384
45	0.189253	0.044356	0.688240	0.808513	0.072612	0.269287	0.386203	0.319272	0.139484	0.293005	0.495607	0.659866	0.048736	0.155200	0.394785	0.316842	0.057172	0.042264	0.664079	0.817447	0.108617	0.129493	0.477618	0.634146	0.055407	0.097030	0.315961	0.372670	0.065196	0.259365	0.306477	0.326609	0.078957	0.053847	0.629709	0.424505	0.101722	0.246715	0.448419	0.375556	0.126317	0.184247	0.312154	0.338589	0.098528	0.091555	0.197929	0.581076	0.116818	0.071806	0.300895	0.624991	0.078081	0.158631	0.301687	0.266577	0.086063	1.407132	0.606383	0.396803	0.065035	0.430265	0.193017	0.256066	0.273248	0.088341	0.271116	0.316393	0.072033	0.137733	0.291773	0.252382
46	0.191162	0.040800	0.687719	0.818551	0.062915	0.251790	0.440386	0.390149	0.155506	0.366656	0.482521	0.515468	0.036948	0.133385	0.389572	0.322164	0.063260	0.045829	0.693746	0.856110	0.172087	0.135481	0.450975	0.541515	0.062974	0.089284	0.324071	0.413620	0.065323	0.212414	0.326117	0.382762	0.071983	0.048740	0.620829	0.472734	0.100896	0.233735	0.560406	0.374406	0.126473	0.174770	0.323741	0.338826	0.100501	0.088196	0.205998	0.613416	0.137770	0.075271	0.310816	0.590286	0.095650	0.160290	0.329379	0.310197	0.076069	1.528896	0.581788	0.400276	0.068283	0.422176	0.216890	0.289820	0.364276	0.070501	0.234247	0.487049	0.071088	0.123342	0.314261	0.253882
47	0.192875	0.040825	0.678072	0.810236	0.060733	0.226685	0.479194	0.511343	0.157835	0.429398	0.532886	0.439653	0.033135	0.116198	0.381520	0.327530	0.070862	0.054468	0.722485	0.871116	0.312091	0.138502	0.355648	0.455558	0.075046	0.090398	0.322001	0.482638	0.065468	0.170813	0.316958	0.375245	0.077948	0.052693	0.604636	0.503899	0.099162	0.215898	0.742852	0.375196	0.126849	0.160240	0.369153	0.338199	0.102365	0.080368	0.204149	0.614493	0.162592	0.075262	0.286662	0.599203	0.099671	0.169656	0.345979	0.305826	0.076829	1.537798	0.567556	0.352841	0.067213	0.399019	0.222828	0.452441	0.365322	0.062504	0.229532	0.726016	0.084857	0.112310	0.443979	0.252762
48	0.238002	0.040202	0.630239	0.660638	0.058888	0.197491	0.471811	0.660825	0.156065	0.447649	0.463853	0.314228	0.033287	0.108737	0.371878	0.328748	0.071727	0.051930	0.739471	0.869985	0.334825	0.140844	0.312973	0.384450	0.095073	0.089606	0.312187	0.519504	0.065064	0.139701	0.358233	0.371446	0.073488	0.058455	0.593341	0.497985	0.099971	0.192577	0.845611	0.409917	0.127657	0.156113	0.358619	0.341202	0.102340	0.071134	0.205176	0.648061	0.163378	0.084099	0.281040	0.563384	0.102567	0.186060	0.346591	0.316181	0.083210	1.409745	0.548716	0.286914	0.064430	0.358613	0.248493	0.522789	0.361147	0.061985	0.231421	0.774265	0.093874	0.100709	0.542494	0.248645
49	0.317602	0.037966	0.395876	0.554804	0.048619	0.169335	0.472227	0.697206	0.161492	0.447843	0.388847	0.320710	0.034597	0.112405	0.388380	0.314276	0.074733	0.047050	0.689125	0.739088	0.352297	0.143368	0.230535	0.359473	0.103961	0.085911	0.311766	0.540399	0.060881	0.121979	0.413509	0.393597	0.070317	0.060067	0.595334	0.472576	0.092385	0.161494	0.865954	0.437153	0.129413	0.157248	0.352798	0.371815	0.104427	0.064160	0.208291	0.758219	0.162290	0.102658	0.277875	0.398768	0.102590	0.212385	0.349977	0.384378	0.092081	1.218693	0.495291	0.282806	0.066307	0.309349	0.283671	0.533268	0.487200	0.065179	0.243904	0.779644	0.093758	0.089564	0.552009	0.246629
50	0.321484	0.034243	0.363349	0.569763	0.047049	0.146448	0.544950	0.698368	0.160697	0.461719	0.383721	0.349087	0.034328	0.129790	0.349891	0.369303	0.069985	0.045425	0.634101	0.723590	0.406685	0.144741	0.211836	0.314591	0.117116	0.077365	0.301862	0.557489	0.050927	0.110825	0.505216	0.398000	0.066446	0.060665	0.504568	0.414719	0.090999	0.122931	0.877812	0.466450	0.129122	0.163742	0.323255	0.451979	0.100759	0.061844	0.195401	0.849363	0.158616	0.126333	0.360110	0.377463	0.102596	0.249184	0.349451	0.422655	0.092209	1.138296	0.356742	0.284715	0.066766	0.255900	0.307750	0.537355	0.607960	0.072711	0.256589	0.850528	0.088581	0.088656	0.584429	0.316078
51	0.348228	0.032547	0.354932	0.567345	0.046857	0.124345	0.692005	0.699261	0.123988	0.475010	0.357037	0.304126	0.038029	0.150177	0.334916	0.397408	0.076718	0.049333	0.602604	0.725449	0.441774	0.139248	0.196601	0.289992	0.125778	0.072980	0.231639	0.548512	0.050298	0.108202	0.533248	0.396774	0.073153	0.059710	0.464375	0.498083	0.085788	0.089879	0.902525	0.530916	0.115932	0.170212	0.332324	0.531660	0.095368	0.059768	0.231267	0.880912	0.155129	0.146834	0.556513	0.460185	0.101101	0.294603	0.345427	0.432932	0.085550	1.125131	0.359563	0.287732	0.065258	0.211146	0.306085	0.537089	0.618990	0.077949	0.255506	0.960858	0.079945	0.091034	0.628980	0.359535
52	0.387152	0.033847	0.351992	0.547199	0.052881	0.109387	0.742586	0.699444	0.094293	0.511069	0.339605	0.336712	0.043086	0.170303	0.326026	0.394438	0.081524	0.057635	0.468221	0.570364	0.470471	0.116740	0.174245	0.213208	0.127284	0.069975	0.168458	0.522527	0.054900	0.108496	0.536627	0.396011	0.082022	0.061715	0.460007	0.695714	0.080322	0.068340	0.914286	0.550656	0.102485	0.172046	0.322189	0.550127	0.094765	0.060132	0.286410	0.894004	0.126861	0.159487	0.589758	0.458748	0.100641	0.334970	0.335230	0.422453	0.081979	1.008995	0.334344	0.285011	0.066951	0.171096	0.303760	0.546437	0.615898	0.083391	0.230308	1.021592	0.078419	0.095997	0.680193	0.380355
53	0.384365	0.057963	0.353104	0.496186	0.066692	0.102043	0.737758	0.711524	0.097551	0.537419	0.221631	0.368581	0.049696	0.188708	0.306345	0.388235	0.074603	0.072431	0.411536	0.490719	0.508241	0.085095	0.115440	0.216552	0.136997	0.068496	0.196933	0.522517	0.063722	0.109040	0.531399	0.384008	0.084844	0.064613	0.353632	0.700292	0.088529	0.058092	0.909669	0.537393	0.096500	0.169934	0.317181	0.526242	0.082761	0.061487	0.317360	0.894842	0.122695	0.157416	0.623184	0.460683	0.105486	0.374525	0.332834	0.417134	0.084020	0.785128	0.334337	0.281515	0.069529	0.141333	0.329324	0.567777	0.613404	0.087104	0.242727	1.046932	0.078724	0.105282	0.713485	0.471714
54	0.375212	0.090729	0.349913	0.449800	0.063873	0.099462	0.738639	0.748185	0.095444	0.569284	0.248836	0.409275	0.048778	0.207466	0.315062	0.414260	0.069558	0.107247	0.351666	0.528903	0.679096	0.065994	0.100789	0.217565	0.144583	0.069383	0.193926	0.497680	0.055969	0.106597	0.514006	0.375861	0.077753	0.063654	0.311264	0.680742	0.092348	0.059707	0.900981	0.558174	0.078247	0.167011	0.322751	0.522918	0.079456	0.061834	0.312835	0.891340	0.063741	0.179175	0.696245	0.480707	0.108240	0.409883	0.335763	0.414878	0.099681	0.550318	0.268840	0.278470	0.069091	0.122978	0.377519	0.578314	0.607834	0.089768	0.243551	1.058727	0.078672	0.116855	0.720205	0.523533
55	0.375394	0.131608	0.352252	0.430113	0.062537	0.105368	0.738092	0.760095	0.086372	0.569620	0.252301	0.412018	0.053130	0.225415	0.348883	0.461147	0.070665	0.191895	0.334037	0.534252	0.661505	0.057021	0.102373	0.190954	0.153982	0.068347	0.180058	0.487076	0.056127	0.099343	0.507827	0.379285	0.077380	0.062033	0.310810	0.658824	0.088759	0.066864	0.866073	0.569400	0.072469	0.164704	0.312337	0.499168	0.080543	0.061681	0.290431	0.827046	0.057153	0.285036	0.730437	0.572867	0.108532	0.441253	0.321162	0.413467	0.107668	0.383019	0.237651	0.386696	0.066179	0.112638	0.397428	0.573011	0.562403	0.089615	0.246708	1.050946	0.077758	0.127179	0.708337	0.537319
56	0.377624	0.180312	0.350804	0.415457	0.061272	0.117558	0.751961	0.763026	0.083516	0.539802	0.314402	0.384009	0.056439	0.245040	0.354634	0.477489	0.071914	0.223693	0.232143	0.519370	0.648272	0.051112	0.101136	0.174986	0.149895	0.069706	0.173259	0.470461	0.050184	0.090552	0.497717	0.353125	0.073078	0.066474	0.525535	0.665774	0.102272	0.081703	0.854745	0.558172	0.075879	0.170200	0.335169	0.512762	0.077039	0.059222	0.281583	0.692433	0.055153	0.314149	0.745734	0.598218	0.110227	0.466511	0.303913	0.416711	0.129711	0.290093	0.251411	0.443405	0.062655	0.108376	0.394969	0.589770	0.516049	0.085497	0.229045	0.990277	0.079799	0.136839	0.716548	0.552544
57	0.371136	0.227058	0.383758	0.411172	0.066067	0.133127	0.780360	0.784746	0.063206	0.496632	0.330983	0.365155	0.056466	0.264610	0.357682	0.469712	0.075127	0.228648	0.267997	0.498495	0.648732	0.046259	0.097849	0.275140	0.149328	0.073237	0.213959	0.408033	0.051586	0.083235	0.486232	0.289508	0.085768	0.092827	0.652561	0.679028	0.110528	0.104050	0.854697	0.508934	0.096834	0.189273	0.351107	0.550052	0.074385	0.054896	0.277750	0.673711	0.049509	0.317627	0.733417	0.592907	0.105820	0.479789	0.316712	0.416606	0.145146	0.252829	0.251782	0.495953	0.062857	0.108471	0.389806	0.618375	0.514660	0.080045	0.221892	0.877809	0.087255	0.146380	0.726305	0.557308
58	0.298379	0.264403	0.434551	0.410241	0.071894	0.147016	0.745890	0.766999	0.058586	0.414653	0.323868	0.324630	0.058287	0.280594	0.358452	0.478483	0.060479	0.229131	0.277425	0.505395	0.628890	0.037499	0.094964	0.307416	0.136218	0.085988	0.281276	0.363330	0.052362	0.076300	0.481927	0.280305	0.089832	0.124613	0.666138	0.695752	0.119600	0.124244	0.811685	0.483061	0.102271	0.212503	0.303874	0.558466	0.072192	0.051214	0.280528	0.677369	0.061496	0.308475	0.667176	0.494921	0.097978	0.480248	0.293601	0.380226	0.142738	0.257543	0.221201	0.651110	0.061702	0.112926	0.376549	0.632336	0.509336	0.074158	0.232054	0.891230	0.093145	0.155314	0.728647	0.557342
59	0.266166	0.287315	0.480465	0.396998	0.071951	0.161269	0.688506	0.697550	0.039378	0.321647	0.317549	0.279900	0.063899	0.297288	0.358461	0.481406	0.051185	0.234250	0.273057	0.585220	0.597080	0.042421	0.092624	0.380445	0.134253	0.101623	0.293825	0.324838	0.078537	0.067249	0.448400	0.282626	0.087141	0.170876	0.653451	0.690708	0.121444	0.148401	0.687644	0.490979	0.113768	0.240922	0.352403	0.559998	0.093029	0.048353	0.280118	0.645023	0.081758	0.300149	0.536000	0.468111	0.082855	0.480181	0.252851	0.360967	0.142527	0.255077	0.210710	0.672673	0.060453	0.121241	0.362202	0.618185	0.357354	0.072016	0.240570	0.920615	0.088580	0.163189	0.710970	0.559196
60	0.259272	0.292137	0.476056	0.369262	0.067359	0.176211	0.683159	0.558209	0.034059	0.233104	0.289229	0.207585	0.076064	0.310881	0.336675	0.478360	0.050383	0.242248	0.264544	0.620533	0.593044	0.052746	0.088057	0.378930	0.147520	0.117377	0.295349	0.303447	0.088704	0.058063	0.392779	0.249879	0.082021	0.217719	0.634056	0.579029	0.118774	0.164732	0.504234	0.487787	0.125977	0.265347	0.562813	0.551230	0.122108	0.045833	0.270842	0.511723	0.085337	0.296695	0.515490	0.466253	0.082309	0.515231	0.240470	0.373130	0.147080	0.237260	0.245515	0.674226	0.059902	0.133611	0.356550	0.512215	0.135997	0.070885	0.254292	0.879886	0.076257	0.166587	0.625251	0.557581
61	0.177071	0.296380	0.514309	0.319652	0.073782	0.187389	0.682706	0.499946	0.035891	0.233543	0.311684	0.277555	0.086968	0.318677	0.238691	0.446032	0.050013	0.247764	0.262153	0.600517	0.555758	0.069160	0.122919	0.385295	0.164198	0.131631	0.307265	0.300365	0.089188	0.051394	0.300260	0.268216	0.071339	0.253147	0.616139	0.385254	0.115861	0.175902	0.417468	0.467893	0.155714	0.285375	0.637198	0.491962	0.134842	0.043422	0.268684	0.381596	0.088722	0.295039	0.399076	0.467784	0.079783	0.587201	0.241236	0.347909	0.149707	0.207478	0.262918	0.663982	0.054597	0.150919	0.341324	0.420287	0.111631	0.072331	0.278051	0.748002	0.070984	0.167136	0.560477	0.563927
62	0.135389	0.334296	0.545456	0.264403	0.078093	0.198895	0.635457	0.501392	0.052086	0.258218	0.241858	0.278764	0.092909	0.322986	0.220724	0.383544	0.071757	0.214876	0.240774	0.519604	0.336375	0.079694	0.176402	0.385023	0.172023	0.138730	0.334669	0.293858	0.089084	0.043786	0.264943	0.322851	0.070353	0.274628	0.621080	0.400590	0.116116	0.181650	0.408469	0.445361	0.158007	0.301442	0.630358	0.414690	0.160201	0.044000	0.243560	0.326129	0.096730	0.250626	0.299053	0.394870	0.079583	0.690039	0.233636	0.272307	0.151052	0.172341	0.255995	0.635015	0.053219	0.172481	0.314181	0.405207	0.103673	0.078202	0.295765	0.714320	0.072315	0.166481	0.552137	0.572812
63	0.122202	0.455535	0.547551	0.265310	0.083304	0.209507	0.471316	0.499123	0.050384	0.272688	0.209604	0.294754	0.091998	0.323441	0.220563	0.364474	0.082204	0.193307	0.218386	0.494814	0.235931	0.083368	0.185514	0.435320	0.166698	0.142634	0.344331	0.265155	0.086367	0.042098	0.264453	0.337675	0.065462	0.277720	0.651894	0.386541	0.116362	0.183203	0.349144	0.378247	0.157687	0.313665	0.642359	0.407958	0.210215	0.042728	0.176952	0.290501	0.094707	0.144407	0.225122	0.238909	0.072409	0.813958	0.232058	0.230770	0.161323	0.134824	0.242131	0.545125	0.047750	0.189850	0.293353	0.406096	0.107589	0.082620	0.293430	0.703739	0.072166	0.162873	0.497231	0.535602
64	0.105391	0.591893	0.532281	0.303451	0.088553	0.220766	0.347108	0.501035	0.052935	0.269410	0.204024	0.332579	0.088587	0.318634	0.211828	0.362621	0.080008	0.195523	0.124221	0.503485	0.220723	0.085209	0.218553	0.459581	0.155710	0.145055	0.348968	0.265451	0.080533	0.042789	0.284688	0.330624	0.065711	0.303291	0.666903	0.331108	0.113012	0.183271	0.296088	0.306776	0.157540	0.318742	0.647940	0.417432	0.330749	0.041034	0.180507	0.289117	0.112224	0.064726	0.219317	0.208449	0.069619	0.960212	0.235425	0.231245	0.178027	0.114850	0.232046	0.532142	0.047372	0.208809	0.297780	0.412831	0.126327	0.085237	0.394554	0.696050	0.072997	0.157212	0.429649	0.530443
65	0.096276	0.636185	0.518597	0.342669	0.078011	0.225811	0.344056	0.484708	0.053026	0.245252	0.197642	0.372887	0.088822	0.308310	0.213413	0.343174	0.090450	0.199029	0.081056	0.476624	0.182376	0.084668	0.220195	0.435261	0.151771	0.146136	0.366300	0.364817	0.086479	0.045237	0.271628	0.325526	0.076611	0.439471	0.475675	0.307650	0.106027	0.182146	0.285412	0.297682	0.155281	0.319142	0.650196	0.413014	0.344661	0.041297	0.220262	0.338604	0.153250	0.053935	0.232741	0.258675	0.067197	1.113834	0.246091	0.260295	0.201123	0.110250	0.226759	0.426788	0.047563	0.230616	0.296602	0.408028	0.122142	0.088723	0.456984	0.689050	0.076861	0.153525	0.343947	0.500523
66	0.085902	0.641459	0.505961	0.351684	0.076956	0.224325	0.353029	0.415342	0.052260	0.216313	0.193066	0.402551	0.087333	0.295014	0.157513	0.268820	0.097996	0.192365	0.077185	0.366420	0.175366	0.084134	0.219033	0.418678	0.163849	0.145437	0.393663	0.399075	0.088057	0.044606	0.247738	0.350279	0.070409	0.496301	0.354608	0.281360	0.099239	0.180217	0.282941	0.257346	0.148629	0.314673	0.646807	0.391535	0.348132	0.041234	0.221322	0.347317	0.174024	0.054699	0.240888	0.276756	0.062530	1.238343	0.248276	0.283600	0.203929	0.118212	0.208708	0.166818	0.070510	0.253384	0.264272	0.375842	0.120302	0.093569	0.502132	0.643458	0.079919	0.154598	0.289376	0.416891
67	0.089826	0.629192	0.493815	0.354112	0.076986	0.219263	0.377146	0.366294	0.053188	0.182729	0.113474	0.379742	0.093172	0.285375	0.106748	0.192673	0.099486	0.177878	0.069497	0.272693	0.160201	0.082263	0.231412	0.346778	0.183378	0.141718	0.366626	0.471358	0.096120	0.043578	0.242305	0.369981	0.080138	0.525866	0.350015	0.271576	0.098515	0.177895	0.276360	0.219421	0.141346	0.302254	0.639469	0.347056	0.348518	0.042064	0.227136	0.347089	0.184097	0.052304	0.244810	0.282879	0.061097	1.311778	0.240053	0.303144	0.208272	0.141581	0.219439	0.154340	0.122822	0.280728	0.189801	0.340906	0.118645	0.095850	0.501346	0.622250	0.080696	0.169844	0.295209	0.347822
68	0.082593	0.617946	0.444276	0.357193	0.077150	0.221508	0.396696	0.342444	0.029064	0.145651	0.093408	0.422994	0.094753	0.291284	0.099105	0.189206	0.100068	0.152799	0.057653	0.224179	0.139285	0.081647	0.252363	0.338534	0.189452	0.131294	0.326582	0.584193	0.099003	0.041715	0.252395	0.375715	0.085363	0.516387	0.353302	0.273642	0.086400	0.175740	0.268027	0.207649	0.131051	0.283847	0.632146	0.298074	0.348710	0.044057	0.229711	0.337398	0.213142	0.053110	0.322670	0.333537	0.060247	1.336319	0.209502	0.302604	0.215550	0.177680	0.149006	0.157739	0.180976	0.306592	0.127517	0.334853	0.120177	0.096525	0.502491	0.560780	0.081967	0.194201	0.298875	0.299805
69	0.071924	0.616434	0.427891	0.357326	0.077125	0.240388	0.331069	0.279508	0.028345	0.109809	0.107496	0.437145	0.116945	0.331904	0.093436	0.232881	0.084361	0.120248	0.055317	0.248356	0.115242	0.072062	0.256888	0.352880	0.189316	0.116779	0.330065	0.604141	0.107310	0.038440	0.259948	0.377213	0.083511	0.498250	0.353000	0.269139	0.071328	0.179994	0.378332	0.216287	0.125544	0.266381	0.657243	0.298839	0.348736	0.047285	0.267212	0.329637	0.238111	0.051443	0.369376	0.373070	0.053471	1.334506	0.290981	0.297190	0.218418	0.205067	0.123681	0.173723	0.213230	0.333457	0.122225	0.316009	0.116601	0.093395	0.506828	0.488273	0.079584	0.224264	0.268799	0.268859
70	0.064079	0.619093	0.416715	0.356483	0.076228	0.272083	0.291203	0.189959	0.031596	0.086451	0.112712	0.424154	0.123558	0.412680	0.110371	0.242599	0.072359	0.089679	0.053959	0.232347	0.115435	0.062720	0.220421	0.347610	0.163435	0.098481	0.357953	0.603952	0.091528	0.042100	0.262741	0.376120	0.083160	0.484182	0.351870	0.249075	0.051979	0.203311	0.468445	0.229404	0.116301	0.281198	0.614477	0.302304	0.343455	0.058166	0.314773	0.323889	0.261935	0.044653	0.371218	0.381340	0.058275	1.330921	0.428741	0.300891	0.272381	0.220067	0.135259	0.165205	0.248942	0.362579	0.131763	0.266135	0.119670	0.088599	0.505284	0.485641	0.075131	0.249606	0.231311	0.265726
71	0.056349	0.614607	0.393427	0.317929	0.074790	0.309144	0.322217	0.177046	0.053515	0.082320	0.149592	0.411007	0.124864	0.527846	0.116088	0.250590	0.068204	0.064820	0.080070	0.214000	0.109440	0.055209	0.227198	0.293341	0.146488	0.092055	0.384763	0.614355	0.082982	0.046152	0.259791	0.370664	0.081801	0.476860	0.354365	0.203263	0.048493	0.248922	0.467982	0.215581	0.095152	0.417222	0.436934	0.318088	0.333648	0.078806	0.329265	0.314229	0.456948	0.042031	0.396015	0.366987	0.068173	1.342965	0.486359	0.316846	0.299036	0.220574	0.155835	0.161277	0.272999	0.384762	0.161747	0.224913	0.134535	0.090716	0.485255	0.479364	0.069306	0.272199	0.231951	0.267156
72	0.056611	0.571709	0.384401	0.334261	0.074327	0.342132	0.365268	0.174333	0.057084	0.087309	0.155205	0.379180	0.111876	0.675994	0.185564	0.295232	0.053891	0.055150	0.109721	0.209139	0.104209	0.055075	0.221143	0.236929	0.136271	0.135236	0.361224	0.621970	0.082031	0.051496	0.241452	0.354505	0.081714	0.476042	0.326725	0.239739	0.054184	0.295369	0.505210	0.177147	0.070802	0.545385	0.410875	0.327798	0.329336	0.096843	0.375916	0.271325	0.533229	0.040817	0.392008	0.340801	0.076924	1.377447	0.491383	0.322049	0.332203	0.215238	0.173343	0.152198	0.278340	0.394940	0.193935	0.221727	0.194854	0.120239	0.481520	0.405493	0.063911	0.291215	0.248602	0.276605
73	0.055780	0.416360	0.408782	0.327423	0.068242	0.374064	0.370595	0.175580	0.058847	0.093249	0.160539	0.351796	0.110004	0.825673	0.262549	0.311495	0.040676	0.066166	0.118939	0.205516	0.104444	0.062828	0.215706	0.225879	0.134401	0.245275	0.357884	0.632863	0.081821	0.054959	0.233559	0.312440	0.081247	0.442947	0.279837	0.309410	0.054771	0.334736	0.545003	0.149537	0.069018	0.608317	0.499855	0.329877	0.318187	0.110663	0.388300	0.252736	0.528441	0.042239	0.396850	0.334101	0.078852	1.430953	0.488564	0.304399	0.352830	0.214703	0.179086	0.145780	0.294481	0.393413	0.213785	0.233822	0.208574	0.200741	0.503516	0.380667	0.061180	0.309274	0.252202	0.304044
74	0.055694	0.302485	0.413425	0.301855	0.063358	0.402949	0.385706	0.181772	0.071220	0.093926	0.208267	0.301149	0.107616	0.959842	0.266548	0.333546	0.039198	0.081326	0.166956	0.206886	0.104366	0.076121	0.235322	0.193524	0.139295	0.304264	0.360088	0.620486	0.082225	0.054579	0.237015	0.288142	0.063941	0.302952	0.287002	0.308445	0.087114	0.358308	0.553635	0.138281	0.068803	0.634943	0.569078	0.315154	0.282274	0.118696	0.389685	0.274988	0.524852	0.053911	0.388594	0.384691	0.081583	1.508917	0.496031	0.301354	0.355864	0.225386	0.184042	0.132703	0.325971	0.391789	0.216679	0.230688	0.199991	0.229419	0.435076	0.367534	0.061654	0.327011	0.284318	0.303586
75	0.062889	0.225867	0.405755	0.279703	0.056826	0.424842	0.447802	0.208341	0.098357	0.085176	0.194665	0.264703	0.109087	1.065018	0.276159	0.383995	0.053699	0.089065	0.301016	0.237133	0.098278	0.089925	0.247714	0.232676	0.148021	0.327708	0.367415	0.543233	0.084357	0.054472	0.233682	0.296050	0.060043	0.197477	0.281412	0.290021	0.106385	0.369453	0.554176	0.148630	0.079999	0.639293	0.567507	0.309983	0.126317	0.120812	0.368520	0.325080	0.517942	0.061397	0.383352	0.383640	0.081363	1.591845	0.505356	0.303783	0.449009	0.233302	0.184722	0.140133	0.330041	0.416910	0.220479	0.248842	0.217192	0.228623	0.368342	0.385522	0.059815	0.339317	0.314889	0.286215
76	0.061172	0.211289	0.405460	0.286920	0.042861	0.438783	0.486624	0.211108	0.129833	0.078007	0.205033	0.254889	0.109373	1.139867	0.322709	0.399037	0.059005	0.095028	0.326675	0.227147	0.094808	0.103805	0.290044	0.276034	0.157190	0.329772	0.390480	0.550035	0.084600	0.053176	0.237496	0.299824	0.041293	0.115689	0.303679	0.277006	0.107233	0.371586	0.556533	0.196785	0.106770	0.638826	0.585003	0.307019	0.097891	0.120796	0.355941	0.328049	0.511128	0.063031	0.266200	0.338676	0.081411	1.612827	0.506776	0.294093	0.489886	0.233254	0.198754	0.117903	0.338860	0.492425	0.223812	0.246319	0.224382	0.233825	0.337935	0.364043	0.060608	0.346378	0.306409	0.274181
77	0.078927	0.214600	0.377997	0.337132	0.041675	0.446139	0.504159	0.206675	0.179438	0.072041	0.210166	0.216932	0.108073	1.181644	0.373580	0.398899	0.058938	0.097167	0.384242	0.266219	0.066271	0.115523	0.292811	0.276712	0.143639	0.329824	0.434124	0.544181	0.086895	0.052757	0.274709	0.257809	0.035733	0.107883	0.342449	0.282938	0.110229	0.371878	0.561076	0.228271	0.114620	0.640680	0.609238	0.388385	0.086871	0.120979	0.375009	0.320588	0.513754	0.062101	0.238379	0.310644	0.084735	1.567546	0.510868	0.267752	0.477905	0.235179	0.203627	0.193281	0.343124	0.606786	0.236602	0.233286	0.324499	0.251615	0.372225	0.344680	0.056731	0.348225	0.312858	0.251387
78	0.082841	0.208199	0.344445	0.343768	0.043117	0.449809	0.498692	0.186922	0.208479	0.062048	0.292517	0.224596	0.118498	1.190506	0.403659	0.400631	0.071702	0.097093	0.424119	0.309440	0.063075	0.123725	0.315655	0.286806	0.165892	0.330781	0.442154	0.477610	0.078950	0.052785	0.292064	0.270752	0.037040	0.109646	0.345824	0.281246	0.109203	0.374151	0.562576	0.227585	0.115525	0.644944	0.619470	0.484281	0.087537	0.123272	0.377374	0.336994	0.468725	0.063648	0.210121	0.302512	0.084684	1.477066	0.512386	0.239580	0.442002	0.249036	0.200385	0.197249	0.444855	0.730626	0.243732	0.223380	0.368313	0.267828	0.365639	0.372151	0.049749	0.346851	0.356037	0.256938
79	0.079736	0.199157	0.379651	0.344469	0.050879	0.450711	0.515879	0.179401	0.244814	0.050877	0.308630	0.223334	0.122476	1.189573	0.407905	0.409739	0.082217	0.093839	0.426875	0.380770	0.063974	0.128843	0.308147	0.286170	0.188259	0.331902	0.468377	0.467320	0.076204	0.055820	0.280681	0.293015	0.036895	0.101103	0.335267	0.286141	0.109048	0.383021	0.563268	0.240501	0.118395	0.648427	0.606358	0.487020	0.087780	0.129989	0.391974	0.342028	0.260094	0.063777	0.182274	0.309365	0.085210	1.383058	0.520182	0.212622	0.407239	0.274348	0.213797	0.200210	0.485593	0.844426	0.256542	0.219335	0.376590	0.277150	0.334577	0.401391	0.052813	0.345991	0.374707	0.282497
80	0.078720	0.188054	0.371703	0.351302	0.066068	0.446933	0.508961	0.183741	0.247906	0.045813	0.301618	0.192881	0.116193	1.197109	0.410387	0.427606	0.082622	0.084763	0.423605	0.387195	0.060608	0.129189	0.287307	0.290679	0.188324	0.332997	0.536161	0.533236	0.069170	0.056435	0.273383	0.291905	0.036692	0.094112	0.316827	0.288381	0.108899	0.400739	0.554862	0.266374	0.124082	0.645345	0.586899	0.482097	0.096107	0.138614	0.395775	0.340385	0.190635	0.066045	0.285623	0.331988	0.084478	1.317953	0.530536	0.195379	0.378490	0.297760	0.204579	0.201370	0.488946	0.932786	0.298105	0.217885	0.386519	0.278217	0.339544	0.392455	0.053896	0.347887	0.358753	0.307819
81	0.078466	0.169537	0.358637	0.349214	0.064288	0.439099	0.501668	0.239227	0.240260	0.042748	0.299851	0.189801	0.095445	1.221753	0.433110	0.414794	0.081842	0.069928	0.408212	0.402583	0.061023	0.126453	0.282330	0.291179	0.188473	0.328359	0.545071	0.666757	0.071772	0.054985	0.272592	0.293876	0.039900	0.093557	0.273655	0.260138	0.108593	0.428302	0.500273	0.274188	0.121892	0.619877	0.579143	0.467898	0.096309	0.146466	0.373211	0.343260	0.191433	0.059973	0.324181	0.301327	0.085592	1.292332	0.528989	0.195045	0.409318	0.299062	0.215730	0.215631	0.476604	0.993583	0.304841	0.225223	0.393709	0.278195	0.412855	0.381757	0.053204	0.360621	0.361554	0.373226
82	0.078407	0.145491	0.348965	0.331359	0.060785	0.440308	0.512797	0.252947	0.225286	0.035185	0.290420	0.148992	0.096249	1.256865	0.465673	0.405718	0.081577	0.060015	0.353484	0.379699	0.064534	0.125718	0.269762	0.300965	0.188574	0.307573	0.563760	0.672849	0.072674	0.051762	0.274310	0.292075	0.039743	0.088467	0.326309	0.304019	0.109723	0.463370	0.398502	0.264515	0.111894	0.497816	0.583333	0.432569	0.099632	0.146146	0.361525	0.343511	0.197271	0.048522	0.330100	0.257565	0.085030	1.288640	0.485082	0.199090	0.439790	0.280213	0.220958	0.222396	0.463133	1.030642	0.316555	0.216867	0.364392	0.262841	0.440175	0.352072	0.049734	0.390192	0.421391	0.426534
83	0.078068	0.119396	0.326015	0.323076	0.060849	0.467014	0.514237	0.257262	0.186199	0.023950	0.268567	0.169195	0.097054	1.296884	0.469608	0.381767	0.082593	0.055504	0.323797	0.376165	0.056546	0.150814	0.261924	0.299534	0.195580	0.221518	0.623143	0.703371	0.083634	0.046991	0.279789	0.287245	0.035412	0.081448	0.339191	0.388913	0.115583	0.474233	0.384529	0.262400	0.111551	0.387548	0.555136	0.431673	0.103229	0.140029	0.309938	0.338732	0.196560	0.038748	0.334821	0.259416	0.087895	1.287097	0.430660	0.213990	0.368978	0.256965	0.203338	0.224719	0.445565	1.045974	0.318884	0.208548	0.358471	0.201918	0.436547	0.353472	0.042587	0.441130	0.444575	0.429474
84	0.069484	0.098934	0.321493	0.343125	0.061109	0.539240	0.501584	0.257550	0.157007	0.019006	0.186366	0.139263	0.097204	1.330110	0.449517	0.361990	0.091221	0.067513	0.281371	0.344390	0.055813	0.231826	0.187871	0.284373	0.190958	0.159005	0.622946	0.784675	0.105209	0.043100	0.284376	0.273260	0.040017	0.066923	0.331699	0.390802	0.116729	0.459289	0.364195	0.264451	0.112245	0.280773	0.471784	0.447234	0.104416	0.130120	0.289531	0.334369	0.153282	0.038442	0.360314	0.260371	0.078378	1.270192	0.398017	0.206761	0.360829	0.238232	0.216828	0.207432	0.430774	1.047032	0.306133	0.223565	0.370129	0.179710	0.496384	0.381457	0.042950	0.467471	0.432185	0.451655
85	0.068420	0.081789	0.306634	0.356828	0.063539	0.554526	0.500257	0.256269	0.105549	0.024191	0.155307	0.121080	0.097237	1.354764	0.435636	0.360170	0.148442	0.081697	0.234139	0.319363	0.052528	0.315254	0.156944	0.248859	0.182654	0.124161	0.629788	0.791310	0.108874	0.042786	0.288430	0.271023	0.041720	0.057048	0.296500	0.415671	0.116377	0.431106	0.285388	0.266056	0.113161	0.242480	0.420230	0.445168	0.104767	0.122505	0.286775	0.315014	0.127340	0.037111	0.379808	0.255695	0.072395	1.221483	0.395391	0.195683	0.365910	0.225467	0.285294	0.149513	0.426497	1.043221	0.311024	0.218994	0.367920	0.179178	0.503546	0.433251	0.042798	0.474393	0.441933	0.451336
86	0.051731	0.066039	0.293021	0.330685	0.068049	0.552160	0.539347	0.275252	0.108266	0.029285	0.121829	0.145341	0.098971	1.369648	0.435235	0.316585	0.169659	0.097120	0.213143	0.220578	0.049308	0.338950	0.066741	0.225389	0.158477	0.127038	0.607094	0.766864	0.111612	0.041625	0.273552	0.250852	0.045159	0.045951	0.280124	0.524415	0.107531	0.403563	0.247407	0.274959	0.100925	0.244273	0.425866	0.453651	0.098031	0.120339	0.280029	0.252758	0.127481	0.036913	0.503820	0.259180	0.068678	1.125157	0.396317	0.197786	0.370297	0.208013	0.271586	0.178717	0.420903	1.044602	0.324196	0.199990	0.382938	0.167227	0.499843	0.453557	0.040232	0.469283	0.506176	0.431891
87	0.030785	0.056783	0.271545	0.314208	0.074069	0.537119	0.545062	0.281007	0.119364	0.032936	0.120671	0.148000	0.096656	1.378944	0.432070	0.274442	0.188311	0.110603	0.269421	0.221856	0.051616	0.341711	0.109661	0.225104	0.150888	0.130048	0.601629	0.719031	0.106090	0.041434	0.270058	0.235096	0.056412	0.031353	0.295547	0.607886	0.072815	0.387015	0.243191	0.275283	0.075101	0.249387	0.391852	0.452152	0.077408	0.121620	0.267390	0.180787	0.113499	0.036636	0.510457	0.243405	0.070917	0.953467	0.388322	0.190013	0.365174	0.184925	0.265293	0.199402	0.399544	1.059271	0.324646	0.204344	0.295556	0.136442	0.558320	0.472292	0.042562	0.458346	0.566184	0.428274
88	0.038336	0.048047	0.248627	0.318144	0.079906	0.519578	0.540514	0.273171	0.119321	0.037892	0.120305	0.200159	0.097339	1.385788	0.423071	0.273489	0.242265	0.119425	0.301635	0.212962	0.054110	0.341378	0.132482	0.224293	0.123097	0.131145	0.604008	0.717845	0.102934	0.045947	0.247809	0.234935	0.057428	0.025150	0.315009	0.610742	0.071748	0.383566	0.238299	0.271963	0.069275	0.247084	0.351179	0.341884	0.075168	0.125824	0.239092	0.187770	0.123794	0.035808	0.467101	0.365825	0.076245	0.716791	0.391175	0.185849	0.351193	0.160740	0.264005	0.210045	0.408517	1.092732	0.322327	0.183792	0.264907	0.103917	0.567970	0.582219	0.048791	0.449771	0.582621	0.429092
89	0.038094	0.041862	0.137397	0.324051	0.083218	0.508820	0.540669	0.269326	0.114438	0.042832	0.125152	0.194425	0.094023	1.387845	0.432603	0.274339	0.251816	0.123683	0.299680	0.212928	0.047475	0.344705	0.136567	0.220886	0.087915	0.129611	0.591182	0.718968	0.103214	0.054418	0.236330	0.186316	0.058499	0.018218	0.323883	0.607467	0.076608	0.387338	0.241326	0.241971	0.075207	0.237391	0.370388	0.282035	0.074746	0.127837	0.251503	0.144856	0.152319	0.040102	0.458904	0.405975	0.079239	0.518268	0.399328	0.183779	0.336777	0.158962	0.261145	0.196574	0.420957	1.152523	0.316160	0.188919	0.260347	0.081244	0.574034	0.564865	0.051365	0.446183	0.583493	0.424702
90	0.040290	0.039310	0.127216	0.332666	0.083370	0.505479	0.546574	0.277415	0.115006	0.045423	0.218792	0.194804	0.076526	1.392523	0.443941	0.265566	0.257182	0.121803	0.298013	0.204382	0.042845	0.351188	0.159884	0.217152	0.098138	0.126241	0.530308	0.649309	0.105145	0.056778	0.237211	0.138398	0.059076	0.013305	0.309732	0.590050	0.084900	0.390536	0.247731	0.234152	0.132313	0.228106	0.414864	0.281200	0.073526	0.124790	0.238723	0.130866	0.217860	0.043466	0.466433	0.515754	0.079990	0.376058	0.405561	0.179410	0.336703	0.165754	0.246766	0.213394	0.447644	1.229837	0.298386	0.214890	0.287805	0.077850	0.557174	0.581711	0.055372	0.448648	0.566389	0.428578
91	0.040441	0.038481	0.085846	0.327092	0.084162	0.506464	0.519841	0.301359	0.103181	0.042233	0.292152	0.217242	0.069821	1.386865	0.447978	0.237036	0.259606	0.112532	0.287560	0.195024	0.072663	0.355272	0.173022	0.189596	0.097677	0.122954	0.529727	0.542875	0.113589	0.057693	0.241816	0.138012	0.059822	0.014235	0.248001	0.537444	0.088343	0.389231	0.247416	0.228544	0.173489	0.219395	0.398805	0.280794	0.060995	0.117521	0.267703	0.147057	0.248890	0.046804	0.481809	0.554678	0.079997	0.300122	0.408218	0.175925	0.267724	0.165715	0.301251	0.266257	0.394910	1.251655	0.287745	0.216514	0.357023	0.055639	0.499207	0.591937	0.053991	0.453801	0.543212	0.422419
92	0.040301	0.038640	0.100402	0.322151	0.077447	0.507343	0.514818	0.311596	0.079362	0.038184	0.292733	0.246226	0.070489	1.360302	0.438523	0.184063	0.237575	0.102105	0.262916	0.202370	0.076072	0.331502	0.187265	0.129366	0.098124	0.113182	0.500284	0.538155	0.145378	0.056079	0.249934	0.137056	0.065834	0.019075	0.230022	0.514431	0.114496	0.378497	0.244935	0.207980	0.184956	0.203596	0.386118	0.290153	0.059354	0.104560	0.341284	0.179626	0.359256	0.046647	0.468773	0.552293	0.081288	0.273932	0.400410	0.175153	0.265485	0.159705	0.332474	0.288789	0.366941	1.239025	0.279082	0.225421	0.441690	0.041965	0.478536	0.618461	0.047970	0.454832	0.539609	0.427184
93	0.044877	0.038469	0.106189	0.299460	0.075759	0.503498	0.532267	0.272902	0.057357	0.035046	0.392483	0.258624	0.065666	1.311090	0.414882	0.180793	0.221903	0.090213	0.286360	0.180893	0.088987	0.244086	0.187576	0.144984	0.106208	0.097906	0.443644	0.489712	0.166878	0.055385	0.248257	0.137424	0.064004	0.019778	0.228080	0.515951	0.132635	0.354326	0.247733	0.205428	0.190897	0.179566	0.428121	0.327838	0.055166	0.093080	0.346248	0.194587	0.451412	0.046684	0.409701	0.553631	0.094575	0.278935	0.395328	0.172462	0.257864	0.143557	0.331536	0.302519	0.360852	1.198452	0.234273	0.236783	0.461089	0.035834	0.468058	0.649661	0.045257	0.447196	0.567749	0.474594
94	0.048333	0.037118	0.106198	0.296484	0.073201	0.485800	0.527146	0.268941	0.055047	0.029943	0.475674	0.234583	0.065800	1.234931	0.407482	0.199566	0.206851	0.082760	0.296507	0.164855	0.099989	0.189604	0.185693	0.162062	0.123451	0.082860	0.465890	0.420434	0.202454	0.054095	0.216184	0.137554	0.065535	0.019050	0.228436	0.484033	0.145416	0.307420	0.234519	0.206187	0.310301	0.153954	0.497213	0.344894	0.046028	0.087506	0.370334	0.201414	0.470103	0.040348	0.275168	0.601999	0.094484	0.291023	0.385099	0.174232	0.256198	0.125256	0.344545	0.331893	0.351806	1.154050	0.225868	0.229439	0.457737	0.032476	0.439761	0.658869	0.045440	0.423793	0.632134	0.470302
95	0.048816	0.034727	0.103962	0.295597	0.077174	0.436541	0.505488	0.311299	0.059876	0.024683	0.482092	0.224826	0.066834	1.131167	0.408881	0.214856	0.161482	0.083259	0.278625	0.148410	0.120212	0.179008	0.194610	0.197224	0.122914	0.067593	0.438875	0.499037	0.214661	0.053820	0.202889	0.150621	0.064906	0.019516	0.201111	0.309408	0.152343	0.236571	0.181681	0.209963	0.328120	0.131110	0.488123	0.326185	0.039816	0.087052	0.374256	0.210653	0.479288	0.035840	0.285611	0.610129	0.093093	0.301767	0.319556	0.182187	0.256041	0.106074	0.348198	0.337443	0.359305	1.115496	0.210223	0.224292	0.455114	0.032289	0.607353	0.700629	0.049651	0.374409	0.655768	0.447882
96	0.053447	0.024178	0.122560	0.285038	0.079316	0.304674	0.484884	0.337116	0.090924	0.018345	0.449119	0.230644	0.067686	1.003968	0.395213	0.206545	0.140826	0.093514	0.266478	0.139146	0.121769	0.180989	0.212114	0.228868	0.120883	0.055179	0.461045	0.488648	0.267151	0.055078	0.191096	0.133412	0.058718	0.019711	0.188155	0.215698	0.150606	0.186568	0.146746	0.207106	0.333997	0.104991	0.565425	0.325858	0.042536	0.087801	0.375794	0.231913	0.474313	0.032368	0.292078	0.531948	0.087688	0.307881	0.260136	0.161153	0.244143	0.090852	0.358774	0.349758	0.426162	1.090056	0.199628	0.218309	0.582091	0.030209	0.688352	0.765288	0.056521	0.292044	0.659823	0.439732
97	0.064328	0.018510	0.173614	0.277019	0.077646	0.210341	0.485981	0.344554	0.088217	0.017707	0.401377	0.208524	0.065907	0.867600	0.394651	0.204162	0.129080	0.110470	0.264227	0.117761	0.121939	0.177705	0.223900	0.236794	0.122071	0.046199	0.450862	0.569033	0.267721	0.056352	0.196409	0.131047	0.068710	0.019773	0.127199	0.194655	0.157167	0.159803	0.148232	0.204888	0.334596	0.083354	0.617200	0.325895	0.044528	0.087830	0.377799	0.274444	0.459174	0.026909	0.327241	0.500179	0.089999	0.307345	0.257543	0.143758	0.110726	0.076301	0.414290	0.370649	0.447640	1.079292	0.208199	0.204041	0.623555	0.029653	0.631545	0.812943	0.057165	0.234155	0.665291	0.417989
98	0.068248	0.016043	0.183815	0.278664	0.077589	0.136614	0.438459	0.327571	0.093116	0.018384	0.395033	0.160416	0.068483	0.736968	0.386490	0.198263	0.126330	0.126167	0.312461	0.256529	0.121487	0.164842	0.208213	0.234960	0.118834	0.035038	0.454690	0.694580	0.269366	0.058556	0.198603	0.126067	0.079001	0.019753	0.137711	0.237639	0.163829	0.153664	0.155770	0.201264	0.336312	0.065612	0.619956	0.402290	0.047388	0.085807	0.378102	0.289162	0.441798	0.023488	0.310369	0.431620	0.091858	0.303524	0.260624	0.140659	0.094393	0.062659	0.453701	0.373032	0.454540	1.079178	0.186813	0.205790	0.631177	0.031317	0.629390	0.727530	0.057682	0.198928	0.671693	0.425107
99	0.077911	0.014707	0.181430	0.254065	0.074075	0.100718	0.387046	0.309371	0.093878	0.018890	0.334634	0.163876	0.070352	0.623967	0.361680	0.200315	0.159653	0.128342	0.323541	0.351990	0.111155	0.137834	0.208704	0.245828	0.115581	0.025087	0.437560	0.762247	0.270685	0.057311	0.177889	0.129652	0.081835	0.019827	0.152353	0.300917	0.164966	0.153388	0.182826	0.218188	0.341976	0.048293	0.617884	0.514721	0.048209	0.079959	0.377808	0.280021	0.425526	0.020536	0.276007	0.494883	0.097906	0.295736	0.259646	0.159896	0.093119	0.057524	0.504740	0.334297	0.454495	1.081162	0.130595	0.203296	0.635805	0.036966	0.696307	0.730307	0.059118	0.186699	0.645211	0.440224
100	0.080075	0.013743	0.251470	0.234998	0.067758	0.098500	0.348557	0.316477	0.100669	0.019084	0.243270	0.223327	0.068326	0.563733	0.306264	0.198487	0.182922	0.125811	0.319681	0.404750	0.110723	0.103964	0.199717	0.275665	0.124205	0.019219	0.411876	0.780940	0.294134	0.051571	0.175218	0.130959	0.109538	0.019456	0.178865	0.286826	0.183200	0.150412	0.212929	0.244977	0.351411	0.039234	0.594050	0.589742	0.059466	0.074655	0.364794	0.278475	0.313115	0.021459	0.276176	0.513767	0.093294	0.286496	0.248766	0.302842	0.092063	0.061786	0.567252	0.325737	0.449656	1.073050	0.121348	0.206044	0.613342	0.045284	0.744124	0.727881	0.060417	0.184544	0.610128	0.453361
101	0.079628	0.013761	0.371554	0.226911	0.063023	0.096626	0.314713	0.327428	0.101005	0.015780	0.244936	0.226418	0.067424	0.557307	0.243726	0.195388	0.207060	0.121765	0.356326	0.519527	0.109434	0.088077	0.197644	0.268159	0.155388	0.016457	0.385873	0.768869	0.300118	0.049068	0.176707	0.128143	0.110186	0.018966	0.202399	0.269862	0.184532	0.141158	0.222588	0.284468	0.342679	0.036759	0.570465	0.610438	0.060889	0.067956	0.354407	0.278483	0.263951	0.021734	0.271286	0.533009	0.093070	0.275709	0.235388	0.352607	0.091634	0.068208	0.832708	0.309241	0.440082	1.038157	0.120805	0.215008	0.560878	0.058787	0.755192	0.721191	0.057323	0.184511	0.597606	0.455506
