	137_P_T1_sh_R_D_A_01.c3d	137_P_T1_sh_R_D_A_01.c3d	137_P_T1_sh_R_D_A_01.c3d	137_P_T1_sh_R_D_A_01.c3d	137_P_T1_sh_R_D_A_01.c3d	137_P_T1_sh_R_D_A_01.c3d	137_P_T1_sh_R_D_A_01.c3d	137_P_T1_sh_R_D_A_01.c3d	137_P_T1_sh_R_D_A_02.c3d	137_P_T1_sh_R_D_A_02.c3d	137_P_T1_sh_R_D_A_02.c3d	137_P_T1_sh_R_D_A_02.c3d	137_P_T1_sh_R_D_A_02.c3d	137_P_T1_sh_R_D_A_02.c3d	137_P_T1_sh_R_D_A_02.c3d	137_P_T1_sh_R_D_A_02.c3d	137_P_T1_sh_R_D_A_03.c3d	137_P_T1_sh_R_D_A_03.c3d	137_P_T1_sh_R_D_A_03.c3d	137_P_T1_sh_R_D_A_03.c3d	137_P_T1_sh_R_D_A_03.c3d	137_P_T1_sh_R_D_A_03.c3d	137_P_T1_sh_R_D_A_03.c3d	137_P_T1_sh_R_D_A_03.c3d	137_P_T1_sh_R_D_A_06.c3d	137_P_T1_sh_R_D_A_06.c3d	137_P_T1_sh_R_D_A_06.c3d	137_P_T1_sh_R_D_A_06.c3d	137_P_T1_sh_R_D_A_06.c3d	137_P_T1_sh_R_D_A_06.c3d	137_P_T1_sh_R_D_A_06.c3d	137_P_T1_sh_R_D_A_06.c3d	137_P_T1_sh_R_D_A_07.c3d	137_P_T1_sh_R_D_A_07.c3d	137_P_T1_sh_R_D_A_07.c3d	137_P_T1_sh_R_D_A_07.c3d	137_P_T1_sh_R_D_A_07.c3d	137_P_T1_sh_R_D_A_07.c3d	137_P_T1_sh_R_D_A_07.c3d	137_P_T1_sh_R_D_A_07.c3d
	Biceps femoris_lat	Semitendinosus_lat	Vastus lateralis_lat	Vastus medialis_lat	Biceps femoris_med	Semitendinosus_med	Vastus lateralis_med	Vastus medialis_med	Biceps femoris_lat	Semitendinosus_lat	Vastus lateralis_lat	Vastus medialis_lat	Biceps femoris_med	Semitendinosus_med	Vastus lateralis_med	Vastus medialis_med	Biceps femoris_lat	Semitendinosus_lat	Vastus lateralis_lat	Vastus medialis_lat	Biceps femoris_med	Semitendinosus_med	Vastus lateralis_med	Vastus medialis_med	Biceps femoris_lat	Semitendinosus_lat	Vastus lateralis_lat	Vastus medialis_lat	Biceps femoris_med	Semitendinosus_med	Vastus lateralis_med	Vastus medialis_med	Biceps femoris_lat	Semitendinosus_lat	Vastus lateralis_lat	Vastus medialis_lat	Biceps femoris_med	Semitendinosus_med	Vastus lateralis_med	Vastus medialis_med
	P2D	P2D	P2D	P2D	P2D	P2D	P2D	P2D	P2D	P2D	P2D	P2D	P2D	P2D	P2D	P2D	P2D	P2D	P2D	P2D	P2D	P2D	P2D	P2D	P2D	P2D	P2D	P2D	P2D	P2D	P2D	P2D	P2D	P2D	P2D	P2D	P2D	P2D	P2D	P2D
	EMG_lat	EMG_lat	EMG_lat	EMG_lat	EMG_med	EMG_med	EMG_med	EMG_med	EMG_lat	EMG_lat	EMG_lat	EMG_lat	EMG_med	EMG_med	EMG_med	EMG_med	EMG_lat	EMG_lat	EMG_lat	EMG_lat	EMG_med	EMG_med	EMG_med	EMG_med	EMG_lat	EMG_lat	EMG_lat	EMG_lat	EMG_med	EMG_med	EMG_med	EMG_med	EMG_lat	EMG_lat	EMG_lat	EMG_lat	EMG_med	EMG_med	EMG_med	EMG_med
ITEM	Y	Y	Y	Y	Y	Y	Y	Y	Y	Y	Y	Y	Y	Y	Y	Y	Y	Y	Y	Y	Y	Y	Y	Y	Y	Y	Y	Y	Y	Y	Y	Y	Y	Y	Y	Y	Y	Y	Y	Y
1	0.494493	0.324331	0.054326	0.045318	0.373200	0.223281	0.118206	0.269259	0.276402	0.151346	0.191599	0.186868	0.348540	0.294607	0.158398	0.225730	0.637698	0.162057	0.296392	0.241610	0.673930	0.344841	0.159995	0.134526	0.449223	0.180371	0.113403	0.101183	0.508225	0.192138	0.208390	0.135629	0.330525	0.192033	0.163434	0.146292	0.420085	0.139669	0.341878	0.332213
2	0.460718	0.321063	0.064830	0.056614	0.370952	0.228511	0.137105	0.253684	0.248085	0.130900	0.231516	0.207464	0.315701	0.313600	0.156484	0.210648	0.579734	0.105406	0.308264	0.242505	0.685073	0.341566	0.160168	0.134369	0.449212	0.169772	0.110687	0.090197	0.684517	0.126704	0.208125	0.138083	0.326913	0.186858	0.160992	0.151464	0.434026	0.138604	0.332497	0.320975
3	0.459290	0.201811	0.087885	0.101304	0.361764	0.212910	0.171207	0.218221	0.226513	0.080656	0.227686	0.207508	0.320592	0.307334	0.129588	0.140947	0.552397	0.102719	0.314140	0.243020	0.675825	0.325305	0.157492	0.134771	0.443561	0.156630	0.111800	0.088957	0.795430	0.109598	0.206011	0.137681	0.329984	0.165162	0.163969	0.158146	0.432329	0.134561	0.319059	0.309968
4	0.460211	0.194432	0.109923	0.132284	0.361404	0.211441	0.189719	0.203916	0.229024	0.050686	0.230357	0.197050	0.315637	0.295599	0.164737	0.156787	0.509565	0.086745	0.358620	0.266190	0.638988	0.292900	0.140922	0.117411	0.418547	0.144734	0.111834	0.128406	0.812160	0.098484	0.212682	0.138059	0.224669	0.155444	0.180779	0.153313	0.435899	0.107573	0.307395	0.288515
5	0.460841	0.177161	0.125569	0.136752	0.356572	0.213762	0.190792	0.215865	0.234021	0.052331	0.270955	0.186109	0.307455	0.283745	0.204320	0.174789	0.506158	0.090767	0.387844	0.279915	0.631577	0.285288	0.137082	0.093910	0.415679	0.133742	0.112978	0.131196	0.811279	0.112967	0.201083	0.125890	0.216203	0.130045	0.192122	0.167766	0.442716	0.097311	0.299902	0.251457
6	0.397716	0.172047	0.126450	0.184373	0.368730	0.224452	0.193638	0.216190	0.216702	0.051168	0.280296	0.167631	0.296795	0.267556	0.206238	0.175807	0.478110	0.089276	0.403557	0.276262	0.636645	0.284066	0.138308	0.099232	0.416904	0.125258	0.105951	0.156168	0.809440	0.112249	0.175987	0.102188	0.207817	0.095667	0.197450	0.174728	0.441815	0.056432	0.293134	0.240329
7	0.291070	0.166403	0.129575	0.248291	0.395599	0.263883	0.193151	0.222004	0.216954	0.051111	0.282352	0.171435	0.254676	0.228856	0.224862	0.194576	0.462195	0.094022	0.434131	0.275379	0.625815	0.283765	0.160553	0.131328	0.420310	0.107641	0.086408	0.185913	0.795843	0.139966	0.151940	0.091692	0.208669	0.095939	0.197370	0.170012	0.434292	0.068883	0.289036	0.241794
8	0.299971	0.165392	0.143252	0.268740	0.320457	0.259820	0.182622	0.194637	0.206791	0.054050	0.293808	0.195395	0.235335	0.228623	0.222664	0.273686	0.387855	0.101752	0.466560	0.280588	0.563308	0.262549	0.233529	0.165936	0.423888	0.091675	0.131715	0.229058	0.737516	0.141215	0.155151	0.096215	0.212542	0.081288	0.198503	0.156455	0.399683	0.066564	0.290243	0.234727
9	0.297597	0.162712	0.203418	0.281001	0.277959	0.269976	0.163310	0.134555	0.200521	0.064506	0.295528	0.270469	0.226367	0.229618	0.231973	0.312839	0.338991	0.103108	0.475502	0.260452	0.405465	0.196319	0.300813	0.166847	0.252878	0.073407	0.160907	0.254718	0.695665	0.178675	0.186855	0.101804	0.215550	0.042720	0.199466	0.152817	0.375791	0.067051	0.285624	0.216567
10	0.297103	0.155637	0.289901	0.289059	0.236522	0.262094	0.174274	0.149189	0.190177	0.095807	0.349439	0.430335	0.222118	0.230737	0.252346	0.310296	0.347787	0.103839	0.458833	0.272701	0.321702	0.183963	0.341453	0.170568	0.174130	0.026978	0.180105	0.335466	0.679789	0.188547	0.269005	0.129919	0.190370	0.041733	0.197475	0.166602	0.352824	0.085035	0.251607	0.205071
11	0.307274	0.145134	0.385288	0.312298	0.237390	0.241631	0.194018	0.191541	0.218913	0.117231	0.405291	0.450626	0.158152	0.143797	0.252294	0.309323	0.359790	0.100973	0.424828	0.333648	0.315596	0.183706	0.356534	0.168577	0.181035	0.028217	0.264641	0.471884	0.677376	0.190194	0.359892	0.153372	0.179807	0.041386	0.183469	0.173088	0.326806	0.123014	0.202172	0.187403
12	0.294759	0.139670	0.441785	0.316492	0.238337	0.245098	0.202789	0.195350	0.222783	0.163979	0.450619	0.468580	0.153420	0.146132	0.257180	0.331895	0.412620	0.101586	0.420546	0.363812	0.312450	0.171326	0.356336	0.184208	0.190206	0.028634	0.351866	0.514498	0.635650	0.188429	0.428614	0.169184	0.157370	0.039329	0.200038	0.180047	0.304439	0.132135	0.159632	0.228402
13	0.252203	0.110949	0.452465	0.318871	0.228827	0.247048	0.198139	0.213571	0.218950	0.167815	0.462614	0.528411	0.142987	0.167594	0.255560	0.359343	0.430624	0.105747	0.470811	0.403963	0.313473	0.162013	0.374682	0.193485	0.197259	0.030652	0.441247	0.506489	0.390287	0.185697	0.455687	0.169713	0.146548	0.038032	0.239524	0.252670	0.221665	0.142839	0.196301	0.289671
14	0.233228	0.066954	0.453023	0.318114	0.234704	0.247572	0.202570	0.230158	0.194521	0.167645	0.464607	0.612704	0.152169	0.183379	0.233551	0.347046	0.442381	0.108627	0.497181	0.439785	0.246026	0.172337	0.410931	0.198691	0.196019	0.032880	0.483019	0.515765	0.207043	0.182790	0.463684	0.191345	0.133102	0.036183	0.252063	0.259465	0.210222	0.144508	0.269441	0.301349
15	0.245409	0.062542	0.459314	0.315185	0.234975	0.246809	0.384071	0.262957	0.217734	0.167866	0.568740	0.690771	0.158837	0.183460	0.208021	0.341861	0.425215	0.106488	0.503686	0.438230	0.222701	0.177020	0.442606	0.205550	0.196664	0.031261	0.509930	0.561439	0.171852	0.174460	0.542587	0.245807	0.138508	0.035676	0.274289	0.294279	0.215786	0.148223	0.322954	0.305100
16	0.263507	0.050813	0.459408	0.339100	0.207607	0.213959	0.466558	0.281465	0.242587	0.171084	0.678055	0.713643	0.159719	0.183996	0.210680	0.341746	0.418296	0.104696	0.501627	0.424583	0.238027	0.177072	0.463548	0.205300	0.203066	0.029821	0.663121	0.621798	0.193457	0.166549	0.650965	0.297475	0.140986	0.037287	0.282935	0.350641	0.212241	0.150842	0.337845	0.341781
17	0.265174	0.053040	0.462208	0.385478	0.199693	0.189394	0.486347	0.288166	0.247099	0.171733	0.703910	0.710256	0.160290	0.184546	0.190545	0.331024	0.409986	0.102021	0.478605	0.426369	0.223497	0.178025	0.468675	0.210844	0.201914	0.030102	0.766416	0.618406	0.209278	0.161323	0.738246	0.320981	0.141300	0.040610	0.320769	0.399223	0.190187	0.149808	0.353333	0.400573
18	0.251636	0.053045	0.485708	0.419699	0.199615	0.185334	0.491701	0.290091	0.247656	0.171178	0.702489	0.691038	0.167408	0.189876	0.212933	0.284020	0.383196	0.089538	0.444856	0.431048	0.217019	0.186113	0.463328	0.214247	0.201222	0.031297	0.779132	0.603938	0.181866	0.135180	0.789209	0.324923	0.094156	0.039500	0.465660	0.460337	0.182720	0.147153	0.386662	0.465324
19	0.247773	0.051354	0.517693	0.421536	0.178948	0.149919	0.490731	0.288864	0.245733	0.156389	0.676600	0.636428	0.160549	0.186381	0.197852	0.256399	0.343489	0.079125	0.417942	0.441424	0.214495	0.194254	0.441897	0.207076	0.187500	0.033053	0.780085	0.583174	0.168620	0.118824	0.793062	0.331086	0.093929	0.037573	0.572142	0.484052	0.184783	0.144527	0.431058	0.506353
20	0.223958	0.044263	0.560239	0.446098	0.157338	0.148007	0.484953	0.269234	0.216225	0.153476	0.639719	0.655050	0.175979	0.179974	0.176914	0.253442	0.332292	0.070790	0.426058	0.453766	0.219212	0.195817	0.402544	0.217883	0.182595	0.034591	0.760229	0.479129	0.166308	0.054343	0.782135	0.331585	0.089632	0.035989	0.589170	0.479677	0.215991	0.202173	0.508447	0.526382
21	0.225548	0.040472	0.569134	0.456019	0.160003	0.139056	0.482202	0.270653	0.201307	0.098217	0.614616	0.655251	0.173616	0.174891	0.175512	0.255915	0.323481	0.069517	0.445491	0.442665	0.221476	0.196167	0.398320	0.229868	0.167535	0.036811	0.726045	0.408571	0.166403	0.029976	0.754653	0.318403	0.088758	0.033786	0.588897	0.479180	0.255653	0.262579	0.551465	0.528436
22	0.224294	0.040633	0.554793	0.454667	0.179806	0.142576	0.481031	0.267292	0.206322	0.094918	0.612540	0.609730	0.242622	0.330452	0.178312	0.226792	0.289117	0.069573	0.457239	0.437258	0.218560	0.188021	0.396692	0.226057	0.157495	0.034545	0.679903	0.403254	0.167392	0.019880	0.715630	0.301612	0.088255	0.033354	0.573608	0.456467	0.236993	0.275623	0.563584	0.512201
23	0.203429	0.040217	0.519351	0.439325	0.179935	0.147822	0.488240	0.243544	0.208742	0.095450	0.598793	0.527287	0.266378	0.361562	0.179671	0.187783	0.254881	0.067264	0.467783	0.429241	0.233972	0.247599	0.390953	0.226127	0.151466	0.032236	0.641342	0.396276	0.166327	0.018188	0.685917	0.293395	0.090036	0.033474	0.555448	0.435237	0.256449	0.307554	0.562884	0.502257
24	0.188335	0.041219	0.483822	0.436031	0.198041	0.196446	0.437032	0.225887	0.253083	0.164338	0.500484	0.434125	0.373010	0.461017	0.176244	0.183364	0.187281	0.054940	0.440805	0.388522	0.246339	0.316191	0.383581	0.216748	0.150936	0.032013	0.635817	0.343438	0.160463	0.018101	0.681051	0.292469	0.085839	0.032965	0.543200	0.421396	0.255317	0.305198	0.550525	0.489045
25	0.182711	0.042086	0.475911	0.435562	0.179156	0.222529	0.279035	0.208525	0.254899	0.216917	0.339417	0.397690	0.383246	0.485471	0.169205	0.211983	0.165065	0.045344	0.413897	0.356041	0.237799	0.342650	0.357710	0.218284	0.134249	0.032137	0.521786	0.208835	0.154523	0.017968	0.666357	0.270991	0.079507	0.031448	0.535580	0.380778	0.256704	0.312304	0.528257	0.499837
26	0.179565	0.042976	0.479457	0.436785	0.158653	0.219604	0.220046	0.198055	0.257714	0.237141	0.260594	0.400634	0.384230	0.487986	0.184231	0.266028	0.164560	0.041975	0.385267	0.355379	0.270788	0.376052	0.316038	0.208669	0.148977	0.036803	0.330999	0.264759	0.135916	0.017796	0.586064	0.236398	0.065802	0.024292	0.533286	0.362555	0.260800	0.313702	0.503153	0.564700
27	0.143100	0.039665	0.470959	0.434208	0.153306	0.211267	0.195895	0.202165	0.262892	0.289427	0.267165	0.487791	0.387685	0.498455	0.223709	0.332917	0.162930	0.041634	0.377475	0.347927	0.260060	0.396163	0.274204	0.209650	0.165042	0.041674	0.287338	0.280622	0.100946	0.021489	0.455917	0.222517	0.066597	0.015190	0.453694	0.349059	0.246654	0.316566	0.506455	0.589571
28	0.093196	0.034571	0.469956	0.413384	0.172307	0.205992	0.195429	0.245002	0.271976	0.294398	0.301911	0.544147	0.390935	0.506499	0.245001	0.327667	0.164387	0.044114	0.386108	0.344710	0.251040	0.399309	0.253011	0.208899	0.173191	0.044280	0.313436	0.285538	0.075325	0.074660	0.305115	0.209864	0.063321	0.011080	0.289892	0.403438	0.262255	0.316681	0.541837	0.561260
29	0.077285	0.032835	0.476190	0.380244	0.186486	0.209554	0.209514	0.337574	0.284942	0.290118	0.305890	0.499238	0.397042	0.512893	0.276089	0.326501	0.164627	0.044040	0.398194	0.334507	0.255442	0.399076	0.251116	0.199971	0.183144	0.045101	0.332070	0.310220	0.083183	0.097393	0.222430	0.211803	0.066974	0.012262	0.251623	0.593043	0.276769	0.317958	0.551070	0.514525
30	0.084625	0.034428	0.468237	0.346477	0.221700	0.210077	0.233190	0.348503	0.340102	0.294250	0.281559	0.483098	0.418501	0.522446	0.282637	0.347846	0.164194	0.045078	0.397606	0.322757	0.258503	0.405104	0.248155	0.187961	0.188097	0.042790	0.334110	0.312223	0.112184	0.127752	0.229810	0.207538	0.084004	0.015020	0.305138	0.646884	0.289411	0.324674	0.545529	0.463613
31	0.085341	0.035108	0.448344	0.354327	0.214550	0.216624	0.235517	0.352396	0.496800	0.295550	0.255834	0.502684	0.416806	0.512908	0.312567	0.353257	0.159858	0.044934	0.377972	0.341266	0.253406	0.410310	0.248082	0.159637	0.188205	0.042911	0.366165	0.325078	0.122737	0.139893	0.239848	0.212250	0.087583	0.014874	0.340318	0.660730	0.283272	0.318681	0.495739	0.440137
32	0.082212	0.035169	0.403707	0.334409	0.241459	0.221239	0.213782	0.389672	0.514158	0.295136	0.249927	0.556472	0.376042	0.414363	0.364772	0.347956	0.141037	0.043359	0.357727	0.374747	0.266835	0.415454	0.227318	0.131137	0.184837	0.042455	0.396795	0.334993	0.124296	0.145080	0.234902	0.272656	0.087949	0.015655	0.362785	0.708494	0.243159	0.262577	0.425039	0.432786
33	0.087107	0.035136	0.414732	0.330526	0.239371	0.210018	0.211627	0.412790	0.485190	0.267377	0.266443	0.572634	0.344779	0.367197	0.367436	0.347447	0.122578	0.043579	0.315068	0.370613	0.267861	0.427512	0.167436	0.129291	0.196707	0.042162	0.411746	0.389466	0.127642	0.147515	0.221516	0.320000	0.083291	0.015113	0.365975	0.746635	0.220140	0.240352	0.401656	0.435359
34	0.111742	0.034659	0.445440	0.340408	0.233674	0.148556	0.247464	0.422359	0.467110	0.220150	0.262263	0.574245	0.240054	0.246710	0.374914	0.349164	0.112443	0.045733	0.322037	0.412865	0.299352	0.439838	0.162344	0.130033	0.208580	0.042500	0.432414	0.440535	0.135022	0.150793	0.201501	0.332179	0.087926	0.015558	0.421662	0.804713	0.193846	0.175410	0.395504	0.439601
35	0.128217	0.033190	0.446828	0.340810	0.235642	0.144847	0.272719	0.415035	0.458496	0.202988	0.265483	0.574927	0.228736	0.209053	0.381538	0.330728	0.141818	0.049947	0.395014	0.492285	0.291694	0.378215	0.168681	0.119305	0.198722	0.039428	0.422761	0.409077	0.139486	0.204945	0.191261	0.332553	0.101844	0.016212	0.553862	0.874409	0.176027	0.145404	0.393897	0.455471
36	0.130729	0.031756	0.433799	0.343106	0.237754	0.142223	0.272563	0.424424	0.457492	0.108149	0.270090	0.508686	0.227264	0.205113	0.368954	0.296735	0.183283	0.055758	0.467562	0.501860	0.297542	0.333578	0.171059	0.108239	0.162151	0.031511	0.396506	0.391930	0.158793	0.250532	0.188686	0.342098	0.107852	0.017183	0.610914	0.880432	0.180712	0.129002	0.394367	0.461505
37	0.131083	0.030702	0.427659	0.343625	0.229853	0.134915	0.282170	0.518360	0.449173	0.084008	0.221994	0.420044	0.215901	0.166068	0.343459	0.228632	0.211959	0.059578	0.488168	0.510680	0.318363	0.329318	0.173898	0.133226	0.150853	0.025077	0.368483	0.499229	0.174753	0.280655	0.188093	0.345211	0.106378	0.016994	0.618036	0.859906	0.175967	0.118054	0.387387	0.436104
38	0.130740	0.028427	0.422071	0.341547	0.222551	0.128456	0.321077	0.553952	0.439395	0.080813	0.197807	0.415773	0.198821	0.143305	0.316503	0.222820	0.223120	0.060308	0.486451	0.544686	0.331902	0.313260	0.178647	0.145169	0.133471	0.019393	0.382449	0.600064	0.235351	0.313196	0.188677	0.337996	0.103338	0.017675	0.598777	0.769264	0.173756	0.102846	0.388167	0.376181
39	0.129446	0.024422	0.422228	0.350571	0.188898	0.122061	0.369247	0.534256	0.405488	0.064411	0.200311	0.417401	0.160160	0.096244	0.318185	0.240441	0.227084	0.060102	0.488576	0.611622	0.340251	0.309254	0.179457	0.158060	0.121819	0.018037	0.480353	0.612617	0.246449	0.306569	0.189183	0.335978	0.094649	0.018252	0.573622	0.668472	0.171146	0.097206	0.375288	0.367033
40	0.134860	0.020213	0.427167	0.347529	0.172135	0.121101	0.376933	0.532617	0.172961	0.049721	0.203739	0.451034	0.071945	0.046094	0.386747	0.250974	0.243095	0.059815	0.559432	0.698452	0.333082	0.309532	0.179392	0.204480	0.124901	0.023347	0.570764	0.613114	0.244356	0.302781	0.168890	0.345804	0.088548	0.019484	0.557922	0.678889	0.144566	0.094390	0.329301	0.365299
41	0.145675	0.016643	0.433919	0.338074	0.143931	0.083349	0.372739	0.521935	0.093347	0.052248	0.218161	0.406046	0.054664	0.044566	0.422948	0.256301	0.263975	0.060190	0.680517	0.740493	0.332769	0.300319	0.179761	0.218025	0.131467	0.027041	0.591718	0.615081	0.228644	0.294048	0.168233	0.344763	0.086606	0.019105	0.547340	0.661502	0.115617	0.081244	0.288898	0.383709
42	0.141055	0.012332	0.424591	0.327115	0.127416	0.060827	0.397216	0.522708	0.120077	0.053044	0.198323	0.354591	0.065068	0.048568	0.428969	0.256629	0.279402	0.061108	0.731582	0.723549	0.331494	0.290983	0.189714	0.232485	0.122993	0.028151	0.585648	0.593057	0.225406	0.290480	0.228717	0.333198	0.087259	0.021727	0.540117	0.685909	0.098903	0.071414	0.278517	0.444162
43	0.139592	0.010886	0.409301	0.317573	0.161207	0.066450	0.433183	0.507409	0.128076	0.052055	0.195170	0.339502	0.065800	0.049284	0.434436	0.258466	0.283914	0.061026	0.737049	0.708494	0.328405	0.278864	0.209988	0.246405	0.090609	0.028142	0.595547	0.573013	0.232574	0.296620	0.280009	0.283968	0.087699	0.022941	0.531749	0.862568	0.103024	0.073039	0.279142	0.483839
44	0.136925	0.010564	0.396748	0.330060	0.165833	0.068703	0.447525	0.508771	0.126477	0.048106	0.193415	0.370221	0.072806	0.049519	0.478171	0.315912	0.283336	0.058946	0.726671	0.732844	0.320566	0.275606	0.224408	0.245765	0.087485	0.029216	0.639211	0.578509	0.254054	0.323700	0.283105	0.311322	0.078283	0.022363	0.436983	0.900054	0.103355	0.075007	0.267286	0.516972
45	0.130052	0.010897	0.351238	0.319790	0.169838	0.069279	0.465304	0.527801	0.122639	0.043054	0.188059	0.451020	0.099765	0.049721	0.627632	0.379493	0.278014	0.055949	0.695403	0.825940	0.301535	0.226904	0.211987	0.251828	0.087949	0.029686	0.703453	0.604178	0.275821	0.335719	0.286466	0.322741	0.085795	0.025489	0.320263	0.913986	0.104502	0.069484	0.258390	0.552175
46	0.114411	0.011941	0.284869	0.301939	0.173394	0.068013	0.465408	0.489513	0.118475	0.041173	0.195444	0.468482	0.136349	0.054007	0.685252	0.380198	0.257715	0.050458	0.663598	0.968076	0.275723	0.208745	0.206366	0.319772	0.085111	0.029595	0.749166	0.579916	0.271108	0.309815	0.282595	0.323342	0.116082	0.034288	0.276230	0.907557	0.105150	0.067627	0.278611	0.543842
47	0.099691	0.014373	0.253894	0.316844	0.173515	0.065981	0.449383	0.333732	0.118859	0.040282	0.275505	0.473964	0.148831	0.070566	0.699558	0.374915	0.232865	0.044591	0.702310	1.057210	0.274470	0.210700	0.208618	0.358437	0.080200	0.029841	0.763720	0.447682	0.263566	0.295664	0.283749	0.324564	0.140881	0.040172	0.276250	0.998114	0.113407	0.068562	0.305815	0.535638
48	0.101158	0.019844	0.246641	0.375970	0.173772	0.063395	0.402301	0.285963	0.121065	0.039789	0.407073	0.478025	0.161684	0.071704	0.699995	0.383741	0.217610	0.040332	0.828637	1.111400	0.243573	0.187417	0.207729	0.372597	0.080312	0.030513	0.730790	0.443251	0.242725	0.255791	0.298197	0.328225	0.142778	0.040239	0.270764	1.155409	0.109481	0.069024	0.337536	0.553102
49	0.105080	0.022530	0.271370	0.421288	0.177129	0.059973	0.356716	0.286329	0.119597	0.092128	0.435128	0.427472	0.170523	0.074893	0.685447	0.372539	0.226693	0.035482	0.937687	1.100677	0.165722	0.151499	0.211258	0.464951	0.073551	0.028192	0.661640	0.449884	0.184650	0.227968	0.312254	0.384257	0.142762	0.039838	0.272031	1.265631	0.108130	0.069899	0.339817	0.576055
50	0.105152	0.022920	0.370653	0.491106	0.185923	0.056796	0.350104	0.274637	0.115466	0.105261	0.430654	0.399040	0.171093	0.087418	0.650085	0.345790	0.254428	0.034540	0.949209	1.082488	0.111765	0.109846	0.213892	0.591551	0.054521	0.025043	0.609882	0.439984	0.187838	0.226986	0.369365	0.425815	0.163120	0.039793	0.323108	1.331894	0.106489	0.076402	0.297132	0.577023
51	0.106294	0.023801	0.527006	0.563186	0.181900	0.051378	0.332034	0.235186	0.083734	0.147038	0.431001	0.413014	0.192224	0.125543	0.612400	0.337394	0.237002	0.032923	0.888243	1.176724	0.114157	0.102861	0.254401	0.700192	0.056691	0.026737	0.599932	0.455167	0.208678	0.238443	0.443019	0.419492	0.174462	0.039361	0.431321	1.345440	0.101985	0.078980	0.318452	0.579860
52	0.100954	0.024915	0.604051	0.593286	0.134625	0.039549	0.284194	0.198878	0.099813	0.189185	0.445427	0.533046	0.202986	0.154556	0.583022	0.336329	0.228185	0.032577	0.860946	1.318840	0.130531	0.103672	0.409494	0.755946	0.073730	0.028600	0.583431	0.563783	0.212143	0.241665	0.456374	0.421719	0.184802	0.037996	0.534833	1.255312	0.103025	0.086924	0.388414	0.582189
53	0.087259	0.025176	0.619128	0.603046	0.121069	0.034716	0.199757	0.194286	0.156352	0.200581	0.478277	0.650784	0.328313	0.249482	0.578665	0.328041	0.216060	0.036891	0.899124	1.415844	0.139477	0.101600	0.560145	0.760314	0.088260	0.029280	0.580303	0.620009	0.218801	0.246711	0.424767	0.422201	0.219270	0.104436	0.590169	1.134316	0.103775	0.078100	0.402471	0.551194
54	0.086610	0.026154	0.614347	0.599705	0.111714	0.031312	0.118112	0.155717	0.165180	0.202547	0.519963	0.617048	0.332207	0.263429	0.512069	0.264386	0.221925	0.041576	1.021904	1.447724	0.145755	0.097364	0.601441	0.761525	0.092113	0.029393	0.591876	0.612333	0.216233	0.243430	0.399047	0.418683	0.288318	0.307851	0.585980	1.092680	0.117470	0.079131	0.403443	0.499593
55	0.087645	0.027708	0.624792	0.611083	0.097789	0.028575	0.090445	0.114020	0.174562	0.244686	0.580071	0.588542	0.328482	0.265722	0.308949	0.186354	0.244601	0.045629	1.141260	1.420135	0.144961	0.093479	0.598639	0.773702	0.090375	0.030016	0.625209	0.589344	0.241871	0.252915	0.403999	0.384413	0.311506	0.365465	0.620076	1.186043	0.118822	0.095891	0.406175	0.458221
56	0.098830	0.028395	0.656835	0.637571	0.099457	0.028389	0.082256	0.117992	0.179045	0.289295	0.579503	0.584778	0.315549	0.265081	0.194308	0.164895	0.254956	0.052882	1.196438	1.303253	0.146096	0.090927	0.591810	0.777858	0.089948	0.030211	0.667548	0.573631	0.240938	0.244985	0.409804	0.389129	0.438036	0.441806	0.720441	1.247184	0.136643	0.100256	0.416651	0.414914
57	0.156959	0.031429	0.679857	0.672385	0.123217	0.027987	0.077112	0.121770	0.180293	0.289448	0.493293	0.619066	0.319856	0.261682	0.158372	0.162824	0.260987	0.062265	1.191920	1.218155	0.147020	0.087483	0.595546	0.763723	0.090247	0.028819	0.688668	0.564789	0.302935	0.238923	0.424363	0.388772	0.536257	0.489882	0.840690	1.216251	0.141108	0.103564	0.443775	0.395107
58	0.172357	0.032245	0.707081	0.703524	0.130675	0.026674	0.075827	0.143398	0.221499	0.324428	0.494398	0.649470	0.319842	0.261664	0.168499	0.135769	0.266488	0.071710	1.126255	1.146159	0.146261	0.101478	0.601117	0.734806	0.090445	0.026812	0.699954	0.555990	0.318533	0.248976	0.438828	0.375987	0.567865	0.505651	0.926804	1.095626	0.148536	0.139052	0.445803	0.387884
59	0.169117	0.031281	0.743548	0.721095	0.185943	0.027116	0.076923	0.183529	0.246341	0.342872	0.528082	0.677912	0.318010	0.259620	0.163124	0.114674	0.281269	0.085286	1.024169	1.109938	0.147356	0.132275	0.611348	0.729820	0.094786	0.025811	0.714712	0.563839	0.319827	0.249225	0.439830	0.335177	0.571649	0.511102	0.940702	0.991563	0.157238	0.167154	0.423119	0.340561
60	0.166438	0.029265	0.793656	0.697320	0.233255	0.025313	0.096322	0.253424	0.298724	0.329847	0.592191	0.704183	0.316311	0.252680	0.137653	0.113651	0.315132	0.343797	0.963952	1.109867	0.144781	0.135421	0.614889	0.698839	0.091929	0.022681	0.727668	0.562712	0.330001	0.248426	0.426150	0.257453	0.567451	0.512838	0.914564	0.973406	0.162897	0.176932	0.406755	0.258687
61	0.172451	0.031031	0.810236	0.670662	0.239515	0.025167	0.174967	0.315757	0.437349	0.328670	0.618050	0.645142	0.303477	0.237059	0.118446	0.114772	0.520256	0.646124	0.967697	1.036502	0.151236	0.158056	0.613733	0.613646	0.079884	0.020931	0.832751	0.516919	0.327975	0.248636	0.355869	0.205489	0.645150	0.573066	0.886126	1.003456	0.162994	0.201837	0.404323	0.215365
62	0.194947	0.036460	0.781907	0.624987	0.241399	0.024260	0.265236	0.370692	0.462877	0.375966	0.605905	0.496794	0.281484	0.202884	0.116557	0.115461	0.569690	0.688712	0.982834	0.891625	0.191255	0.169860	0.610224	0.476649	0.058355	0.023410	0.924735	0.522998	0.326311	0.237527	0.269810	0.201619	0.883777	0.712866	0.882391	1.047086	0.163283	0.219702	0.400388	0.210792
63	0.207485	0.039081	0.688540	0.555273	0.393504	0.038625	0.319278	0.374223	0.470534	0.379743	0.568702	0.473107	0.130585	0.086597	0.133586	0.117296	0.591480	0.784061	1.021852	0.742321	0.189618	0.170461	0.568880	0.308926	0.048809	0.027878	0.897645	0.524231	0.330674	0.235895	0.243899	0.216309	0.908015	0.707099	0.923480	1.050721	0.166605	0.222939	0.344560	0.207979
64	0.209346	0.039948	0.615493	0.539612	0.523929	0.042667	0.352924	0.380243	0.469828	0.365629	0.507765	0.503769	0.131080	0.090479	0.142659	0.097131	0.613307	0.829764	1.007699	0.634923	0.180199	0.170593	0.420293	0.228804	0.082805	0.033797	0.862951	0.563734	0.328308	0.233087	0.242300	0.253603	0.908200	0.651765	0.955477	0.970897	0.170508	0.222646	0.316802	0.204352
65	0.209903	0.041219	0.589772	0.541184	0.532914	0.042015	0.354985	0.424130	0.471097	0.347753	0.489895	0.601039	0.129490	0.099150	0.173731	0.075770	0.731308	0.865249	0.917994	0.596818	0.172942	0.171342	0.291668	0.250051	0.203513	0.135438	0.869929	0.584497	0.309492	0.199745	0.259453	0.260073	0.927344	0.649541	0.912451	0.833446	0.163431	0.230082	0.333036	0.207384
66	0.213002	0.042309	0.588738	0.545526	0.530203	0.042437	0.395570	0.454789	0.557446	0.384538	0.574983	0.600578	0.128443	0.107924	0.255015	0.074592	0.771851	0.876076	0.846903	0.586192	0.169258	0.171743	0.277765	0.253997	0.326454	0.296212	0.844110	0.577150	0.277356	0.148103	0.318454	0.250491	0.849832	0.630930	0.811904	0.672845	0.157030	0.242204	0.354881	0.216282
67	0.214412	0.042683	0.583876	0.511747	0.527844	0.045440	0.472905	0.457287	0.595244	0.386648	0.687360	0.574625	0.113147	0.160825	0.296491	0.070641	0.773870	0.878400	0.795535	0.593215	0.169056	0.172845	0.298230	0.280442	0.349338	0.317189	0.821929	0.572504	0.248755	0.136104	0.375174	0.238503	0.926812	0.629252	0.694127	0.596099	0.148369	0.245961	0.357499	0.217089
68	0.210992	0.043032	0.558867	0.472022	0.530120	0.050242	0.533778	0.445812	0.587254	0.365933	0.720693	0.556087	0.111444	0.211358	0.297486	0.080430	0.773958	0.878446	0.828417	0.607808	0.169462	0.182254	0.312529	0.293411	0.525489	0.413554	0.806438	0.577045	0.186055	0.107050	0.382663	0.231996	1.049724	0.640103	0.660158	0.626401	0.154235	0.261471	0.327810	0.205331
69	0.173523	0.041299	0.529048	0.450023	0.507709	0.052683	0.541376	0.419089	0.566845	0.366704	0.679498	0.536914	0.148574	0.258763	0.356570	0.104922	0.778055	0.889501	0.891407	0.611733	0.173170	0.180250	0.327535	0.299606	0.555591	0.431414	0.848241	0.625515	0.166630	0.077661	0.363693	0.235831	1.073691	0.640936	0.723697	0.580709	0.177628	0.270207	0.288096	0.200247
70	0.153416	0.040350	0.497424	0.418999	0.506203	0.053846	0.534327	0.376013	0.467532	0.352369	0.687436	0.523259	0.295948	0.296693	0.455499	0.141897	0.791183	0.882431	0.948951	0.606507	0.188688	0.156684	0.341112	0.300448	0.564900	0.432945	0.901318	0.698274	0.164592	0.077054	0.373221	0.261903	1.070364	0.631135	0.747046	0.490567	0.166672	0.254191	0.276573	0.200890
71	0.157737	0.040683	0.465260	0.397251	0.507859	0.052883	0.503917	0.322851	0.416431	0.292502	0.702737	0.553530	0.320688	0.307066	0.514063	0.173501	0.713734	0.726095	0.972825	0.593139	0.190985	0.142056	0.332090	0.302638	0.581097	0.433791	0.852718	0.663250	0.149574	0.078522	0.394261	0.275844	0.929957	0.482393	0.726098	0.403742	0.155720	0.246747	0.280823	0.192944
72	0.159348	0.041270	0.400383	0.394180	0.474273	0.046281	0.466356	0.287021	0.410601	0.308195	0.708488	0.573621	0.387906	0.349492	0.531375	0.192093	0.623786	0.623086	0.951390	0.534052	0.198601	0.119864	0.348383	0.309795	0.587740	0.463973	0.825566	0.621114	0.144294	0.066437	0.430736	0.279667	0.794441	0.393842	0.650079	0.377043	0.153596	0.231817	0.287254	0.170528
73	0.156678	0.039474	0.379309	0.395530	0.256079	0.036708	0.434399	0.283138	0.407482	0.308544	0.722247	0.574434	0.395956	0.365151	0.527268	0.195176	0.652901	0.579602	0.879591	0.386548	0.177088	0.082408	0.432312	0.311963	0.596182	0.504682	0.819600	0.630464	0.119046	0.048278	0.456585	0.290294	0.782815	0.346279	0.593603	0.394319	0.152705	0.205280	0.287661	0.157093
74	0.134827	0.035317	0.389081	0.396422	0.181865	0.036535	0.440445	0.234568	0.406406	0.288020	0.715984	0.494946	0.393307	0.369433	0.527603	0.196327	0.653519	0.497610	0.785447	0.286058	0.169975	0.074970	0.485899	0.310810	0.574766	0.507138	0.746626	0.653430	0.113445	0.036813	0.474410	0.289623	0.767151	0.325284	0.575399	0.402036	0.149710	0.194712	0.276174	0.147556
75	0.111505	0.032250	0.404776	0.393645	0.176590	0.037334	0.469629	0.150861	0.298918	0.250395	0.652358	0.447623	0.392677	0.374404	0.519363	0.226242	0.583829	0.443661	0.718960	0.241300	0.180109	0.072069	0.496408	0.310757	0.539742	0.509233	0.721864	0.663774	0.123768	0.035192	0.479138	0.265084	0.751235	0.274014	0.574635	0.405113	0.141492	0.192230	0.256542	0.137439
76	0.106531	0.030405	0.401081	0.365582	0.175271	0.036530	0.441867	0.113893	0.148674	0.182299	0.509122	0.449563	0.393493	0.373757	0.487939	0.243467	0.555259	0.428213	0.683651	0.234257	0.178018	0.071715	0.493181	0.311857	0.518128	0.505846	0.750902	0.665408	0.125010	0.035635	0.462175	0.243031	0.714774	0.205535	0.580499	0.386021	0.139779	0.185895	0.226244	0.130265
77	0.109530	0.028600	0.389583	0.341024	0.156931	0.030920	0.350362	0.114790	0.128290	0.174321	0.417160	0.456634	0.420089	0.377215	0.471075	0.253058	0.589330	0.422332	0.706038	0.247334	0.176263	0.071173	0.491691	0.355646	0.395023	0.435676	0.757481	0.662739	0.128432	0.035629	0.409667	0.238978	0.468633	0.147633	0.561526	0.327642	0.139587	0.171798	0.179900	0.126360
78	0.107741	0.026801	0.389576	0.329973	0.124236	0.022705	0.323519	0.124482	0.135540	0.173031	0.435926	0.435678	0.472876	0.415798	0.469269	0.251208	0.617671	0.424383	0.718666	0.236402	0.176497	0.068089	0.501517	0.336065	0.294513	0.405844	0.727030	0.628867	0.125466	0.035417	0.354348	0.240438	0.280573	0.101250	0.506936	0.295331	0.137741	0.141459	0.141381	0.121620
79	0.100851	0.027713	0.383732	0.328599	0.086563	0.016721	0.343474	0.128335	0.132852	0.168475	0.374885	0.429719	0.501817	0.424880	0.417508	0.239932	0.612536	0.413299	0.641710	0.216633	0.180007	0.049367	0.515720	0.312416	0.270769	0.403582	0.583847	0.551749	0.121775	0.035392	0.339133	0.241032	0.259078	0.101805	0.407589	0.291031	0.129715	0.133571	0.168461	0.132124
80	0.104582	0.028502	0.368423	0.293300	0.061676	0.014985	0.340854	0.127109	0.133365	0.168569	0.312812	0.421117	0.536445	0.468075	0.312100	0.221694	0.598269	0.382934	0.554327	0.231626	0.180195	0.025062	0.504615	0.330547	0.243359	0.402550	0.405200	0.449603	0.122732	0.034388	0.334594	0.230212	0.241458	0.105605	0.332445	0.284542	0.082828	0.077248	0.188961	0.151710
81	0.114261	0.027873	0.367054	0.220520	0.052834	0.014889	0.350440	0.123099	0.119631	0.126921	0.320421	0.507657	0.521200	0.466654	0.228479	0.225041	0.592655	0.378061	0.474225	0.229919	0.167821	0.023814	0.483346	0.352938	0.222803	0.382257	0.354367	0.433822	0.119850	0.030671	0.314211	0.206025	0.237818	0.108571	0.315720	0.235907	0.053442	0.039481	0.198044	0.167009
82	0.144440	0.027962	0.363315	0.175906	0.039651	0.015296	0.354247	0.127929	0.140948	0.114414	0.374209	0.568635	0.482119	0.434565	0.207183	0.229936	0.587677	0.367403	0.449536	0.238076	0.158797	0.024006	0.468224	0.371469	0.198407	0.317149	0.337907	0.401479	0.111891	0.024034	0.297783	0.206228	0.237592	0.108349	0.302929	0.181167	0.081889	0.035399	0.242021	0.180094
83	0.195604	0.066737	0.340521	0.116512	0.041721	0.015539	0.345380	0.132867	0.166007	0.118363	0.547711	0.627320	0.479573	0.426976	0.205798	0.228229	0.544211	0.284665	0.466946	0.292464	0.146546	0.024689	0.479031	0.380118	0.196849	0.293038	0.332383	0.314553	0.108896	0.020493	0.264252	0.213068	0.201702	0.099797	0.285548	0.206861	0.109366	0.035716	0.285141	0.187067
84	0.284602	0.156378	0.315866	0.076924	0.046349	0.014426	0.302815	0.124192	0.168838	0.114362	0.710276	0.658654	0.479124	0.415631	0.200156	0.227360	0.508792	0.250038	0.491944	0.365915	0.144236	0.026103	0.468312	0.382119	0.155665	0.174721	0.338582	0.291063	0.109185	0.020143	0.228712	0.200193	0.170871	0.088333	0.342892	0.194956	0.123261	0.036753	0.284097	0.182799
85	0.286545	0.184292	0.293535	0.051506	0.044542	0.011507	0.234135	0.110052	0.193555	0.122053	0.755607	0.653593	0.484236	0.414543	0.188847	0.209335	0.510638	0.212983	0.531935	0.392176	0.136973	0.025735	0.420618	0.391584	0.143102	0.082017	0.285945	0.311917	0.103234	0.029886	0.210103	0.169394	0.126449	0.076568	0.393689	0.201530	0.123898	0.036778	0.282176	0.176515
86	0.288807	0.196517	0.262790	0.044002	0.038379	0.016685	0.200979	0.174493	0.224300	0.123730	0.752466	0.677902	0.485772	0.411787	0.187476	0.204090	0.408818	0.132067	0.533526	0.388864	0.113709	0.025176	0.398760	0.398263	0.131583	0.074089	0.264963	0.323219	0.165268	0.164438	0.209578	0.157234	0.116068	0.071174	0.395672	0.229538	0.122128	0.035799	0.282285	0.175236
87	0.306511	0.251995	0.233413	0.038519	0.038594	0.042811	0.209106	0.209662	0.230010	0.120181	0.760667	0.727008	0.451064	0.374746	0.210123	0.198790	0.327098	0.098552	0.506809	0.384930	0.120610	0.024821	0.402011	0.394961	0.142100	0.074846	0.365901	0.437986	0.336546	0.298260	0.210807	0.161058	0.109452	0.065316	0.445220	0.286580	0.135365	0.034823	0.281647	0.176568
88	0.344511	0.268321	0.233577	0.036004	0.055358	0.045262	0.214552	0.239146	0.230747	0.119905	0.903524	0.760764	0.475733	0.404948	0.208113	0.198153	0.227045	0.076917	0.449780	0.366567	0.128598	0.023518	0.394777	0.362068	0.143790	0.074536	0.497202	0.464570	0.369561	0.326149	0.230606	0.173800	0.117459	0.059085	0.454807	0.299657	0.138628	0.033888	0.281485	0.174631
89	0.355171	0.282036	0.240473	0.048287	0.106337	0.063640	0.259558	0.261979	0.234595	0.114301	1.061905	0.766482	0.427257	0.403207	0.204117	0.197017	0.196664	0.067959	0.429443	0.366162	0.134418	0.022579	0.374635	0.306783	0.142477	0.075634	0.534694	0.481504	0.461912	0.378043	0.248583	0.177922	0.126824	0.052312	0.487515	0.333513	0.142710	0.033500	0.288545	0.174529
90	0.580240	0.408226	0.279187	0.079608	0.142423	0.077562	0.291658	0.265858	0.241703	0.117155	1.107925	0.701663	0.392931	0.375628	0.201963	0.193876	0.192159	0.066891	0.452224	0.372185	0.141174	0.022642	0.337512	0.308587	0.152182	0.076047	0.558688	0.547193	0.479375	0.395682	0.258184	0.177555	0.125455	0.045031	0.548690	0.369806	0.146583	0.032718	0.292184	0.205326
91	0.736991	0.457531	0.323213	0.085444	0.144669	0.078354	0.283571	0.297807	0.240342	0.130856	1.085701	0.638758	0.408660	0.383730	0.202540	0.154261	0.164760	0.068876	0.539476	0.396141	0.136464	0.022543	0.316693	0.293127	0.150256	0.073579	0.568792	0.557810	0.480557	0.398374	0.259379	0.180279	0.133310	0.039902	0.562557	0.425442	0.153703	0.034752	0.289880	0.209799
92	0.745047	0.463908	0.342297	0.104600	0.150408	0.079848	0.298824	0.333999	0.227814	0.132966	1.027100	0.629425	0.409299	0.395927	0.196000	0.133075	0.158906	0.070759	0.615615	0.414862	0.137038	0.021917	0.320759	0.262311	0.149155	0.072263	0.585584	0.574052	0.489231	0.414825	0.251088	0.175005	0.137446	0.037971	0.552756	0.435623	0.158685	0.073173	0.298963	0.197519
93	0.751305	0.464149	0.361785	0.108458	0.150215	0.083196	0.316302	0.335800	0.231842	0.132669	0.973897	0.591051	0.410527	0.401069	0.196380	0.132096	0.163143	0.073279	0.610703	0.399740	0.142977	0.021421	0.324628	0.245714	0.148924	0.063289	0.588894	0.571308	0.491814	0.422397	0.250951	0.158102	0.134110	0.037586	0.529686	0.512598	0.184149	0.092168	0.308671	0.185366
94	0.770786	0.466825	0.364707	0.108465	0.156243	0.086492	0.336079	0.335379	0.214484	0.127198	0.984419	0.594653	0.410196	0.406560	0.221309	0.113453	0.152244	0.072639	0.600501	0.352322	0.147770	0.021083	0.318867	0.226111	0.159595	0.051898	0.597437	0.554145	0.512116	0.449234	0.260780	0.139654	0.135984	0.041100	0.484009	0.520537	0.213884	0.095115	0.262401	0.176088
95	0.764685	0.465676	0.349042	0.111105	0.181231	0.106528	0.360731	0.316082	0.189851	0.135463	1.008497	0.556769	0.423762	0.426858	0.224439	0.099132	0.147651	0.066889	0.561408	0.302148	0.144637	0.019600	0.272743	0.211677	0.164991	0.051997	0.604460	0.548636	0.516440	0.454372	0.263346	0.135664	0.143552	0.042083	0.475929	0.523607	0.214510	0.102360	0.238578	0.173859
96	0.744842	0.457748	0.339132	0.134708	0.194686	0.109990	0.369722	0.288628	0.175125	0.137108	0.998336	0.514199	0.440065	0.437810	0.205587	0.074276	0.146475	0.145228	0.535822	0.322114	0.140074	0.017787	0.212675	0.201903	0.144336	0.049986	0.581704	0.481844	0.515981	0.452108	0.254309	0.142072	0.156162	0.041961	0.533309	0.494429	0.214003	0.107333	0.236525	0.179772
97	0.821072	0.491708	0.387718	0.179142	0.196892	0.117683	0.353579	0.268383	0.181687	0.136955	0.939396	0.483222	0.472543	0.430860	0.172400	0.058739	0.266282	0.307224	0.482788	0.405962	0.133715	0.016394	0.160313	0.183768	0.142265	0.067426	0.486513	0.413670	0.472768	0.401463	0.261605	0.159576	0.153882	0.041904	0.512083	0.473095	0.263975	0.110363	0.246647	0.184376
98	0.891072	0.516133	0.463651	0.202563	0.187581	0.121724	0.321613	0.240672	0.189254	0.136903	0.868897	0.457456	0.403951	0.342312	0.165615	0.060327	0.288205	0.327166	0.477965	0.465006	0.121529	0.013712	0.136267	0.176675	0.164416	0.194408	0.437719	0.402666	0.393993	0.342885	0.270587	0.169382	0.134608	0.035022	0.495301	0.460815	0.342588	0.111315	0.268677	0.183157
99	0.896906	0.500762	0.499829	0.210488	0.153316	0.108314	0.296562	0.230863	0.185289	0.134466	0.817832	0.454359	0.387107	0.322408	0.163549	0.059949	0.297530	0.362586	0.480526	0.472100	0.108340	0.010747	0.130078	0.172097	0.176481	0.217883	0.416895	0.303501	0.334179	0.296096	0.265621	0.160111	0.137477	0.032028	0.444917	0.481976	0.378363	0.112905	0.268550	0.182716
100	0.885383	0.521088	0.511599	0.212244	0.156407	0.106966	0.286710	0.219961	0.166247	0.111493	0.815857	0.446519	0.330766	0.281348	0.155178	0.059934	0.300070	0.376518	0.510774	0.469998	0.106543	0.010604	0.125858	0.161432	0.284994	0.267529	0.396023	0.304735	0.238376	0.246156	0.261844	0.158169	0.135367	0.031302	0.402695	0.428141	0.380155	0.113409	0.263891	0.183559
101	0.878824	0.528408	0.515397	0.209786	0.165048	0.105938	0.318169	0.161364	0.158856	0.088476	0.799473	0.358229	0.325997	0.275705	0.137777	0.059798	0.299977	0.382793	0.519445	0.449079	0.096494	0.011672	0.129902	0.153304	0.293540	0.269893	0.362219	0.263281	0.240760	0.236661	0.259925	0.166075	0.116185	0.028145	0.403212	0.415344	0.379588	0.113084	0.254258	0.162230
