	138_P_T1_sh_R_D_A_02.c3d	138_P_T1_sh_R_D_A_02.c3d	138_P_T1_sh_R_D_A_02.c3d	138_P_T1_sh_R_D_A_02.c3d	138_P_T1_sh_R_D_A_02.c3d	138_P_T1_sh_R_D_A_02.c3d	138_P_T1_sh_R_D_A_02.c3d	138_P_T1_sh_R_D_A_02.c3d	138_P_T1_sh_R_D_A_03.c3d	138_P_T1_sh_R_D_A_03.c3d	138_P_T1_sh_R_D_A_03.c3d	138_P_T1_sh_R_D_A_03.c3d	138_P_T1_sh_R_D_A_03.c3d	138_P_T1_sh_R_D_A_03.c3d	138_P_T1_sh_R_D_A_03.c3d	138_P_T1_sh_R_D_A_03.c3d	138_P_T1_sh_R_D_A_04.c3d	138_P_T1_sh_R_D_A_04.c3d	138_P_T1_sh_R_D_A_04.c3d	138_P_T1_sh_R_D_A_04.c3d	138_P_T1_sh_R_D_A_04.c3d	138_P_T1_sh_R_D_A_04.c3d	138_P_T1_sh_R_D_A_04.c3d	138_P_T1_sh_R_D_A_04.c3d	138_P_T1_sh_R_D_A_05.c3d	138_P_T1_sh_R_D_A_05.c3d	138_P_T1_sh_R_D_A_05.c3d	138_P_T1_sh_R_D_A_05.c3d	138_P_T1_sh_R_D_A_05.c3d	138_P_T1_sh_R_D_A_05.c3d	138_P_T1_sh_R_D_A_05.c3d	138_P_T1_sh_R_D_A_05.c3d	138_P_T1_sh_R_D_A_06.c3d	138_P_T1_sh_R_D_A_06.c3d	138_P_T1_sh_R_D_A_06.c3d	138_P_T1_sh_R_D_A_06.c3d	138_P_T1_sh_R_D_A_06.c3d	138_P_T1_sh_R_D_A_06.c3d	138_P_T1_sh_R_D_A_06.c3d	138_P_T1_sh_R_D_A_06.c3d	138_P_T1_sh_R_D_A_08.c3d	138_P_T1_sh_R_D_A_08.c3d	138_P_T1_sh_R_D_A_08.c3d	138_P_T1_sh_R_D_A_08.c3d	138_P_T1_sh_R_D_A_08.c3d	138_P_T1_sh_R_D_A_08.c3d	138_P_T1_sh_R_D_A_08.c3d	138_P_T1_sh_R_D_A_08.c3d	138_P_T1_sh_R_D_A_09.c3d	138_P_T1_sh_R_D_A_09.c3d	138_P_T1_sh_R_D_A_09.c3d	138_P_T1_sh_R_D_A_09.c3d	138_P_T1_sh_R_D_A_09.c3d	138_P_T1_sh_R_D_A_09.c3d	138_P_T1_sh_R_D_A_09.c3d	138_P_T1_sh_R_D_A_09.c3d	138_P_T1_sh_R_D_A_10.c3d	138_P_T1_sh_R_D_A_10.c3d	138_P_T1_sh_R_D_A_10.c3d	138_P_T1_sh_R_D_A_10.c3d	138_P_T1_sh_R_D_A_10.c3d	138_P_T1_sh_R_D_A_10.c3d	138_P_T1_sh_R_D_A_10.c3d	138_P_T1_sh_R_D_A_10.c3d
	Biceps femoris_lat	Semitendinosus_lat	Vastus lateralis_lat	Vastus medialis_lat	Biceps femoris_med	Semitendinosus_med	Vastus lateralis_med	Vastus medialis_med	Biceps femoris_lat	Semitendinosus_lat	Vastus lateralis_lat	Vastus medialis_lat	Biceps femoris_med	Semitendinosus_med	Vastus lateralis_med	Vastus medialis_med	Biceps femoris_lat	Semitendinosus_lat	Vastus lateralis_lat	Vastus medialis_lat	Biceps femoris_med	Semitendinosus_med	Vastus lateralis_med	Vastus medialis_med	Biceps femoris_lat	Semitendinosus_lat	Vastus lateralis_lat	Vastus medialis_lat	Biceps femoris_med	Semitendinosus_med	Vastus lateralis_med	Vastus medialis_med	Biceps femoris_lat	Semitendinosus_lat	Vastus lateralis_lat	Vastus medialis_lat	Biceps femoris_med	Semitendinosus_med	Vastus lateralis_med	Vastus medialis_med	Biceps femoris_lat	Semitendinosus_lat	Vastus lateralis_lat	Vastus medialis_lat	Biceps femoris_med	Semitendinosus_med	Vastus lateralis_med	Vastus medialis_med	Biceps femoris_lat	Semitendinosus_lat	Vastus lateralis_lat	Vastus medialis_lat	Biceps femoris_med	Semitendinosus_med	Vastus lateralis_med	Vastus medialis_med	Biceps femoris_lat	Semitendinosus_lat	Vastus lateralis_lat	Vastus medialis_lat	Biceps femoris_med	Semitendinosus_med	Vastus lateralis_med	Vastus medialis_med
	P2D	P2D	P2D	P2D	P2D	P2D	P2D	P2D	P2D	P2D	P2D	P2D	P2D	P2D	P2D	P2D	P2D	P2D	P2D	P2D	P2D	P2D	P2D	P2D	P2D	P2D	P2D	P2D	P2D	P2D	P2D	P2D	P2D	P2D	P2D	P2D	P2D	P2D	P2D	P2D	P2D	P2D	P2D	P2D	P2D	P2D	P2D	P2D	P2D	P2D	P2D	P2D	P2D	P2D	P2D	P2D	P2D	P2D	P2D	P2D	P2D	P2D	P2D	P2D
	EMG_lat	EMG_lat	EMG_lat	EMG_lat	EMG_med	EMG_med	EMG_med	EMG_med	EMG_lat	EMG_lat	EMG_lat	EMG_lat	EMG_med	EMG_med	EMG_med	EMG_med	EMG_lat	EMG_lat	EMG_lat	EMG_lat	EMG_med	EMG_med	EMG_med	EMG_med	EMG_lat	EMG_lat	EMG_lat	EMG_lat	EMG_med	EMG_med	EMG_med	EMG_med	EMG_lat	EMG_lat	EMG_lat	EMG_lat	EMG_med	EMG_med	EMG_med	EMG_med	EMG_lat	EMG_lat	EMG_lat	EMG_lat	EMG_med	EMG_med	EMG_med	EMG_med	EMG_lat	EMG_lat	EMG_lat	EMG_lat	EMG_med	EMG_med	EMG_med	EMG_med	EMG_lat	EMG_lat	EMG_lat	EMG_lat	EMG_med	EMG_med	EMG_med	EMG_med
ITEM	Y	Y	Y	Y	Y	Y	Y	Y	Y	Y	Y	Y	Y	Y	Y	Y	Y	Y	Y	Y	Y	Y	Y	Y	Y	Y	Y	Y	Y	Y	Y	Y	Y	Y	Y	Y	Y	Y	Y	Y	Y	Y	Y	Y	Y	Y	Y	Y	Y	Y	Y	Y	Y	Y	Y	Y	Y	Y	Y	Y	Y	Y	Y	Y
1	0.417703	0.176320	0.138302	0.166898	0.150659	0.236124	0.640549	0.309361	0.515048	0.367365	0.357128	0.368404	0.496716	0.129406	0.309730	0.328597	0.669307	0.212754	0.617029	0.792173	0.422648	0.169582	0.157482	0.416689	0.124661	0.094205	0.186506	0.269758	0.324446	0.332468	0.403787	0.366178	0.284863	0.102317	0.153033	0.276854	0.548031	0.160336	0.673967	0.370736	0.354752	0.110710	0.191242	0.116758	0.188224	0.197706	0.320671	0.662826	0.175459	0.268202	0.110341	0.142953	0.246774	0.126145	0.141780	0.254935	0.564198	0.107686	0.169427	0.143420	0.295387	0.439350	0.124685	0.399182
2	0.422175	0.198708	0.143728	0.188237	0.151982	0.264538	0.594180	0.333176	0.514267	0.342665	0.362091	0.385880	0.479666	0.130108	0.317467	0.330078	0.673943	0.202698	0.616291	0.791456	0.385824	0.168255	0.158806	0.433916	0.166262	0.093782	0.182277	0.284466	0.280706	0.334229	0.394407	0.401257	0.268430	0.074776	0.159079	0.292821	0.544942	0.160232	0.678362	0.365372	0.457572	0.098605	0.241547	0.098911	0.169865	0.207463	0.319134	0.620356	0.168994	0.264026	0.134149	0.118189	0.257035	0.126635	0.155972	0.279048	0.588183	0.114023	0.189189	0.125055	0.321198	0.445888	0.121419	0.356112
3	0.420211	0.204135	0.154632	0.220657	0.155791	0.271884	0.587218	0.439581	0.507607	0.339376	0.363665	0.392760	0.466912	0.133020	0.324600	0.321149	0.649889	0.203562	0.616020	0.789970	0.243050	0.170764	0.163718	0.445711	0.187751	0.097022	0.189936	0.329389	0.283776	0.334305	0.363754	0.411355	0.247650	0.080049	0.237211	0.298132	0.535156	0.162662	0.662553	0.365392	0.469338	0.079026	0.287557	0.115232	0.108366	0.211794	0.304478	0.579605	0.154604	0.258451	0.146846	0.102740	0.317088	0.135817	0.183996	0.392029	0.566928	0.096719	0.193428	0.141222	0.315902	0.456115	0.109043	0.223262
4	0.427041	0.205083	0.161964	0.244774	0.166794	0.383002	0.541118	0.565256	0.501160	0.309702	0.369925	0.394173	0.402764	0.130274	0.334928	0.329460	0.602675	0.196067	0.615872	0.788405	0.147609	0.171562	0.176277	0.477787	0.189038	0.098145	0.174892	0.380237	0.283915	0.332942	0.328832	0.409862	0.238200	0.086488	0.339025	0.342326	0.525998	0.168113	0.600778	0.357719	0.470249	0.063570	0.298823	0.130793	0.109839	0.205680	0.291395	0.575986	0.148066	0.250960	0.148058	0.102033	0.408577	0.189691	0.190560	0.418912	0.548201	0.096920	0.242521	0.190209	0.312806	0.456298	0.109202	0.117405
5	0.403271	0.199971	0.234159	0.281041	0.150664	0.405035	0.344835	0.595968	0.488664	0.263365	0.376593	0.395299	0.440423	0.135988	0.351435	0.336870	0.594479	0.178560	0.613502	0.787887	0.105011	0.185971	0.185948	0.462230	0.189291	0.098241	0.198665	0.406327	0.279940	0.326357	0.296023	0.411555	0.241187	0.086945	0.420022	0.402270	0.505114	0.198888	0.533511	0.351045	0.468490	0.069958	0.302725	0.128505	0.103090	0.156604	0.303702	0.564550	0.153321	0.269456	0.149878	0.100001	0.465819	0.209658	0.190201	0.413480	0.590089	0.096053	0.515936	0.629697	0.306783	0.454938	0.109016	0.117714
6	0.368656	0.164254	0.293295	0.318797	0.130621	0.393510	0.264821	0.620704	0.474320	0.229800	0.379010	0.396123	0.519045	0.137581	0.353957	0.273918	0.487664	0.174673	0.601383	0.760894	0.093118	0.197991	0.180369	0.449594	0.189671	0.108831	0.273224	0.413859	0.267557	0.309424	0.280497	0.414854	0.240750	0.090838	0.498828	0.482668	0.368108	0.236722	0.512246	0.362292	0.462407	0.081050	0.323136	0.132320	0.112341	0.152781	0.311504	0.561042	0.153089	0.295427	0.169996	0.089364	0.456092	0.200305	0.198074	0.410627	0.610130	0.087861	0.783900	0.902610	0.299943	0.458456	0.099230	0.108895
7	0.287337	0.150648	0.308385	0.422866	0.119074	0.385461	0.273625	0.726036	0.473490	0.205610	0.377576	0.395668	0.524487	0.137175	0.343638	0.264051	0.320630	0.171442	0.585720	0.685611	0.107822	0.210487	0.176550	0.447692	0.189451	0.129678	0.330732	0.414345	0.246606	0.305156	0.279358	0.415475	0.238847	0.098235	0.536278	0.531266	0.169965	0.244704	0.510986	0.376780	0.451262	0.081121	0.338012	0.150510	0.185666	0.166363	0.305738	0.528418	0.139685	0.291955	0.184669	0.062667	0.538895	0.200037	0.202187	0.417699	0.558333	0.093691	0.932221	0.954523	0.301749	0.460078	0.091294	0.119394
8	0.278538	0.143743	0.364727	0.433994	0.120979	0.384544	0.287989	0.808551	0.456411	0.145236	0.375000	0.394466	0.528428	0.137187	0.318526	0.265739	0.298966	0.166549	0.591083	0.685392	0.123461	0.203288	0.181277	0.457759	0.192354	0.138551	0.358328	0.417358	0.242698	0.312909	0.285628	0.413286	0.249708	0.103876	0.541403	0.526337	0.133660	0.321493	0.484077	0.377099	0.435752	0.080883	0.340601	0.154235	0.206672	0.153725	0.287775	0.475308	0.134999	0.282583	0.187196	0.063871	0.649649	0.199705	0.202953	0.417809	0.547199	0.104555	0.962149	0.955870	0.309466	0.391276	0.188158	0.244592
9	0.278487	0.087856	0.370371	0.449483	0.123181	0.385361	0.289996	0.846783	0.455829	0.117412	0.379060	0.413568	0.530092	0.136963	0.303886	0.263559	0.298453	0.150619	0.614771	0.696412	0.123633	0.212140	0.186112	0.441303	0.192453	0.141617	0.362930	0.423360	0.204425	0.305551	0.279574	0.411311	0.266376	0.103429	0.571985	0.518536	0.142950	0.374572	0.358865	0.372928	0.420768	0.079810	0.338248	0.155391	0.276003	0.156404	0.272226	0.372824	0.148529	0.320189	0.202026	0.087195	0.666480	0.204295	0.195887	0.417225	0.545613	0.109733	0.986132	0.971587	0.302314	0.322264	0.258470	0.300491
10	0.270461	0.076122	0.369846	0.450686	0.125303	0.386986	0.290434	0.847862	0.390587	0.111261	0.378069	0.443452	0.528884	0.136323	0.322707	0.274354	0.293402	0.128153	0.629802	0.703040	0.115513	0.251184	0.235244	0.433351	0.192267	0.149074	0.446769	0.427732	0.159911	0.273853	0.264354	0.407627	0.303305	0.099510	0.613520	0.555552	0.145272	0.376106	0.219779	0.329305	0.410374	0.081499	0.346459	0.164473	0.283390	0.158501	0.240681	0.248830	0.155972	0.336367	0.220257	0.130213	0.668341	0.203787	0.178557	0.386486	0.549164	0.141973	1.101268	1.022421	0.276269	0.332774	0.297027	0.308639
11	0.258979	0.067998	0.366620	0.439996	0.139444	0.389247	0.281854	0.856527	0.304274	0.108850	0.361533	0.424800	0.528255	0.191397	0.324004	0.288408	0.291200	0.129623	0.622135	0.695446	0.110374	0.271340	0.246992	0.584024	0.192623	0.156172	0.508473	0.413960	0.154550	0.271392	0.249480	0.399935	0.303704	0.097215	0.667661	0.599720	0.164824	0.388068	0.160741	0.257009	0.410347	0.083402	0.366479	0.173485	0.300861	0.169151	0.226908	0.287611	0.145425	0.318770	0.264449	0.160846	0.668856	0.195380	0.175254	0.396240	0.561527	0.170241	1.201689	1.147487	0.259292	0.285908	0.305243	0.308593
12	0.215171	0.075949	0.396139	0.649325	0.186446	0.441695	0.262502	0.866149	0.264071	0.111599	0.356633	0.395766	0.519524	0.212958	0.296745	0.316814	0.296457	0.108822	0.607189	0.672750	0.113173	0.402219	0.264880	0.661434	0.198324	0.157743	0.512572	0.392890	0.154186	0.273286	0.238777	0.393970	0.296550	0.097350	0.711588	0.613052	0.168081	0.388497	0.153847	0.257442	0.410763	0.083893	0.376121	0.189215	0.312522	0.170458	0.227823	0.320784	0.131372	0.322877	0.371284	0.193187	0.668642	0.199071	0.175591	0.450970	0.567525	0.178656	1.255559	1.227513	0.285939	0.263623	0.322129	0.317641
13	0.168704	0.069031	0.373986	0.688609	0.202651	0.452129	0.251753	0.860693	0.288000	0.118794	0.458447	0.386532	0.461416	0.204967	0.296543	0.331760	0.300837	0.106932	0.602415	0.613668	0.129407	0.496588	0.287343	0.665803	0.200168	0.148967	0.514401	0.386893	0.159781	0.259136	0.241697	0.390513	0.279700	0.102647	0.728119	0.622259	0.162002	0.387417	0.156778	0.262136	0.414406	0.090219	0.378943	0.209709	0.313376	0.196484	0.232755	0.323153	0.128612	0.330183	0.430308	0.195182	0.666315	0.198233	0.166162	0.455802	0.582995	0.178954	1.279651	1.241194	0.329192	0.251808	0.352574	0.337356
14	0.177751	0.066174	0.368188	0.636261	0.238846	0.478140	0.239114	0.812232	0.309175	0.125880	0.594764	0.432035	0.406842	0.267769	0.312982	0.304349	0.307323	0.118473	0.593376	0.549957	0.134669	0.529687	0.288400	0.705993	0.237892	0.140862	0.518043	0.387160	0.164071	0.254122	0.257110	0.389760	0.238940	0.107459	0.734393	0.633816	0.159395	0.384288	0.159395	0.265625	0.411130	0.092482	0.370370	0.238666	0.316316	0.222613	0.237150	0.322940	0.130173	0.328046	0.434230	0.199270	0.648710	0.194492	0.137090	0.381736	0.627690	0.178964	1.291741	1.244413	0.348906	0.232003	0.364499	0.343231
15	0.176617	0.068056	0.303340	0.734675	0.265082	0.429384	0.237813	0.721990	0.337905	0.132535	0.666406	0.459884	0.380647	0.290744	0.310608	0.281153	0.309203	0.124303	0.588520	0.521414	0.130849	0.603891	0.364188	0.740809	0.254019	0.139735	0.517881	0.383525	0.154226	0.244739	0.277854	0.391335	0.221571	0.107644	0.735946	0.640662	0.154250	0.376718	0.172865	0.254287	0.313087	0.087372	0.354730	0.304222	0.316801	0.242501	0.215406	0.337057	0.130459	0.340572	0.437239	0.213178	0.604257	0.154619	0.116767	0.353142	0.642895	0.175986	1.294277	1.247035	0.349237	0.226473	0.364512	0.354856
16	0.162637	0.076566	0.343949	0.815899	0.266790	0.369588	0.262624	0.677243	0.351215	0.144576	0.680385	0.452143	0.383714	0.300815	0.302611	0.285737	0.308457	0.120459	0.587451	0.507094	0.130311	0.602300	0.426725	0.747945	0.243144	0.140852	0.528802	0.384005	0.150840	0.229334	0.291706	0.383742	0.246739	0.111359	0.735922	0.637400	0.152763	0.374929	0.194767	0.248949	0.227005	0.086762	0.427443	0.315864	0.313776	0.290309	0.180832	0.332496	0.129429	0.351175	0.437830	0.217727	0.548683	0.118648	0.115022	0.416180	0.640039	0.174036	1.293245	1.247501	0.352850	0.229923	0.364764	0.382547
17	0.158644	0.085709	0.434454	0.807980	0.266468	0.362597	0.300177	0.667810	0.359970	0.151459	0.658533	0.442422	0.384554	0.320686	0.291663	0.293922	0.271926	0.122168	0.587338	0.500157	0.126725	0.613794	0.428802	0.775057	0.215578	0.141648	0.563530	0.382528	0.147540	0.227909	0.299863	0.333541	0.250607	0.111505	0.745754	0.632662	0.164104	0.374600	0.202132	0.259749	0.217906	0.086995	0.566325	0.353776	0.313544	0.290102	0.181911	0.323505	0.131483	0.348831	0.466518	0.217825	0.537652	0.119859	0.101313	0.430589	0.615941	0.175206	1.292991	1.246798	0.464131	0.227404	0.365359	0.405664
18	0.156300	0.083750	0.434618	0.807727	0.272914	0.361115	0.286250	0.564167	0.366566	0.164664	0.656298	0.428547	0.341138	0.335161	0.265990	0.297537	0.246516	0.121001	0.587513	0.498515	0.112230	0.614049	0.488615	0.775820	0.191850	0.151544	0.579400	0.363268	0.130345	0.230367	0.302033	0.275689	0.251118	0.106102	0.753913	0.626733	0.181660	0.375177	0.205109	0.259904	0.216752	0.088404	0.643330	0.373250	0.282094	0.280427	0.184414	0.319035	0.132717	0.348720	0.514867	0.221957	0.476249	0.137696	0.085424	0.431045	0.583776	0.177266	1.255878	1.187232	0.502019	0.220020	0.365309	0.512196
19	0.141817	0.074928	0.428359	0.708762	0.278662	0.366278	0.301098	0.424296	0.373886	0.178608	0.777933	0.414795	0.182688	0.336951	0.264181	0.296028	0.218087	0.117033	0.587518	0.499421	0.132342	0.609605	0.513972	0.778543	0.192477	0.167016	0.584999	0.348872	0.112011	0.230117	0.300582	0.251424	0.249062	0.102690	0.743150	0.598817	0.195329	0.376149	0.205685	0.262426	0.212172	0.081746	0.641811	0.376260	0.274096	0.277307	0.169149	0.330122	0.131560	0.349586	0.536167	0.242822	0.253908	0.144487	0.084208	0.428298	0.604275	0.184955	1.127395	0.956162	0.504058	0.223761	0.324831	0.497792
20	0.112279	0.081337	0.492469	0.718469	0.276914	0.369193	0.325068	0.312473	0.378461	0.188285	0.936515	0.417254	0.155173	0.350629	0.266250	0.289836	0.212377	0.116366	0.588160	0.499845	0.148302	0.604415	0.501418	0.818604	0.203457	0.182321	0.573605	0.323075	0.101472	0.230178	0.300263	0.251629	0.242305	0.104887	0.724628	0.562974	0.228144	0.341645	0.209675	0.264438	0.190064	0.093558	0.671175	0.366441	0.219050	0.275288	0.150802	0.336062	0.124342	0.335234	0.548969	0.245073	0.163874	0.146793	0.077095	0.425892	0.601374	0.184306	0.972475	0.825257	0.505920	0.212760	0.289789	0.474662
21	0.077482	0.093655	0.503982	0.757215	0.279080	0.371402	0.330602	0.292152	0.399589	0.197656	1.027704	0.450898	0.143544	0.377464	0.254751	0.285248	0.211216	0.116261	0.590508	0.499841	0.149747	0.581128	0.487025	0.783379	0.212571	0.181496	0.541007	0.311221	0.101137	0.230438	0.301344	0.253499	0.241030	0.100537	0.679033	0.545840	0.295953	0.347081	0.212237	0.246464	0.193104	0.177159	0.728119	0.362706	0.215453	0.271336	0.157643	0.328672	0.115281	0.306005	0.561058	0.245162	0.151873	0.140115	0.071462	0.428609	0.595031	0.174557	0.896474	0.820139	0.504827	0.147072	0.258950	0.505210
22	0.094443	0.098897	0.595925	0.686645	0.274009	0.374756	0.331247	0.270877	0.442931	0.204000	1.065141	0.499418	0.137509	0.380396	0.237734	0.285061	0.216235	0.118453	0.576568	0.476130	0.149471	0.532382	0.481370	0.681979	0.214482	0.170906	0.509910	0.314380	0.095287	0.229527	0.299446	0.249806	0.247545	0.090459	0.668533	0.560172	0.328848	0.358545	0.217027	0.235266	0.205307	0.216825	0.758516	0.374426	0.222679	0.264655	0.171891	0.271773	0.112919	0.294970	0.569420	0.248787	0.145741	0.164097	0.067966	0.413333	0.599654	0.172623	0.889258	0.817840	0.496625	0.173284	0.247391	0.536458
23	0.172363	0.100013	0.598212	0.534501	0.249292	0.335343	0.337541	0.237976	0.480190	0.205840	1.079218	0.520091	0.140578	0.380622	0.196647	0.280095	0.225415	0.123812	0.522208	0.374278	0.137580	0.410874	0.461821	0.665783	0.212294	0.169169	0.523820	0.314574	0.092395	0.229754	0.297336	0.254960	0.281567	0.086790	0.677838	0.585619	0.349178	0.293337	0.220993	0.239599	0.230223	0.221938	0.766565	0.392669	0.212573	0.295973	0.173834	0.241339	0.110270	0.293000	0.575842	0.261453	0.149553	0.230328	0.047962	0.347897	0.601490	0.157491	0.801830	0.792377	0.462400	0.179960	0.219001	0.533114
24	0.363862	0.102268	0.516076	0.517910	0.226348	0.269578	0.337473	0.335320	0.501418	0.204329	1.084819	0.524626	0.144158	0.360466	0.173571	0.267062	0.241248	0.122136	0.454312	0.278517	0.130062	0.387202	0.458365	0.623834	0.211848	0.197196	0.587303	0.322795	0.085070	0.207506	0.297351	0.266424	0.319137	0.090796	0.661240	0.579278	0.354351	0.292029	0.221232	0.244072	0.232463	0.243986	0.760122	0.389692	0.214163	0.280544	0.170804	0.238519	0.093999	0.246501	0.573869	0.271860	0.164649	0.249718	0.036030	0.315854	0.591538	0.121263	0.613269	0.658334	0.400769	0.225637	0.165033	0.523722
25	0.365100	0.108733	0.510235	0.517958	0.198188	0.230188	0.338147	0.401025	0.500384	0.200546	1.089391	0.524545	0.138674	0.341640	0.169556	0.231231	0.267531	0.115403	0.413824	0.272327	0.130961	0.196940	0.414279	0.540349	0.218489	0.204483	0.596606	0.325330	0.086101	0.196377	0.288796	0.270717	0.304299	0.091874	0.629810	0.526270	0.356712	0.281711	0.220307	0.245104	0.228012	0.259919	0.753473	0.394922	0.211255	0.263822	0.170204	0.237563	0.081947	0.210738	0.581101	0.265668	0.182736	0.353109	0.032011	0.311038	0.579301	0.096480	0.450393	0.404482	0.385025	0.251243	0.139147	0.517103
26	0.448618	0.108403	0.511153	0.501357	0.139735	0.182974	0.336735	0.394283	0.494484	0.200581	1.090506	0.519604	0.137928	0.340768	0.162331	0.195927	0.331657	0.111778	0.423017	0.279105	0.150036	0.188248	0.331558	0.532927	0.239961	0.199904	0.543233	0.338165	0.094598	0.198196	0.270347	0.273655	0.303337	0.093899	0.572620	0.493401	0.350349	0.272694	0.218989	0.245939	0.214583	0.260106	0.750521	0.391489	0.217290	0.366792	0.170873	0.207221	0.076848	0.207236	0.594460	0.254403	0.181499	0.385147	0.031677	0.289929	0.560499	0.091575	0.340493	0.278544	0.387539	0.265224	0.143260	0.508158
27	0.610916	0.113833	0.452589	0.423991	0.108168	0.168259	0.309893	0.373700	0.501833	0.204462	1.088831	0.494426	0.136398	0.336176	0.127837	0.194199	0.347645	0.113663	0.510404	0.270330	0.169893	0.217608	0.307538	0.487605	0.235886	0.245898	0.536808	0.348971	0.100023	0.201562	0.253495	0.283347	0.318054	0.091989	0.521521	0.511622	0.349937	0.272278	0.216958	0.247549	0.217787	0.258412	0.749505	0.379609	0.217528	0.353535	0.160618	0.197204	0.077148	0.181888	0.563814	0.249104	0.195475	0.386245	0.031365	0.185139	0.503303	0.091100	0.253000	0.253002	0.385407	0.271057	0.144457	0.486797
28	0.616309	0.106019	0.439562	0.275540	0.107631	0.192640	0.258698	0.385771	0.543924	0.210692	1.089690	0.477614	0.142563	0.363803	0.103705	0.189764	0.407470	0.109318	0.602315	0.260259	0.171135	0.258769	0.229676	0.456251	0.233444	0.314673	0.566187	0.335654	0.100983	0.194819	0.246924	0.325717	0.347919	0.085124	0.500295	0.526691	0.350315	0.272376	0.215665	0.238487	0.223347	0.258610	0.749089	0.347062	0.215171	0.355957	0.141321	0.198368	0.087549	0.157823	0.514595	0.274575	0.204104	0.412896	0.030450	0.123437	0.417048	0.090201	0.192615	0.238887	0.229729	0.264026	0.144591	0.463163
29	0.616736	0.101064	0.312484	0.315648	0.094675	0.224420	0.253763	0.397278	0.561972	0.215758	1.092052	0.480718	0.165015	0.362394	0.102093	0.183279	0.465144	0.097879	0.643515	0.247846	0.157972	0.279179	0.102809	0.454377	0.212381	0.334206	0.605642	0.336866	0.098337	0.193187	0.248121	0.370550	0.480359	0.080439	0.492170	0.514374	0.350783	0.272302	0.207003	0.214545	0.223039	0.260358	0.723871	0.317261	0.217663	0.362971	0.137214	0.208718	0.185787	0.154618	0.508699	0.286524	0.206209	0.414262	0.028681	0.090662	0.380716	0.089815	0.175158	0.231813	0.125513	0.264889	0.152769	0.337953
30	0.610867	0.103548	0.304644	0.464862	0.058492	0.235352	0.218348	0.403201	0.563531	0.221011	1.087269	0.485644	0.201803	0.465845	0.102068	0.147666	0.500829	0.086568	0.640925	0.219130	0.139905	0.296896	0.048097	0.376539	0.177985	0.333999	0.638018	0.372106	0.085345	0.192962	0.236875	0.376901	0.515667	0.086208	0.494080	0.501337	0.350796	0.272240	0.168275	0.203019	0.222275	0.266103	0.620753	0.292095	0.211142	0.366665	0.136526	0.216918	0.247881	0.133791	0.518780	0.287531	0.202967	0.420066	0.043700	0.087988	0.378769	0.090632	0.183231	0.242376	0.093137	0.260757	0.161079	0.352647
31	0.513379	0.086871	0.602445	0.471345	0.049081	0.233657	0.190611	0.417687	0.563272	0.226923	1.049793	0.470837	0.197404	0.517988	0.101323	0.087055	0.516755	0.079246	0.683900	0.237279	0.140082	0.302261	0.063753	0.214558	0.175065	0.333970	0.643179	0.399012	0.078374	0.189832	0.218353	0.380492	0.515131	0.083990	0.498687	0.501487	0.347276	0.272590	0.134320	0.180751	0.223300	0.271263	0.497707	0.244091	0.196245	0.366447	0.136567	0.218292	0.278006	0.081665	0.531847	0.288947	0.194136	0.418118	0.046219	0.076783	0.377955	0.098109	0.224641	0.426443	0.082205	0.257670	0.126073	0.366175
32	0.505265	0.075204	0.657273	0.491656	0.051168	0.223810	0.333541	0.420153	0.560243	0.234422	1.028353	0.420763	0.220620	0.537607	0.082307	0.079479	0.515249	0.075739	0.808300	0.266544	0.141736	0.299819	0.084949	0.093463	0.186655	0.333878	0.615487	0.418897	0.079126	0.176887	0.201120	0.392372	0.522394	0.082933	0.470325	0.504090	0.338469	0.270577	0.126560	0.179284	0.224068	0.270208	0.460391	0.229482	0.185104	0.367624	0.123453	0.221341	0.351779	0.094765	0.514310	0.289796	0.189086	0.417543	0.046653	0.077418	0.301656	0.098970	0.242830	0.540946	0.082100	0.254132	0.131690	0.315481
33	0.497771	0.078978	0.846429	0.525270	0.055972	0.244239	0.480332	0.423131	0.558098	0.237720	1.064925	0.398545	0.232412	0.543899	0.056624	0.079029	0.514275	0.076948	0.894687	0.270340	0.142046	0.300135	0.090856	0.083124	0.219683	0.329956	0.594664	0.425034	0.083367	0.148989	0.190285	0.397165	0.526357	0.085699	0.411893	0.505050	0.330251	0.259032	0.125492	0.176249	0.221132	0.269707	0.435805	0.229038	0.146615	0.366936	0.096581	0.193477	0.504857	0.106368	0.459334	0.302589	0.188762	0.414094	0.060537	0.077552	0.197125	0.109551	0.238677	0.545653	0.079868	0.235352	0.151962	0.270364
34	0.207162	0.084973	0.950320	0.560596	0.063749	0.257113	0.498099	0.430523	0.559770	0.241751	1.133415	0.464629	0.232513	0.524589	0.045101	0.078887	0.518034	0.083245	0.919844	0.272328	0.141358	0.302314	0.093486	0.085790	0.261082	0.322737	0.588592	0.397276	0.083318	0.120365	0.178457	0.392197	0.527703	0.086539	0.356582	0.505254	0.315681	0.254889	0.106381	0.157171	0.203302	0.242932	0.331418	0.228578	0.138415	0.338362	0.090475	0.187347	0.646487	0.108310	0.426507	0.313753	0.188031	0.386333	0.072174	0.088968	0.160347	0.121639	0.261563	0.548904	0.080576	0.233926	0.156337	0.265568
35	0.208212	0.085266	0.947012	0.590390	0.062918	0.264315	0.510299	0.375781	0.560372	0.240962	1.182310	0.557468	0.234587	0.522546	0.044566	0.078639	0.523889	0.084423	0.924502	0.287381	0.135137	0.365121	0.099945	0.090760	0.314578	0.316387	0.587797	0.402735	0.083946	0.110415	0.175575	0.376681	0.527708	0.084116	0.317677	0.484082	0.248201	0.252402	0.080496	0.128300	0.190130	0.189615	0.198608	0.223249	0.137320	0.333791	0.095780	0.234061	0.675766	0.107315	0.411126	0.326897	0.177832	0.374751	0.122399	0.115999	0.108890	0.121523	0.313153	0.549316	0.080400	0.190107	0.156876	0.277844
36	0.216969	0.086211	0.953796	0.644466	0.062870	0.266264	0.560638	0.290370	0.552426	0.232285	1.165122	0.610610	0.235131	0.522999	0.047094	0.065094	0.529733	0.084727	0.924421	0.300056	0.115679	0.401494	0.099685	0.082563	0.397936	0.329307	0.588139	0.439356	0.085974	0.119103	0.177728	0.363177	0.527993	0.080399	0.315928	0.416107	0.220646	0.162512	0.066067	0.126417	0.147227	0.169471	0.115891	0.178267	0.133232	0.329059	0.086638	0.244041	0.726618	0.121789	0.385821	0.337936	0.145556	0.321988	0.128783	0.127828	0.088945	0.124479	0.317668	0.545171	0.078905	0.169359	0.157521	0.296246
37	0.220452	0.091815	0.951346	0.570724	0.064346	0.264801	0.604032	0.304525	0.549422	0.225347	1.049459	0.620884	0.234358	0.523000	0.040973	0.048082	0.544485	0.084011	0.922341	0.303652	0.104066	0.495856	0.099976	0.077441	0.468819	0.352341	0.585470	0.453729	0.086648	0.135155	0.181444	0.360869	0.521268	0.080018	0.294545	0.356856	0.129373	0.120602	0.049399	0.120272	0.129535	0.161712	0.109089	0.164450	0.118474	0.176360	0.110528	0.260728	0.742972	0.125413	0.364465	0.343440	0.139417	0.241431	0.139369	0.128474	0.096212	0.129868	0.309520	0.555433	0.062780	0.169274	0.153339	0.300175
38	0.220874	0.090645	0.820180	0.629073	0.068123	0.263253	0.624182	0.325261	0.543415	0.216974	0.932525	0.619134	0.232895	0.522566	0.039723	0.035392	0.571061	0.082315	0.920840	0.304196	0.099169	0.553647	0.104691	0.070966	0.479443	0.364931	0.568600	0.464210	0.086655	0.140150	0.185697	0.359967	0.492863	0.075347	0.251523	0.316947	0.111582	0.119674	0.040870	0.113362	0.126730	0.106899	0.200926	0.194344	0.117764	0.133690	0.173216	0.280797	0.746476	0.128986	0.346812	0.337856	0.109749	0.244726	0.206342	0.129617	0.105905	0.138107	0.301915	0.568011	0.068396	0.326287	0.150184	0.300658
39	0.422065	0.092886	0.735638	0.630187	0.069924	0.248178	0.635717	0.314431	0.521909	0.208624	0.891520	0.582048	0.232602	0.521248	0.041233	0.030781	0.572502	0.084348	0.920175	0.304319	0.103121	0.534538	0.104919	0.070242	0.571235	0.351615	0.520782	0.456848	0.086530	0.139521	0.196004	0.361339	0.463624	0.073572	0.219190	0.309940	0.091921	0.114887	0.038940	0.111375	0.108698	0.110088	0.300493	0.242826	0.095572	0.134879	0.184393	0.282267	0.844086	0.152121	0.345496	0.327746	0.088750	0.206139	0.232342	0.128901	0.106543	0.141863	0.330356	0.567748	0.075678	0.340514	0.149993	0.306546
40	0.666729	0.092628	0.617289	0.606365	0.072244	0.217761	0.637955	0.305841	0.499620	0.206063	0.909419	0.556057	0.235305	0.497573	0.050511	0.038554	0.584278	0.106632	0.920045	0.279522	0.102994	0.528452	0.105756	0.085822	0.605340	0.363219	0.453354	0.473598	0.090040	0.142658	0.198174	0.353697	0.462291	0.073142	0.185894	0.309050	0.091435	0.112304	0.038946	0.109641	0.116178	0.121289	0.342301	0.254069	0.069958	0.123263	0.184855	0.269200	0.985302	0.166018	0.331392	0.321275	0.085560	0.190618	0.233179	0.128776	0.104799	0.141886	0.384689	0.570226	0.106200	0.347044	0.136709	0.310470
41	0.686911	0.078544	0.234979	0.551367	0.074298	0.188615	0.639875	0.298250	0.483069	0.210351	0.927132	0.544881	0.232467	0.459596	0.095416	0.080407	0.555321	0.107967	0.917732	0.265514	0.098729	0.518872	0.099110	0.111692	0.649600	0.384570	0.432227	0.490113	0.092883	0.149110	0.208203	0.351053	0.462482	0.071104	0.168870	0.284706	0.098998	0.108735	0.039067	0.090122	0.124026	0.131236	0.345729	0.271759	0.059373	0.108192	0.185338	0.254078	1.024774	0.169662	0.292427	0.376182	0.088278	0.178082	0.234474	0.133698	0.107466	0.142971	0.499131	0.570435	0.115186	0.348301	0.127500	0.242402
42	1.043453	0.081208	0.157119	0.524681	0.075431	0.180242	0.637699	0.278356	0.468839	0.216857	0.955460	0.545598	0.214718	0.454181	0.117154	0.086375	0.540770	0.105692	0.869179	0.260645	0.092450	0.518954	0.100277	0.117443	0.696601	0.384780	0.475244	0.481993	0.088186	0.155839	0.233085	0.361663	0.452912	0.069184	0.161847	0.216154	0.099415	0.107936	0.037625	0.075667	0.118818	0.132702	0.369501	0.319267	0.058233	0.108730	0.192512	0.314395	1.032215	0.172150	0.245870	0.448990	0.090850	0.182393	0.237878	0.136824	0.113095	0.146258	0.556859	0.571107	0.114108	0.347876	0.132998	0.204252
43	1.070869	0.084465	0.108183	0.406180	0.066459	0.177998	0.586512	0.271021	0.473485	0.226797	0.990070	0.562315	0.178143	0.347164	0.118929	0.088110	0.510576	0.107044	0.764145	0.258155	0.091803	0.518494	0.105387	0.124729	0.706619	0.331323	0.511070	0.486091	0.082968	0.160308	0.245361	0.365015	0.396204	0.069858	0.160243	0.147676	0.097623	0.110028	0.041404	0.077088	0.118975	0.126791	0.375374	0.320126	0.067964	0.119153	0.362265	0.400200	1.036134	0.174343	0.236724	0.444125	0.090712	0.213449	0.238965	0.127806	0.112246	0.145500	0.563538	0.574420	0.113426	0.347350	0.119444	0.198688
44	1.071327	0.074100	0.084887	0.374017	0.063651	0.153707	0.467621	0.269674	0.478332	0.231570	1.012886	0.590584	0.166540	0.210575	0.139112	0.090423	0.452917	0.113510	0.687143	0.267152	0.094149	0.518370	0.117373	0.131295	0.704624	0.306089	0.490577	0.503557	0.078447	0.152371	0.239497	0.353922	0.247158	0.072054	0.170997	0.150688	0.096655	0.114263	0.060912	0.082539	0.118668	0.112229	0.380293	0.317935	0.087279	0.131804	0.597246	0.419186	1.033675	0.178258	0.236789	0.446139	0.088303	0.237295	0.236995	0.130196	0.116352	0.143518	0.589701	0.529941	0.113511	0.345509	0.089055	0.191139
45	1.072011	0.072243	0.088299	0.253715	0.061600	0.183498	0.426533	0.267267	0.438793	0.226653	1.025323	0.616732	0.138390	0.165743	0.180451	0.091392	0.436803	0.117906	0.678231	0.264865	0.096243	0.486396	0.152610	0.130352	0.704607	0.305390	0.455905	0.499175	0.080985	0.154187	0.236695	0.314375	0.191189	0.069474	0.269083	0.226694	0.096851	0.122918	0.070260	0.083335	0.117970	0.111681	0.391434	0.325583	0.106806	0.148092	0.676912	0.413924	1.019219	0.180689	0.216995	0.440413	0.092822	0.241140	0.236884	0.153339	0.126737	0.146916	0.658846	0.351292	0.113638	0.342654	0.078245	0.210467
46	1.045592	0.070840	0.089478	0.130999	0.071829	0.256596	0.427426	0.253434	0.427686	0.220380	1.032470	0.643082	0.109964	0.104881	0.192312	0.092285	0.425227	0.119387	0.666573	0.243066	0.097856	0.444216	0.175089	0.129923	0.704515	0.306472	0.448347	0.499604	0.081334	0.154517	0.257882	0.273215	0.161371	0.074460	0.327866	0.245417	0.099974	0.151370	0.069240	0.083732	0.117811	0.113944	0.423566	0.325912	0.103996	0.144018	0.704780	0.394869	1.011593	0.179906	0.169621	0.434692	0.094414	0.232934	0.244508	0.146232	0.130629	0.146391	0.739758	0.293570	0.113534	0.385564	0.078316	0.208007
47	0.892555	0.070276	0.074294	0.132052	0.105160	0.258219	0.372658	0.255248	0.453072	0.215040	1.027160	0.652533	0.107545	0.127709	0.193612	0.092310	0.431697	0.120148	0.535510	0.204201	0.083011	0.394259	0.180378	0.129524	0.702302	0.306501	0.527570	0.532318	0.081596	0.155126	0.283768	0.272825	0.141076	0.080653	0.339610	0.242199	0.112039	0.178410	0.072586	0.095893	0.123575	0.123400	0.457881	0.325743	0.114059	0.147130	0.847329	0.443385	0.994342	0.173644	0.146285	0.442863	0.097773	0.303965	0.258612	0.157649	0.129937	0.136023	0.771545	0.297150	0.113927	0.490846	0.079222	0.195358
48	0.862083	0.067216	0.068751	0.137238	0.135746	0.350514	0.291258	0.271486	0.443715	0.204268	1.001822	0.661115	0.114942	0.128215	0.196513	0.092003	0.433465	0.119422	0.355399	0.197556	0.062253	0.099331	0.196970	0.136796	0.694052	0.306741	0.581735	0.523036	0.084324	0.165555	0.296575	0.270121	0.136738	0.082149	0.368841	0.284189	0.148654	0.196584	0.094413	0.116548	0.131972	0.136661	0.467717	0.326074	0.125568	0.152639	0.910805	0.473867	0.935757	0.164013	0.218983	0.443164	0.095860	0.318866	0.269917	0.180669	0.130355	0.132357	0.757438	0.277811	0.116248	0.503392	0.081274	0.193208
49	0.473230	0.058162	0.085091	0.150906	0.148723	0.383640	0.248231	0.272931	0.421408	0.187212	0.967541	0.672480	0.121805	0.129574	0.196714	0.093657	0.430621	0.115392	0.300694	0.195715	0.052363	0.121674	0.211774	0.136763	0.682202	0.306435	0.582347	0.520217	0.085989	0.167116	0.296216	0.241660	0.138654	0.082745	0.429513	0.337364	0.164064	0.282054	0.103467	0.122800	0.139076	0.146493	0.469174	0.327536	0.130670	0.154926	0.911039	0.470710	0.843837	0.158215	0.341850	0.454334	0.095617	0.494068	0.235804	0.180837	0.125077	0.132115	0.746839	0.293372	0.118451	0.642914	0.097077	0.231595
50	0.203719	0.062245	0.226747	0.264017	0.147791	0.387399	0.211665	0.267659	0.405146	0.169788	0.913907	0.676478	0.121709	0.208497	0.198669	0.103926	0.420477	0.113819	0.325669	0.179893	0.047727	0.129238	0.212359	0.130155	0.658117	0.304272	0.589987	0.512988	0.078033	0.171226	0.293314	0.224385	0.138493	0.081601	0.480707	0.364074	0.170760	0.291919	0.105085	0.124379	0.143942	0.151435	0.470138	0.328022	0.131256	0.147652	0.910477	0.474447	0.803381	0.157341	0.380879	0.460533	0.109631	0.505891	0.213184	0.190045	0.114714	0.127923	0.746895	0.268723	0.133448	0.664612	0.101878	0.279870
51	0.194221	0.102284	0.338111	0.332875	0.147727	0.394878	0.205343	0.255086	0.393324	0.150924	0.823003	0.658784	0.118856	0.234776	0.202298	0.130121	0.410187	0.114508	0.323211	0.160278	0.049152	0.141647	0.212214	0.119414	0.616823	0.291394	0.640965	0.528063	0.076180	0.171123	0.292992	0.218031	0.137033	0.086246	0.495758	0.398056	0.194613	0.292751	0.104633	0.122614	0.145581	0.152268	0.449282	0.326683	0.133719	0.157838	0.910347	0.474677	0.771528	0.146429	0.404362	0.488144	0.114479	0.512963	0.230141	0.198586	0.113480	0.124273	0.757947	0.225337	0.130907	0.660590	0.103416	0.284756
52	0.192627	0.111747	0.358363	0.339994	0.160667	0.421568	0.205516	0.263729	0.400058	0.140172	0.732965	0.588706	0.125327	0.241834	0.216353	0.132848	0.391720	0.115499	0.323691	0.152255	0.049844	0.163170	0.204908	0.109672	0.552394	0.260635	0.685577	0.602650	0.075205	0.172922	0.292584	0.207990	0.132899	0.098925	0.497669	0.406006	0.200522	0.282873	0.123459	0.128992	0.142323	0.149142	0.408360	0.291331	0.138740	0.193149	0.910260	0.469468	0.746181	0.140530	0.406590	0.504517	0.136481	0.516609	0.243043	0.201215	0.121437	0.122701	0.768612	0.261799	0.124973	0.660412	0.100791	0.279253
53	0.194012	0.125828	0.423843	0.379684	0.161994	0.429405	0.200135	0.284360	0.427315	0.138976	0.678786	0.528070	0.119632	0.349955	0.326410	0.161303	0.344335	0.108913	0.353209	0.182698	0.049625	0.166825	0.195615	0.109697	0.544526	0.234473	0.686828	0.663285	0.073596	0.195354	0.290966	0.196559	0.130723	0.110101	0.542882	0.435699	0.197653	0.280333	0.208830	0.128099	0.131966	0.140505	0.405019	0.268684	0.142089	0.206563	0.908673	0.423819	0.747694	0.138421	0.454805	0.528223	0.139481	0.514216	0.240066	0.218906	0.125580	0.122967	0.776301	0.268752	0.124662	0.664389	0.094787	0.285570
54	0.189823	0.144075	0.506330	0.407440	0.183248	0.451340	0.199903	0.294234	0.491782	0.143778	0.666464	0.498939	0.122747	0.502975	0.402376	0.191299	0.323780	0.106748	0.385501	0.187610	0.045920	0.169299	0.195359	0.108863	0.461777	0.232181	0.718341	0.690504	0.072033	0.232633	0.288087	0.190957	0.127589	0.115016	0.630446	0.495431	0.189848	0.279420	0.275975	0.134781	0.114629	0.128533	0.436216	0.269049	0.139303	0.209797	0.851581	0.346390	0.674956	0.116132	0.532336	0.540690	0.140768	0.505858	0.238480	0.227547	0.126700	0.122966	0.753832	0.293464	0.128701	0.671146	0.102642	0.293633
55	0.153266	0.151949	0.529492	0.415786	0.187220	0.458444	0.203541	0.302031	0.577487	0.152419	0.666876	0.483847	0.126250	0.558275	0.406280	0.203134	0.278766	0.084518	0.395380	0.206086	0.045729	0.173421	0.173210	0.104001	0.399716	0.207382	0.764829	0.680183	0.073286	0.243891	0.285954	0.191117	0.119284	0.118764	0.712697	0.576476	0.188198	0.279634	0.300416	0.156651	0.106578	0.122547	0.437726	0.222105	0.128113	0.207751	0.707871	0.324672	0.427063	0.088744	0.575505	0.545807	0.141011	0.491118	0.238425	0.225852	0.120119	0.119773	0.703934	0.377544	0.136583	0.672576	0.101686	0.294492
56	0.127197	0.151798	0.538111	0.412469	0.190298	0.449371	0.206611	0.308014	0.587447	0.153521	0.653692	0.483338	0.140426	0.602945	0.419406	0.203415	0.275836	0.080377	0.396437	0.216051	0.175128	0.174678	0.140598	0.121724	0.321116	0.167267	0.783335	0.679419	0.079170	0.244880	0.298323	0.188848	0.112060	0.122554	0.753073	0.617629	0.189336	0.279990	0.302243	0.198703	0.109736	0.121598	0.427537	0.178300	0.113207	0.307666	0.637615	0.322599	0.264462	0.079752	0.575440	0.523786	0.138782	0.491899	0.237657	0.205510	0.116750	0.118583	0.692695	0.452055	0.139883	0.674977	0.100744	0.280803
57	0.125884	0.150596	0.566500	0.384147	0.190592	0.436676	0.191394	0.310338	0.585502	0.153079	0.587531	0.496127	0.152820	0.653027	0.483100	0.219185	0.264906	0.078937	0.403164	0.258210	0.299737	0.178997	0.137450	0.121816	0.177001	0.117115	0.770986	0.752470	0.090040	0.287753	0.351424	0.185309	0.105337	0.123090	0.763279	0.619438	0.189461	0.279544	0.329470	0.202770	0.139034	0.119442	0.459412	0.175348	0.113454	0.440584	0.600473	0.314911	0.220967	0.074200	0.573426	0.471129	0.136966	0.509529	0.215654	0.198601	0.116907	0.117898	0.674196	0.464639	0.142179	0.652021	0.114110	0.269716
58	0.111984	0.131674	0.506300	0.291280	0.183106	0.439979	0.172157	0.305409	0.572985	0.147576	0.528400	0.499127	0.157532	0.683080	0.521131	0.248024	0.256609	0.076994	0.412820	0.291513	0.359837	0.174776	0.110949	0.111188	0.088765	0.117214	0.763017	0.883230	0.105154	0.391940	0.405560	0.173110	0.102869	0.122513	0.763350	0.623175	0.190234	0.277931	0.356800	0.202106	0.173229	0.114751	0.497285	0.160794	0.104770	0.448660	0.370891	0.230088	0.204348	0.074515	0.570076	0.551853	0.138016	0.481646	0.186760	0.186426	0.106803	0.107654	0.618976	0.464391	0.140594	0.576292	0.126051	0.269822
59	0.099488	0.111123	0.480796	0.278168	0.172485	0.398611	0.152641	0.267155	0.568598	0.138227	0.475753	0.514681	0.179794	0.700064	0.524573	0.253209	0.245972	0.067451	0.425838	0.289611	0.408020	0.173361	0.066906	0.109084	0.087926	0.112266	0.760042	0.912971	0.108119	0.409568	0.419208	0.147316	0.102695	0.118968	0.755752	0.639802	0.190705	0.276639	0.356829	0.204759	0.243425	0.112237	0.503546	0.149436	0.152730	0.571494	0.161129	0.135403	0.162058	0.083093	0.569270	0.600342	0.146304	0.476928	0.161405	0.161439	0.101293	0.091268	0.521281	0.481502	0.135796	0.560292	0.126904	0.269949
60	0.096310	0.105214	0.453500	0.221455	0.168228	0.340751	0.120116	0.212739	0.573464	0.125401	0.445905	0.506862	0.221264	0.699977	0.528588	0.256947	0.194536	0.057017	0.432194	0.287335	0.465098	0.196543	0.057047	0.121265	0.089956	0.119317	0.749418	0.898644	0.104660	0.410159	0.410372	0.139254	0.101752	0.114251	0.718853	0.640205	0.189930	0.265030	0.357954	0.205194	0.269308	0.104997	0.475846	0.149571	0.217933	0.621118	0.096672	0.102753	0.162954	0.116371	0.568724	0.610143	0.140897	0.367073	0.157539	0.158681	0.105689	0.077950	0.476237	0.530755	0.127703	0.256831	0.115598	0.234896
61	0.093759	0.100600	0.330554	0.171039	0.187954	0.335200	0.106400	0.205947	0.614319	0.121877	0.596712	0.517048	0.261051	0.699228	0.529283	0.260938	0.136617	0.051225	0.419667	0.284786	0.668688	0.197073	0.057109	0.137602	0.097028	0.125878	0.770884	0.914352	0.103883	0.409772	0.416051	0.140354	0.099084	0.108786	0.700175	0.643886	0.185733	0.242416	0.359002	0.202813	0.268362	0.090204	0.457127	0.166789	0.257634	0.629523	0.079357	0.077615	0.173853	0.142932	0.569312	0.610195	0.135387	0.353070	0.137293	0.153687	0.109600	0.071160	0.492975	0.574006	0.107228	0.241029	0.109310	0.166050
62	0.091389	0.094159	0.300308	0.136031	0.194744	0.330582	0.099635	0.206262	0.879681	0.163426	0.786561	0.574927	0.366254	0.699695	0.530277	0.260596	0.091288	0.048965	0.409935	0.284488	0.699264	0.175057	0.057037	0.144468	0.103889	0.134519	0.771988	0.933412	0.103496	0.408244	0.439610	0.131865	0.093902	0.105815	0.698607	0.642946	0.163350	0.236727	0.354763	0.198305	0.288237	0.069907	0.455361	0.356481	0.266802	0.646034	0.077242	0.076773	0.179257	0.156740	0.596940	0.606122	0.136362	0.347669	0.106713	0.141098	0.111343	0.068177	0.523744	0.582393	0.083357	0.248379	0.107858	0.146472
63	0.126536	0.092938	0.282646	0.110780	0.210535	0.299558	0.087445	0.215854	1.039811	0.194274	0.859058	0.547351	0.440115	0.681872	0.536945	0.257604	0.070758	0.049101	0.405179	0.288822	0.702113	0.173069	0.056560	0.138548	0.106372	0.136383	0.733346	0.977887	0.104599	0.408193	0.439754	0.119247	0.083555	0.105489	0.680059	0.638769	0.135911	0.141428	0.352378	0.202261	0.287373	0.054050	0.494913	0.530665	0.435988	0.643999	0.077350	0.073410	0.175707	0.160142	0.656978	0.637659	0.119676	0.346357	0.053796	0.137295	0.114757	0.067987	0.562036	0.591858	0.085653	0.362179	0.107270	0.145739
64	0.214085	0.122926	0.172003	0.111643	0.213549	0.326205	0.248404	0.197082	1.064354	0.203301	0.862029	0.524920	0.446622	0.670706	0.541146	0.245525	0.070599	0.049149	0.388139	0.291283	0.702409	0.179098	0.044678	0.135561	0.101154	0.136549	0.729903	1.015911	0.104492	0.407766	0.426626	0.109267	0.085476	0.107384	0.637992	0.640608	0.130788	0.059129	0.355631	0.203713	0.337023	0.049958	0.672304	0.587174	0.523137	0.639172	0.074168	0.075404	0.170114	0.160326	0.632024	0.728343	0.112266	0.349244	0.030757	0.119247	0.121320	0.064111	0.570927	0.592683	0.089410	0.419648	0.103826	0.132001
65	0.223807	0.157729	0.114681	0.116908	0.221196	0.342949	0.392359	0.203538	1.064650	0.206719	0.867066	0.508138	0.446272	0.668953	0.539388	0.244734	0.082176	0.049331	0.367887	0.307573	0.702398	0.384817	0.027322	0.136310	0.108782	0.144284	0.737554	1.046103	0.101261	0.403988	0.417775	0.162898	0.089555	0.109573	0.606693	0.643140	0.091657	0.062168	0.365077	0.203035	0.396165	0.049702	0.789428	0.645596	0.531716	0.635615	0.105055	0.113986	0.168642	0.164045	0.607437	0.754563	0.111782	0.349319	0.029272	0.106363	0.119562	0.047142	0.551163	0.583025	0.086908	0.444956	0.094027	0.115424
66	0.302028	0.164022	0.101236	0.121815	0.234728	0.327627	0.415510	0.197203	1.067021	0.207281	0.901208	0.505795	0.471517	0.627702	0.486914	0.228961	0.088181	0.048020	0.407739	0.321432	0.690667	0.667420	0.028104	0.127882	0.131601	0.159291	0.715516	1.044235	0.098524	0.409340	0.415583	0.240157	0.122162	0.104325	0.601419	0.636348	0.083122	0.073558	0.370613	0.199539	0.404461	0.127704	0.805725	0.691526	0.535990	0.633746	0.225885	0.120566	0.171643	0.172905	0.609562	0.735319	0.111060	0.365168	0.032860	0.118581	0.126167	0.029885	0.523112	0.573920	0.075484	0.509569	0.102922	0.109151
67	0.321952	0.204837	0.099363	0.118544	0.249887	0.351518	0.432893	0.240327	1.067001	0.207372	0.928079	0.510157	0.545482	0.512310	0.415117	0.192235	0.086349	0.045009	0.447770	0.349691	0.647572	0.696281	0.021521	0.125652	0.132911	0.164541	0.663103	1.000625	0.098776	0.408720	0.416121	0.260993	0.162311	0.090927	0.594946	0.635113	0.109823	0.075465	0.345475	0.198109	0.409235	0.177620	0.780936	0.697176	0.536595	0.590627	0.273230	0.120024	0.164984	0.178176	0.669503	0.733162	0.115433	0.411779	0.032199	0.123313	0.133453	0.029097	0.482369	0.575961	0.076673	0.510801	0.105406	0.108813
68	0.317698	0.197273	0.089781	0.115033	0.266184	0.314653	0.533257	0.280686	1.066270	0.208033	0.932977	0.508897	0.555966	0.439991	0.401167	0.173391	0.085014	0.044238	0.444426	0.373305	0.612919	1.015450	0.027881	0.126206	0.131009	0.165315	0.664984	0.953397	0.098096	0.410790	0.416362	0.261931	0.180337	0.082331	0.545762	0.608684	0.127016	0.076157	0.292997	0.195161	0.410821	0.180596	0.767827	0.758305	0.536900	0.521006	0.277049	0.122530	0.154843	0.179004	0.723366	0.729714	0.129720	0.397121	0.031693	0.123902	0.140457	0.031680	0.448483	0.541346	0.072905	0.507522	0.096738	0.095584
69	0.314821	0.198582	0.077445	0.091299	0.261936	0.295300	0.572399	0.303617	1.063328	0.210395	0.932873	0.508522	0.552766	0.392682	0.390545	0.172056	0.126801	0.045413	0.414723	0.390982	0.592127	1.046472	0.038407	0.126545	0.130066	0.164938	0.652430	0.926932	0.097581	0.423069	0.422983	0.267236	0.217631	0.075899	0.437936	0.565651	0.140255	0.080474	0.255440	0.189668	0.411605	0.182181	0.766432	0.889821	0.537124	0.525148	0.327655	0.124519	0.154998	0.188374	0.707918	0.733486	0.140063	0.448157	0.045202	0.120511	0.190021	0.036702	0.442978	0.481406	0.074195	0.517482	0.090845	0.095101
70	0.313163	0.202696	0.061258	0.089934	0.256078	0.294347	0.581665	0.316939	1.054429	0.212365	0.932449	0.498703	0.549957	0.276237	0.310015	0.154750	0.222979	0.044267	0.402719	0.387173	0.587668	1.039637	0.040514	0.121024	0.135057	0.163713	0.618503	0.934946	0.098493	0.446787	0.442729	0.271300	0.266815	0.070827	0.311379	0.501180	0.140886	0.078926	0.251469	0.160557	0.407064	0.188038	0.762489	0.968871	0.524843	0.381972	0.374047	0.146596	0.159692	0.194493	0.678815	0.756727	0.130771	0.432747	0.055115	0.130173	0.196974	0.037169	0.445688	0.449233	0.073171	0.539799	0.120976	0.122013
71	0.272900	0.199206	0.049623	0.090343	0.249995	0.297860	0.584137	0.318135	1.039435	0.215047	0.934408	0.486319	0.550025	0.207433	0.197572	0.102562	0.301988	0.038344	0.404370	0.381175	0.360251	1.045171	0.055457	0.098446	0.212955	0.159725	0.601088	0.928865	0.099248	0.470608	0.465759	0.272081	0.317075	0.090152	0.387945	0.503539	0.146918	0.128360	0.229444	0.144057	0.395473	0.213334	0.737433	1.021449	0.511415	0.305883	0.382353	0.176648	0.160489	0.195235	0.675541	0.779948	0.141035	0.432089	0.054612	0.137446	0.216060	0.050529	0.449075	0.523774	0.099586	0.543922	0.146715	0.125173
72	0.266640	0.169393	0.040761	0.059991	0.237091	0.327377	0.587097	0.321247	0.994440	0.217901	0.970783	0.483714	0.549102	0.097829	0.168185	0.090900	0.330843	0.040708	0.403312	0.357340	0.225087	1.136529	0.094293	0.118639	0.302730	0.151661	0.599855	0.895740	0.098118	0.487724	0.471437	0.290176	0.437252	0.104218	0.594417	0.517602	0.220553	0.175725	0.167729	0.143990	0.370825	0.241932	0.751098	1.034455	0.496813	0.290000	0.382927	0.191386	0.160845	0.195175	0.675416	0.794957	0.139038	0.378822	0.054236	0.132960	0.225710	0.061478	0.470605	0.532537	0.122919	0.605555	0.151713	0.131413
73	0.244250	0.182858	0.032820	0.038959	0.229842	0.341452	0.590765	0.329779	0.978170	0.230603	1.029049	0.488664	0.534505	0.070553	0.154124	0.085689	0.335705	0.043665	0.397032	0.328992	0.213071	1.170835	0.109601	0.126487	0.341303	0.143500	0.561860	0.797724	0.092567	0.489902	0.458069	0.338463	0.479545	0.105405	0.708790	0.508567	0.256793	0.177861	0.157603	0.141473	0.333614	0.261893	0.777418	1.036127	0.491026	0.240994	0.382992	0.193024	0.164901	0.193909	0.674991	0.751258	0.136588	0.374239	0.053795	0.136068	0.232603	0.070937	0.458906	0.521796	0.128680	0.660883	0.157136	0.135459
74	0.207721	0.135671	0.022896	0.040287	0.212511	0.411148	0.602162	0.326499	0.980738	0.244249	1.075737	0.493901	0.527378	0.067567	0.146810	0.070019	0.335772	0.043950	0.383579	0.316532	0.218763	1.190535	0.113223	0.182413	0.363228	0.136493	0.541485	0.752763	0.075602	0.463852	0.413744	0.363622	0.488034	0.105606	0.739924	0.478081	0.259677	0.200078	0.160488	0.143598	0.331621	0.266521	0.812512	1.037003	0.337481	0.221196	0.383662	0.205142	0.242975	0.188739	0.676543	0.700963	0.131108	0.366342	0.104851	0.146109	0.239631	0.084919	0.416588	0.467805	0.127895	0.603634	0.189824	0.248131
75	0.207291	0.144397	0.020498	0.029944	0.202377	0.393437	0.589509	0.351542	0.981461	0.254743	1.104274	0.529461	0.474343	0.059982	0.145382	0.070045	0.343212	0.046381	0.371734	0.317041	0.219509	1.203582	0.136203	0.190477	0.382079	0.131322	0.551897	0.765022	0.054815	0.393051	0.352770	0.369365	0.488992	0.106304	0.744014	0.458106	0.261120	0.232564	0.158591	0.145379	0.318352	0.266440	0.842314	1.017395	0.194768	0.220468	0.386486	0.221326	0.412737	0.169969	0.679535	0.683326	0.131629	0.373251	0.146634	0.141121	0.240023	0.088747	0.380282	0.430118	0.127120	0.563999	0.220625	0.321110
76	0.207538	0.138083	0.019996	0.037334	0.193948	0.353748	0.496233	0.345157	0.982670	0.260346	1.116418	0.557124	0.400186	0.059234	0.116796	0.070644	0.444422	0.046147	0.363772	0.319460	0.219203	1.100714	0.173021	0.202176	0.386148	0.132907	0.538392	0.751074	0.053639	0.387560	0.321459	0.371857	0.491691	0.106265	0.792617	0.471271	0.262707	0.240933	0.158865	0.137987	0.309993	0.266155	0.851837	0.947043	0.171187	0.222072	0.393109	0.287380	0.533478	0.143906	0.682287	0.684500	0.131756	0.370509	0.151001	0.131850	0.245897	0.088888	0.337834	0.408113	0.127549	0.533501	0.227582	0.336231
77	0.206668	0.166995	0.027352	0.055254	0.155495	0.351154	0.470671	0.344231	0.990402	0.264173	1.113333	0.576380	0.390380	0.059458	0.082998	0.069336	0.521951	0.046444	0.352544	0.323685	0.219701	1.066163	0.183313	0.218112	0.525761	0.154568	0.473090	0.697758	0.061055	0.388186	0.319953	0.376501	0.491802	0.103759	0.863842	0.490505	0.264772	0.241584	0.157720	0.120787	0.298595	0.266941	0.770311	0.909408	0.161453	0.227296	0.352951	0.304903	0.607757	0.126822	0.671057	0.687025	0.135070	0.368428	0.163083	0.124321	0.246487	0.101101	0.292348	0.411471	0.126891	0.471959	0.305698	0.336478
78	0.185046	0.199349	0.031436	0.058232	0.138778	0.339921	0.479623	0.309693	1.014393	0.265724	1.052247	0.572605	0.387799	0.071746	0.070871	0.068458	0.527783	0.049068	0.347515	0.326372	0.218413	0.853317	0.183350	0.221162	0.615432	0.169063	0.442244	0.621829	0.067265	0.389057	0.306171	0.377345	0.490866	0.101387	0.910753	0.466168	0.266292	0.244815	0.152790	0.111418	0.186874	0.273408	0.614223	0.881632	0.164681	0.214781	0.320572	0.309307	0.617373	0.136844	0.607517	0.672701	0.135772	0.312901	0.204802	0.121464	0.265082	0.118161	0.281888	0.420688	0.121557	0.469318	0.348827	0.338436
79	0.254216	0.221731	0.032344	0.059400	0.085695	0.321651	0.386749	0.262442	0.901057	0.248988	0.904553	0.495688	0.367166	0.084356	0.069034	0.067336	0.529124	0.048486	0.341900	0.335254	0.206625	0.711966	0.181217	0.233609	0.641712	0.172287	0.440437	0.552718	0.070269	0.402488	0.268487	0.376350	0.490523	0.099997	0.922154	0.433139	0.266220	0.278242	0.131575	0.110644	0.129552	0.273454	0.522074	0.834258	0.167111	0.165164	0.328349	0.309959	0.622585	0.154075	0.565136	0.565714	0.124179	0.295197	0.212945	0.121331	0.301410	0.128038	0.281619	0.421888	0.124553	0.470685	0.348673	0.340691
80	0.398597	0.334680	0.051603	0.083116	0.084559	0.345666	0.307731	0.282988	0.633469	0.219992	0.770460	0.479725	0.235084	0.097203	0.065577	0.068218	0.528603	0.049460	0.318478	0.333436	0.143501	0.711726	0.195375	0.253251	0.675360	0.168132	0.423886	0.485602	0.075566	0.423158	0.251265	0.376995	0.490547	0.099176	0.922150	0.417923	0.265688	0.289110	0.107518	0.106067	0.110674	0.232772	0.518273	0.817115	0.180949	0.149248	0.283854	0.315085	0.682941	0.167937	0.563823	0.492690	0.105124	0.201455	0.211471	0.120961	0.352979	0.140308	0.279280	0.417976	0.130340	0.462063	0.346241	0.366014
81	0.411822	0.356074	0.051572	0.102442	0.088372	0.350129	0.318965	0.458741	0.486669	0.204305	0.735206	0.505660	0.195900	0.107760	0.067090	0.066317	0.527694	0.051307	0.266858	0.317131	0.112911	0.709947	0.286747	0.252938	0.678354	0.153481	0.398978	0.450819	0.079008	0.442366	0.250513	0.379983	0.485272	0.099205	0.921377	0.425033	0.258781	0.328821	0.088095	0.103483	0.099287	0.221282	0.536264	0.813512	0.210160	0.158283	0.221706	0.328310	0.905468	0.183410	0.550402	0.490393	0.104574	0.181704	0.209551	0.113472	0.378926	0.144924	0.275292	0.413239	0.131522	0.437781	0.335694	0.378171
82	0.648633	0.601602	0.052488	0.104903	0.098504	0.352757	0.338525	0.518387	0.482361	0.198241	0.735160	0.526577	0.194334	0.111128	0.062505	0.067354	0.530361	0.051340	0.182986	0.289661	0.110444	0.583745	0.293538	0.240172	0.677686	0.146644	0.397520	0.446208	0.079382	0.453094	0.250492	0.355670	0.479982	0.098183	0.920404	0.432129	0.260106	0.340251	0.079746	0.103466	0.097471	0.220774	0.539948	0.689068	0.191163	0.159822	0.207187	0.325564	0.982630	0.179352	0.486631	0.475966	0.085741	0.140311	0.219015	0.166029	0.378664	0.147922	0.278187	0.407892	0.112439	0.431526	0.325869	0.380368
83	0.652309	0.601758	0.057391	0.168339	0.100002	0.327021	0.337805	0.517821	0.479924	0.203092	0.708963	0.533386	0.190039	0.112134	0.064441	0.079519	0.540806	0.050308	0.133873	0.242054	0.115579	0.458623	0.309126	0.234710	0.677726	0.145394	0.389829	0.461046	0.079561	0.451113	0.248142	0.317094	0.485051	0.094592	0.916944	0.423622	0.290918	0.339853	0.080051	0.098021	0.095419	0.218545	0.551072	0.565283	0.187850	0.153503	0.205292	0.322665	0.990391	0.178337	0.362059	0.455955	0.080990	0.128654	0.222679	0.242302	0.375967	0.156125	0.298059	0.408710	0.089113	0.292843	0.323822	0.381717
84	0.653614	0.599859	0.136816	0.241328	0.105800	0.357974	0.333110	0.550178	0.492661	0.222132	0.661372	0.522141	0.185329	0.136098	0.065668	0.092635	0.543900	0.047213	0.127979	0.189518	0.100586	0.441306	0.354181	0.208918	0.678571	0.146070	0.349981	0.475411	0.090929	0.453064	0.246830	0.311373	0.470295	0.094731	0.923393	0.410348	0.309534	0.340025	0.079621	0.074696	0.101060	0.208751	0.587641	0.481739	0.187815	0.153109	0.204762	0.322849	0.991959	0.169404	0.258300	0.431002	0.079555	0.119036	0.223774	0.256472	0.379526	0.156213	0.352887	0.367322	0.081335	0.142078	0.322487	0.380171
85	0.659407	0.589151	0.189869	0.269787	0.138278	0.293341	0.319753	0.620104	0.492756	0.233717	0.643412	0.526876	0.173116	0.152809	0.065952	0.091854	0.537710	0.043707	0.128045	0.177864	0.100545	0.313318	0.353063	0.189108	0.687916	0.152321	0.290852	0.472896	0.109340	0.452450	0.250466	0.313992	0.457847	0.091133	0.926037	0.380751	0.309342	0.341133	0.079382	0.063181	0.109680	0.184025	0.662716	0.439905	0.185803	0.153247	0.203379	0.314538	0.993298	0.160611	0.207211	0.384331	0.092781	0.115312	0.219882	0.253858	0.525278	0.171665	0.510020	0.277479	0.078911	0.139447	0.309490	0.314235
86	0.657660	0.589535	0.194887	0.343301	0.147794	0.291512	0.287778	0.686959	0.496212	0.235804	0.643802	0.532665	0.168767	0.197146	0.065789	0.089554	0.527810	0.043279	0.124681	0.177687	0.100888	0.130280	0.338541	0.194994	0.678705	0.156420	0.247567	0.474911	0.111584	0.435985	0.244094	0.313311	0.392541	0.062521	0.851180	0.357653	0.278014	0.316359	0.077422	0.064295	0.114826	0.162688	0.783004	0.442101	0.181302	0.152627	0.197291	0.300540	0.994100	0.158921	0.186398	0.328569	0.100832	0.078996	0.201724	0.285383	0.556749	0.178414	0.556378	0.256973	0.076572	0.137084	0.291829	0.241972
87	0.569910	0.534667	0.201598	0.355163	0.150929	0.314347	0.286239	0.708957	0.529729	0.234735	0.644821	0.535292	0.141744	0.301808	0.066226	0.108031	0.530878	0.040429	0.113609	0.187697	0.097991	0.103026	0.328999	0.195265	0.644327	0.156144	0.235672	0.462268	0.110211	0.390290	0.211744	0.320815	0.294056	0.049620	0.722394	0.368729	0.236262	0.328101	0.068753	0.060057	0.144404	0.151529	0.838404	0.443126	0.178704	0.148858	0.163936	0.220977	0.996179	0.158927	0.185347	0.267689	0.111645	0.076570	0.198075	0.308670	0.554240	0.174543	0.549727	0.219406	0.077069	0.137389	0.284162	0.221083
88	0.542560	0.518625	0.328978	0.367765	0.163381	0.327204	0.276314	0.712827	0.545389	0.230264	0.646700	0.535086	0.096349	0.307466	0.062808	0.118017	0.529644	0.040150	0.100128	0.203565	0.093649	0.102947	0.329730	0.201972	0.621563	0.156167	0.232642	0.416024	0.109606	0.338830	0.172644	0.331847	0.338943	0.054500	0.634770	0.371305	0.254832	0.338312	0.056518	0.053045	0.155578	0.159222	0.823578	0.459579	0.175478	0.139487	0.136944	0.197529	1.000162	0.159052	0.184471	0.216121	0.109063	0.072278	0.193707	0.309077	0.554098	0.170401	0.603571	0.222715	0.083636	0.137086	0.193273	0.232144
89	0.337352	0.250616	0.354225	0.375566	0.162431	0.319321	0.244764	0.712803	0.543918	0.222284	0.621671	0.535936	0.107850	0.307931	0.088219	0.156008	0.550491	0.048668	0.101140	0.205934	0.087485	0.102960	0.330614	0.242843	0.611124	0.156244	0.200828	0.367609	0.109839	0.311050	0.162643	0.315053	0.373934	0.054774	0.617020	0.371422	0.262548	0.329341	0.047591	0.044177	0.167369	0.160443	0.807611	0.483958	0.171516	0.131895	0.142475	0.189867	0.990905	0.159196	0.178077	0.199631	0.106519	0.059006	0.152637	0.308150	0.552570	0.169916	0.731966	0.227854	0.084604	0.131341	0.105544	0.251638
90	0.296602	0.186167	0.357061	0.375096	0.162776	0.317513	0.229124	0.711217	0.547315	0.214524	0.531349	0.532168	0.102652	0.308064	0.108217	0.187857	0.551723	0.048653	0.102750	0.207425	0.083218	0.103120	0.336547	0.312973	0.607708	0.154927	0.153345	0.339617	0.110307	0.308512	0.157375	0.264340	0.374905	0.054164	0.606778	0.374502	0.267349	0.330384	0.043872	0.040846	0.190900	0.165621	0.873999	0.451559	0.168854	0.140420	0.110304	0.186788	0.939063	0.158991	0.166815	0.207100	0.104622	0.062651	0.130990	0.307612	0.551325	0.169149	0.813653	0.234273	0.080285	0.115990	0.098294	0.254080
91	0.369483	0.183163	0.557715	0.346648	0.161526	0.300100	0.229992	0.704925	0.559198	0.207179	0.416794	0.519420	0.102690	0.306723	0.108718	0.187803	0.535218	0.048041	0.111090	0.212727	0.082449	0.103507	0.277453	0.323108	0.628366	0.147251	0.107369	0.340528	0.109144	0.286291	0.156821	0.231144	0.371988	0.054372	0.521061	0.368955	0.269209	0.331895	0.039922	0.042419	0.200298	0.166147	0.925633	0.458803	0.152818	0.116303	0.100230	0.173508	0.869312	0.158959	0.150826	0.214145	0.106876	0.062680	0.130668	0.307941	0.546140	0.157935	0.841974	0.222367	0.072447	0.088487	0.098456	0.203366
92	0.390308	0.163607	0.682793	0.388952	0.159554	0.286166	0.201914	0.647527	0.556514	0.196182	0.311339	0.485300	0.113579	0.337851	0.122264	0.188046	0.501918	0.048514	0.121592	0.214154	0.078822	0.105766	0.243330	0.364483	0.554248	0.119632	0.083607	0.352491	0.107551	0.285742	0.159711	0.220090	0.371905	0.054118	0.391635	0.340024	0.269396	0.341510	0.035217	0.049021	0.266785	0.157319	0.962264	0.516497	0.110007	0.146207	0.114997	0.123111	0.813453	0.158680	0.132502	0.214225	0.108504	0.062569	0.130141	0.307117	0.542826	0.148744	0.849288	0.210206	0.069855	0.061053	0.100705	0.162651
93	0.382956	0.153352	0.762765	0.326097	0.158683	0.280495	0.184444	0.603613	0.591581	0.185409	0.232595	0.434298	0.136441	0.408564	0.121902	0.191137	0.518669	0.047266	0.122113	0.209508	0.067746	0.105979	0.233471	0.439683	0.415310	0.085234	0.095216	0.354605	0.105760	0.284239	0.168176	0.213097	0.372370	0.052040	0.298516	0.335761	0.283158	0.326095	0.032465	0.052870	0.281714	0.161138	0.977680	0.541916	0.110245	0.192230	0.118076	0.083597	0.803549	0.149272	0.112451	0.203226	0.111090	0.064585	0.116808	0.294172	0.517901	0.138408	0.849781	0.274820	0.067193	0.039707	0.100613	0.156400
94	0.383627	0.150955	0.871931	0.343720	0.155231	0.275080	0.177980	0.603818	0.620183	0.179204	0.201281	0.387420	0.148601	0.425687	0.125093	0.212639	0.522116	0.053684	0.118353	0.198398	0.069963	0.097851	0.149376	0.453203	0.374244	0.076130	0.104302	0.354478	0.101768	0.300470	0.179311	0.212306	0.386234	0.048191	0.278805	0.331136	0.285870	0.318551	0.028346	0.054365	0.283421	0.172859	0.974953	0.531350	0.109562	0.193084	0.118392	0.066119	0.805551	0.130757	0.091562	0.186200	0.112073	0.108169	0.105017	0.226422	0.490457	0.128964	0.866261	0.333570	0.063839	0.035684	0.099149	0.149563
95	0.367314	0.114016	0.846828	0.332577	0.152511	0.221773	0.197175	0.584646	0.584682	0.174180	0.199232	0.376115	0.149995	0.480776	0.125633	0.226724	0.521575	0.059700	0.123606	0.178083	0.063008	0.065056	0.118022	0.456434	0.303681	0.076273	0.109045	0.353553	0.100013	0.306574	0.181585	0.225059	0.393813	0.045289	0.275470	0.317009	0.283920	0.288978	0.023363	0.055223	0.284043	0.177439	0.967685	0.525538	0.121237	0.197342	0.120525	0.064062	0.782525	0.115591	0.076529	0.173295	0.114506	0.141356	0.102410	0.206559	0.478707	0.125973	0.909410	0.340906	0.063196	0.032983	0.094946	0.148885
96	0.312655	0.094209	0.823928	0.358723	0.127367	0.204088	0.216202	0.508873	0.559345	0.177994	0.200228	0.365937	0.154194	0.510571	0.129917	0.230792	0.521455	0.058560	0.142517	0.174204	0.060862	0.042311	0.117771	0.453204	0.283261	0.080568	0.144784	0.401589	0.106975	0.303051	0.179411	0.238039	0.390320	0.046414	0.275405	0.293813	0.278955	0.289893	0.023097	0.056807	0.295256	0.177600	0.965222	0.520870	0.124891	0.201629	0.122149	0.065076	0.534792	0.079044	0.068837	0.174726	0.127161	0.149232	0.113789	0.207407	0.473495	0.125744	0.924884	0.337418	0.062777	0.032973	0.072527	0.148783
97	0.279774	0.101073	0.822486	0.368068	0.111045	0.175618	0.221399	0.400510	0.555786	0.197876	0.193283	0.330351	0.162248	0.505511	0.142784	0.230320	0.522803	0.064411	0.157262	0.173483	0.060351	0.039658	0.130618	0.448219	0.283807	0.080500	0.397283	0.428764	0.109457	0.293141	0.176208	0.241490	0.380069	0.049937	0.274033	0.289453	0.252296	0.290776	0.022035	0.056454	0.305938	0.175536	0.947284	0.489499	0.124524	0.201608	0.122533	0.065662	0.287180	0.065104	0.112860	0.217467	0.132692	0.168559	0.104690	0.170670	0.475450	0.126964	0.915706	0.325024	0.060356	0.033282	0.062049	0.148881
98	0.233326	0.122218	0.761861	0.367850	0.107738	0.150978	0.221062	0.321545	0.548652	0.207058	0.181967	0.289616	0.172181	0.500308	0.150889	0.231798	0.523187	0.082142	0.161158	0.173696	0.056628	0.046498	0.144335	0.445121	0.288254	0.079937	0.572883	0.415050	0.108404	0.266435	0.173799	0.235659	0.365958	0.054730	0.263804	0.290029	0.213881	0.292091	0.020970	0.059053	0.310006	0.168201	0.910421	0.446421	0.126231	0.202033	0.119020	0.065229	0.239368	0.066924	0.217823	0.272543	0.127870	0.187929	0.096733	0.107719	0.401333	0.113860	0.860742	0.370058	0.052831	0.035064	0.059013	0.149954
99	0.063631	0.138905	0.582909	0.343931	0.119635	0.102107	0.221385	0.312354	0.587562	0.207614	0.172685	0.239044	0.171678	0.489236	0.153363	0.232271	0.546346	0.099672	0.159804	0.179658	0.049638	0.050751	0.143756	0.434606	0.301236	0.080207	0.640392	0.392252	0.121633	0.248645	0.172329	0.227839	0.357089	0.054204	0.223443	0.297368	0.211189	0.285594	0.020739	0.076882	0.426324	0.159033	0.792111	0.440267	0.141445	0.202289	0.106981	0.054811	0.233823	0.067098	0.269880	0.322479	0.126479	0.193192	0.094669	0.159007	0.232345	0.087017	0.787376	0.414586	0.039517	0.036492	0.047940	0.130868
100	0.065433	0.166524	0.699084	0.370915	0.280483	0.117281	0.220043	0.311355	0.653534	0.217020	0.167306	0.198659	0.169092	0.429372	0.154739	0.226798	0.585410	0.106118	0.162840	0.179589	0.046468	0.051119	0.129534	0.367263	0.326016	0.073431	0.646192	0.375026	0.147102	0.244307	0.171517	0.220752	0.352379	0.053421	0.190602	0.297535	0.210956	0.278897	0.025950	0.093317	0.517408	0.153946	0.655527	0.433381	0.148928	0.200758	0.096141	0.051885	0.221012	0.068367	0.276875	0.376835	0.127230	0.194652	0.102199	0.223523	0.227547	0.081786	0.783753	0.422064	0.036623	0.038571	0.042573	0.080505
101	0.060179	0.238613	0.576926	0.559944	0.367306	0.142776	0.215479	0.311362	0.689299	0.205814	0.164947	0.170708	0.160430	0.422640	0.155341	0.226328	0.598504	0.106455	0.171315	0.187902	0.052294	0.049985	0.109730	0.349305	0.324270	0.066026	0.710754	0.357001	0.149315	0.238872	0.170271	0.213990	0.355765	0.056622	0.217918	0.286943	0.199522	0.272950	0.051893	0.092311	0.527801	0.147156	0.591338	0.428909	0.151204	0.196086	0.096139	0.051946	0.215736	0.071116	0.288023	0.394652	0.126800	0.218316	0.103520	0.241096	0.220988	0.085730	0.783369	0.423162	0.032762	0.039890	0.040679	0.064430
