	139_P_T1_sh_L_ND_A_01.c3d	139_P_T1_sh_L_ND_A_01.c3d	139_P_T1_sh_L_ND_A_01.c3d	139_P_T1_sh_L_ND_A_01.c3d	139_P_T1_sh_L_ND_A_01.c3d	139_P_T1_sh_L_ND_A_01.c3d	139_P_T1_sh_L_ND_A_01.c3d	139_P_T1_sh_L_ND_A_01.c3d	139_P_T1_sh_L_ND_A_02.c3d	139_P_T1_sh_L_ND_A_02.c3d	139_P_T1_sh_L_ND_A_02.c3d	139_P_T1_sh_L_ND_A_02.c3d	139_P_T1_sh_L_ND_A_02.c3d	139_P_T1_sh_L_ND_A_02.c3d	139_P_T1_sh_L_ND_A_02.c3d	139_P_T1_sh_L_ND_A_02.c3d	139_P_T1_sh_L_ND_A_03.c3d	139_P_T1_sh_L_ND_A_03.c3d	139_P_T1_sh_L_ND_A_03.c3d	139_P_T1_sh_L_ND_A_03.c3d	139_P_T1_sh_L_ND_A_03.c3d	139_P_T1_sh_L_ND_A_03.c3d	139_P_T1_sh_L_ND_A_03.c3d	139_P_T1_sh_L_ND_A_03.c3d	139_P_T1_sh_L_ND_A_04.c3d	139_P_T1_sh_L_ND_A_04.c3d	139_P_T1_sh_L_ND_A_04.c3d	139_P_T1_sh_L_ND_A_04.c3d	139_P_T1_sh_L_ND_A_04.c3d	139_P_T1_sh_L_ND_A_04.c3d	139_P_T1_sh_L_ND_A_04.c3d	139_P_T1_sh_L_ND_A_04.c3d	139_P_T1_sh_L_ND_A_06.c3d	139_P_T1_sh_L_ND_A_06.c3d	139_P_T1_sh_L_ND_A_06.c3d	139_P_T1_sh_L_ND_A_06.c3d	139_P_T1_sh_L_ND_A_06.c3d	139_P_T1_sh_L_ND_A_06.c3d	139_P_T1_sh_L_ND_A_06.c3d	139_P_T1_sh_L_ND_A_06.c3d	139_P_T1_sh_L_ND_A_08.c3d	139_P_T1_sh_L_ND_A_08.c3d	139_P_T1_sh_L_ND_A_08.c3d	139_P_T1_sh_L_ND_A_08.c3d	139_P_T1_sh_L_ND_A_08.c3d	139_P_T1_sh_L_ND_A_08.c3d	139_P_T1_sh_L_ND_A_08.c3d	139_P_T1_sh_L_ND_A_08.c3d	139_P_T1_sh_L_ND_A_09.c3d	139_P_T1_sh_L_ND_A_09.c3d	139_P_T1_sh_L_ND_A_09.c3d	139_P_T1_sh_L_ND_A_09.c3d	139_P_T1_sh_L_ND_A_09.c3d	139_P_T1_sh_L_ND_A_09.c3d	139_P_T1_sh_L_ND_A_09.c3d	139_P_T1_sh_L_ND_A_09.c3d	139_P_T1_sh_L_ND_A_10.c3d	139_P_T1_sh_L_ND_A_10.c3d	139_P_T1_sh_L_ND_A_10.c3d	139_P_T1_sh_L_ND_A_10.c3d	139_P_T1_sh_L_ND_A_10.c3d	139_P_T1_sh_L_ND_A_10.c3d	139_P_T1_sh_L_ND_A_10.c3d	139_P_T1_sh_L_ND_A_10.c3d
	Biceps femoris_lat	Semitendinosus_lat	Vastus lateralis_lat	Vastus medialis_lat	Biceps femoris_med	Semitendinosus_med	Vastus lateralis_med	Vastus medialis_med	Biceps femoris_lat	Semitendinosus_lat	Vastus lateralis_lat	Vastus medialis_lat	Biceps femoris_med	Semitendinosus_med	Vastus lateralis_med	Vastus medialis_med	Biceps femoris_lat	Semitendinosus_lat	Vastus lateralis_lat	Vastus medialis_lat	Biceps femoris_med	Semitendinosus_med	Vastus lateralis_med	Vastus medialis_med	Biceps femoris_lat	Semitendinosus_lat	Vastus lateralis_lat	Vastus medialis_lat	Biceps femoris_med	Semitendinosus_med	Vastus lateralis_med	Vastus medialis_med	Biceps femoris_lat	Semitendinosus_lat	Vastus lateralis_lat	Vastus medialis_lat	Biceps femoris_med	Semitendinosus_med	Vastus lateralis_med	Vastus medialis_med	Biceps femoris_lat	Semitendinosus_lat	Vastus lateralis_lat	Vastus medialis_lat	Biceps femoris_med	Semitendinosus_med	Vastus lateralis_med	Vastus medialis_med	Biceps femoris_lat	Semitendinosus_lat	Vastus lateralis_lat	Vastus medialis_lat	Biceps femoris_med	Semitendinosus_med	Vastus lateralis_med	Vastus medialis_med	Biceps femoris_lat	Semitendinosus_lat	Vastus lateralis_lat	Vastus medialis_lat	Biceps femoris_med	Semitendinosus_med	Vastus lateralis_med	Vastus medialis_med
	P2D	P2D	P2D	P2D	P2D	P2D	P2D	P2D	P2D	P2D	P2D	P2D	P2D	P2D	P2D	P2D	P2D	P2D	P2D	P2D	P2D	P2D	P2D	P2D	P2D	P2D	P2D	P2D	P2D	P2D	P2D	P2D	P2D	P2D	P2D	P2D	P2D	P2D	P2D	P2D	P2D	P2D	P2D	P2D	P2D	P2D	P2D	P2D	P2D	P2D	P2D	P2D	P2D	P2D	P2D	P2D	P2D	P2D	P2D	P2D	P2D	P2D	P2D	P2D
	EMG_lat	EMG_lat	EMG_lat	EMG_lat	EMG_med	EMG_med	EMG_med	EMG_med	EMG_lat	EMG_lat	EMG_lat	EMG_lat	EMG_med	EMG_med	EMG_med	EMG_med	EMG_lat	EMG_lat	EMG_lat	EMG_lat	EMG_med	EMG_med	EMG_med	EMG_med	EMG_lat	EMG_lat	EMG_lat	EMG_lat	EMG_med	EMG_med	EMG_med	EMG_med	EMG_lat	EMG_lat	EMG_lat	EMG_lat	EMG_med	EMG_med	EMG_med	EMG_med	EMG_lat	EMG_lat	EMG_lat	EMG_lat	EMG_med	EMG_med	EMG_med	EMG_med	EMG_lat	EMG_lat	EMG_lat	EMG_lat	EMG_med	EMG_med	EMG_med	EMG_med	EMG_lat	EMG_lat	EMG_lat	EMG_lat	EMG_med	EMG_med	EMG_med	EMG_med
ITEM	Y	Y	Y	Y	Y	Y	Y	Y	Y	Y	Y	Y	Y	Y	Y	Y	Y	Y	Y	Y	Y	Y	Y	Y	Y	Y	Y	Y	Y	Y	Y	Y	Y	Y	Y	Y	Y	Y	Y	Y	Y	Y	Y	Y	Y	Y	Y	Y	Y	Y	Y	Y	Y	Y	Y	Y	Y	Y	Y	Y	Y	Y	Y	Y
1	0.505354	0.247914	0.419283	0.255038	0.161624	0.204705	0.147794	0.457909	0.338997	0.637732	0.311080	0.166504	0.524024	0.677884	0.214837	0.323940	0.313210	0.338206	0.125806	0.477265	0.950140	0.493760	0.333313	0.512184	0.439791	0.581656	0.129095	0.244637	0.193898	0.271734	0.246752	0.772203	0.426241	0.460727	0.363705	0.521950	0.206200	0.364995	0.249950	0.609280	0.499536	0.349059	0.168865	0.123310	0.098741	0.270405	0.296220	0.632926	0.518631	0.162920	0.148835	0.159187	0.288805	0.292192	0.465962	0.278583	0.271103	0.255376	0.226504	0.398605	0.270569	0.179325	0.186733	0.274539
2	0.510695	0.246936	0.356464	0.226017	0.162361	0.206174	0.153718	0.447990	0.327890	0.637062	0.300116	0.162466	0.483428	0.672774	0.209186	0.326990	0.313808	0.355542	0.127084	0.503730	0.955220	0.476223	0.341442	0.479095	0.432848	0.579003	0.150278	0.241653	0.192818	0.269856	0.226633	0.772699	0.440362	0.468410	0.393017	0.549847	0.208112	0.342097	0.248735	0.508631	0.509780	0.341865	0.166682	0.118460	0.098961	0.266643	0.308621	0.657211	0.506834	0.151831	0.163708	0.161516	0.274937	0.292151	0.493441	0.203260	0.298591	0.223742	0.226333	0.439175	0.267702	0.182217	0.183715	0.250185
3	0.451106	0.208223	0.322667	0.227459	0.172462	0.197161	0.157908	0.410548	0.327340	0.634044	0.301361	0.167612	0.483682	0.639060	0.174325	0.337730	0.307662	0.374498	0.124299	0.508446	0.986355	0.443947	0.338687	0.466591	0.416764	0.564325	0.167886	0.227144	0.188344	0.267234	0.223419	0.786613	0.455954	0.468427	0.399028	0.551664	0.212772	0.362102	0.257171	0.481345	0.516639	0.302178	0.158293	0.122023	0.127513	0.230952	0.307548	0.657583	0.431104	0.128291	0.173804	0.165785	0.268584	0.289449	0.545643	0.174288	0.280000	0.225543	0.226325	0.442163	0.264574	0.174789	0.207293	0.248515
4	0.458246	0.209224	0.314572	0.230038	0.175252	0.179613	0.157657	0.402411	0.335958	0.622327	0.299524	0.176697	0.478779	0.648072	0.164848	0.360179	0.303578	0.404629	0.103036	0.505871	0.975977	0.390633	0.327685	0.462613	0.420176	0.549583	0.221382	0.252158	0.188520	0.266658	0.220109	0.758222	0.486934	0.459251	0.362455	0.543957	0.214321	0.377734	0.265947	0.474566	0.490189	0.239216	0.155957	0.160720	0.166320	0.204449	0.306241	0.674342	0.335224	0.123304	0.175397	0.202925	0.266698	0.287991	0.559336	0.175230	0.269860	0.225421	0.227718	0.448926	0.251409	0.168780	0.228445	0.227875
5	0.500625	0.220338	0.317106	0.228863	0.167084	0.158481	0.164202	0.421685	0.345880	0.586825	0.297195	0.187636	0.466189	0.682274	0.174327	0.380858	0.240365	0.520449	0.093552	0.501783	0.926888	0.380143	0.324947	0.442007	0.419163	0.545721	0.251342	0.355592	0.188598	0.252606	0.229365	0.688513	0.523068	0.473226	0.328624	0.524002	0.212419	0.392061	0.265969	0.388945	0.475679	0.249602	0.159615	0.147925	0.164529	0.189429	0.302644	0.600513	0.311857	0.123097	0.175560	0.213286	0.266605	0.284556	0.564435	0.193503	0.272794	0.226150	0.233852	0.431171	0.233741	0.170651	0.239768	0.212812
6	0.491127	0.217125	0.284371	0.196128	0.156170	0.158567	0.170457	0.429637	0.343518	0.530234	0.310523	0.261716	0.466198	0.661043	0.204377	0.391884	0.206198	0.572442	0.091352	0.501073	0.842147	0.376549	0.339412	0.446181	0.405268	0.527326	0.298428	0.376652	0.180941	0.237474	0.244614	0.678655	0.508429	0.465462	0.332198	0.532492	0.212427	0.401986	0.254218	0.336864	0.462346	0.243621	0.165223	0.167292	0.164798	0.187316	0.295924	0.488017	0.284531	0.134197	0.183095	0.224726	0.263429	0.274941	0.564091	0.240364	0.305086	0.235526	0.235975	0.409581	0.208050	0.175484	0.242759	0.213769
7	0.430368	0.196611	0.228629	0.186038	0.152420	0.145827	0.169313	0.379709	0.340537	0.555045	0.304654	0.280069	0.410013	0.588249	0.206831	0.384895	0.200638	0.577643	0.095826	0.449840	0.759095	0.334687	0.353778	0.438922	0.340896	0.496272	0.348445	0.377568	0.181542	0.238486	0.254512	0.666953	0.494199	0.411923	0.338973	0.536367	0.221432	0.487574	0.245298	0.385616	0.441238	0.239938	0.175462	0.179206	0.164622	0.173750	0.274437	0.454682	0.312036	0.190781	0.188495	0.278022	0.228333	0.226897	0.569786	0.269826	0.314176	0.251279	0.235747	0.425234	0.134449	0.177573	0.248592	0.222444
8	0.406995	0.187439	0.203644	0.186692	0.175051	0.154307	0.174798	0.356507	0.332822	0.548099	0.313561	0.303622	0.324757	0.571016	0.209077	0.385257	0.238500	0.590471	0.112167	0.395739	0.676756	0.328767	0.347150	0.390520	0.295905	0.493543	0.355875	0.416737	0.167873	0.224760	0.254758	0.622509	0.500063	0.385665	0.340375	0.536364	0.227291	0.537656	0.277620	0.453202	0.409697	0.241548	0.172406	0.221884	0.165549	0.159550	0.294194	0.455210	0.330797	0.231418	0.182920	0.287817	0.171231	0.153050	0.568686	0.293787	0.352109	0.260191	0.234931	0.463965	0.121967	0.177910	0.266329	0.226423
9	0.382574	0.191817	0.203964	0.183480	0.235616	0.190021	0.170621	0.355110	0.335088	0.496457	0.405130	0.321996	0.322458	0.540238	0.214203	0.439290	0.340558	0.593700	0.124240	0.391831	0.654631	0.323775	0.321961	0.278604	0.279226	0.492640	0.352281	0.477322	0.146220	0.209796	0.253866	0.616587	0.485641	0.325090	0.361478	0.534708	0.227330	0.549885	0.355302	0.461847	0.401965	0.251325	0.176108	0.231300	0.166732	0.153116	0.295901	0.434795	0.334676	0.235471	0.170626	0.287681	0.164923	0.131072	0.565597	0.376450	0.374319	0.286192	0.295665	0.456109	0.110622	0.184440	0.295003	0.263231
10	0.378381	0.213664	0.201445	0.192877	0.246785	0.226334	0.167471	0.362929	0.347818	0.437999	0.431987	0.322972	0.349495	0.533165	0.211549	0.484566	0.437535	0.599175	0.215438	0.381709	0.524155	0.319080	0.313632	0.242292	0.264471	0.466359	0.354699	0.491219	0.148170	0.211304	0.266124	0.611537	0.458146	0.336469	0.405068	0.523679	0.227227	0.547650	0.376663	0.462785	0.306024	0.224365	0.189051	0.240772	0.166742	0.148879	0.296105	0.423238	0.329717	0.245994	0.178450	0.324006	0.144055	0.089336	0.567624	0.417291	0.370060	0.294896	0.399843	0.435206	0.107806	0.200847	0.356811	0.327144
11	0.352561	0.216365	0.189671	0.205600	0.291125	0.254673	0.167052	0.373089	0.322808	0.399934	0.428796	0.323930	0.349969	0.532696	0.212420	0.487241	0.495120	0.602696	0.321360	0.382344	0.430564	0.339779	0.325745	0.233641	0.254893	0.370196	0.357090	0.488865	0.148200	0.233026	0.338163	0.608944	0.430835	0.335329	0.413245	0.510153	0.227707	0.546296	0.380095	0.476459	0.283971	0.280829	0.171930	0.248763	0.166688	0.146889	0.316934	0.402265	0.348620	0.254423	0.178941	0.336509	0.135357	0.087631	0.518449	0.427463	0.400288	0.331040	0.428361	0.441617	0.109653	0.209381	0.443801	0.347318
12	0.337596	0.279290	0.225122	0.213681	0.306578	0.271534	0.176269	0.378394	0.270643	0.379865	0.429609	0.314770	0.308712	0.532416	0.227172	0.481997	0.497921	0.603667	0.376705	0.391563	0.422158	0.326814	0.324156	0.228446	0.226273	0.276931	0.376103	0.484912	0.130158	0.281710	0.469711	0.603840	0.467866	0.370114	0.407034	0.498234	0.219986	0.536851	0.363841	0.505513	0.316491	0.345830	0.181641	0.255928	0.164114	0.126502	0.319774	0.400906	0.367508	0.255853	0.187396	0.335127	0.109670	0.086457	0.419601	0.459082	0.453940	0.337878	0.429702	0.450558	0.110310	0.232060	0.455411	0.339026
13	0.336424	0.285615	0.392291	0.217877	0.309530	0.268309	0.231686	0.360529	0.262941	0.378997	0.420022	0.322075	0.247079	0.508967	0.247260	0.460210	0.521559	0.594002	0.388228	0.397411	0.441498	0.265925	0.324054	0.235041	0.226540	0.265524	0.410366	0.485590	0.136417	0.288895	0.606887	0.571484	0.513239	0.387621	0.436843	0.445961	0.177541	0.516837	0.352376	0.522717	0.313061	0.367232	0.263234	0.258058	0.155472	0.105530	0.353686	0.432740	0.373578	0.255595	0.187301	0.333139	0.103817	0.084034	0.383452	0.478610	0.455926	0.333841	0.428019	0.460924	0.108709	0.241465	0.459439	0.357159
14	0.311235	0.281514	0.482444	0.265228	0.315413	0.266630	0.268625	0.402154	0.281555	0.391217	0.407969	0.344555	0.253733	0.428304	0.244295	0.442515	0.635162	0.685716	0.400102	0.385254	0.454707	0.243977	0.330820	0.282117	0.222021	0.256881	0.434115	0.478448	0.123781	0.303844	0.714293	0.540534	0.508977	0.385242	0.443841	0.385513	0.171121	0.513996	0.362781	0.516943	0.284793	0.403793	0.277651	0.265742	0.149153	0.104430	0.416531	0.410145	0.369515	0.257077	0.258536	0.331162	0.115868	0.087575	0.385467	0.475918	0.485112	0.345541	0.423571	0.465238	0.103392	0.230908	0.505459	0.361840
15	0.172465	0.260459	0.479830	0.331694	0.320547	0.290098	0.296754	0.502369	0.313703	0.394073	0.424567	0.354019	0.255182	0.401814	0.255019	0.443315	0.726688	0.747858	0.446764	0.328427	0.461808	0.231852	0.377874	0.370371	0.149083	0.280474	0.448897	0.471876	0.113609	0.340036	0.756149	0.535609	0.488923	0.375345	0.430576	0.387055	0.171133	0.513918	0.389478	0.515179	0.280731	0.391269	0.275369	0.254368	0.146453	0.081744	0.456228	0.349941	0.364937	0.259052	0.326866	0.334110	0.130262	0.091736	0.383317	0.496423	0.506723	0.347480	0.450967	0.446031	0.101160	0.232175	0.558241	0.366962
16	0.128563	0.257891	0.508689	0.327868	0.316042	0.327590	0.298657	0.505853	0.323098	0.394152	0.446347	0.352160	0.240895	0.394821	0.253187	0.443465	0.732214	0.737006	0.493895	0.270247	0.458694	0.225030	0.401713	0.380011	0.143599	0.287465	0.459018	0.473511	0.122169	0.355812	0.760624	0.539359	0.469256	0.370334	0.424603	0.375388	0.153853	0.504430	0.393050	0.518161	0.279435	0.389956	0.288697	0.271466	0.136711	0.054918	0.469958	0.331999	0.366207	0.259332	0.345887	0.325204	0.135199	0.092328	0.362791	0.544009	0.516005	0.354135	0.474507	0.397023	0.099256	0.229345	0.579361	0.366485
17	0.127174	0.254291	0.514569	0.328232	0.311001	0.348344	0.304022	0.532113	0.307215	0.400863	0.465017	0.346556	0.245115	0.322452	0.252402	0.462053	0.731881	0.725393	0.527155	0.228770	0.389278	0.241955	0.397717	0.378179	0.160316	0.301940	0.494976	0.474093	0.156336	0.358544	0.810925	0.521458	0.414585	0.361688	0.425999	0.327410	0.154126	0.500859	0.391536	0.516238	0.286624	0.392192	0.309128	0.257964	0.084831	0.051987	0.479925	0.317968	0.379762	0.258652	0.349130	0.319680	0.131514	0.093095	0.273745	0.594202	0.520494	0.356322	0.481751	0.390691	0.078569	0.217361	0.581448	0.367977
18	0.132052	0.254940	0.512804	0.335515	0.310908	0.351560	0.313751	0.588449	0.310345	0.420288	0.478614	0.342584	0.254573	0.251401	0.241965	0.473124	0.726077	0.698358	0.535727	0.214833	0.315169	0.250172	0.403170	0.390236	0.147576	0.303690	0.493534	0.470695	0.197384	0.358432	0.887772	0.479829	0.404719	0.338622	0.431118	0.301757	0.150466	0.474164	0.384516	0.514768	0.323287	0.426599	0.309355	0.246968	0.063779	0.054052	0.574339	0.283218	0.403316	0.253966	0.360525	0.311378	0.131662	0.094529	0.228769	0.633178	0.540698	0.377299	0.486685	0.396096	0.075933	0.219221	0.575941	0.376994
19	0.117899	0.260799	0.510825	0.334830	0.332162	0.351197	0.319598	0.635948	0.326199	0.434567	0.471850	0.312290	0.257376	0.203681	0.211832	0.471561	0.722549	0.614764	0.536611	0.216694	0.292490	0.249122	0.404835	0.395606	0.150084	0.305412	0.479866	0.403402	0.192322	0.359050	0.947040	0.442889	0.401943	0.309563	0.449060	0.291888	0.148105	0.434674	0.387384	0.519758	0.358609	0.436369	0.312209	0.246548	0.066546	0.054955	0.660139	0.283149	0.363106	0.211792	0.361166	0.263565	0.133969	0.092935	0.226851	0.652120	0.577532	0.405849	0.491816	0.395428	0.075993	0.218761	0.567101	0.385539
20	0.135325	0.263207	0.535244	0.333192	0.338092	0.353335	0.339327	0.667953	0.324331	0.408399	0.478423	0.305303	0.247928	0.188045	0.214148	0.471494	0.721866	0.580173	0.538775	0.213662	0.282272	0.243898	0.400425	0.393256	0.158197	0.302122	0.458763	0.344371	0.195707	0.359102	0.983253	0.432263	0.385070	0.306996	0.460441	0.311410	0.147756	0.408886	0.412706	0.539286	0.367054	0.437637	0.303871	0.255831	0.066835	0.062839	0.671960	0.283976	0.323581	0.148703	0.380700	0.243151	0.131821	0.092921	0.239577	0.639032	0.683455	0.441430	0.493129	0.383937	0.080525	0.215102	0.568094	0.382962
21	0.141414	0.283595	0.580230	0.325831	0.334087	0.352315	0.351940	0.684519	0.318039	0.391414	0.536925	0.291854	0.244675	0.203335	0.212932	0.447022	0.721425	0.568857	0.573918	0.213983	0.277089	0.246038	0.412330	0.423095	0.181162	0.293683	0.419874	0.339375	0.198090	0.352864	0.998757	0.430495	0.385120	0.300288	0.447980	0.325461	0.137671	0.381197	0.433507	0.535628	0.353525	0.422231	0.305604	0.246911	0.066984	0.084632	0.659900	0.281524	0.316757	0.139691	0.393154	0.237550	0.130034	0.077510	0.233275	0.622697	0.710704	0.437948	0.497200	0.348265	0.081835	0.210444	0.572554	0.381801
22	0.140380	0.262168	0.580185	0.316832	0.307616	0.339294	0.352792	0.685316	0.311141	0.392728	0.489423	0.274616	0.236278	0.201521	0.206466	0.367800	0.705079	0.559750	0.628714	0.217405	0.278290	0.245553	0.431317	0.456233	0.224432	0.284963	0.408207	0.308652	0.199557	0.350085	1.000561	0.398509	0.367183	0.233191	0.415074	0.322364	0.114203	0.254740	0.435870	0.473919	0.315981	0.464599	0.325099	0.239866	0.062877	0.091754	0.651266	0.274273	0.329825	0.122139	0.396662	0.187633	0.124114	0.062133	0.224821	0.622642	0.703616	0.427011	0.497147	0.287734	0.081422	0.208395	0.571393	0.375566
23	0.147755	0.221568	0.540785	0.302707	0.276293	0.310578	0.351389	0.689070	0.293833	0.388278	0.447231	0.274919	0.183409	0.192810	0.202665	0.331208	0.658858	0.557496	0.635861	0.222275	0.280288	0.239536	0.431038	0.465926	0.292231	0.293146	0.411993	0.201941	0.199295	0.349288	0.999218	0.281530	0.322437	0.221071	0.389962	0.271937	0.091395	0.158055	0.403479	0.396331	0.290355	0.435743	0.323384	0.239415	0.062603	0.119485	0.650256	0.262754	0.294736	0.099553	0.399729	0.142997	0.120836	0.060697	0.223551	0.584040	0.687132	0.415679	0.480586	0.249876	0.072645	0.208341	0.561373	0.374340
24	0.162131	0.265049	0.397921	0.293595	0.250469	0.294867	0.351410	0.686654	0.263588	0.387251	0.458376	0.270094	0.179722	0.202535	0.201203	0.328953	0.596240	0.550734	0.608907	0.225884	0.283551	0.256438	0.428555	0.468163	0.365034	0.298727	0.408140	0.128469	0.196941	0.343535	0.989444	0.227015	0.294960	0.194720	0.388273	0.220707	0.092242	0.106355	0.341653	0.381969	0.281895	0.413832	0.354165	0.225517	0.065931	0.142608	0.633556	0.260008	0.261527	0.090687	0.403842	0.147905	0.119817	0.062193	0.213678	0.546421	0.691414	0.416893	0.405732	0.255951	0.071906	0.201946	0.546570	0.356719
25	0.167741	0.270123	0.377976	0.242666	0.201647	0.254512	0.347048	0.681909	0.257652	0.384626	0.483174	0.258181	0.173343	0.224398	0.179030	0.330113	0.553692	0.540424	0.586912	0.223355	0.285068	0.323888	0.395653	0.467978	0.390563	0.296379	0.407221	0.145898	0.195631	0.323583	0.960770	0.218240	0.187077	0.135351	0.364314	0.218230	0.095613	0.096254	0.320754	0.375509	0.268365	0.407138	0.355644	0.214984	0.066688	0.162291	0.620848	0.258298	0.255176	0.089269	0.405838	0.164832	0.122382	0.063009	0.211409	0.536412	0.708862	0.392495	0.351840	0.249227	0.072550	0.183805	0.511574	0.304644
26	0.182448	0.276712	0.351381	0.336769	0.183891	0.252389	0.316519	0.681544	0.269043	0.384173	0.498605	0.246303	0.172226	0.218650	0.165707	0.332855	0.547610	0.541280	0.605998	0.195055	0.271149	0.370483	0.389997	0.464551	0.418144	0.290977	0.395548	0.159109	0.194379	0.273083	0.898734	0.216819	0.125447	0.128813	0.300862	0.210531	0.098986	0.092664	0.311664	0.354410	0.266220	0.407835	0.363066	0.233442	0.082590	0.177576	0.616772	0.196040	0.249730	0.080203	0.362425	0.168364	0.143711	0.066190	0.208869	0.518303	0.669434	0.387056	0.346343	0.230271	0.070817	0.173429	0.431928	0.266620
27	0.198542	0.279510	0.349178	0.362293	0.165108	0.253112	0.281860	0.678590	0.319124	0.372180	0.494136	0.215726	0.154132	0.221440	0.160306	0.325856	0.514166	0.533825	0.635578	0.175481	0.233614	0.376573	0.397627	0.461204	0.464534	0.288631	0.364047	0.158380	0.188550	0.262961	0.810243	0.216638	0.136339	0.191210	0.278571	0.198048	0.097248	0.086710	0.311080	0.311986	0.252924	0.416126	0.431140	0.247979	0.092626	0.207455	0.578867	0.154526	0.256245	0.072881	0.306713	0.164982	0.160990	0.066642	0.195358	0.492120	0.671245	0.387677	0.354153	0.206407	0.066552	0.169195	0.404049	0.264595
28	0.219843	0.280508	0.380332	0.370137	0.153298	0.243136	0.253620	0.591889	0.302338	0.372744	0.480749	0.194969	0.153347	0.260473	0.105493	0.325043	0.351670	0.355859	0.636663	0.186923	0.194812	0.379674	0.398299	0.455377	0.467814	0.252562	0.329730	0.148499	0.187573	0.239767	0.720936	0.208273	0.140294	0.200682	0.276916	0.241749	0.100348	0.086693	0.308142	0.291549	0.234806	0.397864	0.431223	0.277052	0.109698	0.213144	0.531372	0.153065	0.261629	0.072901	0.303464	0.283950	0.155478	0.061494	0.174562	0.488608	0.661653	0.380128	0.382324	0.191177	0.066431	0.182336	0.401045	0.229168
29	0.257913	0.279196	0.382055	0.381161	0.148916	0.203805	0.238063	0.546814	0.302033	0.407295	0.478170	0.194695	0.148814	0.442458	0.097607	0.280473	0.143498	0.228013	0.603948	0.197635	0.170869	0.465100	0.387306	0.405847	0.474423	0.228492	0.303586	0.143807	0.182218	0.200726	0.683415	0.193459	0.142411	0.207643	0.271834	0.253004	0.106009	0.091270	0.283562	0.292404	0.155186	0.359935	0.482429	0.275850	0.125256	0.250432	0.499260	0.142525	0.247208	0.071329	0.302584	0.485774	0.134645	0.054217	0.177926	0.476341	0.644540	0.360650	0.367372	0.196360	0.066590	0.174220	0.348785	0.213902
30	0.250399	0.261777	0.366138	0.449842	0.149459	0.168734	0.237270	0.537509	0.304636	0.428120	0.473053	0.194540	0.143797	0.485889	0.095946	0.202365	0.125687	0.218674	0.602244	0.198494	0.157252	0.495140	0.327787	0.326913	0.486493	0.250549	0.285084	0.145785	0.177459	0.272225	0.677666	0.170525	0.152015	0.238526	0.259443	0.275298	0.105878	0.088703	0.251254	0.287489	0.095357	0.346657	0.510555	0.266188	0.124589	0.272915	0.496320	0.128312	0.182033	0.040948	0.296882	0.503241	0.131306	0.055498	0.180977	0.430234	0.631543	0.338597	0.334699	0.242057	0.066070	0.164121	0.241230	0.200823
31	0.245783	0.217562	0.301076	0.482084	0.147656	0.176222	0.223626	0.472500	0.290079	0.409032	0.473671	0.195906	0.139725	0.539345	0.095978	0.138715	0.130110	0.212843	0.613301	0.196676	0.148604	0.492370	0.307887	0.317357	0.487697	0.318337	0.227370	0.157161	0.140032	0.290693	0.607126	0.172686	0.157918	0.259426	0.284056	0.346195	0.107276	0.090175	0.250063	0.279367	0.082805	0.341619	0.538745	0.278229	0.124473	0.280676	0.459367	0.114903	0.154745	0.040811	0.311117	0.511231	0.136437	0.059034	0.182101	0.368899	0.643770	0.327168	0.320328	0.312315	0.066510	0.170773	0.162874	0.198210
32	0.283920	0.202244	0.301585	0.492165	0.129618	0.179969	0.208917	0.361676	0.271380	0.380872	0.481714	0.233127	0.141183	0.537655	0.090963	0.134174	0.143261	0.220964	0.615494	0.186522	0.136278	0.485329	0.303540	0.312331	0.512741	0.332274	0.191662	0.156217	0.102448	0.321910	0.477047	0.226909	0.161611	0.262247	0.379244	0.341641	0.102134	0.090090	0.246750	0.267502	0.092362	0.276045	0.537066	0.311416	0.128752	0.281903	0.396105	0.100804	0.158790	0.051001	0.305270	0.561899	0.136917	0.068183	0.183176	0.298481	0.632147	0.306601	0.361328	0.365515	0.066399	0.177453	0.162995	0.188428
33	0.306312	0.203836	0.394738	0.502318	0.060711	0.178511	0.182636	0.264062	0.274455	0.387066	0.479918	0.266120	0.170357	0.583428	0.155447	0.129500	0.175144	0.236255	0.616768	0.186336	0.136411	0.483352	0.297555	0.295748	0.521672	0.340132	0.175657	0.156676	0.099350	0.362267	0.333979	0.261263	0.151753	0.260599	0.398853	0.323518	0.098730	0.121374	0.246994	0.265695	0.095664	0.175672	0.530626	0.317059	0.132992	0.283336	0.401967	0.103669	0.159029	0.057517	0.284998	0.592953	0.157887	0.085284	0.170622	0.230238	0.620661	0.278788	0.402858	0.374471	0.066418	0.182528	0.197087	0.169302
34	0.314373	0.200605	0.471380	0.529147	0.054245	0.182561	0.142754	0.179874	0.274538	0.356029	0.413546	0.270474	0.192599	0.684594	0.266927	0.140830	0.188320	0.264817	0.635264	0.192870	0.135712	0.487416	0.292713	0.290992	0.572645	0.341719	0.177174	0.205603	0.090424	0.365990	0.192984	0.264590	0.141020	0.258565	0.397111	0.342701	0.103322	0.157272	0.226827	0.247316	0.081826	0.139533	0.478416	0.339723	0.135134	0.278734	0.399248	0.099731	0.130361	0.058643	0.277148	0.669237	0.204686	0.104010	0.215544	0.249730	0.487868	0.203120	0.412066	0.378978	0.064407	0.240425	0.219966	0.132444
35	0.314895	0.158833	0.660790	0.561295	0.044751	0.189914	0.126603	0.167702	0.274388	0.327274	0.442375	0.273168	0.196658	0.699593	0.279970	0.195662	0.191401	0.277266	0.625268	0.180165	0.129445	0.487346	0.266786	0.274626	0.608269	0.342212	0.252492	0.404349	0.081714	0.365366	0.103284	0.269748	0.138587	0.257599	0.402417	0.356536	0.128666	0.157782	0.156608	0.189307	0.080126	0.118645	0.472625	0.344480	0.136749	0.275736	0.403338	0.100044	0.128979	0.061296	0.273794	0.760477	0.228453	0.114260	0.237381	0.297224	0.396228	0.172301	0.409377	0.379084	0.057301	0.261656	0.216631	0.128257
36	0.316529	0.148681	0.724178	0.525917	0.047921	0.214656	0.132106	0.202134	0.274579	0.322047	0.538531	0.273160	0.202734	0.704218	0.282100	0.204253	0.206425	0.325294	0.583225	0.178498	0.122699	0.487136	0.201741	0.201317	0.615993	0.345599	0.257769	0.536263	0.080173	0.366090	0.090393	0.269286	0.131792	0.256103	0.407333	0.358454	0.140952	0.157967	0.102435	0.136078	0.085671	0.113853	0.471597	0.405304	0.139216	0.268555	0.420354	0.123134	0.130326	0.062037	0.260153	0.772354	0.232402	0.116410	0.237618	0.291824	0.372840	0.168786	0.412743	0.467244	0.060624	0.271295	0.193507	0.141084
37	0.312274	0.139533	0.718780	0.515809	0.061753	0.216838	0.159259	0.273756	0.274444	0.321470	0.589697	0.285704	0.197692	0.699018	0.283748	0.237692	0.209479	0.330873	0.579066	0.171286	0.122903	0.491397	0.157574	0.130993	0.601338	0.351721	0.257992	0.595471	0.099575	0.366031	0.109267	0.265985	0.136479	0.255216	0.433138	0.356514	0.153327	0.156610	0.123875	0.127239	0.085081	0.082556	0.426174	0.475964	0.139643	0.262636	0.438489	0.137724	0.126233	0.061791	0.253410	0.777601	0.235190	0.121919	0.237591	0.321662	0.375852	0.144286	0.411261	0.587976	0.059954	0.271356	0.186082	0.162015
38	0.297131	0.130322	0.702028	0.532386	0.120219	0.219211	0.182477	0.292306	0.268885	0.321424	0.584466	0.300866	0.194950	0.695208	0.280075	0.255220	0.210605	0.328833	0.589611	0.173238	0.117556	0.487865	0.154479	0.101347	0.639450	0.400024	0.260001	0.607680	0.103617	0.365259	0.137471	0.261238	0.142770	0.249706	0.462727	0.358772	0.182905	0.153882	0.150564	0.141771	0.084831	0.050150	0.396601	0.489674	0.139399	0.240701	0.455819	0.138010	0.125693	0.062100	0.255631	0.787208	0.237545	0.125214	0.237911	0.381269	0.378944	0.127313	0.405480	0.625692	0.059323	0.271854	0.193248	0.169610
39	0.279274	0.131393	0.701483	0.541670	0.182307	0.223680	0.197664	0.292390	0.256276	0.321503	0.575047	0.306667	0.193926	0.695275	0.280561	0.251920	0.216142	0.326592	0.617276	0.254085	0.130568	0.480306	0.155113	0.094039	0.667301	0.416113	0.302597	0.609633	0.110816	0.366271	0.186910	0.280681	0.137569	0.222168	0.470433	0.362896	0.197901	0.158689	0.163073	0.151939	0.084435	0.048949	0.370568	0.481205	0.138666	0.242783	0.474929	0.137410	0.111176	0.059874	0.248159	0.787025	0.238365	0.125834	0.238237	0.397649	0.332452	0.121234	0.409564	0.625157	0.059993	0.280105	0.213466	0.165664
40	0.260108	0.135279	0.736237	0.507802	0.194978	0.224246	0.196536	0.298054	0.180395	0.321862	0.577341	0.314264	0.194164	0.695174	0.285722	0.255437	0.228496	0.339558	0.600156	0.370106	0.130338	0.433386	0.149358	0.093552	0.666671	0.414162	0.378732	0.653274	0.112069	0.364465	0.220668	0.318444	0.132260	0.184803	0.472188	0.341652	0.196325	0.170891	0.167452	0.149272	0.086568	0.048315	0.343995	0.484713	0.126143	0.221851	0.476644	0.138473	0.091246	0.057372	0.216327	0.759074	0.230341	0.125117	0.242286	0.396554	0.320394	0.089565	0.439511	0.670654	0.071217	0.287864	0.215499	0.159803
41	0.259888	0.134911	0.785179	0.453174	0.197945	0.230293	0.200172	0.350336	0.136202	0.320834	0.573683	0.314211	0.194338	0.663842	0.289760	0.262521	0.236172	0.347906	0.570859	0.387571	0.143168	0.387505	0.115569	0.100496	0.631395	0.411571	0.454131	0.729719	0.113656	0.364756	0.261810	0.345559	0.131374	0.184561	0.482542	0.321045	0.210738	0.206885	0.168287	0.143040	0.093930	0.048419	0.369276	0.473407	0.122612	0.205211	0.476583	0.143239	0.088118	0.057382	0.217037	0.642968	0.214208	0.124703	0.255347	0.394630	0.300140	0.078480	0.446030	0.701389	0.074217	0.291916	0.229273	0.157207
42	0.250718	0.129557	0.792272	0.450157	0.204521	0.228869	0.198130	0.426313	0.116395	0.285141	0.557889	0.322615	0.208936	0.569891	0.294109	0.262353	0.228702	0.343777	0.568494	0.432383	0.178252	0.375032	0.097015	0.095911	0.625929	0.410941	0.488229	0.819431	0.112023	0.357518	0.263831	0.356538	0.121782	0.150707	0.484510	0.327239	0.296266	0.228886	0.170049	0.137961	0.097665	0.046505	0.350060	0.462514	0.099293	0.184628	0.476550	0.144674	0.089391	0.056956	0.203174	0.624766	0.212644	0.124636	0.261364	0.395452	0.297507	0.078348	0.418663	0.702330	0.075164	0.283351	0.242332	0.158166
43	0.202058	0.128052	0.778545	0.461023	0.223286	0.224274	0.204196	0.464797	0.106717	0.238061	0.560479	0.379458	0.238304	0.576931	0.308853	0.260786	0.218538	0.335963	0.567809	0.528686	0.189497	0.356407	0.098236	0.086884	0.618988	0.403312	0.495168	0.890431	0.108877	0.326958	0.271462	0.359197	0.113310	0.098586	0.474412	0.268958	0.320505	0.233908	0.181440	0.168977	0.094103	0.053513	0.438958	0.452287	0.088857	0.133698	0.476243	0.144962	0.089276	0.055847	0.179835	0.621144	0.212439	0.125894	0.263868	0.403216	0.283341	0.076548	0.381351	0.711409	0.085700	0.259749	0.245195	0.156795
44	0.188945	0.098515	0.738045	0.485581	0.248913	0.212604	0.220345	0.471476	0.106457	0.236585	0.557739	0.405288	0.246308	0.543556	0.326127	0.260418	0.218184	0.329580	0.522694	0.595331	0.191031	0.228593	0.099715	0.077363	0.612036	0.392069	0.498479	0.938943	0.108328	0.252773	0.301800	0.358838	0.111301	0.069796	0.390994	0.255058	0.321250	0.232875	0.205741	0.278043	0.091539	0.056373	0.468898	0.443069	0.087214	0.101582	0.474528	0.144823	0.079024	0.047178	0.156695	0.579598	0.208761	0.124673	0.269523	0.409890	0.282014	0.070912	0.377930	0.722259	0.089259	0.264074	0.246170	0.155716
45	0.186814	0.076621	0.758450	0.474821	0.274327	0.198283	0.240567	0.471360	0.105534	0.222033	0.585546	0.387991	0.250187	0.540395	0.332460	0.260669	0.218997	0.330317	0.484437	0.632956	0.190003	0.194041	0.098489	0.071321	0.610936	0.338184	0.512280	0.955913	0.100686	0.238758	0.324594	0.346710	0.115705	0.063868	0.345150	0.420035	0.325666	0.239262	0.234042	0.318529	0.087074	0.061009	0.463326	0.474934	0.072834	0.115946	0.425584	0.141331	0.062287	0.036769	0.270625	0.549917	0.206889	0.133273	0.276671	0.401233	0.213679	0.052351	0.399119	0.694979	0.088396	0.280503	0.245104	0.155813
46	0.184663	0.100708	0.687173	0.431045	0.275822	0.202414	0.247446	0.472670	0.101724	0.188262	0.612612	0.347234	0.234092	0.460015	0.282798	0.262073	0.208767	0.323612	0.478442	0.636967	0.209376	0.201028	0.102467	0.076420	0.592497	0.297483	0.551864	0.958199	0.086953	0.184275	0.328166	0.305030	0.122122	0.061578	0.381111	0.478391	0.339494	0.236994	0.242230	0.320418	0.084215	0.059098	0.476496	0.460751	0.067302	0.124960	0.315168	0.147200	0.063954	0.031886	0.572444	0.509943	0.211979	0.160272	0.290278	0.394465	0.185567	0.051744	0.376092	0.665329	0.086852	0.281062	0.243941	0.156402
47	0.261519	0.154094	0.668643	0.482713	0.275872	0.216918	0.247240	0.473881	0.099017	0.118327	0.629323	0.356525	0.226727	0.317406	0.206675	0.247856	0.189994	0.310320	0.478159	0.635523	0.233156	0.199201	0.120287	0.079359	0.578669	0.290802	0.631461	0.959518	0.085843	0.093849	0.327918	0.284548	0.133038	0.064610	0.390524	0.464312	0.359998	0.243996	0.241777	0.341650	0.081240	0.056364	0.523507	0.379249	0.064025	0.125338	0.272818	0.149761	0.071518	0.027662	0.617304	0.395308	0.209383	0.209576	0.290470	0.415449	0.186393	0.053023	0.360968	0.646070	0.086801	0.277003	0.238543	0.152469
48	0.306947	0.185192	0.664929	0.458218	0.275417	0.286872	0.248424	0.474638	0.099814	0.110857	0.591979	0.420562	0.308902	0.315615	0.199535	0.207212	0.187170	0.269771	0.487678	0.634889	0.234224	0.198128	0.131686	0.080205	0.554785	0.284463	0.698017	0.970285	0.086427	0.090686	0.327926	0.301678	0.142887	0.066304	0.420077	0.460228	0.380026	0.259259	0.240504	0.367409	0.088166	0.061528	0.593513	0.288221	0.055652	0.169800	0.275561	0.196774	0.081707	0.026174	0.678818	0.401363	0.170295	0.218323	0.259044	0.427366	0.184143	0.048913	0.399752	0.644322	0.087631	0.275743	0.216933	0.143890
49	0.325060	0.187928	0.663283	0.440822	0.280350	0.306421	0.248569	0.468035	0.101561	0.098068	0.512120	0.426830	0.340426	0.312608	0.203035	0.217158	0.187347	0.253884	0.549391	0.646281	0.239799	0.189461	0.128041	0.084475	0.482098	0.285243	0.727248	0.946111	0.086327	0.092843	0.325242	0.324252	0.138138	0.061316	0.472336	0.464260	0.383972	0.250215	0.239676	0.380817	0.093367	0.068290	0.624769	0.281038	0.054985	0.176590	0.253937	0.190596	0.107936	0.031620	0.797150	0.487607	0.122719	0.218273	0.227267	0.398670	0.183225	0.048591	0.457391	0.643830	0.089515	0.237362	0.197731	0.137532
50	0.326906	0.191522	0.672320	0.442663	0.281505	0.304356	0.239080	0.432223	0.111987	0.092714	0.436584	0.419430	0.348750	0.313246	0.207836	0.168034	0.173258	0.179958	0.549106	0.657407	0.240553	0.191342	0.125195	0.118993	0.492587	0.302155	0.746925	0.872933	0.084475	0.089434	0.324571	0.337794	0.126835	0.051327	0.456247	0.475818	0.387211	0.250107	0.240286	0.386020	0.104501	0.072151	0.624399	0.290797	0.054162	0.179709	0.225104	0.202120	0.121464	0.032906	0.813367	0.494829	0.112121	0.223261	0.219615	0.393600	0.176806	0.048361	0.467277	0.611459	0.101818	0.199710	0.195003	0.136279
51	0.353834	0.192905	0.643159	0.443306	0.275658	0.317580	0.228573	0.406677	0.122992	0.092788	0.448662	0.411490	0.353721	0.313385	0.241190	0.160156	0.222626	0.166119	0.560604	0.661789	0.248955	0.215176	0.126968	0.129216	0.507965	0.319953	0.749396	0.830690	0.058768	0.087393	0.317797	0.341659	0.124567	0.047691	0.439057	0.532166	0.439870	0.281612	0.234036	0.385654	0.105925	0.073241	0.619157	0.321020	0.066738	0.215765	0.207867	0.202952	0.127057	0.032575	0.818522	0.516008	0.108282	0.234776	0.224209	0.389400	0.144319	0.049561	0.467108	0.494626	0.113999	0.188172	0.201336	0.127489
52	0.453001	0.198415	0.633507	0.443045	0.244060	0.334894	0.263474	0.398021	0.127199	0.091155	0.510335	0.412252	0.357473	0.311300	0.322386	0.167348	0.381096	0.179933	0.629402	0.661908	0.283320	0.284344	0.126869	0.131040	0.464868	0.249732	0.748756	0.811958	0.054202	0.083954	0.307533	0.360710	0.129663	0.047126	0.453248	0.626559	0.473506	0.311570	0.224237	0.382919	0.173751	0.105784	0.663432	0.334856	0.063976	0.222854	0.198630	0.203693	0.130508	0.032811	0.836556	0.643909	0.105889	0.235092	0.234741	0.343208	0.126755	0.047186	0.465424	0.415928	0.115328	0.194113	0.207382	0.132990
53	0.516699	0.210628	0.614868	0.415152	0.217695	0.332685	0.378068	0.433943	0.126939	0.087904	0.530154	0.404483	0.357630	0.305124	0.508326	0.166868	0.510290	0.195483	0.652460	0.631910	0.305103	0.318369	0.135740	0.143740	0.355713	0.210822	0.746201	0.811516	0.035355	0.081207	0.303276	0.342969	0.130218	0.057504	0.454578	0.668975	0.467395	0.316582	0.211354	0.381607	0.307854	0.178696	0.675569	0.340851	0.068938	0.218721	0.178008	0.213692	0.133993	0.032625	0.841739	0.761922	0.101052	0.246971	0.247267	0.309589	0.112479	0.037350	0.470433	0.458452	0.116602	0.196599	0.207188	0.130856
54	0.545083	0.289603	0.615673	0.370279	0.217286	0.335638	0.395548	0.414979	0.121532	0.078614	0.542948	0.405973	0.356102	0.305431	0.596723	0.158223	0.541806	0.175397	0.696999	0.577940	0.316947	0.297282	0.165619	0.152629	0.398620	0.211604	0.752298	0.786726	0.032386	0.090093	0.299428	0.307034	0.130127	0.073830	0.450405	0.668822	0.466224	0.315495	0.213137	0.379264	0.441718	0.259090	0.628776	0.335534	0.077017	0.219249	0.195703	0.244388	0.135341	0.041095	0.844244	0.779291	0.105392	0.252273	0.319096	0.306952	0.112173	0.035754	0.456382	0.439837	0.131423	0.206396	0.187636	0.128023
55	0.848392	0.395957	0.584674	0.361239	0.218165	0.335137	0.385653	0.376922	0.114492	0.065722	0.543564	0.412467	0.341476	0.251027	0.600084	0.161220	0.558140	0.159342	0.722075	0.572392	0.326157	0.306646	0.177088	0.153584	0.635027	0.243347	0.724385	0.773578	0.030879	0.088231	0.273348	0.284269	0.129768	0.079577	0.486628	0.689795	0.467696	0.301931	0.225497	0.380780	0.518348	0.271101	0.631745	0.295883	0.081149	0.220997	0.202370	0.245895	0.166574	0.070068	0.853776	0.778880	0.112661	0.258261	0.359826	0.366485	0.120951	0.043595	0.436537	0.363355	0.159589	0.230590	0.192808	0.131182
56	0.904265	0.407247	0.530008	0.362603	0.205364	0.330825	0.382350	0.342794	0.107401	0.055002	0.529890	0.368624	0.320050	0.190591	0.667172	0.176464	0.558652	0.149315	0.723705	0.525121	0.315669	0.330210	0.174056	0.149333	0.798583	0.265718	0.716723	0.801516	0.032253	0.086625	0.272501	0.277651	0.129044	0.079903	0.509150	0.762981	0.451259	0.282860	0.238480	0.385704	0.570263	0.365984	0.625334	0.266731	0.084830	0.219894	0.224294	0.259848	0.250215	0.088748	0.861348	0.777049	0.113850	0.258751	0.374281	0.408839	0.138425	0.056154	0.479732	0.369944	0.161806	0.222456	0.201248	0.132167
57	0.906813	0.395660	0.526296	0.301039	0.183133	0.326767	0.376266	0.321778	0.108311	0.054037	0.525380	0.340584	0.308797	0.187804	0.749530	0.175924	0.586187	0.153429	0.725277	0.428336	0.301648	0.332823	0.173952	0.150360	0.849654	0.271080	0.741653	0.794855	0.034994	0.094022	0.262538	0.275023	0.192243	0.084486	0.499046	0.759894	0.401443	0.269396	0.253067	0.387278	0.675571	0.384689	0.602605	0.260281	0.087000	0.218986	0.251737	0.262914	0.407919	0.104161	0.851462	0.778001	0.114446	0.258155	0.371315	0.404793	0.143143	0.059753	0.638529	0.365458	0.164276	0.238212	0.202916	0.133748
58	0.903202	0.379047	0.559915	0.225329	0.130226	0.326132	0.382286	0.323255	0.108167	0.052427	0.531293	0.368291	0.298661	0.182889	0.770176	0.175348	0.629308	0.155195	0.767414	0.384488	0.378905	0.340375	0.172816	0.150868	0.852865	0.269879	0.808861	0.731914	0.035864	0.093519	0.274232	0.278998	0.247025	0.086111	0.506314	0.690632	0.392868	0.280896	0.267597	0.359592	0.730842	0.392508	0.533921	0.256744	0.087928	0.221478	0.265194	0.263085	0.484166	0.110707	0.706452	0.757889	0.114754	0.258918	0.375916	0.419384	0.141634	0.070498	0.737695	0.407572	0.161658	0.246541	0.197963	0.158103
59	0.896702	0.382343	0.569046	0.222624	0.113892	0.322421	0.385031	0.323607	0.106856	0.042066	0.540382	0.376336	0.300352	0.166211	0.771494	0.175537	0.638896	0.160567	0.817441	0.364991	0.470318	0.348754	0.183907	0.166024	0.865447	0.273602	0.858934	0.703210	0.035176	0.086696	0.311694	0.283206	0.468673	0.099333	0.502040	0.683585	0.399448	0.302305	0.258298	0.297017	0.733335	0.391322	0.455254	0.248065	0.090250	0.206470	0.270707	0.268793	0.496997	0.111153	0.660241	0.763572	0.117150	0.258565	0.389858	0.459359	0.222380	0.105207	0.743454	0.459250	0.162466	0.263403	0.198392	0.232081
60	0.895628	0.378476	0.598649	0.210299	0.115404	0.320271	0.389772	0.321697	0.112338	0.041372	0.554958	0.366306	0.286379	0.165581	0.770990	0.171005	0.643046	0.192061	0.851168	0.360376	0.476649	0.345789	0.189627	0.178267	0.912297	0.279001	0.849483	0.713651	0.035658	0.085963	0.313001	0.282475	0.580827	0.098157	0.494194	0.684423	0.393270	0.304447	0.239077	0.287099	0.737087	0.400798	0.445162	0.237880	0.097456	0.212243	0.344763	0.272493	0.498774	0.112429	0.621002	0.748805	0.126669	0.269242	0.399963	0.484846	0.358966	0.162421	0.751690	0.462653	0.186752	0.253259	0.203663	0.268023
61	0.896059	0.380012	0.565465	0.250501	0.124176	0.274341	0.441764	0.320169	0.113786	0.049521	0.564978	0.287253	0.179879	0.150970	0.770710	0.171658	0.643267	0.195241	0.885633	0.360459	0.467698	0.342831	0.184894	0.177943	0.919845	0.279222	0.804784	0.765935	0.035516	0.085885	0.331825	0.272422	0.595330	0.099795	0.433802	0.683806	0.380807	0.315346	0.235308	0.281567	0.737938	0.410324	0.441408	0.186009	0.099416	0.211473	0.432846	0.260183	0.556350	0.131021	0.487245	0.686173	0.150176	0.332888	0.401808	0.473848	0.506928	0.209361	0.749963	0.501634	0.190366	0.244749	0.204629	0.271440
62	0.880585	0.384498	0.535843	0.274023	0.121686	0.239862	0.535033	0.319051	0.112001	0.091992	0.572378	0.286211	0.133586	0.137158	0.770513	0.168865	0.689876	0.200775	0.882241	0.367014	0.462022	0.344289	0.170279	0.179360	0.919906	0.281929	0.762092	0.805981	0.034978	0.079212	0.377779	0.245146	0.612311	0.101130	0.388530	0.691274	0.360564	0.322015	0.237453	0.250120	0.744044	0.411528	0.359470	0.229152	0.106427	0.190578	0.455926	0.268836	0.566894	0.151306	0.459282	0.669325	0.186183	0.484380	0.402916	0.457996	0.606782	0.229217	0.737613	0.560750	0.195816	0.241644	0.223250	0.278503
63	0.830841	0.381908	0.529346	0.276283	0.113021	0.199896	0.591057	0.318551	0.101347	0.133707	0.583776	0.307706	0.114412	0.146839	0.773177	0.178389	0.724390	0.207049	0.839224	0.348793	0.463026	0.345642	0.164382	0.186376	0.921354	0.281967	0.726753	0.830256	0.040595	0.081125	0.433526	0.207797	0.735928	0.142466	0.399852	0.696959	0.342181	0.301286	0.255452	0.214008	0.716960	0.406113	0.279944	0.259756	0.118151	0.195208	0.457171	0.272816	0.584972	0.157654	0.451244	0.675049	0.199114	0.515335	0.392487	0.451580	0.619407	0.231411	0.793689	0.611826	0.216320	0.240051	0.237285	0.286874
64	0.814514	0.370010	0.561362	0.291434	0.118287	0.217100	0.610705	0.310106	0.091218	0.135572	0.582483	0.332984	0.107991	0.183484	0.758417	0.204289	0.724851	0.208815	0.904773	0.340563	0.462195	0.345889	0.181609	0.180376	0.935078	0.270415	0.696526	0.838807	0.042835	0.083173	0.458048	0.193265	0.904591	0.220664	0.396387	0.648907	0.338128	0.302326	0.266451	0.193840	0.659018	0.352762	0.256677	0.257228	0.131847	0.179658	0.455107	0.257403	0.594632	0.159590	0.428551	0.590412	0.199472	0.533749	0.391251	0.453664	0.644604	0.234941	0.865728	0.644551	0.221105	0.239833	0.233668	0.297124
65	0.669149	0.251302	0.560420	0.317130	0.138492	0.205687	0.609197	0.307191	0.096679	0.142852	0.528344	0.321908	0.097092	0.235558	0.714413	0.209976	0.707006	0.210563	0.913744	0.333144	0.461227	0.342651	0.230510	0.160240	0.956573	0.243046	0.694923	0.838357	0.042644	0.084033	0.459582	0.199308	0.964773	0.249270	0.381758	0.610203	0.309781	0.302602	0.266385	0.186311	0.567963	0.342788	0.281322	0.259748	0.170174	0.154282	0.443554	0.269150	0.661893	0.170709	0.431657	0.419536	0.209609	0.549553	0.389223	0.446393	0.666818	0.236308	0.868088	0.648728	0.227350	0.236673	0.226461	0.303031
66	0.353585	0.150303	0.481247	0.310639	0.190863	0.269754	0.550067	0.281294	0.122833	0.202511	0.664610	0.321261	0.113723	0.254326	0.581362	0.199894	0.624652	0.199114	0.856261	0.332637	0.452060	0.317600	0.266731	0.161660	0.963721	0.237236	0.725585	0.848825	0.043535	0.093330	0.455480	0.310090	0.965190	0.268594	0.379536	0.602041	0.213942	0.264528	0.265857	0.186377	0.548149	0.298160	0.309199	0.282141	0.222281	0.149580	0.465635	0.281001	0.762182	0.191910	0.428022	0.410856	0.239179	0.555987	0.384743	0.432996	0.702748	0.250985	0.883358	0.662877	0.219690	0.236288	0.218817	0.326592
67	0.343172	0.148866	0.490564	0.311800	0.250250	0.326665	0.508666	0.246518	0.141331	0.206183	0.806893	0.324527	0.115323	0.262073	0.524108	0.205555	0.535012	0.188037	0.857178	0.380247	0.429674	0.242916	0.280056	0.170675	0.964277	0.238217	0.768875	0.855638	0.055290	0.101851	0.440529	0.473447	0.971190	0.271920	0.367586	0.601228	0.151106	0.247956	0.256807	0.184920	0.446425	0.240565	0.317966	0.345022	0.265553	0.153011	0.495980	0.262972	0.774331	0.200475	0.405584	0.427240	0.242215	0.552909	0.381977	0.430268	0.731799	0.274130	0.885180	0.645244	0.218937	0.233095	0.213578	0.358747
68	0.274448	0.141712	0.470578	0.354400	0.312846	0.387152	0.507789	0.236252	0.155416	0.207366	0.816055	0.317268	0.132494	0.269982	0.515101	0.217516	0.506538	0.180481	0.896739	0.476251	0.420059	0.230593	0.273017	0.168597	0.949829	0.235998	0.749595	0.855658	0.059316	0.113854	0.428393	0.502117	0.983084	0.279929	0.288385	0.571402	0.141935	0.253617	0.256192	0.174278	0.244727	0.294449	0.328364	0.401757	0.291115	0.150619	0.494572	0.251842	0.758160	0.194550	0.392831	0.427323	0.267685	0.564438	0.337282	0.431044	0.740507	0.281693	0.886411	0.632793	0.223401	0.228172	0.210482	0.371741
69	0.257459	0.139039	0.463431	0.558577	0.334401	0.401074	0.508528	0.166036	0.166771	0.217823	0.830686	0.331654	0.251319	0.285302	0.370027	0.219128	0.491287	0.174795	0.940023	0.551653	0.418740	0.249249	0.255963	0.165721	0.850654	0.211646	0.734428	0.830547	0.059373	0.128239	0.426986	0.500553	0.977567	0.279196	0.283004	0.593747	0.134973	0.263904	0.248944	0.195565	0.234903	0.364462	0.329350	0.413026	0.290295	0.149694	0.489357	0.265255	0.692978	0.187468	0.394161	0.427480	0.316522	0.570290	0.283296	0.402174	0.740389	0.285763	0.885497	0.702178	0.218931	0.221947	0.213524	0.379184
70	0.238148	0.133798	0.453057	0.663963	0.344206	0.483027	0.510422	0.121453	0.166767	0.221567	0.832636	0.347269	0.340807	0.340373	0.205567	0.225535	0.489471	0.175910	0.952147	0.575015	0.425422	0.326291	0.257220	0.166463	0.673353	0.176773	0.712903	0.733462	0.079600	0.255933	0.426892	0.517012	0.975356	0.281772	0.258189	0.608253	0.131650	0.268188	0.239311	0.214840	0.222812	0.371661	0.330542	0.417815	0.290946	0.164854	0.476299	0.269194	0.643757	0.183693	0.359817	0.414462	0.345828	0.572000	0.266625	0.342765	0.737907	0.290619	0.888136	0.753255	0.198923	0.201542	0.223087	0.379952
71	0.235180	0.132369	0.444534	0.665041	0.345067	0.508876	0.507330	0.122067	0.193449	0.221452	0.803508	0.318658	0.400224	0.462189	0.150440	0.224910	0.445729	0.177219	0.955218	0.580374	0.426986	0.428276	0.269192	0.165472	0.597191	0.160344	0.692227	0.611326	0.091831	0.355254	0.425170	0.555851	0.950058	0.281610	0.208198	0.622399	0.130856	0.273195	0.225743	0.224617	0.229787	0.463790	0.323057	0.502880	0.296549	0.164418	0.466426	0.269089	0.638028	0.184550	0.358018	0.363300	0.348934	0.577653	0.292347	0.335350	0.733599	0.290283	0.813450	0.752133	0.195038	0.240630	0.220064	0.379459
72	0.191325	0.113799	0.443571	0.698086	0.349615	0.519499	0.494688	0.118378	0.315168	0.223004	0.786372	0.303726	0.414711	0.475693	0.146173	0.223970	0.394633	0.183028	0.917592	0.545723	0.421132	0.451136	0.283084	0.164978	0.584246	0.163999	0.627507	0.608421	0.100987	0.376003	0.386252	0.596833	0.855143	0.280720	0.261559	0.664908	0.138973	0.293002	0.202854	0.238327	0.212301	0.473077	0.330300	0.610709	0.322816	0.161886	0.462528	0.267594	0.642256	0.184890	0.362384	0.475184	0.348936	0.596479	0.288409	0.314761	0.738744	0.291534	0.705502	0.730847	0.193430	0.254158	0.218853	0.380168
73	0.153822	0.114934	0.453827	0.769332	0.442126	0.555101	0.493909	0.118421	0.480961	0.230662	0.778238	0.339931	0.421087	0.496836	0.146439	0.225223	0.414440	0.178553	0.880550	0.571139	0.308641	0.451179	0.325760	0.163737	0.591232	0.156202	0.537820	0.607518	0.169544	0.378100	0.344490	0.626579	0.832892	0.280078	0.368258	0.671893	0.134979	0.291180	0.171467	0.243665	0.180530	0.476907	0.316729	0.587965	0.333191	0.167022	0.440065	0.261424	0.604598	0.177815	0.339662	0.628064	0.348250	0.600246	0.274388	0.253928	0.724074	0.286524	0.673337	0.681641	0.192457	0.249261	0.223449	0.375299
74	0.127677	0.141920	0.446992	0.775265	0.498022	0.554947	0.474212	0.116862	0.651954	0.251189	0.779707	0.450582	0.557515	0.518768	0.156501	0.218731	0.465470	0.163137	0.852696	0.703513	0.206537	0.492255	0.332109	0.143934	0.525212	0.152626	0.497761	0.603381	0.227627	0.379388	0.340897	0.637227	0.831071	0.280652	0.379540	0.678976	0.128142	0.279237	0.160174	0.218206	0.173971	0.479382	0.301903	0.592124	0.343359	0.143391	0.353453	0.267845	0.589744	0.160626	0.326184	0.635188	0.344381	0.594957	0.246330	0.181914	0.702273	0.266061	0.668294	0.689023	0.193646	0.246241	0.223570	0.342208
75	0.110379	0.175541	0.400537	0.763380	0.507451	0.557617	0.388675	0.116907	0.814009	0.283830	0.770858	0.550859	0.632671	0.547957	0.155569	0.208357	0.469520	0.160816	0.815450	0.797264	0.199413	0.531798	0.333128	0.132936	0.486187	0.169307	0.499987	0.544176	0.288054	0.396398	0.318023	0.642101	0.804184	0.275480	0.468651	0.693873	0.156069	0.297776	0.155512	0.209373	0.176738	0.477455	0.333547	0.604764	0.361346	0.165362	0.280062	0.249122	0.572058	0.164033	0.325139	0.652733	0.335001	0.561525	0.230567	0.163898	0.666233	0.245590	0.676706	0.696467	0.173446	0.243306	0.218641	0.305199
76	0.092774	0.177451	0.395165	0.749122	0.507735	0.571339	0.261867	0.118331	0.822243	0.281393	0.760656	0.581158	0.649957	0.551225	0.159938	0.192288	0.385158	0.150830	0.790778	0.810110	0.231826	0.536289	0.363748	0.173581	0.522414	0.177194	0.484359	0.467956	0.312117	0.408812	0.261685	0.645522	0.591034	0.270097	0.495179	0.680364	0.184941	0.293920	0.154749	0.215210	0.182862	0.471911	0.335930	0.601620	0.377286	0.174390	0.268691	0.227278	0.566261	0.176383	0.323128	0.669077	0.319830	0.445678	0.223514	0.145932	0.568369	0.222827	0.719949	0.658710	0.165305	0.250130	0.217734	0.303901
77	0.082921	0.187993	0.442468	0.745135	0.507999	0.592058	0.160866	0.128344	0.888127	0.287369	0.749530	0.571368	0.651374	0.543260	0.208924	0.163081	0.331451	0.144709	0.782752	0.809464	0.285001	0.539238	0.400262	0.191644	0.528345	0.178902	0.477301	0.366271	0.314637	0.413620	0.163941	0.644738	0.372259	0.223447	0.502743	0.650809	0.199568	0.284018	0.146436	0.219307	0.192812	0.462295	0.320581	0.607027	0.379825	0.175824	0.268544	0.223970	0.496476	0.187697	0.305037	0.684716	0.317859	0.347573	0.220490	0.134083	0.541938	0.217769	0.676680	0.608169	0.162230	0.252246	0.203136	0.301025
78	0.106340	0.197448	0.461724	0.756601	0.526166	0.605993	0.133695	0.128725	0.948421	0.336754	0.769613	0.579294	0.652303	0.537782	0.221617	0.152244	0.437541	0.178098	0.697810	0.803708	0.316350	0.582312	0.412750	0.190025	0.501634	0.182452	0.474128	0.294949	0.355117	0.452487	0.116039	0.643944	0.366229	0.224518	0.533696	0.633833	0.209494	0.284889	0.105737	0.220885	0.177844	0.450551	0.306898	0.611793	0.392334	0.170172	0.269887	0.218213	0.314651	0.171622	0.322829	0.672409	0.317366	0.324123	0.220300	0.129494	0.511511	0.213816	0.532759	0.565838	0.140456	0.254684	0.179769	0.304258
79	0.127169	0.233320	0.447841	0.738323	0.546551	0.597224	0.133439	0.129351	0.945936	0.308237	0.681800	0.639002	0.650235	0.525562	0.223572	0.152128	0.464187	0.187176	0.691555	0.805605	0.334762	0.669737	0.403185	0.193401	0.427743	0.174081	0.466437	0.292316	0.450856	0.522408	0.205244	0.641671	0.384055	0.207974	0.554677	0.681436	0.231176	0.291481	0.088656	0.220289	0.161164	0.375474	0.340925	0.619883	0.374108	0.170267	0.248411	0.198626	0.256539	0.150815	0.404650	0.667356	0.313343	0.291847	0.220262	0.145839	0.494132	0.213551	0.540714	0.566648	0.132351	0.266810	0.176185	0.298444
80	0.137785	0.248332	0.434623	0.592312	0.527334	0.562466	0.132775	0.120349	0.983836	0.319220	0.478341	0.745358	0.650219	0.525821	0.239106	0.132085	0.471168	0.185766	0.682935	0.803094	0.335050	0.691345	0.374567	0.203387	0.360291	0.172318	0.434084	0.309002	0.483198	0.544124	0.250720	0.612695	0.414117	0.198866	0.601442	0.747985	0.260218	0.305118	0.085722	0.218938	0.164235	0.349723	0.400016	0.631287	0.364182	0.168764	0.141472	0.184717	0.248779	0.147867	0.463185	0.669653	0.292192	0.261913	0.218119	0.194270	0.440506	0.203001	0.552751	0.558659	0.118111	0.267032	0.176343	0.295939
81	0.140713	0.251219	0.423753	0.594850	0.495823	0.527492	0.129040	0.109570	1.068468	0.342380	0.456413	0.830188	0.641205	0.523616	0.255300	0.109540	0.482294	0.191414	0.657385	0.792930	0.339295	0.754306	0.354850	0.204602	0.349378	0.168666	0.362374	0.361492	0.493872	0.547140	0.251259	0.539845	0.448474	0.201340	0.603037	0.731078	0.272136	0.309619	0.083689	0.220279	0.135786	0.279952	0.448695	0.617912	0.314686	0.166746	0.089620	0.182266	0.247920	0.149805	0.454499	0.669825	0.284414	0.257698	0.217950	0.204834	0.386556	0.168023	0.539207	0.554869	0.115066	0.271455	0.176486	0.276470
82	0.141345	0.253269	0.515520	0.586858	0.469915	0.503025	0.122786	0.089546	1.109787	0.348141	0.430396	0.866023	0.598710	0.511623	0.262881	0.107660	0.508766	0.208721	0.599623	0.761802	0.351027	0.794106	0.352134	0.195289	0.349724	0.155187	0.304324	0.384372	0.495271	0.547326	0.255244	0.532389	0.485000	0.236172	0.623227	0.714319	0.278817	0.361503	0.080900	0.221692	0.131060	0.178057	0.476142	0.538493	0.313805	0.166906	0.091155	0.164992	0.247615	0.155643	0.492385	0.670620	0.269509	0.240745	0.218373	0.200789	0.358883	0.150358	0.540425	0.553801	0.110769	0.276587	0.176122	0.218977
83	0.148935	0.278763	0.574248	0.489443	0.456214	0.457503	0.130344	0.107637	1.113207	0.346491	0.423326	0.861848	0.553979	0.457609	0.253476	0.126721	0.526984	0.237236	0.515040	0.730187	0.441506	0.805232	0.357922	0.189940	0.343249	0.150079	0.302937	0.385602	0.495667	0.542824	0.256052	0.530824	0.460554	0.249884	0.665331	0.735456	0.278626	0.363586	0.100783	0.218017	0.136017	0.162096	0.479508	0.486015	0.315051	0.163005	0.094989	0.127371	0.232485	0.156773	0.542764	0.668724	0.213392	0.204079	0.210422	0.199390	0.357028	0.140541	0.544106	0.491338	0.104012	0.289422	0.176377	0.172904
84	0.154508	0.267197	0.603663	0.597064	0.454951	0.384088	0.128851	0.124588	1.109654	0.346856	0.434311	0.856833	0.517778	0.363110	0.252239	0.135830	0.527866	0.248309	0.550681	0.727898	0.491188	0.796672	0.362783	0.190644	0.338525	0.147913	0.304203	0.393536	0.494645	0.485435	0.269910	0.509548	0.449593	0.254204	0.681076	0.802515	0.284154	0.353686	0.104678	0.194805	0.140533	0.142215	0.499754	0.493213	0.320901	0.169482	0.106026	0.122729	0.217007	0.156134	0.553446	0.606004	0.138728	0.195399	0.204281	0.195090	0.363747	0.130794	0.538868	0.383261	0.104475	0.288299	0.173926	0.150473
85	0.162000	0.262445	0.625885	0.624695	0.455418	0.383302	0.119323	0.123404	1.085897	0.348689	0.466071	0.858139	0.509881	0.334853	0.253041	0.134008	0.525978	0.242858	0.632511	0.773260	0.492470	0.754299	0.359582	0.194795	0.299911	0.148208	0.296685	0.439297	0.494213	0.454025	0.275813	0.467223	0.459924	0.260488	0.643565	0.876977	0.286585	0.353786	0.100247	0.167920	0.143254	0.132044	0.581044	0.487484	0.332187	0.190974	0.107639	0.123814	0.183867	0.150282	0.538425	0.434569	0.119885	0.191911	0.175764	0.198709	0.368949	0.126283	0.538892	0.436058	0.110194	0.277667	0.152054	0.141030
86	0.162667	0.252052	0.653828	0.659668	0.424060	0.334813	0.120298	0.125587	1.033401	0.350676	0.456373	0.847132	0.485567	0.294471	0.256960	0.138804	0.522195	0.256511	0.705223	0.774493	0.493005	0.711312	0.351441	0.196741	0.288493	0.143720	0.295039	0.473549	0.495107	0.478442	0.276057	0.419117	0.459185	0.260958	0.622171	0.874884	0.285337	0.357606	0.106042	0.146186	0.126658	0.130961	0.622872	0.478148	0.359149	0.200653	0.108679	0.114864	0.226710	0.153043	0.538044	0.408090	0.119829	0.124672	0.174810	0.198345	0.362790	0.123667	0.537744	0.481500	0.107737	0.248670	0.134723	0.140134
87	0.162799	0.255931	0.630912	0.750217	0.316669	0.329967	0.134791	0.130845	0.941244	0.339597	0.435849	0.812139	0.300067	0.243045	0.251070	0.143321	0.516271	0.297523	0.723710	0.739597	0.495705	0.723126	0.334593	0.196637	0.265743	0.140582	0.315621	0.472894	0.474900	0.503695	0.280330	0.384267	0.452401	0.261333	0.623289	0.864687	0.281491	0.344325	0.108678	0.142791	0.104969	0.133575	0.618861	0.474438	0.395228	0.236287	0.108598	0.097871	0.324234	0.155574	0.541709	0.367264	0.121428	0.075023	0.158249	0.197245	0.357867	0.118690	0.535807	0.549173	0.105883	0.210945	0.109816	0.136444
88	0.154127	0.258836	0.577785	0.851811	0.268498	0.333951	0.140459	0.132046	0.794406	0.304405	0.468603	0.787815	0.145485	0.181864	0.241480	0.150329	0.536014	0.320546	0.723184	0.616154	0.495861	0.719913	0.295394	0.196299	0.245118	0.135114	0.388428	0.467679	0.451981	0.508767	0.281286	0.371700	0.454499	0.243970	0.583540	0.838309	0.291459	0.339408	0.111430	0.150563	0.095507	0.135399	0.632161	0.457609	0.385750	0.254208	0.105845	0.097404	0.357832	0.143028	0.547053	0.275727	0.121413	0.084935	0.172195	0.230904	0.344017	0.119977	0.535939	0.555829	0.114876	0.214430	0.096824	0.133220
89	0.133874	0.224044	0.578753	0.845995	0.266144	0.334827	0.188622	0.132372	0.783136	0.291005	0.470735	0.821244	0.098763	0.165891	0.228200	0.152051	0.557950	0.324585	0.722150	0.529441	0.495397	0.692791	0.290069	0.196624	0.247565	0.106451	0.391123	0.471795	0.418418	0.515068	0.281238	0.362501	0.460584	0.214980	0.584900	0.838361	0.295290	0.335649	0.113710	0.150796	0.093910	0.134318	0.641649	0.413610	0.375127	0.270397	0.104532	0.168112	0.356972	0.116984	0.541605	0.264009	0.116771	0.088074	0.209232	0.249890	0.191599	0.082675	0.534164	0.536271	0.131917	0.197935	0.094854	0.140523
90	0.128831	0.214292	0.590431	0.822532	0.265481	0.288337	0.198439	0.130252	0.721348	0.289999	0.464375	0.836701	0.085224	0.121971	0.195168	0.164297	0.556938	0.325376	0.718870	0.508620	0.494568	0.690715	0.284774	0.189189	0.192087	0.080359	0.382459	0.474432	0.404286	0.514080	0.279510	0.362163	0.460186	0.200727	0.559596	0.839242	0.278949	0.311238	0.113507	0.149458	0.089272	0.125272	0.598106	0.382424	0.393080	0.293792	0.106201	0.185918	0.364902	0.112354	0.557054	0.263972	0.112593	0.086510	0.228545	0.253804	0.151503	0.068005	0.481053	0.520365	0.170818	0.190128	0.093623	0.143301
91	0.134221	0.197693	0.584487	0.838286	0.251870	0.235373	0.231824	0.127256	0.623878	0.228146	0.431613	0.833048	0.077128	0.104727	0.195158	0.177586	0.553618	0.323990	0.727431	0.509208	0.474073	0.693657	0.235690	0.159009	0.139879	0.074971	0.366903	0.472203	0.403990	0.509288	0.294020	0.384633	0.455538	0.198789	0.547910	0.824061	0.259665	0.319388	0.116287	0.151238	0.102190	0.103709	0.587434	0.371164	0.385674	0.300570	0.101257	0.190882	0.378738	0.116155	0.544687	0.298563	0.063972	0.087556	0.231502	0.276514	0.135690	0.071721	0.419096	0.523030	0.179231	0.183875	0.096766	0.140770
92	0.143982	0.201533	0.556484	0.873849	0.144511	0.188097	0.252565	0.128660	0.621789	0.220036	0.396134	0.791958	0.073948	0.093051	0.192037	0.178988	0.468391	0.306086	0.748196	0.530043	0.458840	0.690851	0.179838	0.150647	0.136024	0.060398	0.361698	0.471979	0.357235	0.465587	0.297387	0.405179	0.413104	0.197562	0.495626	0.764311	0.248591	0.334631	0.125389	0.145837	0.119029	0.097568	0.533953	0.361698	0.368330	0.300598	0.087759	0.216088	0.381584	0.116625	0.491857	0.374495	0.058319	0.088690	0.235490	0.283418	0.132960	0.073485	0.418393	0.522619	0.179224	0.179048	0.111261	0.132119
93	0.138608	0.177985	0.457824	1.000308	0.106820	0.178987	0.254306	0.140781	0.569530	0.200750	0.391248	0.708043	0.074173	0.089240	0.167281	0.185376	0.453949	0.301445	0.757446	0.530233	0.449935	0.632438	0.157165	0.151221	0.127090	0.054463	0.353142	0.470700	0.231607	0.390514	0.237373	0.392583	0.358611	0.194238	0.486313	0.737442	0.243309	0.344241	0.131689	0.142992	0.121322	0.089768	0.543412	0.372981	0.363096	0.306169	0.087278	0.232107	0.410802	0.139235	0.478132	0.399835	0.053116	0.090679	0.253258	0.281281	0.218289	0.114474	0.400026	0.526475	0.177067	0.177175	0.122637	0.110469
94	0.128413	0.158932	0.470787	0.988325	0.095054	0.179504	0.254854	0.146210	0.386096	0.157865	0.389955	0.613838	0.073771	0.089577	0.141554	0.182203	0.446443	0.299454	0.767908	0.588968	0.448055	0.571482	0.156616	0.144507	0.141083	0.061055	0.383068	0.457716	0.170168	0.362847	0.210177	0.320493	0.332698	0.179191	0.465018	0.717187	0.210691	0.344470	0.136341	0.140282	0.122481	0.076567	0.549086	0.378427	0.361357	0.311133	0.085143	0.235406	0.416492	0.146030	0.455504	0.403693	0.053247	0.097917	0.272134	0.251504	0.339866	0.145428	0.400898	0.539637	0.173177	0.160781	0.131656	0.090033
95	0.120459	0.153809	0.507965	0.970057	0.092203	0.179581	0.261077	0.147035	0.201875	0.126841	0.414960	0.547603	0.076017	0.090455	0.144985	0.179536	0.452033	0.290322	0.716371	0.632162	0.448252	0.526321	0.165668	0.129984	0.213733	0.080807	0.422101	0.412749	0.138951	0.356492	0.220124	0.293330	0.273888	0.132647	0.438654	0.706288	0.181930	0.343182	0.140773	0.138976	0.123446	0.078833	0.505159	0.370588	0.361710	0.314428	0.081056	0.235641	0.413900	0.142657	0.402965	0.408709	0.052365	0.099453	0.276491	0.233154	0.422028	0.164530	0.401056	0.532703	0.176105	0.179984	0.132269	0.080154
96	0.118121	0.144625	0.469110	1.107790	0.092891	0.180529	0.264486	0.143791	0.174331	0.122930	0.452547	0.604052	0.079012	0.098940	0.147152	0.160383	0.421042	0.277421	0.667832	0.607261	0.444708	0.432153	0.171103	0.122177	0.287605	0.092915	0.456705	0.376449	0.134396	0.352524	0.235151	0.296712	0.271293	0.121175	0.352659	0.628469	0.159775	0.326650	0.146793	0.138229	0.161866	0.079353	0.366892	0.502633	0.364440	0.321157	0.081211	0.235307	0.420989	0.142196	0.468766	0.437628	0.053317	0.100494	0.273739	0.232629	0.494018	0.187471	0.399305	0.561665	0.182211	0.221531	0.131308	0.081409
97	0.114646	0.137395	0.557371	1.097533	0.093459	0.178457	0.255719	0.125659	0.173743	0.123125	0.462535	0.650666	0.079669	0.111972	0.144422	0.155783	0.438939	0.262855	0.661122	0.588149	0.420848	0.379139	0.160781	0.123105	0.308595	0.094805	0.466140	0.367850	0.133553	0.351735	0.249115	0.306480	0.240386	0.104986	0.332485	0.469621	0.154670	0.267280	0.145495	0.137986	0.177443	0.075384	0.352219	0.511575	0.362691	0.317994	0.066167	0.235334	0.434115	0.158671	0.515716	0.557758	0.058130	0.101428	0.272538	0.232755	0.616422	0.201765	0.391387	0.579165	0.184981	0.221113	0.130112	0.082263
98	0.115266	0.115888	0.662349	1.024069	0.096154	0.179681	0.257520	0.114752	0.178938	0.129937	0.448449	0.703195	0.075385	0.114765	0.159191	0.154870	0.536868	0.280422	0.615045	0.571193	0.320657	0.356417	0.147785	0.140753	0.321412	0.098881	0.477987	0.367231	0.129650	0.346556	0.236097	0.310260	0.224449	0.098922	0.388422	0.418313	0.159910	0.264236	0.129311	0.137925	0.179945	0.065243	0.345723	0.486136	0.357913	0.305809	0.054840	0.238405	0.476835	0.198412	0.518120	0.581971	0.059796	0.100760	0.267447	0.233038	0.684490	0.220935	0.386617	0.579186	0.188214	0.201718	0.128443	0.082482
99	0.117196	0.113948	0.657694	1.055123	0.082896	0.189732	0.262585	0.113356	0.178158	0.131177	0.470264	0.779913	0.073588	0.117814	0.150408	0.147497	0.596552	0.306708	0.533764	0.518951	0.290203	0.362902	0.138586	0.142391	0.321471	0.098731	0.525970	0.393077	0.123804	0.314431	0.233139	0.304706	0.203925	0.103027	0.425061	0.400531	0.156990	0.264798	0.123626	0.144845	0.183781	0.061086	0.318278	0.469783	0.326997	0.303757	0.052648	0.238489	0.450585	0.209520	0.517644	0.578173	0.057728	0.101566	0.246509	0.230374	0.911141	0.282251	0.358797	0.541158	0.189944	0.214279	0.128597	0.082735
100	0.121151	0.113191	0.678688	1.106116	0.072389	0.168435	0.262976	0.105366	0.234006	0.132180	0.473012	0.781084	0.070730	0.124485	0.150584	0.154389	0.615850	0.300906	0.465728	0.524162	0.298077	0.346499	0.139787	0.136036	0.343380	0.099205	0.570566	0.379817	0.111342	0.242903	0.235573	0.293177	0.203068	0.105783	0.364850	0.396319	0.154749	0.262641	0.123038	0.147073	0.184473	0.057884	0.319811	0.466544	0.268947	0.286061	0.049926	0.240028	0.426615	0.211914	0.539465	0.583070	0.057246	0.109929	0.239293	0.228700	0.940071	0.288739	0.348790	0.531456	0.188459	0.220124	0.128657	0.083247
101	0.110735	0.108833	0.767007	1.098834	0.088919	0.162391	0.264740	0.102407	0.270694	0.133982	0.476735	0.756326	0.068457	0.124855	0.146270	0.157261	0.607385	0.254914	0.487111	0.571479	0.297564	0.320647	0.143709	0.133819	0.390129	0.105164	0.564558	0.365829	0.108640	0.191487	0.233113	0.281706	0.219027	0.110591	0.361023	0.405338	0.154785	0.243976	0.119238	0.142904	0.180305	0.052749	0.347902	0.466571	0.251056	0.256487	0.047511	0.245125	0.433612	0.212316	0.543485	0.587843	0.061376	0.131538	0.242149	0.232396	0.944466	0.290192	0.356922	0.488725	0.207348	0.223423	0.128384	0.083281
