	140_P_T1_sh_R_D_A_01.c3d	140_P_T1_sh_R_D_A_01.c3d	140_P_T1_sh_R_D_A_01.c3d	140_P_T1_sh_R_D_A_01.c3d	140_P_T1_sh_R_D_A_01.c3d	140_P_T1_sh_R_D_A_01.c3d	140_P_T1_sh_R_D_A_01.c3d	140_P_T1_sh_R_D_A_01.c3d	140_P_T1_sh_R_D_A_03.c3d	140_P_T1_sh_R_D_A_03.c3d	140_P_T1_sh_R_D_A_03.c3d	140_P_T1_sh_R_D_A_03.c3d	140_P_T1_sh_R_D_A_03.c3d	140_P_T1_sh_R_D_A_03.c3d	140_P_T1_sh_R_D_A_03.c3d	140_P_T1_sh_R_D_A_03.c3d	140_P_T1_sh_R_D_A_04.c3d	140_P_T1_sh_R_D_A_04.c3d	140_P_T1_sh_R_D_A_04.c3d	140_P_T1_sh_R_D_A_04.c3d	140_P_T1_sh_R_D_A_04.c3d	140_P_T1_sh_R_D_A_04.c3d	140_P_T1_sh_R_D_A_04.c3d	140_P_T1_sh_R_D_A_04.c3d	140_P_T1_sh_R_D_A_06.c3d	140_P_T1_sh_R_D_A_06.c3d	140_P_T1_sh_R_D_A_06.c3d	140_P_T1_sh_R_D_A_06.c3d	140_P_T1_sh_R_D_A_06.c3d	140_P_T1_sh_R_D_A_06.c3d	140_P_T1_sh_R_D_A_06.c3d	140_P_T1_sh_R_D_A_06.c3d	140_P_T1_sh_R_D_A_07.c3d	140_P_T1_sh_R_D_A_07.c3d	140_P_T1_sh_R_D_A_07.c3d	140_P_T1_sh_R_D_A_07.c3d	140_P_T1_sh_R_D_A_07.c3d	140_P_T1_sh_R_D_A_07.c3d	140_P_T1_sh_R_D_A_07.c3d	140_P_T1_sh_R_D_A_07.c3d	140_P_T1_sh_R_D_A_08.c3d	140_P_T1_sh_R_D_A_08.c3d	140_P_T1_sh_R_D_A_08.c3d	140_P_T1_sh_R_D_A_08.c3d	140_P_T1_sh_R_D_A_08.c3d	140_P_T1_sh_R_D_A_08.c3d	140_P_T1_sh_R_D_A_08.c3d	140_P_T1_sh_R_D_A_08.c3d	140_P_T1_sh_R_D_A_09.c3d	140_P_T1_sh_R_D_A_09.c3d	140_P_T1_sh_R_D_A_09.c3d	140_P_T1_sh_R_D_A_09.c3d	140_P_T1_sh_R_D_A_09.c3d	140_P_T1_sh_R_D_A_09.c3d	140_P_T1_sh_R_D_A_09.c3d	140_P_T1_sh_R_D_A_09.c3d	140_P_T1_sh_R_D_A_10.c3d	140_P_T1_sh_R_D_A_10.c3d	140_P_T1_sh_R_D_A_10.c3d	140_P_T1_sh_R_D_A_10.c3d	140_P_T1_sh_R_D_A_10.c3d	140_P_T1_sh_R_D_A_10.c3d	140_P_T1_sh_R_D_A_10.c3d	140_P_T1_sh_R_D_A_10.c3d
	Biceps femoris_lat	Semitendinosus_lat	Vastus lateralis_lat	Vastus medialis_lat	Biceps femoris_med	Semitendinosus_med	Vastus lateralis_med	Vastus medialis_med	Biceps femoris_lat	Semitendinosus_lat	Vastus lateralis_lat	Vastus medialis_lat	Biceps femoris_med	Semitendinosus_med	Vastus lateralis_med	Vastus medialis_med	Biceps femoris_lat	Semitendinosus_lat	Vastus lateralis_lat	Vastus medialis_lat	Biceps femoris_med	Semitendinosus_med	Vastus lateralis_med	Vastus medialis_med	Biceps femoris_lat	Semitendinosus_lat	Vastus lateralis_lat	Vastus medialis_lat	Biceps femoris_med	Semitendinosus_med	Vastus lateralis_med	Vastus medialis_med	Biceps femoris_lat	Semitendinosus_lat	Vastus lateralis_lat	Vastus medialis_lat	Biceps femoris_med	Semitendinosus_med	Vastus lateralis_med	Vastus medialis_med	Biceps femoris_lat	Semitendinosus_lat	Vastus lateralis_lat	Vastus medialis_lat	Biceps femoris_med	Semitendinosus_med	Vastus lateralis_med	Vastus medialis_med	Biceps femoris_lat	Semitendinosus_lat	Vastus lateralis_lat	Vastus medialis_lat	Biceps femoris_med	Semitendinosus_med	Vastus lateralis_med	Vastus medialis_med	Biceps femoris_lat	Semitendinosus_lat	Vastus lateralis_lat	Vastus medialis_lat	Biceps femoris_med	Semitendinosus_med	Vastus lateralis_med	Vastus medialis_med
	P2D	P2D	P2D	P2D	P2D	P2D	P2D	P2D	P2D	P2D	P2D	P2D	P2D	P2D	P2D	P2D	P2D	P2D	P2D	P2D	P2D	P2D	P2D	P2D	P2D	P2D	P2D	P2D	P2D	P2D	P2D	P2D	P2D	P2D	P2D	P2D	P2D	P2D	P2D	P2D	P2D	P2D	P2D	P2D	P2D	P2D	P2D	P2D	P2D	P2D	P2D	P2D	P2D	P2D	P2D	P2D	P2D	P2D	P2D	P2D	P2D	P2D	P2D	P2D
	EMG_lat	EMG_lat	EMG_lat	EMG_lat	EMG_med	EMG_med	EMG_med	EMG_med	EMG_lat	EMG_lat	EMG_lat	EMG_lat	EMG_med	EMG_med	EMG_med	EMG_med	EMG_lat	EMG_lat	EMG_lat	EMG_lat	EMG_med	EMG_med	EMG_med	EMG_med	EMG_lat	EMG_lat	EMG_lat	EMG_lat	EMG_med	EMG_med	EMG_med	EMG_med	EMG_lat	EMG_lat	EMG_lat	EMG_lat	EMG_med	EMG_med	EMG_med	EMG_med	EMG_lat	EMG_lat	EMG_lat	EMG_lat	EMG_med	EMG_med	EMG_med	EMG_med	EMG_lat	EMG_lat	EMG_lat	EMG_lat	EMG_med	EMG_med	EMG_med	EMG_med	EMG_lat	EMG_lat	EMG_lat	EMG_lat	EMG_med	EMG_med	EMG_med	EMG_med
ITEM	Y	Y	Y	Y	Y	Y	Y	Y	Y	Y	Y	Y	Y	Y	Y	Y	Y	Y	Y	Y	Y	Y	Y	Y	Y	Y	Y	Y	Y	Y	Y	Y	Y	Y	Y	Y	Y	Y	Y	Y	Y	Y	Y	Y	Y	Y	Y	Y	Y	Y	Y	Y	Y	Y	Y	Y	Y	Y	Y	Y	Y	Y	Y	Y
1	0.652432	0.060114	0.196510	0.237111	0.197981	0.058753	0.343830	0.160733	0.157959	0.089246	0.406578	0.335500	0.528088	0.260483	0.217843	0.082901	0.188343	0.022224	0.228012	0.196298	0.142424	0.085429	0.414067	0.138059	0.361690	0.190625	0.150064	0.130649	0.162070	0.293740	0.236040	0.250186	0.188090	0.140180	0.219114	0.257181	0.088959	0.110429	0.316060	0.180224	0.562041	0.067597	0.088156	0.115424	0.298403	0.047601	0.207392	0.230430	0.245065	0.047617	0.252942	0.112093	0.211155	0.230482	0.214091	0.176295	0.154893	0.046226	0.220387	0.195297	0.109134	0.370821	0.741263	0.156183
2	0.653654	0.060065	0.198075	0.276706	0.193705	0.060558	0.402217	0.158650	0.138898	0.099566	0.423715	0.347436	0.602423	0.239355	0.212755	0.083442	0.169306	0.029078	0.248246	0.204511	0.136132	0.089946	0.419157	0.134483	0.372705	0.094140	0.144963	0.107975	0.152555	0.278842	0.329393	0.253559	0.188163	0.137866	0.309605	0.260891	0.075594	0.119545	0.307807	0.235807	0.535488	0.065584	0.086773	0.163253	0.268004	0.047157	0.210821	0.200183	0.247132	0.046727	0.265582	0.115017	0.199446	0.231765	0.194037	0.188498	0.227250	0.042302	0.222410	0.194682	0.110259	0.375143	0.753964	0.166537
3	0.640992	0.064846	0.213162	0.280959	0.189887	0.060823	0.418735	0.164401	0.080220	0.183142	0.451549	0.436140	0.644034	0.185591	0.196463	0.080387	0.278992	0.043032	0.265074	0.203487	0.098212	0.183148	0.411981	0.138648	0.375731	0.063940	0.197453	0.112256	0.144031	0.275041	0.342328	0.250653	0.176720	0.124329	0.319047	0.265213	0.118294	0.168982	0.305870	0.240411	0.241551	0.029828	0.081306	0.163704	0.267225	0.045871	0.219176	0.169898	0.240462	0.041115	0.269551	0.113073	0.187374	0.230208	0.245674	0.185526	0.237330	0.042278	0.164967	0.167291	0.114347	0.367499	0.759842	0.166052
4	0.641585	0.067767	0.215364	0.280141	0.125406	0.061403	0.422155	0.186506	0.085828	0.190444	0.491961	0.487635	0.656841	0.168759	0.196785	0.078785	0.295880	0.048896	0.237276	0.196359	0.069234	0.204118	0.414793	0.139714	0.366009	0.031281	0.215343	0.113617	0.150169	0.123676	0.336065	0.247999	0.159490	0.115784	0.324352	0.215650	0.124787	0.299415	0.275389	0.244014	0.170381	0.017821	0.083050	0.183428	0.256504	0.041192	0.223455	0.163686	0.219845	0.037286	0.273691	0.092380	0.169328	0.214409	0.277819	0.188331	0.240151	0.042246	0.142648	0.174397	0.113775	0.369744	0.748663	0.166809
5	0.620519	0.065377	0.210511	0.286591	0.077514	0.062637	0.421306	0.203663	0.099189	0.201981	0.461602	0.499166	0.844269	0.161607	0.199720	0.073716	0.296249	0.051548	0.261488	0.186484	0.050557	0.284951	0.422444	0.134678	0.337544	0.019316	0.218735	0.118769	0.154993	0.046903	0.333288	0.245540	0.139153	0.104030	0.325220	0.211812	0.127183	0.309180	0.278868	0.246938	0.173335	0.020008	0.085845	0.201561	0.244997	0.039037	0.206815	0.163051	0.224986	0.038133	0.275934	0.113833	0.133391	0.212985	0.279127	0.190526	0.259989	0.041652	0.145639	0.156141	0.117248	0.283374	0.737361	0.166345
6	0.551240	0.064742	0.204774	0.301098	0.074007	0.059006	0.400466	0.209923	0.096538	0.258875	0.435810	0.554592	0.982706	0.159121	0.215111	0.076925	0.295353	0.051768	0.283100	0.184932	0.058511	0.307657	0.434520	0.122474	0.298767	0.018892	0.195971	0.109636	0.241423	0.043404	0.324260	0.235456	0.139439	0.081778	0.319672	0.256466	0.129516	0.393703	0.307039	0.250223	0.141929	0.021557	0.091755	0.200757	0.139758	0.041345	0.201789	0.156752	0.215860	0.037118	0.247308	0.129655	0.081884	0.202861	0.284971	0.177353	0.258754	0.042620	0.165732	0.142035	0.118420	0.228088	0.748759	0.155250
7	0.491317	0.064377	0.280220	0.302396	0.072410	0.054037	0.390527	0.215687	0.092638	0.294470	0.367934	0.480487	1.010402	0.154366	0.213330	0.077164	0.294956	0.052428	0.287159	0.185178	0.076902	0.405276	0.435200	0.124912	0.229176	0.018572	0.220967	0.117049	0.263856	0.042478	0.334771	0.224005	0.140405	0.079678	0.291427	0.259001	0.151412	0.404235	0.322498	0.267362	0.109494	0.023969	0.087141	0.195955	0.086872	0.041857	0.200461	0.136397	0.190423	0.035724	0.179998	0.137529	0.056312	0.152901	0.283883	0.157908	0.255330	0.044747	0.156727	0.165379	0.093821	0.220916	0.734017	0.157943
8	0.429122	0.053904	0.374710	0.287020	0.075803	0.052126	0.410940	0.217716	0.094478	0.296540	0.317597	0.453777	1.016218	0.113776	0.189764	0.090223	0.311631	0.098225	0.285782	0.155874	0.078234	0.453069	0.456744	0.114622	0.145017	0.017586	0.230764	0.113531	0.290665	0.046603	0.341004	0.167705	0.141283	0.057109	0.282139	0.262279	0.155069	0.403200	0.306433	0.275977	0.112629	0.037053	0.070894	0.151615	0.092913	0.046693	0.241905	0.126422	0.129416	0.028950	0.184155	0.138797	0.052231	0.150671	0.300951	0.155297	0.241695	0.035785	0.158464	0.171284	0.075062	0.185023	0.663626	0.142380
9	0.313814	0.045764	0.370950	0.249893	0.081401	0.051066	0.461978	0.211889	0.096612	0.260519	0.309326	0.425748	1.012868	0.059713	0.184948	0.120468	0.284803	0.155433	0.280087	0.389400	0.086649	0.603544	0.384457	0.213665	0.132894	0.018158	0.214521	0.100315	0.282257	0.041503	0.336482	0.126248	0.137895	0.042032	0.282773	0.266270	0.160509	0.399730	0.306396	0.270612	0.094679	0.036937	0.095658	0.154177	0.098442	0.049801	0.249224	0.126286	0.121415	0.030866	0.181511	0.143045	0.036803	0.142994	0.317265	0.149816	0.234223	0.030282	0.169425	0.178833	0.077203	0.182888	0.545168	0.175496
10	0.277377	0.043955	0.366481	0.234185	0.090805	0.051461	0.509239	0.210689	0.092384	0.265968	0.206754	0.347872	1.013175	0.055459	0.189704	0.144976	0.280051	0.188617	0.264910	0.464897	0.091486	0.680041	0.392846	0.234066	0.112217	0.020706	0.225399	0.098889	0.359709	0.039342	0.331400	0.157139	0.086114	0.036477	0.287427	0.273304	0.165044	0.404061	0.339517	0.216570	0.086318	0.036976	0.118406	0.181619	0.098943	0.049563	0.248971	0.122409	0.114701	0.033571	0.167497	0.138233	0.034811	0.146770	0.321990	0.145679	0.190545	0.030705	0.179365	0.174283	0.089300	0.178069	0.526126	0.228236
11	0.270223	0.042625	0.367812	0.225925	0.097930	0.052375	0.509718	0.210667	0.075892	0.277847	0.203033	0.313312	1.003353	0.048020	0.205749	0.155640	0.217586	0.253000	0.262984	0.512880	0.089084	0.671597	0.395669	0.341662	0.120932	0.021029	0.212091	0.110834	0.368606	0.040294	0.312303	0.186328	0.076309	0.036980	0.203089	0.305261	0.129727	0.385375	0.411124	0.236857	0.086054	0.037328	0.141703	0.170589	0.100086	0.047942	0.279373	0.131816	0.096837	0.036951	0.191975	0.145994	0.044022	0.144123	0.309436	0.154014	0.148866	0.031132	0.171310	0.177496	0.086927	0.181311	0.522711	0.244098
12	0.257167	0.042754	0.382375	0.167949	0.112574	0.050407	0.507794	0.203227	0.072944	0.276092	0.177634	0.247631	0.956241	0.051578	0.202321	0.174386	0.216148	0.257417	0.391712	0.559291	0.092033	0.658880	0.408756	0.412702	0.147901	0.023655	0.211226	0.168553	0.364298	0.038247	0.311343	0.226676	0.078354	0.036531	0.187319	0.355312	0.122028	0.299632	0.450265	0.213541	0.072994	0.039573	0.194430	0.201069	0.101054	0.044820	0.303442	0.145055	0.082149	0.037819	0.211025	0.164065	0.048042	0.136822	0.311234	0.144743	0.151468	0.031170	0.171181	0.166949	0.088360	0.156611	0.496052	0.243658
13	0.246948	0.040990	0.402223	0.163218	0.131916	0.051772	0.454434	0.192353	0.064074	0.208260	0.181640	0.177025	0.903560	0.053220	0.180998	0.176034	0.218444	0.258473	0.402629	0.564787	0.099897	0.664953	0.406606	0.413576	0.133284	0.026462	0.253854	0.163637	0.365545	0.037878	0.320306	0.314468	0.078814	0.034141	0.228968	0.381328	0.126612	0.317553	0.451571	0.211696	0.081694	0.045821	0.269738	0.242665	0.097418	0.043344	0.311459	0.239727	0.066170	0.037037	0.235388	0.159245	0.047634	0.163550	0.293831	0.134214	0.108051	0.027409	0.160647	0.159500	0.084338	0.161243	0.335663	0.248296
14	0.215888	0.032757	0.409875	0.179805	0.143000	0.064715	0.428430	0.228560	0.065212	0.219518	0.144010	0.171360	0.852012	0.054184	0.176532	0.176804	0.231333	0.261702	0.431214	0.575767	0.096835	0.636289	0.387281	0.417022	0.132977	0.028088	0.247859	0.167449	0.336180	0.037045	0.361584	0.336383	0.085278	0.034043	0.246827	0.380350	0.123874	0.244380	0.443206	0.199044	0.074820	0.036023	0.274963	0.352434	0.091692	0.043052	0.328511	0.297122	0.054536	0.037223	0.242173	0.152404	0.050015	0.202570	0.249674	0.133465	0.100138	0.026003	0.110925	0.155788	0.073716	0.186190	0.176742	0.255862
15	0.201337	0.029358	0.429282	0.177658	0.147987	0.071996	0.445504	0.304124	0.066289	0.219488	0.144179	0.232763	0.809546	0.053773	0.200873	0.176322	0.239115	0.299311	0.449529	0.578269	0.081611	0.606099	0.381734	0.421170	0.136161	0.031669	0.246354	0.167823	0.314379	0.069406	0.344287	0.336277	0.087233	0.034343	0.333159	0.339001	0.095203	0.244756	0.434253	0.171132	0.079184	0.035954	0.281593	0.390571	0.085257	0.043142	0.316655	0.301759	0.049252	0.037449	0.302189	0.149651	0.055734	0.235645	0.236825	0.135007	0.106537	0.028029	0.129586	0.415164	0.083356	0.194611	0.174430	0.263047
16	0.197893	0.026735	0.434015	0.155261	0.167929	0.073448	0.450652	0.322166	0.069324	0.225419	0.119928	0.244799	0.800356	0.055279	0.236619	0.176877	0.218360	0.303472	0.467196	0.555254	0.082688	0.562369	0.336939	0.432065	0.133071	0.033064	0.231480	0.166211	0.280494	0.093844	0.348893	0.339001	0.088969	0.037069	0.403531	0.321277	0.089979	0.261224	0.438743	0.156932	0.092407	0.039740	0.277973	0.376171	0.081639	0.042132	0.339488	0.316558	0.051064	0.081834	0.387720	0.269868	0.056723	0.242514	0.232787	0.131216	0.105876	0.028866	0.142630	0.484629	0.096798	0.195026	0.166907	0.268989
17	0.193008	0.026087	0.422818	0.142476	0.173417	0.071898	0.448532	0.312973	0.066827	0.207748	0.097384	0.264388	0.707737	0.060129	0.237674	0.177971	0.211357	0.302135	0.474160	0.371472	0.084453	0.583763	0.300850	0.488292	0.112610	0.032239	0.241502	0.224874	0.282345	0.100279	0.336228	0.345625	0.085907	0.037930	0.405218	0.481211	0.087693	0.277922	0.403560	0.147697	0.097149	0.043659	0.277201	0.361874	0.081502	0.040942	0.366430	0.332076	0.054901	0.087582	0.387239	0.395101	0.055927	0.241955	0.214842	0.127835	0.092716	0.054885	0.152115	0.548852	0.099543	0.196069	0.147222	0.272815
18	0.181568	0.025937	0.333618	0.158555	0.188477	0.072899	0.450919	0.323594	0.068347	0.206575	0.133044	0.279098	0.402992	0.062773	0.235201	0.179310	0.157082	0.258934	0.480353	0.343716	0.085292	0.380943	0.298440	0.468607	0.066137	0.085329	0.276278	0.510558	0.214249	0.103784	0.310942	0.344244	0.083727	0.038198	0.406043	0.597241	0.088446	0.349303	0.378627	0.155149	0.090756	0.042211	0.283775	0.359031	0.085100	0.045625	0.367572	0.346806	0.055441	0.125543	0.396539	0.415259	0.056251	0.244487	0.202742	0.139653	0.081356	0.061975	0.148703	0.636477	0.094904	0.214723	0.145580	0.214155
19	0.160645	0.024302	0.290885	0.165564	0.255534	0.102622	0.454016	0.328009	0.077385	0.183452	0.235333	0.299983	0.236370	0.068009	0.228344	0.183756	0.143152	0.236552	0.491952	0.238232	0.092848	0.379359	0.262089	0.469649	0.058900	0.247434	0.277906	0.549804	0.146111	0.168163	0.270727	0.317482	0.068769	0.041176	0.409265	0.612315	0.092679	0.367779	0.297896	0.142500	0.076970	0.037957	0.240058	0.323287	0.085658	0.047771	0.364232	0.375653	0.050779	0.181240	0.385071	0.499799	0.058641	0.251678	0.165125	0.160126	0.070504	0.067784	0.239202	0.643353	0.093599	0.276821	0.203731	0.185449
20	0.123886	0.018821	0.290970	0.214796	0.289034	0.143682	0.435117	0.320454	0.076727	0.240571	0.294040	0.320314	0.184785	0.069967	0.226147	0.181729	0.140831	0.279826	0.366598	0.219899	0.094520	0.442409	0.247150	0.386016	0.088304	0.318325	0.246732	0.607244	0.144410	0.196864	0.269772	0.310569	0.066899	0.041001	0.429596	0.607340	0.097047	0.470384	0.291812	0.158586	0.076351	0.044814	0.228567	0.264097	0.068279	0.043551	0.333579	0.386149	0.046801	0.181574	0.386556	0.515144	0.063232	0.252523	0.142177	0.162259	0.065548	0.069779	0.255873	0.644965	0.096593	0.332262	0.287872	0.193675
21	0.107981	0.018723	0.283009	0.219753	0.289321	0.158151	0.382883	0.312928	0.064137	0.235850	0.367993	0.321929	0.181739	0.071131	0.233399	0.168303	0.134195	0.392106	0.388487	0.221827	0.093154	0.429130	0.259388	0.365574	0.094105	0.414326	0.266316	0.608186	0.141368	0.234976	0.304710	0.242541	0.103576	0.042483	0.454729	0.591796	0.090245	0.505155	0.371310	0.174106	0.078668	0.062663	0.224055	0.113552	0.049860	0.041569	0.347156	0.443148	0.052948	0.183533	0.392440	0.511571	0.060037	0.252345	0.152393	0.180488	0.080127	0.077065	0.312574	0.669830	0.114307	0.447809	0.288690	0.188042
22	0.106000	0.022184	0.271402	0.240861	0.286473	0.160423	0.308303	0.310500	0.066809	0.230560	0.367296	0.261228	0.186410	0.071186	0.285644	0.211322	0.145609	0.443641	0.403191	0.260165	0.102947	0.469146	0.314710	0.371642	0.098703	0.416330	0.300805	0.634293	0.141095	0.252878	0.333848	0.219116	0.122141	0.043887	0.443874	0.613199	0.089657	0.493864	0.362036	0.221061	0.068108	0.104505	0.258974	0.125137	0.054057	0.047462	0.351670	0.446040	0.073585	0.186981	0.427226	0.522853	0.066366	0.254144	0.150091	0.199919	0.086298	0.111778	0.357035	0.674749	0.117673	0.467501	0.327264	0.229282
23	0.068563	0.020594	0.245285	0.241064	0.284366	0.165060	0.297606	0.312052	0.113867	0.217066	0.369696	0.258955	0.162099	0.071441	0.329561	0.317319	0.132530	0.515887	0.449244	0.306809	0.105818	0.560277	0.330249	0.373272	0.100341	0.416569	0.286965	0.658622	0.148532	0.340587	0.295636	0.467663	0.120559	0.041604	0.505540	0.611964	0.088203	0.483850	0.383215	0.299021	0.051837	0.124726	0.286333	0.157783	0.060121	0.051797	0.352177	0.442846	0.076490	0.256708	0.397109	0.532126	0.078493	0.251342	0.161376	0.208440	0.081085	0.143923	0.468334	0.610201	0.111298	0.469675	0.410047	0.229969
24	0.052081	0.019510	0.271960	0.328105	0.279493	0.171195	0.293471	0.313721	0.117499	0.197643	0.371030	0.229184	0.145367	0.070189	0.359959	0.337888	0.134455	0.603531	0.470552	0.319932	0.112042	0.581185	0.331424	0.371113	0.100340	0.416373	0.282334	0.516480	0.131776	0.443077	0.291569	0.498219	0.120483	0.041571	0.504638	0.612557	0.114403	0.483870	0.499018	0.333460	0.051987	0.157275	0.292668	0.162611	0.062432	0.051923	0.343497	0.448620	0.083163	0.342991	0.324946	0.495107	0.079816	0.225527	0.160946	0.205642	0.101016	0.151340	0.467087	0.494012	0.101870	0.469846	0.424960	0.324126
25	0.071540	0.019461	0.293147	0.358957	0.270030	0.272439	0.290384	0.314421	0.136799	0.203364	0.355807	0.227967	0.141694	0.067272	0.374432	0.341147	0.140550	0.608119	0.485151	0.334083	0.107639	0.537173	0.325125	0.279969	0.099879	0.358736	0.236880	0.419519	0.125718	0.456057	0.292724	0.552120	0.123284	0.050446	0.461199	0.615264	0.113418	0.472229	0.630929	0.334625	0.055372	0.182993	0.248441	0.152032	0.062306	0.053758	0.335260	0.429738	0.099031	0.363980	0.326490	0.423810	0.083740	0.191936	0.153496	0.200104	0.105418	0.166704	0.469169	0.470076	0.101113	0.466806	0.474813	0.371315
26	0.179055	0.019172	0.260427	0.392203	0.264556	0.301836	0.244289	0.291927	0.149261	0.154281	0.291657	0.171092	0.133396	0.067111	0.374720	0.377981	0.143930	0.606932	0.456593	0.443004	0.107461	0.488888	0.333671	0.242161	0.100458	0.331814	0.255592	0.293420	0.119984	0.458390	0.368745	0.581258	0.122218	0.077468	0.458715	0.585209	0.127946	0.419324	0.645259	0.331684	0.056792	0.231471	0.280628	0.144912	0.062160	0.075343	0.321688	0.397310	0.105751	0.469188	0.313416	0.467554	0.083207	0.152972	0.190795	0.200289	0.112943	0.227490	0.478522	0.369804	0.096537	0.458648	0.517450	0.372228
27	0.233450	0.018554	0.283135	0.462504	0.262222	0.310934	0.165124	0.209490	0.149184	0.164623	0.227390	0.172461	0.132225	0.066554	0.395019	0.387242	0.143148	0.595056	0.502243	0.442305	0.102727	0.487008	0.332328	0.193800	0.096953	0.100421	0.259999	0.282845	0.120874	0.450560	0.401871	0.598362	0.123374	0.079613	0.551736	0.423366	0.135343	0.414566	0.643392	0.322643	0.057347	0.327712	0.333578	0.325866	0.069342	0.109534	0.359674	0.400205	0.129496	0.454879	0.312117	0.411398	0.084291	0.143254	0.248154	0.224305	0.124864	0.251203	0.558713	0.338597	0.104722	0.425221	0.501582	0.372083
28	0.237433	0.020089	0.293260	0.508390	0.251859	0.317924	0.130617	0.147404	0.149531	0.165007	0.241569	0.187251	0.126556	0.066810	0.428922	0.388004	0.146835	0.579319	0.538380	0.444703	0.100127	0.463423	0.344876	0.171951	0.085681	0.050589	0.284474	0.256389	0.139657	0.431149	0.428704	0.610434	0.124122	0.095142	0.617957	0.355907	0.135719	0.321907	0.613563	0.311008	0.084493	0.435659	0.311848	0.478151	0.069815	0.161193	0.352994	0.413857	0.131494	0.469718	0.294333	0.390157	0.084420	0.147470	0.257412	0.248323	0.143150	0.251725	0.589276	0.346033	0.107515	0.389546	0.457144	0.369400
29	0.249326	0.023476	0.306727	0.524467	0.247042	0.396411	0.129366	0.142232	0.128633	0.171916	0.239361	0.150400	0.128537	0.061516	0.443388	0.388498	0.147353	0.507684	0.498322	0.411440	0.097760	0.415326	0.351722	0.179577	0.100246	0.051793	0.297948	0.260142	0.143097	0.420602	0.425912	0.609653	0.132771	0.101542	0.647452	0.354589	0.136159	0.251237	0.589361	0.297132	0.087844	0.530119	0.294387	0.488097	0.073666	0.169981	0.322047	0.408951	0.130786	0.475167	0.275676	0.400107	0.083044	0.138973	0.255484	0.236169	0.176627	0.253665	0.570468	0.305222	0.089065	0.236429	0.454959	0.372216
30	0.275018	0.026031	0.337805	0.518160	0.246639	0.412890	0.121305	0.106171	0.112772	0.198930	0.262892	0.166459	0.138585	0.053988	0.440058	0.389889	0.110564	0.579362	0.474863	0.400495	0.080674	0.415144	0.306115	0.184170	0.114307	0.071708	0.310941	0.251235	0.141347	0.413259	0.389524	0.598047	0.153852	0.101530	0.636495	0.404894	0.137160	0.237863	0.607526	0.263711	0.086362	0.536474	0.276816	0.558937	0.076272	0.169720	0.321177	0.396177	0.122810	0.489665	0.216855	0.384253	0.128137	0.125146	0.250953	0.237284	0.188873	0.250651	0.550174	0.284309	0.083606	0.109408	0.450778	0.346548
31	0.283644	0.025656	0.337684	0.507408	0.204418	0.412288	0.080337	0.071941	0.105123	0.293268	0.301960	0.208227	0.196500	0.050868	0.436599	0.395480	0.105393	0.450376	0.379580	0.373227	0.077950	0.337070	0.266814	0.157206	0.118266	0.089183	0.307480	0.250566	0.127363	0.402650	0.365615	0.507001	0.145786	0.100732	0.709354	0.345611	0.144759	0.248202	0.619900	0.171257	0.093678	0.524779	0.281284	0.612466	0.086621	0.169668	0.322490	0.361389	0.122522	0.459944	0.196711	0.370598	0.204271	0.122815	0.244222	0.237173	0.190801	0.292577	0.454736	0.271647	0.081810	0.058693	0.385877	0.336350
32	0.291395	0.023899	0.338759	0.502109	0.156759	0.404356	0.068892	0.070892	0.093404	0.343739	0.316190	0.226661	0.209659	0.046735	0.437603	0.398864	0.094230	0.492241	0.372814	0.362613	0.078260	0.235562	0.288136	0.151764	0.115819	0.084821	0.355816	0.238667	0.119102	0.267481	0.436428	0.393518	0.141696	0.104320	0.712867	0.304081	0.126728	0.261156	0.537750	0.276049	0.094183	0.520833	0.414136	0.618580	0.107568	0.171941	0.325604	0.356965	0.121890	0.440768	0.346030	0.350994	0.266889	0.115490	0.295437	0.217970	0.183093	0.431231	0.444612	0.268570	0.078933	0.055739	0.409712	0.259853
33	0.294503	0.022721	0.357026	0.494981	0.164930	0.416798	0.156614	0.069213	0.100856	0.355525	0.306238	0.221426	0.215071	0.045278	0.436138	0.398895	0.094076	0.489274	0.364491	0.315002	0.073206	0.277210	0.300975	0.154647	0.105564	0.083787	0.352095	0.249853	0.114405	0.183001	0.448629	0.358353	0.140428	0.105509	0.693654	0.330493	0.125981	0.278124	0.400395	0.372423	0.130010	0.453775	0.408633	0.598222	0.117402	0.181811	0.294859	0.282003	0.111612	0.488917	0.432855	0.375294	0.311186	0.107646	0.356491	0.246085	0.179806	0.484409	0.447745	0.248398	0.074308	0.052738	0.417533	0.123552
34	0.303980	0.023223	0.339950	0.470731	0.166889	0.424099	0.201670	0.081519	0.135364	0.430349	0.260381	0.200752	0.253318	0.054636	0.416119	0.389533	0.098910	0.489917	0.362402	0.215553	0.064429	0.283867	0.289237	0.153884	0.102164	0.096704	0.322450	0.321081	0.110250	0.211614	0.438811	0.275257	0.140306	0.122753	0.668548	0.341646	0.111846	0.314898	0.380583	0.381022	0.137569	0.428371	0.416173	0.421034	0.119025	0.181054	0.289371	0.275869	0.108034	0.408903	0.443327	0.311590	0.431719	0.101820	0.381424	0.288368	0.182727	0.465556	0.453129	0.162175	0.072832	0.049821	0.524519	0.127588
35	0.332242	0.023129	0.283263	0.408685	0.170476	0.431569	0.214891	0.082635	0.178591	0.434205	0.257209	0.186370	0.255224	0.077032	0.382682	0.310979	0.100272	0.498839	0.217029	0.213826	0.062032	0.282532	0.278629	0.151410	0.092644	0.096175	0.269697	0.289940	0.114441	0.212136	0.394200	0.234538	0.139237	0.111956	0.671025	0.385439	0.123687	0.387992	0.416682	0.391564	0.129808	0.186265	0.403713	0.415058	0.115673	0.180317	0.283780	0.277989	0.094431	0.410027	0.450861	0.381594	0.554174	0.082341	0.402334	0.294560	0.174197	0.502310	0.352437	0.160337	0.052510	0.201190	0.624997	0.395666
36	0.361655	0.023468	0.268259	0.414765	0.171898	0.437557	0.282153	0.076976	0.180577	0.450761	0.276773	0.184092	0.290694	0.100017	0.359805	0.243585	0.089441	0.497818	0.222656	0.244524	0.052594	0.275906	0.259406	0.119296	0.068354	0.082204	0.253339	0.302164	0.099275	0.259887	0.411372	0.197978	0.137897	0.102584	0.628635	0.381781	0.127907	0.362471	0.442546	0.407852	0.130432	0.124391	0.407468	0.343989	0.116293	0.182537	0.276248	0.266308	0.142713	0.393444	0.583716	0.441656	0.560636	0.079668	0.403569	0.294570	0.167107	0.534401	0.219803	0.156401	0.053153	0.292349	0.630628	0.577815
37	0.318490	0.028659	0.257585	0.393905	0.168418	0.389334	0.320431	0.092785	0.179803	0.410348	0.368589	0.134969	0.370550	0.116929	0.340869	0.238716	0.074711	0.436222	0.220096	0.249751	0.054138	0.274926	0.230260	0.150142	0.051728	0.121855	0.253236	0.301046	0.086420	0.279467	0.383121	0.197661	0.141675	0.140791	0.534290	0.378042	0.141880	0.348816	0.445151	0.435263	0.134714	0.119010	0.439041	0.294692	0.121469	0.187199	0.282290	0.232956	0.150171	0.386341	0.609175	0.457265	0.561635	0.083547	0.381033	0.292349	0.126252	0.552865	0.190367	0.166525	0.093755	0.329113	0.695882	0.588467
38	0.309066	0.032497	0.225609	0.329224	0.170691	0.361391	0.323184	0.095425	0.177485	0.353201	0.381722	0.191105	0.399158	0.120973	0.335597	0.194514	0.071697	0.337703	0.230997	0.243182	0.054840	0.270322	0.268536	0.255257	0.060725	0.172025	0.219263	0.304252	0.087156	0.274944	0.386076	0.218239	0.146693	0.176324	0.487611	0.376342	0.147976	0.350126	0.496826	0.440436	0.146823	0.114287	0.441683	0.298119	0.129197	0.182830	0.305808	0.218858	0.148305	0.366882	0.616083	0.466010	0.562379	0.069211	0.384269	0.262991	0.105851	0.607160	0.196683	0.210160	0.112227	0.409350	0.728979	0.680601
39	0.300508	0.032481	0.223638	0.284387	0.175549	0.351751	0.355929	0.123775	0.175667	0.322462	0.372978	0.326299	0.409166	0.123036	0.327367	0.140586	0.072227	0.268477	0.247259	0.249413	0.054426	0.210741	0.298597	0.264304	0.052245	0.228312	0.165312	0.296761	0.086412	0.254991	0.394933	0.222849	0.129373	0.212454	0.444631	0.322226	0.140359	0.345100	0.464318	0.440941	0.138692	0.100202	0.378734	0.358355	0.131528	0.167321	0.284732	0.207019	0.147861	0.367458	0.642151	0.483271	0.562560	0.067683	0.406904	0.260350	0.111792	0.593235	0.190581	0.248418	0.114523	0.414758	0.736586	0.727450
40	0.296820	0.037182	0.190724	0.290235	0.177762	0.347262	0.399268	0.171775	0.176105	0.226079	0.385086	0.351659	0.422758	0.128292	0.266990	0.140178	0.071100	0.181645	0.251546	0.256479	0.045088	0.234121	0.285989	0.308468	0.051332	0.241919	0.168456	0.234843	0.079357	0.237961	0.357061	0.222886	0.108640	0.243633	0.393650	0.290753	0.138764	0.344430	0.519194	0.359020	0.104042	0.062095	0.420413	0.489641	0.131687	0.119260	0.272960	0.147789	0.144368	0.328106	0.583910	0.481495	0.560496	0.066512	0.409044	0.273624	0.113066	0.517470	0.196703	0.390025	0.124504	0.421994	0.715445	0.730233
41	0.268224	0.042494	0.198179	0.292656	0.176762	0.259100	0.433163	0.194153	0.131709	0.180079	0.390810	0.445128	0.429616	0.132633	0.205357	0.151764	0.072128	0.180681	0.224930	0.248947	0.038837	0.238384	0.239784	0.361687	0.057510	0.239914	0.177634	0.220473	0.081058	0.234417	0.399865	0.200608	0.102562	0.320782	0.168421	0.294586	0.134711	0.351963	0.518224	0.324202	0.104987	0.029285	0.481861	0.667719	0.130363	0.100768	0.279301	0.114384	0.151609	0.232391	0.534059	0.443488	0.542578	0.065604	0.405560	0.264408	0.114856	0.440686	0.196343	0.419851	0.128064	0.435210	0.684657	0.730020
42	0.266434	0.044763	0.216987	0.294491	0.167992	0.223345	0.460935	0.196199	0.108836	0.139549	0.414720	0.470286	0.426646	0.133213	0.222557	0.178127	0.058500	0.194471	0.224094	0.231567	0.051422	0.209787	0.238798	0.364526	0.057344	0.266689	0.201771	0.174017	0.080705	0.207595	0.486980	0.192966	0.108018	0.324045	0.149139	0.268901	0.136188	0.346686	0.588382	0.343995	0.114630	0.022002	0.520984	0.717629	0.127012	0.099308	0.297023	0.113502	0.162567	0.178316	0.552067	0.433966	0.517304	0.065812	0.387332	0.267376	0.109293	0.433749	0.225900	0.418993	0.128473	0.451034	0.602219	0.733110
43	0.259799	0.059801	0.368612	0.327463	0.137889	0.218931	0.466148	0.203719	0.118096	0.098148	0.337470	0.520983	0.406033	0.137500	0.227394	0.171541	0.059880	0.199171	0.221575	0.204275	0.053249	0.224757	0.235877	0.384136	0.059105	0.261485	0.283034	0.165741	0.079006	0.193425	0.473772	0.196455	0.100697	0.333047	0.115685	0.261125	0.113418	0.262263	0.596277	0.339530	0.123594	0.025635	0.513381	0.730007	0.118621	0.098757	0.305735	0.110948	0.169713	0.178942	0.549270	0.334857	0.482636	0.078642	0.329805	0.247216	0.112251	0.391468	0.200245	0.411304	0.128771	0.416283	0.523409	0.660416
44	0.255297	0.072524	0.381960	0.566749	0.123032	0.221602	0.467734	0.205667	0.115483	0.093577	0.272433	0.524305	0.387522	0.208768	0.228620	0.152554	0.055564	0.202478	0.186699	0.165768	0.054192	0.337179	0.248302	0.418739	0.053745	0.222853	0.285192	0.170810	0.073746	0.147329	0.449519	0.177429	0.118274	0.343178	0.147552	0.195722	0.120535	0.261494	0.589445	0.378902	0.116252	0.026672	0.440541	0.725692	0.099563	0.096653	0.305522	0.095545	0.139693	0.181634	0.401822	0.249412	0.463230	0.133306	0.278751	0.185336	0.111598	0.349818	0.206154	0.401229	0.125242	0.351398	0.538028	0.508667
45	0.239352	0.080668	0.452586	0.644729	0.111718	0.195962	0.450703	0.206029	0.106813	0.096618	0.318715	0.454881	0.387049	0.251425	0.272111	0.151051	0.052125	0.217647	0.174987	0.155405	0.053475	0.390853	0.254287	0.429525	0.052528	0.205270	0.335366	0.236520	0.082689	0.107260	0.466507	0.160366	0.133904	0.344104	0.135745	0.137051	0.131384	0.260232	0.570021	0.373078	0.129895	0.031876	0.413417	0.699807	0.087019	0.075001	0.303450	0.091679	0.130831	0.182285	0.354958	0.201326	0.199181	0.165812	0.245502	0.151326	0.111164	0.360342	0.207307	0.396679	0.100955	0.334724	0.462850	0.528788
46	0.158483	0.090218	0.488103	0.672914	0.108320	0.181926	0.430928	0.201509	0.156898	0.168032	0.301750	0.485258	0.366196	0.261349	0.293187	0.161242	0.051723	0.251323	0.148734	0.146024	0.052091	0.391539	0.293092	0.374881	0.058945	0.165248	0.368382	0.252165	0.085171	0.197829	0.485427	0.149589	0.142991	0.354597	0.167018	0.160619	0.126547	0.258352	0.503171	0.371077	0.256777	0.042700	0.389877	0.685995	0.080556	0.072921	0.299213	0.079969	0.133921	0.182415	0.339877	0.177647	0.079993	0.172615	0.223459	0.152496	0.092719	0.243007	0.203616	0.377291	0.074329	0.218923	0.392850	0.445308
47	0.127307	0.098591	0.492691	0.675088	0.102620	0.167327	0.424008	0.197870	0.188657	0.205859	0.298143	0.460725	0.354440	0.264114	0.287139	0.180012	0.050379	0.282171	0.114066	0.136845	0.056293	0.393255	0.294599	0.364739	0.078133	0.235706	0.484319	0.351517	0.082482	0.230351	0.493984	0.113793	0.164301	0.374974	0.252710	0.259173	0.134235	0.255411	0.493565	0.383875	0.305513	0.044533	0.270884	0.431684	0.080125	0.071773	0.283471	0.074364	0.134287	0.172709	0.284686	0.125430	0.072170	0.209477	0.220707	0.146637	0.087268	0.310759	0.226026	0.385085	0.104842	0.234786	0.364400	0.359763
48	0.181840	0.106906	0.525960	0.721900	0.096697	0.154811	0.387461	0.197984	0.188519	0.202956	0.293710	0.422428	0.350299	0.257367	0.264665	0.187270	0.041034	0.279843	0.147453	0.106434	0.069130	0.385465	0.288911	0.384290	0.077660	0.277425	0.539613	0.481767	0.092311	0.339844	0.499044	0.105131	0.190280	0.496378	0.293328	0.269719	0.158817	0.226008	0.422188	0.387838	0.319232	0.044778	0.214669	0.378968	0.076040	0.066615	0.268336	0.079075	0.134751	0.145897	0.244296	0.123576	0.072852	0.251768	0.193092	0.146540	0.092561	0.323912	0.228994	0.260744	0.118747	0.330888	0.366445	0.360331
49	0.193941	0.108006	0.536361	0.782919	0.095359	0.154926	0.352619	0.200129	0.188819	0.217953	0.304916	0.354670	0.270536	0.248536	0.252977	0.186122	0.040776	0.277360	0.198081	0.191229	0.087920	0.376721	0.282504	0.343380	0.081257	0.275462	0.547458	0.609546	0.088046	0.360537	0.455470	0.103728	0.183390	0.496777	0.330595	0.272715	0.228048	0.187695	0.402177	0.334094	0.425710	0.047379	0.134784	0.252558	0.068015	0.049990	0.263808	0.085463	0.126975	0.124620	0.232307	0.122025	0.094295	0.252739	0.132057	0.145132	0.092058	0.351510	0.226469	0.173726	0.113326	0.451695	0.365492	0.374127
50	0.191345	0.107097	0.535691	0.818564	0.091322	0.162660	0.379507	0.210448	0.187872	0.227882	0.318101	0.333031	0.200189	0.250684	0.266481	0.186457	0.037582	0.270180	0.264815	0.299611	0.101600	0.410061	0.285949	0.330361	0.082031	0.299651	0.586247	0.687123	0.087568	0.360870	0.334415	0.103922	0.180847	0.452127	0.338057	0.284671	0.229011	0.160051	0.285571	0.302707	0.492264	0.047933	0.131736	0.242625	0.055618	0.039361	0.232222	0.077884	0.113161	0.141216	0.181736	0.093070	0.103498	0.252852	0.098908	0.114836	0.081192	0.436471	0.184777	0.184181	0.122120	0.436034	0.479825	0.405781
51	0.200052	0.109670	0.529587	0.846495	0.078547	0.167724	0.363104	0.199406	0.191254	0.290267	0.298239	0.315912	0.174869	0.270010	0.393452	0.211242	0.028605	0.267740	0.475632	0.342152	0.121929	0.408594	0.316183	0.326034	0.087332	0.304148	0.596049	0.670171	0.087352	0.363640	0.282419	0.090541	0.180528	0.446999	0.459110	0.440611	0.229121	0.188178	0.208602	0.288612	0.496432	0.050312	0.249021	0.203786	0.043523	0.033702	0.196379	0.101926	0.089963	0.207901	0.202604	0.095073	0.102162	0.254110	0.098625	0.103024	0.080704	0.435324	0.206432	0.182277	0.161567	0.441761	0.588103	0.443772
52	0.218545	0.121424	0.530347	0.850453	0.070972	0.171680	0.322002	0.165524	0.177801	0.295596	0.291502	0.281229	0.140432	0.312861	0.455853	0.233629	0.065313	0.266627	0.610247	0.360957	0.123062	0.370161	0.419734	0.269415	0.121693	0.298952	0.585407	0.659981	0.080515	0.369875	0.281494	0.065248	0.183511	0.448927	0.542946	0.493296	0.221246	0.199954	0.156114	0.228695	0.457993	0.046864	0.284289	0.196706	0.050959	0.033741	0.179824	0.128533	0.076188	0.246054	0.213354	0.092136	0.102752	0.254776	0.098031	0.096271	0.088917	0.420816	0.204487	0.192528	0.173171	0.469017	0.630963	0.446194
53	0.236735	0.129576	0.483150	0.851039	0.072820	0.170896	0.296077	0.145808	0.103052	0.321639	0.275398	0.161264	0.103290	0.339391	0.458408	0.275768	0.094609	0.260060	0.655827	0.370889	0.141291	0.289627	0.492194	0.250848	0.116937	0.258573	0.521065	0.656665	0.069968	0.382360	0.278090	0.061893	0.193662	0.438210	0.542527	0.512864	0.204904	0.210057	0.146921	0.256446	0.413268	0.050170	0.301519	0.157609	0.054313	0.031226	0.179828	0.135577	0.075145	0.250308	0.270072	0.093840	0.106244	0.256110	0.094770	0.095058	0.098354	0.394555	0.240287	0.216425	0.181527	0.607112	0.629835	0.468399
54	0.254304	0.133786	0.415987	0.770020	0.072792	0.169377	0.250280	0.143796	0.090993	0.336989	0.292483	0.197821	0.091239	0.343382	0.455185	0.276802	0.100085	0.192072	0.710908	0.476763	0.167447	0.363491	0.476086	0.248474	0.114046	0.199920	0.493682	0.506513	0.056185	0.355671	0.249058	0.138678	0.227126	0.439689	0.549142	0.580182	0.203435	0.214099	0.171622	0.261483	0.404295	0.056351	0.384855	0.187729	0.055967	0.026965	0.186357	0.135513	0.099034	0.409474	0.334292	0.106965	0.107812	0.247368	0.096734	0.086278	0.101465	0.391596	0.238683	0.381240	0.182757	0.618742	0.653346	0.471001
55	0.265755	0.135389	0.386111	0.671107	0.069881	0.167258	0.237158	0.136492	0.091104	0.337993	0.378763	0.203705	0.090545	0.361956	0.448779	0.297708	0.108216	0.180218	0.799497	0.509529	0.170119	0.429035	0.440955	0.241173	0.112015	0.140991	0.426086	0.444664	0.057767	0.327529	0.246204	0.206820	0.241474	0.437819	0.549001	0.603261	0.205387	0.223962	0.213942	0.239420	0.358701	0.065595	0.383746	0.172268	0.055850	0.022677	0.184380	0.137206	0.119244	0.666190	0.378964	0.112666	0.107943	0.232355	0.110861	0.082088	0.095646	0.388256	0.334979	0.464172	0.167306	0.614215	0.734766	0.480943
56	0.270364	0.132459	0.309006	0.609409	0.061853	0.156697	0.237298	0.133197	0.082731	0.334235	0.335745	0.197249	0.086594	0.448498	0.449434	0.354975	0.114307	0.174133	0.848306	0.530351	0.166875	0.430869	0.458831	0.194294	0.122667	0.106629	0.383866	0.148989	0.053065	0.386393	0.255020	0.210541	0.247964	0.424322	0.515708	0.570559	0.188137	0.225243	0.221679	0.227431	0.149068	0.075756	0.374630	0.174777	0.059702	0.020915	0.186776	0.139388	0.120271	0.754869	0.400892	0.115337	0.107940	0.251425	0.112918	0.100041	0.086831	0.413095	0.337628	0.530319	0.150410	0.570926	0.815929	0.565317
57	0.318958	0.128503	0.290921	0.600076	0.047616	0.155256	0.240249	0.133295	0.073792	0.323076	0.351294	0.220267	0.095175	0.500273	0.459000	0.372481	0.129296	0.169806	0.845753	0.574963	0.163194	0.432109	0.493842	0.127682	0.125750	0.043132	0.292286	0.111845	0.076928	0.472954	0.275438	0.237285	0.232645	0.248266	0.529355	0.565666	0.091922	0.235903	0.217594	0.226848	0.113785	0.074961	0.326362	0.171061	0.065832	0.021200	0.210373	0.140438	0.131954	1.000207	0.391658	0.113839	0.103056	0.270126	0.122196	0.118197	0.082958	0.433882	0.354526	0.542342	0.149400	0.463885	0.856522	0.594753
58	0.383175	0.122396	0.259334	0.546838	0.043669	0.152778	0.240699	0.134376	0.080923	0.309664	0.344664	0.219632	0.119214	0.530365	0.474298	0.377586	0.130904	0.147587	0.889202	0.615334	0.152468	0.391845	0.543760	0.104377	0.100363	0.036733	0.317169	0.240987	0.151129	0.527734	0.280383	0.258525	0.234057	0.179968	0.524535	0.566987	0.073104	0.208239	0.208906	0.229281	0.104956	0.071111	0.291273	0.159331	0.073935	0.022474	0.219786	0.141692	0.148595	1.037872	0.399145	0.118011	0.108313	0.237391	0.117165	0.120893	0.082675	0.340969	0.389582	0.620247	0.162476	0.460056	0.809214	0.576118
59	0.386656	0.117763	0.209917	0.445521	0.043210	0.144999	0.240991	0.134389	0.079091	0.297502	0.419090	0.214479	0.122271	0.535544	0.473277	0.381873	0.130188	0.135606	0.778894	0.646240	0.137809	0.376459	0.548978	0.098596	0.116865	0.034135	0.274611	0.254184	0.160418	0.588460	0.311960	0.268236	0.234301	0.171513	0.534859	0.565521	0.068863	0.158387	0.210452	0.243074	0.102189	0.067279	0.311987	0.160293	0.081603	0.024439	0.225155	0.139484	0.168115	1.025895	0.441738	0.114734	0.094856	0.254100	0.111244	0.141228	0.081923	0.335576	0.402121	0.722843	0.144048	0.470920	0.691173	0.545005
60	0.408360	0.118649	0.229522	0.349211	0.039651	0.132585	0.242492	0.133720	0.094457	0.217941	0.446548	0.172041	0.122940	0.651210	0.475680	0.376533	0.122116	0.126979	0.786370	0.692229	0.132625	0.373665	0.503404	0.100551	0.233439	0.045683	0.231928	0.280659	0.165675	0.612963	0.316147	0.271402	0.234830	0.152604	0.501456	0.511724	0.067219	0.140106	0.229561	0.222525	0.091323	0.060761	0.215550	0.125337	0.102587	0.027945	0.259735	0.132534	0.169210	1.022970	0.456048	0.103006	0.083307	0.269795	0.180286	0.179960	0.071445	0.336601	0.479489	0.736395	0.132843	0.457496	0.612111	0.520824
61	0.448742	0.118413	0.213294	0.237410	0.030968	0.122379	0.242059	0.119652	0.106465	0.220533	0.377059	0.142266	0.137382	0.693880	0.478164	0.382703	0.147932	0.082076	0.810176	0.681760	0.124606	0.360059	0.396526	0.092585	0.249011	0.053940	0.290028	0.281378	0.165015	0.605822	0.310495	0.276490	0.234188	0.121186	0.363038	0.442765	0.068614	0.123953	0.230802	0.135407	0.091706	0.055981	0.194789	0.083774	0.129283	0.029855	0.299594	0.127508	0.186127	1.026827	0.466968	0.233217	0.085827	0.298175	0.231862	0.196913	0.058553	0.335656	0.547606	0.746263	0.123465	0.267312	0.614288	0.461209
62	0.713020	0.130772	0.229486	0.165760	0.024455	0.103903	0.195487	0.095927	0.114043	0.219863	0.345961	0.142117	0.147585	0.696403	0.477693	0.388427	0.148303	0.072715	0.765920	0.608263	0.094146	0.342307	0.377535	0.054683	0.247999	0.053857	0.304759	0.286146	0.164693	0.610910	0.281204	0.291774	0.249683	0.106523	0.341266	0.506852	0.067101	0.114987	0.210912	0.112939	0.072102	0.030611	0.194326	0.088568	0.141250	0.029961	0.301801	0.131229	0.208688	1.002356	0.429388	0.303096	0.086116	0.313290	0.233097	0.251644	0.057437	0.335567	0.554993	0.705062	0.121846	0.263187	0.602263	0.424442
63	0.795436	0.124224	0.253980	0.163275	0.023982	0.095666	0.170341	0.092342	0.112364	0.179708	0.329099	0.112632	0.152658	0.691210	0.425711	0.385399	0.167323	0.090534	0.665625	0.602958	0.067917	0.201913	0.383353	0.041533	0.259330	0.056536	0.305456	0.298425	0.163682	0.618166	0.287855	0.240982	0.237969	0.100262	0.375711	0.487013	0.039874	0.094524	0.165509	0.113736	0.030866	0.018839	0.194942	0.088040	0.141780	0.030448	0.310486	0.115243	0.217225	0.861069	0.417457	0.312169	0.083355	0.312992	0.237727	0.259039	0.088320	0.312772	0.545289	0.658207	0.122190	0.263403	0.507528	0.407119
64	0.812321	0.113305	0.256862	0.157984	0.023893	0.087059	0.168321	0.088790	0.102885	0.157160	0.329799	0.069180	0.156086	0.677652	0.300914	0.363706	0.187009	0.094852	0.640162	0.569754	0.068395	0.171103	0.358616	0.040332	0.269453	0.059381	0.265887	0.250935	0.164335	0.584101	0.266848	0.232363	0.235866	0.079800	0.373194	0.426679	0.031867	0.088814	0.152264	0.121640	0.036428	0.019094	0.239139	0.112415	0.142219	0.031134	0.323949	0.106858	0.233125	0.785213	0.434721	0.390850	0.077862	0.314536	0.239133	0.279524	0.094466	0.202936	0.540499	0.627576	0.124633	0.302934	0.365120	0.272501
65	0.811306	0.102468	0.247023	0.163020	0.018378	0.086628	0.149947	0.088770	0.111281	0.151925	0.263588	0.060278	0.156254	0.657910	0.281053	0.350143	0.190137	0.095140	0.644758	0.539678	0.079073	0.193215	0.330432	0.041756	0.274959	0.074124	0.260407	0.232431	0.172687	0.494882	0.262918	0.233368	0.237739	0.078805	0.384484	0.428135	0.037890	0.058808	0.151937	0.130048	0.041081	0.022886	0.245747	0.289608	0.142782	0.032429	0.319948	0.131772	0.228261	0.434373	0.485157	0.461159	0.087662	0.352280	0.267729	0.296637	0.095265	0.150696	0.543400	0.621735	0.124037	0.312677	0.244002	0.195685
66	0.808823	0.096658	0.262069	0.232301	0.021482	0.087409	0.179493	0.106785	0.106538	0.144954	0.139421	0.048704	0.159056	0.653389	0.279808	0.314989	0.193891	0.095277	0.602678	0.625141	0.077509	0.179469	0.237799	0.045041	0.194536	0.151589	0.257411	0.205103	0.146113	0.405314	0.426087	0.237278	0.224788	0.074109	0.417461	0.442825	0.050423	0.077637	0.150941	0.127015	0.060159	0.022720	0.296623	0.390368	0.141704	0.034615	0.303665	0.134522	0.218747	0.410237	0.482040	0.486631	0.112687	0.351754	0.337362	0.438168	0.096295	0.101226	0.520464	0.557801	0.110465	0.319265	0.227174	0.177710
67	0.804177	0.093848	0.312118	0.275340	0.022732	0.084275	0.180983	0.108082	0.088277	0.147180	0.115191	0.021810	0.163662	0.652043	0.287482	0.306181	0.200482	0.097198	0.549042	0.551536	0.072833	0.176509	0.158425	0.056144	0.159674	0.197577	0.226813	0.179838	0.129026	0.275504	0.431954	0.226230	0.218037	0.063058	0.424133	0.500658	0.059258	0.113599	0.162547	0.100666	0.102179	0.041439	0.362210	0.545402	0.153807	0.042446	0.316413	0.150038	0.248253	0.423674	0.451723	0.497036	0.119305	0.348496	0.376472	0.534113	0.104193	0.079899	0.510043	0.417178	0.089860	0.298469	0.218361	0.182202
68	0.765767	0.091097	0.327800	0.280148	0.028576	0.082779	0.188683	0.107550	0.079683	0.159740	0.109856	0.022027	0.172264	0.608485	0.288883	0.238259	0.205670	0.098408	0.649265	0.591656	0.071391	0.171811	0.160092	0.059998	0.154465	0.262177	0.144719	0.183257	0.124310	0.191684	0.421032	0.236223	0.233397	0.076137	0.452592	0.504421	0.058966	0.115387	0.149921	0.093178	0.108622	0.045501	0.492415	0.627125	0.172282	0.043855	0.317623	0.158897	0.347843	0.419025	0.440186	0.506047	0.116199	0.332537	0.380310	0.541870	0.120615	0.067988	0.465786	0.392085	0.100072	0.283986	0.213245	0.204711
69	0.752570	0.094376	0.332703	0.299673	0.031447	0.050764	0.201495	0.107388	0.075841	0.167382	0.079002	0.021167	0.181913	0.527604	0.274880	0.177021	0.203497	0.099880	0.626341	0.705507	0.069275	0.171316	0.147876	0.059752	0.134966	0.300857	0.182725	0.156609	0.145196	0.164764	0.422484	0.236320	0.246248	0.081842	0.470996	0.519475	0.056460	0.132851	0.129345	0.095180	0.147608	0.060103	0.520563	0.630912	0.185938	0.042989	0.301790	0.158777	0.365367	0.431187	0.447532	0.496637	0.120090	0.315996	0.399960	0.603171	0.121251	0.063966	0.365152	0.428029	0.099641	0.350119	0.183624	0.218342
70	0.761377	0.100750	0.315539	0.322426	0.046002	0.030098	0.219077	0.106802	0.078093	0.148521	0.101997	0.043224	0.183309	0.476350	0.191413	0.169630	0.192272	0.084090	0.640150	0.722596	0.064018	0.166666	0.141288	0.068908	0.106885	0.321234	0.175009	0.153594	0.166907	0.140612	0.440417	0.216318	0.268698	0.084184	0.475028	0.517857	0.056798	0.151932	0.139263	0.095283	0.168604	0.074495	0.537091	0.631546	0.186370	0.042305	0.294859	0.162643	0.354098	0.363577	0.676917	0.771102	0.117873	0.312307	0.395496	0.638584	0.122166	0.062528	0.339002	0.423687	0.107984	0.500990	0.185042	0.222818
71	0.734843	0.100125	0.316611	0.325058	0.064617	0.030147	0.246316	0.112967	0.072166	0.143224	0.103146	0.056019	0.198784	0.459181	0.187951	0.154800	0.172477	0.071505	0.642557	0.726062	0.059290	0.139818	0.119164	0.067755	0.079175	0.322543	0.154111	0.135543	0.240539	0.077610	0.450764	0.197066	0.312180	0.084725	0.508718	0.588276	0.057153	0.156378	0.180942	0.099659	0.169328	0.076250	0.517391	0.606678	0.184994	0.040800	0.316273	0.163956	0.351005	0.415513	0.681158	0.827577	0.119202	0.317640	0.369589	0.635503	0.107855	0.055677	0.322248	0.379877	0.122802	0.506980	0.181670	0.225134
72	0.652147	0.082768	0.310024	0.324988	0.068986	0.030740	0.258888	0.121928	0.083841	0.143144	0.158537	0.068601	0.202219	0.361457	0.224852	0.181294	0.148377	0.070680	0.627411	0.709112	0.060379	0.128414	0.087912	0.067784	0.059886	0.328437	0.173218	0.292698	0.257350	0.139785	0.436250	0.202768	0.315292	0.085656	0.493002	0.527942	0.055229	0.158830	0.234609	0.106052	0.174193	0.076269	0.487645	0.519669	0.175950	0.038585	0.370187	0.163767	0.439699	0.428562	0.672873	0.882429	0.116038	0.278720	0.367002	0.620116	0.095241	0.051919	0.364215	0.329390	0.122257	0.535895	0.212212	0.244030
73	0.356706	0.066508	0.299013	0.325416	0.069040	0.030128	0.259947	0.127325	0.097564	0.123232	0.190759	0.084133	0.208986	0.136318	0.222569	0.183235	0.150146	0.069577	0.582905	0.631280	0.050907	0.135028	0.092160	0.100133	0.074874	0.316977	0.227393	0.305791	0.253304	0.189324	0.434222	0.188987	0.355885	0.086568	0.478910	0.551060	0.051524	0.156420	0.265328	0.142562	0.176766	0.074096	0.483713	0.464416	0.156903	0.040808	0.368244	0.163429	0.514510	0.429912	0.789374	0.941486	0.134848	0.290095	0.368470	0.608300	0.090190	0.049249	0.371481	0.322960	0.122352	0.579686	0.200246	0.223936
74	0.280609	0.068485	0.287124	0.325461	0.069144	0.030010	0.261859	0.128622	0.125587	0.098450	0.348011	0.435973	0.227793	0.064232	0.226974	0.169356	0.166040	0.066691	0.575461	0.558736	0.053928	0.115728	0.096331	0.101689	0.074599	0.305350	0.228492	0.339696	0.243931	0.190959	0.331577	0.160162	0.380661	0.083073	0.478410	0.565888	0.047380	0.143020	0.291911	0.147321	0.176512	0.070315	0.387879	0.270967	0.144802	0.045101	0.370260	0.159876	0.539012	0.358601	0.933186	0.947036	0.148361	0.292892	0.376534	0.608726	0.089211	0.039034	0.390959	0.308922	0.118802	0.629254	0.215040	0.218234
75	0.248978	0.075730	0.277667	0.322623	0.073421	0.029997	0.263311	0.127251	0.177650	0.067879	0.408507	0.575196	0.298402	0.063492	0.229595	0.161478	0.217751	0.058502	0.506584	0.561711	0.055152	0.167314	0.174856	0.101440	0.075024	0.267354	0.195262	0.350960	0.236456	0.197310	0.214299	0.120041	0.382645	0.082569	0.459091	0.565209	0.037860	0.117091	0.304831	0.191305	0.154910	0.063730	0.317824	0.239339	0.141978	0.046155	0.389759	0.160809	0.521886	0.339183	0.928515	0.954548	0.148359	0.274269	0.398085	0.595535	0.090459	0.032537	0.393408	0.354098	0.106731	0.637548	0.291975	0.213050
76	0.265482	0.082533	0.271232	0.282168	0.076644	0.030199	0.258220	0.124638	0.242544	0.039165	0.443649	0.690174	0.345785	0.058717	0.247508	0.162912	0.286130	0.058026	0.317787	0.454378	0.061410	0.167624	0.187554	0.097647	0.075960	0.265595	0.203629	0.365081	0.232035	0.278415	0.216858	0.122642	0.388999	0.078074	0.414913	0.526776	0.040823	0.115647	0.298870	0.206026	0.132815	0.050684	0.300286	0.232846	0.139560	0.045465	0.401958	0.154228	0.466361	0.329630	0.925287	0.953800	0.134361	0.236830	0.379630	0.569916	0.070385	0.033481	0.418414	0.360340	0.097440	0.640201	0.313866	0.219396
77	0.278954	0.086985	0.218895	0.210959	0.163843	0.038361	0.245417	0.110885	0.243427	0.043426	0.527399	0.748814	0.349328	0.061344	0.251542	0.169627	0.336102	0.066351	0.249207	0.318053	0.070832	0.167141	0.189536	0.108922	0.073163	0.263963	0.285569	0.371985	0.228317	0.300438	0.213382	0.124790	0.382019	0.062913	0.403276	0.532663	0.046789	0.108421	0.305741	0.224703	0.194151	0.043202	0.291815	0.229663	0.136527	0.043970	0.420414	0.128280	0.455986	0.300770	0.902664	0.934910	0.120381	0.212196	0.335532	0.421261	0.064654	0.033286	0.406002	0.266644	0.095870	0.634434	0.326496	0.208227
78	0.308605	0.088322	0.158486	0.188952	0.254298	0.083792	0.219143	0.092834	0.251216	0.060385	0.562553	0.753244	0.348768	0.063370	0.243556	0.178257	0.440195	0.064956	0.203308	0.311988	0.081019	0.167409	0.215161	0.104031	0.080930	0.260141	0.351529	0.292759	0.218494	0.367453	0.200123	0.122704	0.382411	0.052428	0.339342	0.529656	0.056087	0.216188	0.333865	0.235171	0.282684	0.044351	0.274402	0.232564	0.136337	0.042308	0.430517	0.123940	0.456279	0.295789	0.776898	0.696476	0.119452	0.209985	0.315530	0.383468	0.062018	0.036696	0.398491	0.264507	0.092413	0.484186	0.316984	0.206024
79	0.314306	0.086859	0.157898	0.187424	0.303650	0.121486	0.220343	0.084548	0.268995	0.071170	0.559866	0.764026	0.346843	0.059610	0.228062	0.177840	0.465862	0.066037	0.197923	0.287399	0.090197	0.167862	0.219813	0.104987	0.072103	0.221143	0.318741	0.260626	0.153347	0.375910	0.140856	0.120687	0.379851	0.053360	0.337521	0.579158	0.079484	0.273601	0.342403	0.237406	0.341052	0.040153	0.278188	0.142669	0.125227	0.034571	0.416991	0.104192	0.451586	0.186982	0.778305	0.637463	0.114227	0.203785	0.297649	0.332988	0.053867	0.042869	0.398113	0.285314	0.073917	0.476858	0.325468	0.201385
80	0.291738	0.083154	0.176986	0.138364	0.338510	0.145305	0.213435	0.082203	0.260842	0.069282	0.583432	0.758787	0.343925	0.062071	0.225749	0.181949	0.471030	0.072074	0.229780	0.250727	0.088711	0.168215	0.270527	0.115395	0.064324	0.198427	0.321368	0.223967	0.072452	0.367260	0.287993	0.113649	0.358975	0.057059	0.279184	0.524860	0.118486	0.297815	0.306378	0.231276	0.395238	0.055275	0.179429	0.137624	0.095735	0.031788	0.410040	0.084098	0.353724	0.142965	0.775003	0.526669	0.108243	0.181976	0.290310	0.177264	0.054110	0.043432	0.340290	0.286081	0.069118	0.431519	0.457556	0.380772
81	0.322537	0.085448	0.165808	0.113647	0.377444	0.155214	0.193035	0.084184	0.248240	0.068601	0.598113	0.540190	0.337983	0.060786	0.260290	0.192004	0.468158	0.089566	0.279509	0.266201	0.087875	0.159742	0.286191	0.102608	0.066694	0.166868	0.367856	0.186838	0.090145	0.425573	0.360167	0.358110	0.320941	0.056867	0.267592	0.514147	0.128329	0.466247	0.280340	0.212680	0.484725	0.064528	0.207158	0.174941	0.058312	0.031757	0.408728	0.082397	0.230524	0.113735	0.623645	0.364743	0.105856	0.152030	0.274217	0.109500	0.067754	0.047418	0.296758	0.282682	0.067846	0.347960	0.482739	0.575291
82	0.316879	0.086012	0.187840	0.113773	0.405568	0.198157	0.176824	0.090268	0.177910	0.070553	0.551470	0.479248	0.330044	0.059737	0.313584	0.212916	0.455916	0.123026	0.296476	0.261046	0.085887	0.148245	0.299074	0.186903	0.069385	0.119365	0.370885	0.291429	0.092288	0.462953	0.395679	0.437264	0.301157	0.052010	0.288637	0.631954	0.136039	0.468284	0.263005	0.231671	0.508131	0.064303	0.332897	0.218775	0.045806	0.031616	0.409119	0.072896	0.162207	0.095261	0.380808	0.689849	0.110108	0.147337	0.266905	0.133199	0.068860	0.045184	0.248720	0.278161	0.067728	0.243264	0.509723	0.591459
83	0.317540	0.083356	0.257911	0.196529	0.436467	0.221691	0.138630	0.084666	0.153321	0.078650	0.537643	0.260605	0.315749	0.058606	0.322281	0.217522	0.419779	0.124750	0.284328	0.262020	0.090334	0.128992	0.283956	0.320291	0.076724	0.072173	0.361089	0.306778	0.092611	0.471426	0.429095	0.461860	0.201888	0.054391	0.317309	0.627624	0.140386	0.468366	0.263581	0.196770	0.500939	0.061884	0.353007	0.222106	0.041655	0.032835	0.399361	0.065512	0.154606	0.095486	0.366164	0.784340	0.101961	0.125972	0.275951	0.138951	0.079692	0.104551	0.239803	0.268632	0.068459	0.195631	0.548865	0.686559
84	0.317988	0.076382	0.284222	0.348184	0.636016	0.224525	0.107692	0.089093	0.154173	0.076520	0.448461	0.233326	0.307917	0.059395	0.295328	0.191178	0.357368	0.236962	0.308541	0.314604	0.099190	0.169133	0.280723	0.332115	0.080042	0.074225	0.251215	0.340804	0.092228	0.463513	0.463527	0.492271	0.181866	0.061832	0.326229	0.697042	0.140496	0.468353	0.267326	0.181929	0.467824	0.062999	0.357823	0.253516	0.044277	0.033127	0.330596	0.067343	0.141995	0.088713	0.368815	0.845900	0.068211	0.125111	0.264687	0.128267	0.087333	0.160387	0.280007	0.204092	0.068324	0.190621	0.668103	0.733542
85	0.314752	0.069265	0.288178	0.369696	0.755459	0.266230	0.105065	0.089491	0.097734	0.055914	0.463317	0.185675	0.304763	0.061946	0.287725	0.179387	0.275589	0.486953	0.359679	0.329456	0.112662	0.266601	0.312330	0.358256	0.069138	0.064949	0.258909	0.337176	0.099516	0.415048	0.492867	0.486470	0.166061	0.063026	0.332209	0.764004	0.143084	0.467077	0.261804	0.161075	0.412600	0.065051	0.349698	0.268353	0.049635	0.028652	0.287630	0.068156	0.108845	0.071833	0.407196	0.998735	0.054910	0.100288	0.248502	0.127711	0.107983	0.178875	0.423945	0.377334	0.071651	0.105377	0.694897	0.741278
86	0.310767	0.059256	0.288203	0.386720	0.772475	0.278089	0.108314	0.086585	0.069341	0.054185	0.396428	0.171096	0.287865	0.114572	0.289676	0.191971	0.134267	0.547529	0.364432	0.326312	0.109029	0.321529	0.310846	0.398111	0.066602	0.054174	0.249514	0.346689	0.115504	0.400301	0.509282	0.495981	0.171473	0.070311	0.379695	0.763085	0.143436	0.421622	0.220417	0.154854	0.395068	0.061373	0.347902	0.272615	0.048711	0.022058	0.283851	0.068223	0.074851	0.056686	0.467458	1.048950	0.056819	0.082185	0.189857	0.127005	0.132556	0.206872	0.482859	0.538985	0.098109	0.119094	0.704129	0.744782
87	0.305618	0.051857	0.310352	0.415120	0.775479	0.297828	0.101810	0.086116	0.071674	0.055323	0.398438	0.120564	0.237704	0.240149	0.329097	0.203505	0.093817	0.623201	0.366707	0.326451	0.117147	0.363046	0.307179	0.403814	0.060059	0.040892	0.353553	0.379153	0.131078	0.373135	0.564313	0.522882	0.186533	0.093074	0.405531	0.750954	0.131733	0.386366	0.205993	0.156598	0.244179	0.050155	0.340318	0.264422	0.055129	0.022977	0.275969	0.073365	0.062621	0.054800	0.458579	1.046971	0.056743	0.064678	0.151999	0.126477	0.135535	0.257767	0.494330	0.544225	0.109219	0.106110	0.702958	0.744459
88	0.300339	0.054412	0.383716	0.420524	0.775789	0.303094	0.104875	0.086298	0.081881	0.056850	0.422001	0.214022	0.101946	0.322599	0.336800	0.205295	0.099361	0.664071	0.350113	0.421375	0.140284	0.361507	0.305578	0.407890	0.074465	0.054248	0.362336	0.386256	0.133112	0.415404	0.562042	0.530038	0.172763	0.100278	0.496369	0.745314	0.105194	0.366559	0.262321	0.246765	0.197696	0.045460	0.493708	0.240328	0.055450	0.028471	0.273175	0.080436	0.060649	0.054899	0.440462	1.036373	0.058611	0.078831	0.154159	0.126886	0.136718	0.266449	0.641431	0.735243	0.108102	0.094200	0.624784	0.687937
89	0.272472	0.055092	0.441858	0.419991	0.764350	0.304861	0.108461	0.091153	0.080756	0.053670	0.424932	0.232748	0.062164	0.337628	0.329595	0.207795	0.118616	0.681480	0.366240	0.649821	0.142426	0.385026	0.307052	0.407505	0.076161	0.062603	0.379920	0.365670	0.128986	0.419261	0.458155	0.483558	0.151700	0.094195	0.536387	0.714500	0.104006	0.078738	0.277777	0.263884	0.154834	0.045030	0.498235	0.351162	0.055344	0.033376	0.283706	0.081785	0.069707	0.065259	0.428378	1.025802	0.058787	0.088524	0.176870	0.128581	0.132283	0.270509	0.950079	0.819808	0.112219	0.092348	0.600601	0.517267
90	0.273509	0.055504	0.451001	0.423729	0.738992	0.304303	0.107631	0.091241	0.068828	0.060009	0.447677	0.268975	0.083633	0.347264	0.329318	0.202915	0.132531	0.682582	0.421639	0.696420	0.143757	0.414242	0.294148	0.403940	0.074987	0.060628	0.408232	0.406422	0.123333	0.397509	0.455447	0.327317	0.148895	0.093457	0.532630	0.793293	0.094832	0.078637	0.284055	0.283267	0.150746	0.043052	0.492018	0.368815	0.057854	0.035740	0.277130	0.087607	0.090004	0.066762	0.413616	0.819592	0.061245	0.107688	0.176596	0.127246	0.133164	0.271856	1.052199	0.838221	0.120457	0.093025	0.583673	0.487433
91	0.258960	0.044268	0.454742	0.425677	0.719488	0.307729	0.125420	0.093275	0.080529	0.070508	0.442859	0.309460	0.091147	0.422518	0.332703	0.202668	0.135250	0.683528	0.465924	0.745166	0.140321	0.416681	0.292307	0.302113	0.081745	0.064488	0.522200	0.400608	0.137419	0.430941	0.430766	0.307416	0.149165	0.094914	0.523105	0.716718	0.087771	0.082267	0.279464	0.299535	0.161414	0.052027	0.528799	0.429445	0.057888	0.035794	0.274391	0.105080	0.134646	0.068393	0.413572	0.717026	0.061770	0.112878	0.175082	0.128846	0.141377	0.264671	1.066764	0.837991	0.121724	0.121404	0.520691	0.366059
92	0.305860	0.042466	0.455461	0.425063	0.704052	0.300566	0.129625	0.103682	0.105507	0.259844	0.456582	0.325173	0.098099	0.446629	0.338616	0.199510	0.138434	0.594310	0.563782	0.736206	0.138527	0.404579	0.296744	0.285280	0.084312	0.065396	0.563873	0.389392	0.143842	0.489133	0.406593	0.240412	0.147028	0.098343	0.503330	0.667781	0.092302	0.114944	0.346789	0.306399	0.147647	0.077475	0.538062	0.570616	0.061894	0.037901	0.282275	0.110075	0.133000	0.064070	0.415965	0.638109	0.054406	0.119364	0.187494	0.117675	0.147865	0.239682	1.096450	0.890261	0.120664	0.142919	0.363010	0.205397
93	0.305891	0.055390	0.431323	0.422288	0.685532	0.323251	0.127695	0.114620	0.107096	0.412200	0.436996	0.333226	0.103889	0.455111	0.335541	0.193496	0.144347	0.449993	0.559413	0.746742	0.129811	0.364224	0.270823	0.286179	0.085976	0.064694	0.606071	0.370665	0.142024	0.519920	0.387617	0.260090	0.147517	0.096427	0.515233	0.634214	0.088897	0.139457	0.349675	0.321334	0.126690	0.081434	0.548586	0.591735	0.063310	0.040576	0.282816	0.110646	0.143661	0.071808	0.377274	0.358019	0.057183	0.118397	0.169383	0.107908	0.176849	0.219278	1.072087	0.867796	0.118361	0.146693	0.264566	0.167429
94	0.307731	0.062155	0.423184	0.360743	0.669140	0.321258	0.118383	0.111486	0.107065	0.526468	0.324924	0.296687	0.104942	0.460892	0.291021	0.174083	0.145281	0.382735	0.558414	0.754767	0.124075	0.326821	0.255559	0.222479	0.084954	0.062073	0.540185	0.336366	0.129545	0.533547	0.378094	0.296056	0.150750	0.096082	0.503941	0.613423	0.086645	0.172459	0.347169	0.344647	0.110890	0.090094	0.443150	0.621829	0.061229	0.044442	0.281039	0.110678	0.174593	0.082477	0.202602	0.169857	0.061975	0.115427	0.181690	0.105452	0.217905	0.214071	1.080651	0.774931	0.090490	0.148568	0.247191	0.140372
95	0.304354	0.062319	0.422573	0.465660	0.655919	0.303504	0.118200	0.110230	0.106604	0.538009	0.310962	0.254768	0.105106	0.465003	0.255263	0.152468	0.169479	0.288180	0.557757	0.760302	0.121355	0.241073	0.243214	0.200253	0.074004	0.045006	0.519748	0.268593	0.108538	0.531092	0.295372	0.251941	0.153188	0.094432	0.505270	0.584330	0.093033	0.190832	0.325450	0.342745	0.110887	0.092795	0.415205	0.670760	0.059632	0.046189	0.276589	0.110557	0.181087	0.084181	0.132939	0.134082	0.061926	0.110884	0.255141	0.098338	0.225854	0.134269	1.081637	0.755402	0.069438	0.141719	0.246616	0.141416
96	0.300456	0.063326	0.436289	0.550563	0.479089	0.303395	0.123954	0.098015	0.110295	0.548435	0.274890	0.241696	0.104331	0.466704	0.250696	0.150003	0.240648	0.197929	0.633408	0.624054	0.079317	0.242166	0.238131	0.192875	0.074185	0.060384	0.514796	0.160114	0.102422	0.494286	0.240866	0.223201	0.143186	0.082220	0.488044	0.579355	0.091210	0.269433	0.282612	0.290733	0.109060	0.094289	0.491521	0.679470	0.055622	0.048671	0.281497	0.111271	0.200789	0.084513	0.149917	0.129749	0.063430	0.112767	0.289310	0.086687	0.234822	0.101672	1.051781	0.692768	0.070705	0.141343	0.224155	0.130739
97	0.294009	0.065903	0.468178	0.535602	0.222810	0.273625	0.120990	0.093268	0.124157	0.586510	0.242721	0.197520	0.104149	0.466826	0.258804	0.144363	0.274642	0.157222	0.618697	0.673067	0.066633	0.232708	0.181537	0.188141	0.062432	0.058120	0.430499	0.134209	0.100401	0.505602	0.245506	0.239247	0.127725	0.059137	0.407677	0.575006	0.079072	0.269346	0.267365	0.270377	0.112424	0.095530	0.507061	0.683379	0.050318	0.053489	0.288308	0.119042	0.202042	0.142380	0.169541	0.161054	0.067465	0.115428	0.295273	0.082969	0.240246	0.084340	0.845213	0.599099	0.069007	0.144774	0.202710	0.166244
98	0.291532	0.068597	0.439594	0.526202	0.136765	0.259780	0.115453	0.100006	0.117246	0.662307	0.295869	0.400156	0.103767	0.463442	0.281938	0.125433	0.371494	0.144146	0.587099	0.587722	0.062834	0.159254	0.159093	0.188059	0.066677	0.069524	0.401188	0.309636	0.094446	0.431673	0.241378	0.255962	0.127531	0.056748	0.342458	0.579737	0.074493	0.265310	0.251296	0.231610	0.090747	0.067444	0.521590	0.547806	0.049487	0.055537	0.289714	0.132612	0.197829	0.250792	0.188569	0.199895	0.068116	0.114213	0.293902	0.081866	0.294287	0.080423	0.626759	0.613223	0.054334	0.146585	0.194584	0.222519
99	0.281433	0.069634	0.396659	0.525190	0.117823	0.235781	0.115836	0.100635	0.139959	0.796866	0.464483	0.407888	0.103496	0.430744	0.268782	0.099787	0.452852	0.139538	0.475724	0.637006	0.058414	0.142265	0.158457	0.188176	0.069883	0.096639	0.244125	0.343945	0.083007	0.378794	0.218338	0.259629	0.123654	0.055533	0.417264	0.478895	0.094315	0.266149	0.235006	0.210464	0.094585	0.064675	0.571646	0.524280	0.040513	0.055678	0.268026	0.142967	0.188588	0.304365	0.227482	0.211548	0.071763	0.100427	0.281852	0.076991	0.309157	0.077001	0.625420	0.646540	0.049748	0.130078	0.180751	0.217094
100	0.277277	0.068824	0.415910	0.523949	0.117580	0.229603	0.113329	0.106927	0.144135	0.740467	0.512607	0.441046	0.103957	0.364440	0.227897	0.093394	0.466702	0.139583	0.439329	0.639589	0.055939	0.138590	0.167968	0.157240	0.066758	0.119109	0.236129	0.426780	0.047761	0.316407	0.208692	0.254556	0.123287	0.055388	0.463350	0.702005	0.135489	0.254940	0.119714	0.198742	0.090339	0.050984	0.602977	0.512544	0.041520	0.053923	0.227748	0.137875	0.193837	0.368550	0.310213	0.213902	0.072231	0.125651	0.271077	0.076143	0.312781	0.064633	0.567542	0.739259	0.039422	0.097933	0.131438	0.251132
101	0.276107	0.067979	0.410757	0.541914	0.151116	0.228149	0.109325	0.108689	0.144035	0.730099	0.692688	0.443593	0.098467	0.329300	0.222574	0.085269	0.466757	0.128335	0.459198	0.619696	0.031071	0.140931	0.122903	0.099755	0.057578	0.120688	0.278950	0.433096	0.039810	0.240938	0.145956	0.236879	0.154560	0.059252	0.454054	0.938971	0.173931	0.239348	0.126574	0.173501	0.085118	0.047659	0.552336	0.449993	0.059464	0.080344	0.172861	0.133528	0.185723	0.401188	0.353575	0.231991	0.072028	0.184291	0.271735	0.071148	0.342547	0.061449	0.573046	0.833661	0.038903	0.089724	0.132987	0.251875
