	141_P_T1_sh_R_D_A_01.c3d	141_P_T1_sh_R_D_A_01.c3d	141_P_T1_sh_R_D_A_01.c3d	141_P_T1_sh_R_D_A_01.c3d	141_P_T1_sh_R_D_A_01.c3d	141_P_T1_sh_R_D_A_01.c3d	141_P_T1_sh_R_D_A_01.c3d	141_P_T1_sh_R_D_A_01.c3d	141_P_T1_sh_R_D_A_02.c3d	141_P_T1_sh_R_D_A_02.c3d	141_P_T1_sh_R_D_A_02.c3d	141_P_T1_sh_R_D_A_02.c3d	141_P_T1_sh_R_D_A_02.c3d	141_P_T1_sh_R_D_A_02.c3d	141_P_T1_sh_R_D_A_02.c3d	141_P_T1_sh_R_D_A_02.c3d	141_P_T1_sh_R_D_A_03.c3d	141_P_T1_sh_R_D_A_03.c3d	141_P_T1_sh_R_D_A_03.c3d	141_P_T1_sh_R_D_A_03.c3d	141_P_T1_sh_R_D_A_03.c3d	141_P_T1_sh_R_D_A_03.c3d	141_P_T1_sh_R_D_A_03.c3d	141_P_T1_sh_R_D_A_03.c3d	141_P_T1_sh_R_D_A_04.c3d	141_P_T1_sh_R_D_A_04.c3d	141_P_T1_sh_R_D_A_04.c3d	141_P_T1_sh_R_D_A_04.c3d	141_P_T1_sh_R_D_A_04.c3d	141_P_T1_sh_R_D_A_04.c3d	141_P_T1_sh_R_D_A_04.c3d	141_P_T1_sh_R_D_A_04.c3d	141_P_T1_sh_R_D_A_05.c3d	141_P_T1_sh_R_D_A_05.c3d	141_P_T1_sh_R_D_A_05.c3d	141_P_T1_sh_R_D_A_05.c3d	141_P_T1_sh_R_D_A_05.c3d	141_P_T1_sh_R_D_A_05.c3d	141_P_T1_sh_R_D_A_05.c3d	141_P_T1_sh_R_D_A_05.c3d	141_P_T1_sh_R_D_A_06.c3d	141_P_T1_sh_R_D_A_06.c3d	141_P_T1_sh_R_D_A_06.c3d	141_P_T1_sh_R_D_A_06.c3d	141_P_T1_sh_R_D_A_06.c3d	141_P_T1_sh_R_D_A_06.c3d	141_P_T1_sh_R_D_A_06.c3d	141_P_T1_sh_R_D_A_06.c3d	141_P_T1_sh_R_D_A_07.c3d	141_P_T1_sh_R_D_A_07.c3d	141_P_T1_sh_R_D_A_07.c3d	141_P_T1_sh_R_D_A_07.c3d	141_P_T1_sh_R_D_A_07.c3d	141_P_T1_sh_R_D_A_07.c3d	141_P_T1_sh_R_D_A_07.c3d	141_P_T1_sh_R_D_A_07.c3d	141_P_T1_sh_R_D_A_08.c3d	141_P_T1_sh_R_D_A_08.c3d	141_P_T1_sh_R_D_A_08.c3d	141_P_T1_sh_R_D_A_08.c3d	141_P_T1_sh_R_D_A_08.c3d	141_P_T1_sh_R_D_A_08.c3d	141_P_T1_sh_R_D_A_08.c3d	141_P_T1_sh_R_D_A_08.c3d	141_P_T1_sh_R_D_A_09.c3d	141_P_T1_sh_R_D_A_09.c3d	141_P_T1_sh_R_D_A_09.c3d	141_P_T1_sh_R_D_A_09.c3d	141_P_T1_sh_R_D_A_09.c3d	141_P_T1_sh_R_D_A_09.c3d	141_P_T1_sh_R_D_A_09.c3d	141_P_T1_sh_R_D_A_09.c3d	141_P_T1_sh_R_D_A_10.c3d	141_P_T1_sh_R_D_A_10.c3d	141_P_T1_sh_R_D_A_10.c3d	141_P_T1_sh_R_D_A_10.c3d	141_P_T1_sh_R_D_A_10.c3d	141_P_T1_sh_R_D_A_10.c3d	141_P_T1_sh_R_D_A_10.c3d	141_P_T1_sh_R_D_A_10.c3d
	Biceps femoris_lat	Semitendinosus_lat	Vastus lateralis_lat	Vastus medialis_lat	Biceps femoris_med	Semitendinosus_med	Vastus lateralis_med	Vastus medialis_med	Biceps femoris_lat	Semitendinosus_lat	Vastus lateralis_lat	Vastus medialis_lat	Biceps femoris_med	Semitendinosus_med	Vastus lateralis_med	Vastus medialis_med	Biceps femoris_lat	Semitendinosus_lat	Vastus lateralis_lat	Vastus medialis_lat	Biceps femoris_med	Semitendinosus_med	Vastus lateralis_med	Vastus medialis_med	Biceps femoris_lat	Semitendinosus_lat	Vastus lateralis_lat	Vastus medialis_lat	Biceps femoris_med	Semitendinosus_med	Vastus lateralis_med	Vastus medialis_med	Biceps femoris_lat	Semitendinosus_lat	Vastus lateralis_lat	Vastus medialis_lat	Biceps femoris_med	Semitendinosus_med	Vastus lateralis_med	Vastus medialis_med	Biceps femoris_lat	Semitendinosus_lat	Vastus lateralis_lat	Vastus medialis_lat	Biceps femoris_med	Semitendinosus_med	Vastus lateralis_med	Vastus medialis_med	Biceps femoris_lat	Semitendinosus_lat	Vastus lateralis_lat	Vastus medialis_lat	Biceps femoris_med	Semitendinosus_med	Vastus lateralis_med	Vastus medialis_med	Biceps femoris_lat	Semitendinosus_lat	Vastus lateralis_lat	Vastus medialis_lat	Biceps femoris_med	Semitendinosus_med	Vastus lateralis_med	Vastus medialis_med	Biceps femoris_lat	Semitendinosus_lat	Vastus lateralis_lat	Vastus medialis_lat	Biceps femoris_med	Semitendinosus_med	Vastus lateralis_med	Vastus medialis_med	Biceps femoris_lat	Semitendinosus_lat	Vastus lateralis_lat	Vastus medialis_lat	Biceps femoris_med	Semitendinosus_med	Vastus lateralis_med	Vastus medialis_med
	P2D	P2D	P2D	P2D	P2D	P2D	P2D	P2D	P2D	P2D	P2D	P2D	P2D	P2D	P2D	P2D	P2D	P2D	P2D	P2D	P2D	P2D	P2D	P2D	P2D	P2D	P2D	P2D	P2D	P2D	P2D	P2D	P2D	P2D	P2D	P2D	P2D	P2D	P2D	P2D	P2D	P2D	P2D	P2D	P2D	P2D	P2D	P2D	P2D	P2D	P2D	P2D	P2D	P2D	P2D	P2D	P2D	P2D	P2D	P2D	P2D	P2D	P2D	P2D	P2D	P2D	P2D	P2D	P2D	P2D	P2D	P2D	P2D	P2D	P2D	P2D	P2D	P2D	P2D	P2D
	EMG_lat	EMG_lat	EMG_lat	EMG_lat	EMG_med	EMG_med	EMG_med	EMG_med	EMG_lat	EMG_lat	EMG_lat	EMG_lat	EMG_med	EMG_med	EMG_med	EMG_med	EMG_lat	EMG_lat	EMG_lat	EMG_lat	EMG_med	EMG_med	EMG_med	EMG_med	EMG_lat	EMG_lat	EMG_lat	EMG_lat	EMG_med	EMG_med	EMG_med	EMG_med	EMG_lat	EMG_lat	EMG_lat	EMG_lat	EMG_med	EMG_med	EMG_med	EMG_med	EMG_lat	EMG_lat	EMG_lat	EMG_lat	EMG_med	EMG_med	EMG_med	EMG_med	EMG_lat	EMG_lat	EMG_lat	EMG_lat	EMG_med	EMG_med	EMG_med	EMG_med	EMG_lat	EMG_lat	EMG_lat	EMG_lat	EMG_med	EMG_med	EMG_med	EMG_med	EMG_lat	EMG_lat	EMG_lat	EMG_lat	EMG_med	EMG_med	EMG_med	EMG_med	EMG_lat	EMG_lat	EMG_lat	EMG_lat	EMG_med	EMG_med	EMG_med	EMG_med
ITEM	Y	Y	Y	Y	Y	Y	Y	Y	Y	Y	Y	Y	Y	Y	Y	Y	Y	Y	Y	Y	Y	Y	Y	Y	Y	Y	Y	Y	Y	Y	Y	Y	Y	Y	Y	Y	Y	Y	Y	Y	Y	Y	Y	Y	Y	Y	Y	Y	Y	Y	Y	Y	Y	Y	Y	Y	Y	Y	Y	Y	Y	Y	Y	Y	Y	Y	Y	Y	Y	Y	Y	Y	Y	Y	Y	Y	Y	Y	Y	Y
1	0.276904	0.399276	0.018759	0.080788	0.683032	0.291624	0.063286	0.193787	0.470810	0.372740	0.028378	0.093060	0.484511	0.402962	0.049396	0.143839	0.243281	0.390099	0.166052	0.184209	0.194635	0.414643	0.189511	0.317011	0.411056	0.278240	0.107130	0.151942	0.263172	0.102238	0.119724	0.250231	0.267521	0.287574	0.131829	0.095742	0.408583	0.485828	0.039770	0.076973	0.397782	0.498927	0.144013	0.147959	0.511130	0.410966	0.088969	0.292651	0.394892	0.348741	0.111683	0.104942	0.242141	0.308003	0.113583	0.217589	0.364200	0.362621	0.046106	0.142693	0.269202	0.247775	0.052716	0.212044	0.175244	0.209015	0.056769	0.121498	0.306917	0.247360	0.217910	0.323627	0.281118	0.069533	0.078658	0.164698	0.154751	0.292209	0.150631	0.294633
2	0.282151	0.417809	0.020668	0.081775	0.664026	0.321059	0.062308	0.198940	0.455982	0.364669	0.031724	0.081134	0.470542	0.423471	0.049669	0.144446	0.214439	0.363699	0.161494	0.155172	0.216850	0.430857	0.188895	0.316416	0.369560	0.268115	0.097183	0.181022	0.250785	0.106003	0.107821	0.247225	0.258186	0.282813	0.129964	0.119264	0.376499	0.445179	0.044887	0.080480	0.399237	0.500567	0.146815	0.151277	0.489307	0.363427	0.088581	0.294315	0.425108	0.376710	0.112856	0.104197	0.313350	0.404696	0.113860	0.219744	0.355978	0.314523	0.046088	0.140029	0.265488	0.244013	0.053236	0.211111	0.175985	0.209394	0.054972	0.118593	0.312558	0.247939	0.217105	0.322659	0.292554	0.067169	0.120450	0.214666	0.178920	0.326494	0.142178	0.296696
3	0.276402	0.429486	0.017609	0.088895	0.621549	0.327233	0.071788	0.191991	0.437239	0.343742	0.039608	0.078386	0.450760	0.407779	0.049585	0.138926	0.163020	0.300242	0.166283	0.151181	0.214493	0.437639	0.182773	0.313821	0.356923	0.279458	0.100208	0.187946	0.221286	0.112712	0.122644	0.249475	0.257348	0.281360	0.130931	0.124945	0.356137	0.457201	0.047507	0.089431	0.382339	0.480811	0.106160	0.149719	0.471252	0.316470	0.083470	0.274549	0.384431	0.381966	0.109715	0.114844	0.327910	0.426283	0.116728	0.194231	0.306069	0.286587	0.076245	0.139947	0.274087	0.245412	0.052641	0.217270	0.192691	0.208617	0.071624	0.116325	0.314105	0.251656	0.202631	0.306744	0.297117	0.068764	0.156740	0.280495	0.230191	0.384378	0.141207	0.297177
4	0.243121	0.397614	0.020384	0.108512	0.621669	0.339964	0.083542	0.185756	0.438272	0.311191	0.043256	0.071751	0.445483	0.399514	0.063145	0.142560	0.216336	0.290409	0.162447	0.152613	0.209888	0.451892	0.153379	0.300441	0.353197	0.277591	0.105881	0.185896	0.207709	0.127197	0.143697	0.255010	0.250772	0.269290	0.131217	0.150403	0.356844	0.512227	0.067572	0.094308	0.354268	0.446251	0.093012	0.148216	0.452383	0.303961	0.079879	0.245421	0.278208	0.383226	0.107784	0.146079	0.370035	0.472950	0.119165	0.149122	0.199083	0.302348	0.081215	0.151415	0.262444	0.237694	0.054407	0.202650	0.203401	0.207906	0.124626	0.136839	0.307537	0.248675	0.190926	0.281790	0.300969	0.069271	0.161536	0.304466	0.250595	0.423697	0.129343	0.289422
5	0.230338	0.380126	0.082304	0.166564	0.618065	0.370740	0.139999	0.200282	0.398929	0.249300	0.045708	0.059265	0.445234	0.401538	0.104050	0.138611	0.223990	0.282674	0.140455	0.105460	0.211082	0.460984	0.149213	0.293589	0.298645	0.243877	0.118840	0.181844	0.213625	0.146592	0.190357	0.258655	0.232986	0.252654	0.111135	0.155737	0.329548	0.504930	0.127359	0.102166	0.371098	0.444584	0.094020	0.144639	0.418292	0.296451	0.078298	0.252805	0.272902	0.382468	0.098402	0.164220	0.465778	0.564003	0.115597	0.139298	0.180493	0.331474	0.085147	0.149943	0.257763	0.249510	0.056174	0.202489	0.247205	0.268125	0.129275	0.145695	0.290696	0.247902	0.191704	0.382652	0.336047	0.084639	0.170877	0.302580	0.250719	0.441066	0.127141	0.291601
6	0.261893	0.406445	0.180467	0.321255	0.591502	0.411351	0.230350	0.228701	0.380097	0.193174	0.055053	0.047731	0.399037	0.382014	0.123947	0.162203	0.238823	0.266456	0.137823	0.096418	0.213303	0.473658	0.179139	0.296224	0.288546	0.211880	0.116120	0.182061	0.302086	0.154867	0.197743	0.324830	0.260436	0.251829	0.084223	0.154954	0.284622	0.469387	0.238168	0.163887	0.379936	0.444102	0.100250	0.136706	0.409747	0.267503	0.068051	0.277916	0.292904	0.378714	0.091122	0.164968	0.508637	0.593242	0.105017	0.138867	0.192756	0.341115	0.094193	0.166105	0.255974	0.258292	0.059739	0.207143	0.255764	0.282735	0.130992	0.148192	0.238538	0.240526	0.214639	0.458938	0.367211	0.087052	0.187025	0.307447	0.252721	0.442205	0.136110	0.319399
7	0.261256	0.442781	0.217280	0.355230	0.507301	0.449185	0.292362	0.232122	0.358618	0.110342	0.057309	0.062196	0.326593	0.369526	0.144825	0.168910	0.238676	0.241710	0.147714	0.080340	0.227683	0.474905	0.187252	0.300600	0.287990	0.203050	0.127228	0.162823	0.353786	0.149632	0.198905	0.319577	0.242035	0.251239	0.087055	0.169511	0.269621	0.463452	0.308575	0.325436	0.372858	0.422355	0.110386	0.137237	0.315243	0.257774	0.070066	0.289968	0.275954	0.339431	0.101537	0.168282	0.511171	0.599027	0.095018	0.148411	0.190347	0.342790	0.094216	0.179900	0.245361	0.233420	0.061556	0.185196	0.251277	0.272496	0.136961	0.150463	0.165627	0.230156	0.217246	0.465137	0.356200	0.081524	0.221421	0.362698	0.266691	0.420289	0.136970	0.361977
8	0.255904	0.446029	0.221402	0.357097	0.318424	0.425364	0.320351	0.224459	0.295132	0.096932	0.066941	0.102151	0.324518	0.375093	0.173434	0.172542	0.313192	0.238399	0.143182	0.098245	0.223139	0.473661	0.167654	0.299942	0.298335	0.199141	0.168196	0.167459	0.369714	0.142555	0.240546	0.338274	0.244862	0.260179	0.091724	0.206849	0.260836	0.461236	0.332840	0.387047	0.321652	0.377823	0.128847	0.166095	0.227992	0.208392	0.077030	0.295362	0.260335	0.282555	0.109766	0.213976	0.513013	0.603983	0.108187	0.146092	0.189022	0.343275	0.098794	0.174984	0.255408	0.322210	0.165107	0.167696	0.275508	0.241468	0.168767	0.116390	0.160238	0.220586	0.195391	0.475413	0.356120	0.083018	0.257071	0.433343	0.295166	0.404750	0.141411	0.374325
9	0.272003	0.419257	0.252474	0.403839	0.334415	0.391979	0.373067	0.255753	0.324001	0.136132	0.076509	0.107217	0.336919	0.416468	0.186261	0.177376	0.320226	0.232510	0.133852	0.118565	0.229939	0.463154	0.149406	0.296530	0.352102	0.170039	0.178539	0.157902	0.374417	0.142026	0.250673	0.344573	0.237464	0.302950	0.095688	0.211397	0.278851	0.439282	0.335166	0.389873	0.321390	0.340752	0.140714	0.169560	0.127696	0.136871	0.082088	0.344688	0.260730	0.290485	0.113879	0.272238	0.513146	0.607859	0.116295	0.136652	0.186581	0.319657	0.102019	0.171396	0.267560	0.377121	0.247156	0.246406	0.289899	0.210092	0.240261	0.122979	0.162866	0.220854	0.170381	0.498705	0.343746	0.083504	0.262350	0.459763	0.295245	0.388652	0.143071	0.378671
10	0.255402	0.353374	0.341734	0.516040	0.348996	0.371509	0.406097	0.286573	0.332769	0.150058	0.080172	0.101900	0.333249	0.428475	0.190834	0.189858	0.339502	0.266667	0.130345	0.114132	0.233616	0.414348	0.143912	0.263940	0.363837	0.155885	0.178379	0.154464	0.404893	0.160337	0.254380	0.336219	0.237242	0.319563	0.103954	0.235679	0.334265	0.435136	0.370366	0.407854	0.240233	0.204871	0.188244	0.162869	0.107186	0.101202	0.077939	0.381779	0.260319	0.268484	0.112947	0.273417	0.512929	0.609425	0.116574	0.119398	0.234234	0.274368	0.102751	0.164916	0.242706	0.382495	0.252734	0.321524	0.303751	0.210118	0.258486	0.128889	0.167808	0.198548	0.167171	0.486396	0.319797	0.082350	0.258674	0.452007	0.293947	0.387405	0.144964	0.371859
11	0.264308	0.338408	0.373662	0.570282	0.343608	0.357877	0.406323	0.287683	0.331084	0.160219	0.078886	0.112501	0.323484	0.397479	0.207980	0.191416	0.353094	0.257640	0.125356	0.116757	0.234631	0.392133	0.147971	0.228030	0.347704	0.147882	0.179305	0.113056	0.428243	0.171263	0.251613	0.333179	0.237987	0.291716	0.102789	0.261487	0.351661	0.413511	0.455012	0.469027	0.239535	0.173893	0.230346	0.168960	0.134387	0.094511	0.075517	0.389963	0.230632	0.231696	0.137229	0.297119	0.503528	0.607886	0.114950	0.115015	0.256288	0.235238	0.103467	0.208858	0.222793	0.380054	0.254140	0.324953	0.309745	0.209391	0.253428	0.166994	0.180742	0.180336	0.168142	0.474142	0.311052	0.085545	0.253395	0.442142	0.295370	0.381731	0.149624	0.343265
12	0.218877	0.285618	0.375144	0.578762	0.328448	0.326437	0.398053	0.310702	0.344415	0.163517	0.079755	0.119099	0.286690	0.396082	0.225296	0.218623	0.349999	0.259032	0.117227	0.112626	0.204962	0.331651	0.149442	0.223251	0.346777	0.142005	0.180178	0.111654	0.424715	0.173530	0.258130	0.330571	0.234718	0.250893	0.092985	0.271027	0.366970	0.414348	0.512246	0.523354	0.236653	0.166733	0.248702	0.176058	0.142954	0.098578	0.077043	0.390389	0.185806	0.172721	0.177450	0.303314	0.495587	0.599497	0.115106	0.117455	0.255108	0.244115	0.095450	0.217849	0.242183	0.377266	0.290946	0.338182	0.279892	0.187226	0.278436	0.194954	0.198453	0.180436	0.167415	0.475761	0.312404	0.089589	0.235477	0.416133	0.288848	0.381456	0.151948	0.280954
13	0.224920	0.319743	0.374680	0.576083	0.327447	0.303842	0.366656	0.318935	0.347549	0.166570	0.113932	0.155338	0.239016	0.359529	0.258867	0.225411	0.349402	0.227610	0.118969	0.115992	0.181186	0.300799	0.151264	0.223712	0.314276	0.144543	0.175684	0.153040	0.440761	0.191973	0.265010	0.306997	0.239060	0.237161	0.100815	0.284606	0.364756	0.407458	0.535909	0.531935	0.258115	0.156831	0.247222	0.184718	0.148699	0.087285	0.093183	0.390851	0.177888	0.151718	0.171194	0.299541	0.479408	0.564182	0.115038	0.118257	0.249945	0.219607	0.098034	0.210761	0.246615	0.392051	0.381865	0.332436	0.280146	0.102066	0.299945	0.259296	0.234699	0.158632	0.154719	0.467318	0.319750	0.089149	0.215490	0.373851	0.277150	0.375464	0.152280	0.265915
14	0.230882	0.422442	0.358048	0.550312	0.305591	0.209283	0.314141	0.341578	0.342425	0.168173	0.114256	0.165804	0.229070	0.352544	0.289992	0.212831	0.339627	0.193455	0.120997	0.116734	0.177963	0.292475	0.151911	0.224845	0.287490	0.274577	0.160655	0.158901	0.451066	0.254387	0.236631	0.270559	0.242614	0.237848	0.143998	0.295850	0.360600	0.336034	0.542230	0.530743	0.260842	0.159018	0.269613	0.192831	0.151374	0.083006	0.108053	0.387875	0.174123	0.149140	0.164659	0.284390	0.433621	0.483080	0.115901	0.108147	0.266333	0.192281	0.100885	0.216752	0.333321	0.446057	0.417347	0.327290	0.290992	0.101946	0.310362	0.268278	0.244784	0.206804	0.141392	0.461197	0.322558	0.090574	0.213494	0.359064	0.239733	0.340936	0.165144	0.280659
15	0.218311	0.436619	0.321442	0.483900	0.302536	0.161755	0.295173	0.343130	0.341805	0.166203	0.112423	0.172785	0.259904	0.323121	0.304283	0.209280	0.333695	0.216385	0.109844	0.117636	0.178077	0.272199	0.152432	0.225039	0.288231	0.364331	0.163419	0.182178	0.390111	0.303188	0.238600	0.207532	0.256807	0.270361	0.162347	0.296492	0.360393	0.247422	0.539737	0.531231	0.220143	0.154136	0.288005	0.215150	0.156489	0.083435	0.116436	0.394129	0.137091	0.151034	0.173285	0.274460	0.418463	0.457961	0.116105	0.099819	0.294554	0.249975	0.123621	0.213082	0.361588	0.457534	0.421078	0.325478	0.267975	0.098053	0.298739	0.281869	0.245410	0.281158	0.135888	0.464563	0.272919	0.226759	0.204856	0.361791	0.245430	0.365662	0.181472	0.308200
16	0.219015	0.409505	0.307561	0.471085	0.244253	0.341945	0.236215	0.318730	0.332337	0.164470	0.132276	0.220877	0.304296	0.320905	0.313741	0.209118	0.296652	0.239522	0.092783	0.102828	0.183568	0.257418	0.150255	0.181929	0.306266	0.383335	0.151854	0.181654	0.346818	0.381689	0.259199	0.182153	0.278446	0.315856	0.162566	0.286797	0.359294	0.242165	0.526075	0.548893	0.221340	0.145367	0.292582	0.215736	0.153820	0.089999	0.144632	0.385129	0.091162	0.152602	0.209582	0.288523	0.389724	0.419436	0.116931	0.097208	0.368154	0.371933	0.175799	0.239496	0.367866	0.448857	0.420648	0.326252	0.250760	0.107683	0.260813	0.281551	0.246015	0.303518	0.146782	0.475045	0.218686	0.382349	0.189588	0.355517	0.256367	0.359734	0.175209	0.328236
17	0.210411	0.415797	0.309131	0.480087	0.257759	0.582483	0.164676	0.286750	0.313394	0.215761	0.175514	0.209268	0.335808	0.323944	0.318936	0.214070	0.245990	0.240566	0.105652	0.127624	0.178541	0.231250	0.130613	0.099169	0.301052	0.386843	0.122513	0.193632	0.323864	0.427360	0.288163	0.154511	0.272503	0.319914	0.161370	0.286175	0.358673	0.211472	0.490754	0.541235	0.222127	0.130853	0.301713	0.218152	0.150373	0.107115	0.161009	0.367438	0.126160	0.149075	0.224770	0.297086	0.259993	0.266766	0.117627	0.096977	0.456570	0.409398	0.189995	0.260149	0.368604	0.457841	0.421720	0.327029	0.229698	0.119858	0.217875	0.280181	0.291070	0.329354	0.174341	0.483930	0.211593	0.432518	0.144739	0.285588	0.258052	0.353209	0.165328	0.335196
18	0.225362	0.568962	0.261436	0.415242	0.247990	0.626515	0.148593	0.277061	0.298890	0.427933	0.173959	0.208354	0.366835	0.336393	0.309597	0.212466	0.254627	0.230310	0.114977	0.164253	0.153528	0.230566	0.114044	0.073584	0.235464	0.384009	0.130287	0.244157	0.318183	0.426290	0.298210	0.147990	0.257123	0.324091	0.169349	0.285628	0.358936	0.173283	0.457135	0.482662	0.221049	0.095603	0.296782	0.200543	0.150340	0.121401	0.165369	0.366319	0.175781	0.150592	0.222880	0.239452	0.134918	0.174266	0.119742	0.094856	0.489134	0.429341	0.191796	0.275495	0.378412	0.522104	0.415570	0.325793	0.197248	0.133755	0.211791	0.271421	0.327360	0.361812	0.184697	0.428373	0.233345	0.557876	0.090147	0.173192	0.256092	0.365410	0.164262	0.289979
19	0.216272	0.606935	0.137217	0.269913	0.414597	0.897583	0.146698	0.227872	0.299139	0.613440	0.172773	0.213065	0.382800	0.352095	0.301341	0.198797	0.246103	0.300888	0.108977	0.186773	0.217950	0.299850	0.112641	0.080537	0.195342	0.414106	0.133194	0.248584	0.277886	0.419008	0.296790	0.143830	0.352676	0.348411	0.190226	0.270928	0.342772	0.161230	0.446088	0.460732	0.206661	0.172744	0.289233	0.195747	0.148936	0.147966	0.161723	0.361025	0.217534	0.268573	0.223843	0.221904	0.126281	0.149734	0.153372	0.077950	0.571395	0.514981	0.192255	0.281448	0.383053	0.549118	0.363678	0.314614	0.200528	0.159926	0.192725	0.264380	0.343595	0.365528	0.162695	0.332426	0.237501	0.585165	0.081905	0.109771	0.246138	0.463114	0.201225	0.267590
20	0.276584	0.606191	0.073329	0.187801	0.444358	0.966395	0.115139	0.188323	0.297752	0.679818	0.176558	0.281714	0.384677	0.353568	0.292260	0.191294	0.195905	0.335427	0.107796	0.194386	0.277432	0.391992	0.140675	0.077317	0.194344	0.447772	0.137699	0.255637	0.252981	0.419269	0.317378	0.155293	0.424934	0.340611	0.220605	0.251469	0.253210	0.140084	0.445633	0.462614	0.213225	0.250544	0.258073	0.178709	0.148123	0.211720	0.183156	0.278549	0.249432	0.342349	0.222266	0.206565	0.122444	0.150985	0.172890	0.075037	0.685104	0.533015	0.189730	0.248038	0.388721	0.551247	0.343999	0.190754	0.206205	0.202507	0.166315	0.248516	0.355489	0.368094	0.146738	0.324438	0.235921	0.585986	0.079761	0.101578	0.235816	0.482305	0.254406	0.277976
21	0.279443	0.632447	0.071766	0.162304	0.618569	0.979780	0.130909	0.118256	0.282548	0.714762	0.179814	0.315106	0.386551	0.350019	0.277688	0.187876	0.229660	0.436241	0.109051	0.208184	0.294838	0.445030	0.190050	0.097339	0.173001	0.446503	0.141955	0.269779	0.252443	0.431260	0.315196	0.154638	0.424999	0.314202	0.236886	0.282409	0.251692	0.195727	0.393165	0.436761	0.215084	0.256148	0.223434	0.171394	0.178586	0.265117	0.202761	0.196515	0.289876	0.389678	0.180931	0.180588	0.118437	0.171139	0.179447	0.073815	0.713856	0.583027	0.192163	0.240032	0.443180	0.677405	0.344770	0.167805	0.166025	0.209502	0.159564	0.229122	0.359031	0.383559	0.143907	0.314443	0.232270	0.585711	0.074559	0.102303	0.238245	0.488797	0.293495	0.279068
22	0.286467	0.772452	0.071274	0.158067	0.652241	0.982944	0.193984	0.159021	0.272765	0.765235	0.158892	0.301951	0.373706	0.318483	0.273299	0.181606	0.256884	0.510137	0.103838	0.214086	0.306177	0.436903	0.214891	0.099059	0.160779	0.450242	0.172688	0.277370	0.217547	0.418357	0.299595	0.164142	0.430051	0.325019	0.237902	0.288042	0.296083	0.245238	0.295996	0.357931	0.211032	0.259114	0.213865	0.165637	0.180923	0.290433	0.204769	0.184073	0.348607	0.516602	0.176783	0.208469	0.128202	0.179515	0.183535	0.122241	0.718729	0.585007	0.197795	0.312190	0.443989	0.712162	0.334628	0.134698	0.166674	0.237452	0.154414	0.227192	0.357461	0.403095	0.146849	0.272995	0.211121	0.595700	0.077905	0.091387	0.259463	0.529301	0.325339	0.283024
23	0.293078	0.896385	0.101587	0.188501	0.745630	0.954620	0.188990	0.177674	0.274545	0.795008	0.157582	0.296984	0.378007	0.356385	0.286092	0.157452	0.258643	0.520894	0.129028	0.228963	0.361358	0.475058	0.216549	0.139521	0.181669	0.378215	0.195680	0.379328	0.172208	0.372253	0.301543	0.179181	0.442417	0.336410	0.241869	0.279170	0.371335	0.251168	0.197698	0.297559	0.177850	0.259441	0.219186	0.159080	0.231864	0.378595	0.203170	0.186847	0.368493	0.547456	0.198663	0.273477	0.130714	0.219652	0.184482	0.132257	0.716238	0.587474	0.228066	0.404124	0.445169	0.716795	0.264024	0.130460	0.163503	0.238535	0.165751	0.261931	0.354721	0.405828	0.150864	0.254729	0.200147	0.627484	0.116720	0.102373	0.259721	0.543574	0.334897	0.282906
24	0.406665	0.929303	0.195710	0.501188	0.887402	0.820530	0.193867	0.179544	0.295534	0.815341	0.155655	0.294187	0.389598	0.435230	0.284358	0.185009	0.251220	0.521334	0.134116	0.240021	0.373782	0.474832	0.224794	0.149888	0.203701	0.309256	0.200473	0.407942	0.125279	0.336217	0.310740	0.182318	0.548348	0.348982	0.272099	0.268182	0.464800	0.257350	0.144628	0.293619	0.195045	0.357024	0.192547	0.148199	0.235850	0.419102	0.198475	0.179258	0.370908	0.551018	0.207052	0.284775	0.144641	0.317894	0.187041	0.153014	0.722230	0.611872	0.265358	0.533705	0.405714	0.693295	0.139982	0.154123	0.163339	0.240699	0.176495	0.274022	0.351315	0.439246	0.152245	0.258154	0.188149	0.629986	0.193507	0.107486	0.281847	0.623046	0.335235	0.286811
25	0.523773	1.075402	0.241032	0.618308	0.898650	0.844949	0.195139	0.186594	0.311809	0.827283	0.142209	0.256821	0.384829	0.439689	0.277200	0.187445	0.256506	0.522213	0.121241	0.228860	0.377582	0.475895	0.261151	0.176248	0.169822	0.283677	0.200081	0.410439	0.135657	0.237778	0.295517	0.198121	0.615952	0.355391	0.297084	0.250962	0.599901	0.268750	0.128261	0.295143	0.203121	0.384629	0.175917	0.155760	0.239064	0.426921	0.194566	0.173477	0.371015	0.566566	0.182536	0.277935	0.170289	0.359662	0.196018	0.159072	0.705420	0.585243	0.238585	0.559797	0.363190	0.678722	0.123021	0.233868	0.162637	0.235994	0.207902	0.274545	0.347618	0.486749	0.152446	0.270330	0.181337	0.587326	0.220768	0.097592	0.291226	0.648430	0.332239	0.278448
26	0.574350	1.152331	0.243700	0.617855	0.840197	0.619752	0.196204	0.189412	0.303380	0.818822	0.076492	0.255378	0.373852	0.440798	0.251066	0.175399	0.236927	0.564186	0.105185	0.203905	0.380868	0.498570	0.287681	0.207570	0.159703	0.279494	0.195628	0.432334	0.154792	0.196500	0.232992	0.193159	0.624697	0.348660	0.297859	0.257407	0.645196	0.285710	0.124629	0.297231	0.195009	0.389013	0.165111	0.163407	0.253164	0.432669	0.184159	0.161815	0.364847	0.580487	0.140267	0.256878	0.173336	0.376738	0.203348	0.157540	0.654226	0.554515	0.222565	0.550112	0.344222	0.674005	0.161569	0.277714	0.159469	0.218798	0.248107	0.314071	0.329150	0.491969	0.152698	0.278762	0.167020	0.500082	0.234445	0.133421	0.272843	0.624440	0.323045	0.254914
27	0.573662	1.100149	0.284765	0.724730	0.827077	0.470837	0.201392	0.204983	0.241452	0.751837	0.067215	0.256918	0.373073	0.443346	0.212610	0.176879	0.255666	0.664806	0.104976	0.192767	0.378987	0.523340	0.290714	0.207874	0.174615	0.277116	0.236058	0.500819	0.154304	0.208591	0.236137	0.192381	0.617389	0.324774	0.299522	0.269262	0.650186	0.302234	0.088135	0.258072	0.196227	0.389068	0.143392	0.173118	0.259907	0.434239	0.163672	0.157070	0.367074	0.618337	0.142287	0.265695	0.180482	0.406728	0.206709	0.156233	0.616272	0.544791	0.231084	0.589835	0.345518	0.671228	0.171391	0.270994	0.172324	0.168399	0.243837	0.317307	0.344953	0.476170	0.154167	0.282926	0.151335	0.488596	0.236337	0.160073	0.247946	0.597900	0.315582	0.225351
28	0.586171	1.090111	0.366876	0.921155	0.724451	0.424358	0.219476	0.226379	0.218483	0.610855	0.066861	0.257521	0.354223	0.482484	0.190407	0.181918	0.273876	0.655887	0.104401	0.211453	0.379455	0.528329	0.288088	0.221209	0.376567	0.251940	0.317134	0.621001	0.158948	0.268284	0.286455	0.249495	0.607336	0.286403	0.299783	0.277943	0.756894	0.325755	0.057300	0.193949	0.194989	0.383170	0.140921	0.182122	0.260152	0.430275	0.156903	0.151275	0.343674	0.602675	0.149040	0.281950	0.201589	0.423766	0.210032	0.158537	0.569371	0.469910	0.261335	0.686755	0.338394	0.640755	0.170150	0.280903	0.166530	0.150272	0.229063	0.316016	0.382968	0.439127	0.159357	0.280191	0.117110	0.436620	0.273220	0.160735	0.239294	0.590764	0.315843	0.196228
29	0.607319	1.112847	0.396905	0.976608	0.683207	0.412031	0.213239	0.349932	0.212713	0.516383	0.060192	0.183815	0.314457	0.513305	0.174276	0.181356	0.267779	0.659863	0.101987	0.208241	0.380108	0.537443	0.285585	0.225487	0.501844	0.225215	0.333421	0.643605	0.207444	0.291950	0.298748	0.246381	0.601713	0.285440	0.299182	0.277363	0.894242	0.347896	0.074058	0.162964	0.191148	0.343408	0.156412	0.193152	0.262653	0.426468	0.181319	0.135850	0.327248	0.549419	0.148873	0.280706	0.222890	0.443047	0.215305	0.167622	0.449814	0.483175	0.280516	0.752773	0.304532	0.544554	0.168070	0.301291	0.157692	0.099122	0.253245	0.323051	0.421606	0.419917	0.152033	0.263381	0.140402	0.506460	0.324095	0.206544	0.238958	0.590230	0.323834	0.184521
30	0.626397	1.095557	0.402555	0.984126	0.642317	0.407099	0.237929	0.393004	0.211430	0.472413	0.126926	0.128229	0.308431	0.556406	0.160000	0.172707	0.232021	0.637391	0.211675	0.443423	0.356822	0.515609	0.285299	0.223191	0.527613	0.222017	0.332459	0.639552	0.235922	0.332245	0.354011	0.261224	0.594084	0.274613	0.293729	0.278199	0.959259	0.354687	0.126128	0.151690	0.179910	0.303609	0.196163	0.210665	0.264751	0.412524	0.204971	0.122627	0.312475	0.532989	0.159477	0.280423	0.256558	0.458348	0.217272	0.168096	0.374719	0.440091	0.282841	0.769984	0.296648	0.505711	0.169096	0.316981	0.209763	0.163319	0.273425	0.331263	0.448503	0.404798	0.124391	0.254620	0.139090	0.519150	0.349692	0.220320	0.226897	0.540318	0.324473	0.179885
31	0.625829	0.973983	0.403664	0.985928	0.362465	0.404128	0.254531	0.395513	0.211882	0.383727	0.214701	0.186666	0.344041	0.708161	0.155189	0.172615	0.222958	0.617565	0.289909	0.676776	0.307441	0.454316	0.277893	0.222702	0.526558	0.221131	0.371196	0.659156	0.239376	0.337351	0.359266	0.278535	0.533523	0.247956	0.282487	0.287791	0.997367	0.337444	0.167326	0.156563	0.184989	0.303470	0.217671	0.272595	0.264020	0.380014	0.210809	0.122491	0.241376	0.432607	0.178958	0.266585	0.257865	0.464229	0.194856	0.170887	0.372579	0.430712	0.286125	0.753937	0.254621	0.468525	0.195367	0.324359	0.247893	0.207751	0.294503	0.370461	0.456657	0.373977	0.104427	0.252253	0.140401	0.523315	0.350082	0.222981	0.206134	0.485599	0.312099	0.149359
32	0.612792	0.904580	0.402771	0.972561	0.323036	0.291984	0.254802	0.392132	0.222259	0.319672	0.236676	0.258838	0.347081	0.763016	0.155976	0.167368	0.227961	0.611253	0.331778	0.788765	0.275661	0.356279	0.246912	0.237961	0.521526	0.236687	0.376073	0.661192	0.239330	0.346482	0.359167	0.351449	0.482866	0.269353	0.292898	0.341022	1.019369	0.303798	0.190758	0.193631	0.216974	0.337122	0.213934	0.296113	0.247279	0.366215	0.221847	0.119717	0.172162	0.340351	0.207142	0.225741	0.260485	0.462573	0.165041	0.178655	0.366418	0.424047	0.308678	0.738747	0.195460	0.386719	0.202830	0.358946	0.277126	0.202520	0.307492	0.400340	0.457109	0.371036	0.123173	0.254591	0.139594	0.505142	0.360195	0.238738	0.209665	0.482371	0.311833	0.187364
33	0.526164	0.826171	0.399457	0.959184	0.290857	0.106040	0.286998	0.410391	0.223135	0.269583	0.238099	0.275028	0.353527	0.784721	0.159601	0.168184	0.299065	0.612737	0.351159	0.800542	0.267685	0.348824	0.224897	0.308983	0.517290	0.243879	0.385559	0.715780	0.239181	0.347338	0.369316	0.356341	0.479810	0.258628	0.340742	0.401117	1.007288	0.270443	0.193786	0.205254	0.248504	0.389461	0.208426	0.311002	0.238704	0.346821	0.221793	0.106633	0.161579	0.328152	0.222525	0.224569	0.264835	0.452707	0.149848	0.190777	0.336705	0.401491	0.285936	0.733163	0.180457	0.364757	0.214839	0.398942	0.294517	0.207733	0.279105	0.386347	0.538745	0.369277	0.149195	0.251620	0.142450	0.482100	0.357195	0.244934	0.200280	0.449076	0.307483	0.197118
34	0.413387	0.603114	0.402817	1.025519	0.288131	0.086078	0.314861	0.414379	0.202319	0.233565	0.244001	0.279067	0.356222	0.795957	0.166420	0.174993	0.314995	0.596152	0.430292	0.909614	0.219954	0.299823	0.219289	0.330488	0.572471	0.251656	0.401379	0.722536	0.223312	0.337577	0.400144	0.354015	0.472619	0.232901	0.378553	0.398583	0.986167	0.510694	0.228995	0.218924	0.242023	0.315520	0.210593	0.308773	0.227060	0.257078	0.223275	0.111188	0.160449	0.312135	0.229661	0.250812	0.266676	0.447584	0.143249	0.169647	0.307879	0.316116	0.280596	0.741932	0.200670	0.420707	0.214323	0.430643	0.281342	0.215456	0.253171	0.324387	0.592441	0.356398	0.159283	0.253234	0.163218	0.505385	0.325600	0.254793	0.194906	0.427556	0.301561	0.197128
35	0.386113	0.481859	0.428211	1.064204	0.266205	0.075456	0.312929	0.411921	0.229354	0.272448	0.256377	0.292351	0.355519	0.793995	0.165278	0.184926	0.385123	0.567451	0.460997	0.978105	0.174078	0.286480	0.216987	0.328591	0.634741	0.253336	0.399322	0.702192	0.212835	0.321941	0.422282	0.365245	0.448893	0.217229	0.382073	0.393634	0.976244	0.814305	0.257893	0.276901	0.248974	0.294304	0.276948	0.305658	0.291132	0.217190	0.221726	0.118728	0.159000	0.273255	0.236743	0.251013	0.269688	0.432573	0.142433	0.159473	0.351490	0.320107	0.280782	0.748491	0.203306	0.448107	0.225638	0.433766	0.272844	0.230381	0.251732	0.334815	0.617854	0.338578	0.158982	0.257664	0.176778	0.506230	0.311257	0.276725	0.186791	0.353673	0.300535	0.240997
36	0.391746	0.471308	0.389006	0.971459	0.245059	0.093254	0.277762	0.310883	0.211541	0.246231	0.260574	0.320164	0.341016	0.763403	0.147722	0.193226	0.458517	0.591701	0.468956	1.005100	0.169053	0.282962	0.197802	0.342785	0.677272	0.252958	0.378684	0.633769	0.212426	0.312352	0.438236	0.384921	0.321428	0.199821	0.359420	0.393649	0.911195	0.863632	0.259522	0.280266	0.255142	0.328116	0.335938	0.320852	0.345695	0.248772	0.224525	0.143636	0.137240	0.230583	0.269924	0.239370	0.264605	0.370629	0.140085	0.157705	0.373420	0.321611	0.284895	0.725771	0.205849	0.448949	0.264752	0.503883	0.270849	0.229738	0.265013	0.339305	0.617942	0.351029	0.205903	0.284496	0.186786	0.507793	0.304676	0.263490	0.168589	0.230581	0.301488	0.264839
37	0.363207	0.507217	0.322920	0.834089	0.159457	0.150993	0.276453	0.250245	0.211043	0.252133	0.269672	0.360688	0.325638	0.711137	0.130300	0.176974	0.452909	0.561856	0.469276	1.014760	0.163219	0.257614	0.177360	0.346613	0.592892	0.217415	0.333429	0.531716	0.235666	0.279690	0.419280	0.382942	0.204047	0.194758	0.355699	0.404071	0.935206	1.111445	0.271190	0.283329	0.282183	0.358420	0.357632	0.392804	0.340792	0.246412	0.225358	0.151884	0.112269	0.136227	0.310561	0.221934	0.247454	0.322588	0.153573	0.160875	0.372952	0.337808	0.268452	0.657654	0.213047	0.453343	0.303256	0.567589	0.256805	0.223321	0.382681	0.494442	0.613403	0.329555	0.254567	0.302363	0.186016	0.470823	0.309137	0.257043	0.163042	0.176664	0.302681	0.302986
38	0.304500	0.455763	0.302275	0.805264	0.172905	0.170738	0.305134	0.291252	0.219764	0.248898	0.281223	0.412836	0.334881	0.710379	0.118229	0.137290	0.468415	0.492681	0.444536	0.977369	0.169920	0.186101	0.181261	0.404028	0.503875	0.196973	0.334916	0.541141	0.263721	0.414773	0.395824	0.442888	0.190979	0.193962	0.387187	0.448168	0.933409	1.146418	0.281649	0.328021	0.300828	0.359351	0.362918	0.456021	0.338181	0.242066	0.223926	0.276571	0.134016	0.133256	0.325771	0.219048	0.247800	0.306669	0.256911	0.162989	0.358123	0.422717	0.266901	0.590104	0.208649	0.450055	0.334462	0.599719	0.207936	0.173321	0.444012	0.499693	0.610066	0.258649	0.293765	0.340451	0.194445	0.368897	0.270339	0.261978	0.179767	0.172171	0.312733	0.317272
39	0.269726	0.407455	0.324230	0.815811	0.189708	0.168476	0.314097	0.290497	0.247750	0.280414	0.259486	0.486542	0.365992	0.724322	0.112621	0.135588	0.471034	0.500402	0.398002	0.836089	0.168627	0.171034	0.188406	0.487866	0.503460	0.199713	0.334389	0.566335	0.293919	0.463568	0.345156	0.446258	0.222341	0.181492	0.428945	0.516691	0.808125	1.143385	0.287837	0.366346	0.318815	0.361801	0.356044	0.534953	0.350894	0.243496	0.225007	0.310690	0.152117	0.134599	0.323369	0.230814	0.244478	0.274087	0.361375	0.185521	0.381395	0.499822	0.278892	0.579094	0.214282	0.449543	0.345062	0.593107	0.284931	0.207427	0.429229	0.476596	0.609432	0.229996	0.316976	0.436973	0.186739	0.257983	0.225057	0.286526	0.188335	0.155978	0.339840	0.325149
40	0.282319	0.403440	0.349566	0.839487	0.191430	0.173857	0.352657	0.313858	0.288742	0.344242	0.195759	0.471478	0.369169	0.729163	0.112140	0.142922	0.473036	0.553030	0.349283	0.696031	0.166714	0.156589	0.184028	0.514834	0.507276	0.208071	0.272880	0.523970	0.304124	0.517507	0.352650	0.445326	0.271135	0.171837	0.453529	0.568618	0.675476	1.144615	0.278375	0.420949	0.328374	0.361539	0.350893	0.531270	0.357537	0.244827	0.292675	0.369898	0.148423	0.124641	0.317116	0.245805	0.221874	0.241248	0.397529	0.252098	0.405238	0.514104	0.283081	0.591640	0.207472	0.448619	0.346012	0.586654	0.357508	0.235810	0.494500	0.536105	0.594955	0.227546	0.318950	0.466077	0.200886	0.241536	0.197016	0.316667	0.187096	0.156187	0.379003	0.327323
41	0.318644	0.428887	0.372079	0.846934	0.288457	0.256272	0.432854	0.371626	0.312753	0.346193	0.174726	0.450943	0.380498	0.707876	0.112148	0.139498	0.456208	0.561480	0.342326	0.678839	0.166365	0.135030	0.182561	0.532286	0.515263	0.187428	0.273428	0.443972	0.312994	0.533542	0.366970	0.414584	0.323261	0.200427	0.458447	0.575146	0.600645	1.145227	0.263513	0.436894	0.328368	0.355871	0.371725	0.548495	0.459191	0.258239	0.331282	0.436574	0.177031	0.119183	0.298741	0.243591	0.216409	0.205177	0.397819	0.298716	0.437912	0.557393	0.242464	0.580039	0.189636	0.430439	0.345860	0.585625	0.413081	0.235456	0.580441	0.646534	0.567955	0.223770	0.317381	0.465548	0.211593	0.246785	0.198852	0.314116	0.188994	0.193122	0.401184	0.328022
42	0.378795	0.519093	0.353854	0.667225	0.325862	0.292672	0.442364	0.369240	0.295244	0.343345	0.184356	0.478080	0.379482	0.682794	0.114337	0.139987	0.470099	0.558433	0.249133	0.575633	0.197315	0.123367	0.184229	0.536488	0.506246	0.174483	0.317100	0.331485	0.335607	0.553859	0.408200	0.444477	0.374887	0.313922	0.473213	0.579517	0.534611	1.145378	0.259387	0.446469	0.323683	0.327045	0.385317	0.577330	0.550467	0.262005	0.327518	0.464590	0.190271	0.118421	0.269434	0.251522	0.212884	0.192466	0.406865	0.306595	0.447063	0.572588	0.214364	0.497261	0.188421	0.329638	0.365624	0.592676	0.493410	0.221268	0.611109	0.666655	0.538890	0.220191	0.335515	0.482902	0.209278	0.250816	0.182481	0.363290	0.226998	0.249181	0.395225	0.330378
43	0.564493	0.641477	0.325003	0.534282	0.379938	0.509628	0.447038	0.365945	0.294424	0.369618	0.209044	0.543662	0.360743	0.657663	0.139075	0.157860	0.456327	0.480872	0.356580	0.422993	0.210216	0.123011	0.188529	0.542529	0.434264	0.166495	0.319066	0.318668	0.369843	0.566476	0.438347	0.448065	0.386994	0.371668	0.497653	0.623738	0.513094	1.145993	0.247162	0.443255	0.304006	0.258340	0.391380	0.615451	0.607898	0.244698	0.324716	0.500020	0.232129	0.120419	0.261073	0.225091	0.213353	0.178328	0.474208	0.340345	0.492440	0.781662	0.230800	0.411247	0.220717	0.312452	0.401546	0.585265	0.551910	0.217411	0.614060	0.671189	0.498431	0.218292	0.357732	0.528264	0.211734	0.213289	0.174014	0.482331	0.261981	0.276868	0.369590	0.330873
44	0.586315	0.729846	0.295350	0.435747	0.379892	0.510904	0.460948	0.362942	0.303422	0.408805	0.207860	0.552907	0.286892	0.496116	0.190577	0.333032	0.618531	0.358409	0.544611	0.381368	0.220792	0.133862	0.192953	0.538298	0.366223	0.166283	0.311708	0.366178	0.377263	0.567302	0.426066	0.521615	0.397062	0.372053	0.516912	0.699304	0.512093	1.137467	0.242292	0.441580	0.351814	0.288626	0.387332	0.672475	0.697562	0.221538	0.326000	0.510703	0.241858	0.107219	0.274385	0.226887	0.240740	0.180217	0.534459	0.415355	0.474955	0.803986	0.255002	0.411848	0.237675	0.290856	0.408823	0.553507	0.554069	0.214972	0.554770	0.590414	0.461575	0.217798	0.373385	0.545824	0.231042	0.151239	0.171671	0.493945	0.258173	0.281194	0.352444	0.320874
45	0.587819	1.000101	0.318315	0.426833	0.375617	0.503660	0.451843	0.321388	0.297201	0.393688	0.221324	0.552346	0.289931	0.414141	0.224894	0.484017	0.763947	0.352917	0.615743	0.353123	0.215103	0.147992	0.204179	0.557318	0.284693	0.158975	0.293912	0.423842	0.378946	0.566857	0.406514	0.545517	0.445837	0.498074	0.495858	0.695958	0.489148	1.006727	0.201188	0.425054	0.391403	0.302105	0.337458	0.674023	0.763469	0.220811	0.325833	0.508776	0.245757	0.099188	0.301135	0.226394	0.275268	0.200761	0.557518	0.429998	0.447845	0.801661	0.262050	0.411983	0.207673	0.150066	0.404520	0.540627	0.577013	0.199140	0.533308	0.537241	0.454212	0.214339	0.376445	0.549125	0.235101	0.130325	0.171222	0.490108	0.255117	0.282433	0.353621	0.324887
46	0.628811	1.016009	0.407690	0.446650	0.368887	0.503917	0.448649	0.322168	0.302077	0.424798	0.302477	0.551732	0.318774	0.377960	0.239527	0.542655	0.838394	0.335225	0.621356	0.370049	0.217791	0.152731	0.231640	0.647721	0.262824	0.159683	0.275561	0.422786	0.356849	0.550440	0.452771	0.559907	0.458885	0.517220	0.475462	0.708572	0.420814	0.815336	0.182408	0.401141	0.397190	0.247452	0.283883	0.662279	0.744423	0.201479	0.329748	0.509983	0.248863	0.104739	0.264041	0.236661	0.289371	0.210053	0.564188	0.428613	0.463044	0.817821	0.257693	0.419438	0.207188	0.122337	0.381528	0.478351	0.638539	0.193558	0.557380	0.516568	0.355044	0.213906	0.372895	0.549832	0.248618	0.128358	0.164399	0.488742	0.252099	0.282903	0.353157	0.350067
47	0.755823	1.016931	0.571935	0.461835	0.369687	0.500980	0.420560	0.295596	0.400308	0.500090	0.380686	0.541448	0.333351	0.386716	0.244766	0.561390	0.855784	0.328419	0.684140	0.368102	0.224132	0.152018	0.234701	0.659133	0.272251	0.155354	0.289248	0.424549	0.299586	0.424584	0.487284	0.596790	0.469953	0.523286	0.474100	0.717354	0.411272	0.729835	0.189714	0.421805	0.408716	0.261296	0.275370	0.632639	0.748315	0.152362	0.334483	0.504343	0.248486	0.103540	0.273163	0.260736	0.292065	0.215648	0.565966	0.428670	0.473190	0.799198	0.237616	0.379043	0.219784	0.107159	0.373187	0.364137	0.605795	0.245901	0.534188	0.508345	0.238338	0.210768	0.371873	0.559373	0.253570	0.131081	0.151214	0.513798	0.245205	0.288608	0.351901	0.369285
48	0.823349	1.012316	0.627162	0.433419	0.314906	0.475370	0.308161	0.173546	0.617592	0.868816	0.424093	0.495620	0.359385	0.398400	0.241800	0.563450	0.894603	0.264848	0.742738	0.378545	0.232832	0.149166	0.217364	0.648715	0.246753	0.144593	0.346082	0.477432	0.286800	0.350882	0.497538	0.628080	0.465336	0.525328	0.501082	0.733470	0.311956	0.266923	0.211593	0.438228	0.453631	0.288339	0.305949	0.619017	0.835752	0.155687	0.340644	0.496798	0.253622	0.092190	0.310826	0.258483	0.287904	0.215315	0.566861	0.423892	0.446001	0.730907	0.218505	0.365200	0.298076	0.103173	0.353773	0.311143	0.611127	0.450188	0.441335	0.341496	0.180305	0.211912	0.371623	0.569597	0.248651	0.131824	0.166143	0.531404	0.233947	0.294674	0.358042	0.367213
49	0.910798	0.996525	0.620417	0.463285	0.258199	0.448325	0.271398	0.223145	0.635076	0.952240	0.427575	0.491738	0.364690	0.400364	0.257489	0.588545	0.939123	0.279142	0.784931	0.386966	0.234668	0.148269	0.199687	0.621124	0.263016	0.108121	0.378534	0.562806	0.299060	0.276457	0.490357	0.626910	0.481699	0.554948	0.524902	0.769827	0.308154	0.205548	0.217123	0.428408	0.444109	0.295590	0.326806	0.570352	0.861859	0.164563	0.345512	0.440174	0.280124	0.091096	0.330186	0.252801	0.287302	0.213536	0.562386	0.424156	0.407202	0.700925	0.218344	0.351418	0.319305	0.103934	0.334631	0.321124	0.577452	0.524996	0.403474	0.240267	0.188161	0.189897	0.349386	0.558312	0.240304	0.126836	0.162518	0.502402	0.256093	0.283576	0.359412	0.333809
50	0.914204	0.953422	0.681935	0.473362	0.171481	0.196443	0.267432	0.236307	0.622096	0.970863	0.456776	0.483003	0.383975	0.402167	0.284877	0.629002	0.980830	0.380250	0.802990	0.388909	0.235789	0.150124	0.189154	0.554922	0.284141	0.113933	0.375257	0.573424	0.300492	0.255498	0.477333	0.626450	0.568949	0.714887	0.517179	0.772744	0.314888	0.181779	0.215252	0.400486	0.450244	0.298663	0.328898	0.602227	0.882683	0.167656	0.329832	0.444091	0.325150	0.099396	0.338682	0.250050	0.285271	0.212389	0.524873	0.430827	0.381039	0.679031	0.220381	0.398759	0.316079	0.100087	0.332464	0.320596	0.529170	0.559668	0.393759	0.222916	0.192396	0.166711	0.313446	0.548781	0.225462	0.109549	0.170608	0.494266	0.297210	0.273358	0.342476	0.342988
51	0.877002	0.902356	0.802736	0.482761	0.177443	0.123618	0.247603	0.257982	0.626531	0.985504	0.489686	0.450283	0.412068	0.398523	0.290669	0.641060	1.002721	0.405680	0.769473	0.356410	0.236736	0.144074	0.194356	0.518355	0.306491	0.120483	0.448579	0.603168	0.276451	0.219670	0.413099	0.656321	0.605455	0.826026	0.500478	0.735159	0.316267	0.148734	0.215596	0.349508	0.446984	0.295514	0.300433	0.593501	0.885409	0.163663	0.253976	0.396317	0.322705	0.110586	0.338968	0.234951	0.286633	0.241258	0.457244	0.424564	0.365747	0.657991	0.249163	0.518103	0.317726	0.091700	0.335025	0.322518	0.520894	0.570176	0.394067	0.153076	0.196207	0.141443	0.276922	0.522821	0.217873	0.082751	0.192919	0.507789	0.331313	0.269965	0.306386	0.341505
52	0.806583	0.840696	0.857979	0.483806	0.176304	0.111206	0.234628	0.324897	0.659647	1.069005	0.494612	0.374136	0.401715	0.374308	0.292223	0.643365	0.897683	0.408194	0.643637	0.303024	0.234477	0.134953	0.216957	0.501901	0.321916	0.118209	0.526122	0.628277	0.228641	0.192512	0.352409	0.658478	0.590337	0.846506	0.489578	0.708547	0.314801	0.142213	0.198774	0.339875	0.437108	0.285936	0.310306	0.555642	0.829996	0.137419	0.217879	0.355310	0.300091	0.112772	0.351862	0.227645	0.295657	0.274835	0.419233	0.389562	0.311004	0.445506	0.272390	0.552821	0.328997	0.090384	0.342830	0.326345	0.517850	0.585916	0.485719	0.191200	0.195515	0.144799	0.246895	0.439018	0.221174	0.071541	0.209809	0.447809	0.340037	0.265786	0.278369	0.344324
53	0.817771	0.663623	0.858594	0.485514	0.166472	0.112309	0.229493	0.328283	0.680374	1.081048	0.500899	0.353729	0.409060	0.357086	0.300644	0.671129	0.745625	0.416310	0.546280	0.280071	0.209360	0.136419	0.238429	0.495170	0.358969	0.121123	0.534939	0.602405	0.219020	0.191929	0.340517	0.588219	0.583505	0.898499	0.488367	0.708318	0.285643	0.140060	0.184616	0.329278	0.442517	0.278287	0.329128	0.535068	0.782202	0.124200	0.201800	0.313873	0.291167	0.108376	0.412906	0.273346	0.295873	0.277939	0.414959	0.348518	0.293485	0.331812	0.308617	0.668852	0.339945	0.090215	0.317733	0.301695	0.433412	0.587491	0.514748	0.224351	0.199110	0.136770	0.242546	0.397583	0.223378	0.080898	0.240296	0.335716	0.335598	0.223649	0.311722	0.362952
54	0.824258	0.276277	0.851381	0.501802	0.160528	0.110631	0.214126	0.327889	0.679670	1.077854	0.501792	0.341417	0.398294	0.354981	0.318990	0.718113	0.640390	0.422544	0.538685	0.223795	0.185059	0.136578	0.243877	0.490816	0.406849	0.141947	0.592236	0.572329	0.212841	0.192369	0.323583	0.574986	0.556312	0.895562	0.468214	0.702569	0.228697	0.127339	0.188876	0.344653	0.388214	0.229501	0.350754	0.536931	0.725004	0.114844	0.198386	0.263103	0.300533	0.106342	0.483444	0.326639	0.267034	0.284803	0.406785	0.340208	0.302991	0.327597	0.316787	0.725264	0.333529	0.110557	0.287417	0.313319	0.329283	0.576079	0.516391	0.321675	0.230627	0.145715	0.241727	0.397233	0.222162	0.116650	0.255261	0.326040	0.312026	0.173091	0.331107	0.367439
55	0.727282	0.177125	0.809211	0.439211	0.163014	0.097211	0.213561	0.330099	0.685499	1.066683	0.462258	0.289390	0.398799	0.352733	0.340953	0.744129	0.587187	0.422705	0.482998	0.234787	0.178261	0.124494	0.245905	0.463634	0.414818	0.138248	0.735150	0.616768	0.211171	0.195105	0.227371	0.534754	0.555932	0.900187	0.434042	0.636219	0.205297	0.118724	0.198061	0.376154	0.347857	0.218324	0.367948	0.585435	0.629684	0.103437	0.197457	0.250465	0.307125	0.100359	0.499001	0.327097	0.259956	0.317705	0.333029	0.315843	0.317351	0.322082	0.425482	0.714238	0.329295	0.315047	0.287546	0.317859	0.346861	0.447223	0.581568	0.370688	0.243521	0.160625	0.218752	0.379952	0.227142	0.160200	0.266629	0.329923	0.301657	0.175599	0.326215	0.373145
56	0.633628	0.169348	0.702771	0.440578	0.168791	0.080689	0.215413	0.291290	0.640897	1.050831	0.406889	0.253779	0.409288	0.353043	0.344074	0.750008	0.538202	0.405766	0.368463	0.277936	0.162460	0.103268	0.239939	0.422740	0.472719	0.137476	0.817935	0.683346	0.202577	0.191663	0.138507	0.459390	0.551924	0.901000	0.400798	0.521724	0.175523	0.105463	0.196559	0.385328	0.337985	0.205134	0.371259	0.583774	0.562535	0.100342	0.192526	0.251148	0.311429	0.084807	0.490760	0.297255	0.237471	0.323116	0.215950	0.224969	0.301726	0.342320	0.529966	0.730970	0.350024	0.420016	0.299797	0.327300	0.331850	0.381336	0.645779	0.446067	0.245833	0.163751	0.186567	0.300253	0.206461	0.171842	0.338661	0.326259	0.306499	0.214712	0.313704	0.387739
57	0.521887	0.169941	0.667934	0.436255	0.176166	0.076841	0.239558	0.275398	0.417316	0.777457	0.378829	0.220608	0.416261	0.329377	0.320641	0.697956	0.455075	0.377076	0.253304	0.290808	0.143781	0.086621	0.216190	0.267649	0.517203	0.149641	0.801498	0.646976	0.172189	0.201646	0.113529	0.410244	0.522806	0.850047	0.471251	0.499516	0.129247	0.088019	0.195742	0.372711	0.284633	0.152155	0.365176	0.557219	0.544156	0.094994	0.183966	0.247796	0.305320	0.082188	0.494920	0.403366	0.194773	0.311874	0.137242	0.203634	0.350782	0.453817	0.585366	0.744012	0.351592	0.437674	0.314589	0.336631	0.361416	0.282614	0.646743	0.476981	0.243580	0.172362	0.186603	0.248742	0.205907	0.218139	0.508061	0.358748	0.374100	0.224449	0.317447	0.380964
58	0.353254	0.176599	0.662113	0.435496	0.165664	0.067134	0.260925	0.275446	0.359339	0.630771	0.383567	0.223767	0.400194	0.283466	0.297151	0.603402	0.309905	0.283892	0.154398	0.307054	0.130779	0.111252	0.194312	0.170699	0.513093	0.156135	0.802869	0.659154	0.127195	0.168828	0.218129	0.489501	0.524782	0.847456	0.543604	0.484611	0.102619	0.080610	0.173810	0.349166	0.206913	0.097401	0.366255	0.547795	0.499815	0.092669	0.182769	0.251060	0.341307	0.086221	0.582212	0.527064	0.186918	0.304642	0.101475	0.210119	0.386429	0.468773	0.591005	0.744529	0.361381	0.577278	0.299418	0.332122	0.349075	0.284521	0.658376	0.482093	0.281269	0.178805	0.200110	0.262008	0.214829	0.234046	0.603616	0.440744	0.501392	0.236500	0.385008	0.324438
59	0.339777	0.173345	0.589424	0.544860	0.152599	0.072511	0.286171	0.203577	0.377273	0.592561	0.346348	0.248923	0.371669	0.265765	0.289892	0.549716	0.121065	0.204502	0.128179	0.308992	0.109163	0.130970	0.188025	0.158770	0.499418	0.148856	0.858970	0.727217	0.166463	0.185652	0.297365	0.482854	0.523798	0.845043	0.565645	0.495934	0.100967	0.085157	0.132343	0.315447	0.174497	0.066341	0.406898	0.593135	0.334023	0.077056	0.194335	0.270821	0.386730	0.088779	0.669996	0.550262	0.192523	0.298863	0.088959	0.210896	0.398630	0.469414	0.590819	0.729682	0.314725	0.600425	0.293721	0.285065	0.364751	0.260385	0.626214	0.487287	0.363756	0.182204	0.217032	0.289346	0.222109	0.252045	0.620100	0.459858	0.553902	0.235269	0.468652	0.292164
60	0.295327	0.159677	0.410789	0.557278	0.102224	0.068632	0.287906	0.188650	0.377267	0.573508	0.294698	0.261971	0.357227	0.209193	0.291395	0.530684	0.120897	0.190969	0.120173	0.337729	0.092401	0.133621	0.188772	0.174661	0.521023	0.146213	0.846643	0.708539	0.206536	0.202275	0.438322	0.413310	0.522523	0.844694	0.538130	0.504871	0.106153	0.083498	0.120672	0.299304	0.135557	0.056218	0.416349	0.551372	0.294141	0.056340	0.204414	0.260363	0.394979	0.076031	0.691437	0.546176	0.192669	0.307087	0.084477	0.233633	0.405815	0.490715	0.591564	0.653382	0.310320	0.600460	0.297573	0.272540	0.368580	0.230779	0.552690	0.496761	0.416998	0.233552	0.233097	0.326258	0.236058	0.263801	0.624075	0.581511	0.568380	0.231498	0.500564	0.292161
61	0.222681	0.143446	0.352247	0.601385	0.099500	0.068714	0.329111	0.197701	0.318889	0.383385	0.286076	0.278575	0.337230	0.164379	0.297589	0.524711	0.238426	0.189675	0.187085	0.369158	0.100026	0.178648	0.188613	0.190655	0.534268	0.152254	0.808427	0.696850	0.255588	0.211110	0.471778	0.413483	0.498023	0.808660	0.499753	0.430018	0.079199	0.110105	0.123177	0.341265	0.144501	0.063176	0.423969	0.518911	0.237908	0.091227	0.204092	0.236023	0.394667	0.064114	0.692544	0.545260	0.197779	0.318962	0.089669	0.233583	0.409709	0.507703	0.610883	0.636899	0.309132	0.601106	0.301903	0.281282	0.384415	0.230164	0.579883	0.500840	0.437762	0.252532	0.242090	0.334159	0.255036	0.268377	0.702376	0.621868	0.548767	0.237514	0.515679	0.279301
62	0.141433	0.137045	0.380452	0.668858	0.095660	0.070994	0.441338	0.240538	0.231018	0.239633	0.267772	0.280762	0.346515	0.168709	0.282201	0.498806	0.281171	0.248888	0.267625	0.368256	0.110727	0.190931	0.185270	0.222787	0.497332	0.146758	0.811185	0.714670	0.256306	0.210502	0.485008	0.408680	0.393145	0.653505	0.489379	0.365861	0.076868	0.192925	0.130370	0.396090	0.165687	0.071806	0.409066	0.518951	0.240469	0.260364	0.188115	0.217118	0.388597	0.065577	0.672611	0.529674	0.198671	0.319602	0.081862	0.217871	0.446897	0.536935	0.614486	0.515477	0.303137	0.602881	0.294608	0.274209	0.369157	0.227263	0.566589	0.432952	0.444670	0.252535	0.242912	0.332860	0.252658	0.270019	0.807701	0.630429	0.526693	0.238636	0.515835	0.275343
63	0.096843	0.142166	0.376134	0.684133	0.101719	0.067496	0.462252	0.253612	0.222344	0.243808	0.273669	0.283987	0.355475	0.174466	0.250434	0.444943	0.310215	0.274128	0.391337	0.429519	0.112553	0.190699	0.166980	0.222295	0.465645	0.127326	0.767073	0.724564	0.263633	0.209653	0.536107	0.391678	0.338573	0.538716	0.520361	0.366490	0.079822	0.215785	0.163178	0.461500	0.153670	0.070961	0.447383	0.546135	0.279395	0.373899	0.181417	0.193536	0.381576	0.067146	0.645495	0.545863	0.210179	0.319386	0.067087	0.215485	0.463696	0.544025	0.645941	0.490395	0.281814	0.603023	0.261684	0.240015	0.359438	0.226749	0.477890	0.433696	0.443944	0.252489	0.246917	0.335271	0.260319	0.276475	0.848380	0.633159	0.513047	0.237189	0.521252	0.273692
64	0.103724	0.155305	0.385022	0.681938	0.090252	0.088547	0.451964	0.253903	0.229494	0.268831	0.264816	0.301849	0.360607	0.157149	0.246875	0.421905	0.357529	0.294057	0.424244	0.410764	0.114114	0.194240	0.129886	0.230516	0.465335	0.126854	0.667294	0.675989	0.317604	0.217125	0.631713	0.392754	0.350203	0.520546	0.532893	0.378529	0.139206	0.227622	0.175265	0.514348	0.236443	0.227686	0.487503	0.554771	0.290007	0.380881	0.180623	0.189795	0.374042	0.082978	0.657792	0.586154	0.197683	0.288116	0.059609	0.217825	0.477770	0.539848	0.637607	0.490544	0.251626	0.604468	0.248351	0.203748	0.298148	0.170954	0.525304	0.423552	0.453373	0.280740	0.251317	0.335816	0.245625	0.271471	0.852228	0.632565	0.511445	0.232259	0.550450	0.272695
65	0.132008	0.162336	0.390045	0.680195	0.092932	0.103221	0.437734	0.248917	0.281795	0.275262	0.267433	0.347017	0.348576	0.147283	0.250442	0.418943	0.393803	0.299953	0.484145	0.392863	0.114288	0.206545	0.124660	0.259731	0.399446	0.134323	0.603374	0.596534	0.362986	0.264063	0.696882	0.464359	0.322112	0.380442	0.546985	0.376920	0.217662	0.376843	0.169660	0.508059	0.389068	0.523068	0.509181	0.526425	0.289916	0.381126	0.197565	0.197278	0.385846	0.110018	0.729668	0.630988	0.186377	0.282097	0.075193	0.219034	0.468095	0.495916	0.553246	0.497018	0.261429	0.572982	0.251738	0.199144	0.321632	0.128661	0.520547	0.420337	0.462235	0.300688	0.254560	0.335189	0.251741	0.264853	0.848919	0.630556	0.512378	0.234318	0.571264	0.269890
66	0.210117	0.150266	0.387656	0.661981	0.102614	0.098849	0.389875	0.218661	0.282168	0.260056	0.302050	0.373744	0.341013	0.202533	0.249454	0.377124	0.469860	0.307264	0.607695	0.380565	0.134099	0.241652	0.143379	0.266222	0.370873	0.144083	0.603757	0.599606	0.427034	0.414579	0.717851	0.490998	0.360386	0.333670	0.563828	0.380330	0.226275	0.425038	0.161495	0.489559	0.470015	0.649565	0.514678	0.528171	0.293779	0.403956	0.242903	0.226181	0.425002	0.140621	0.770670	0.615506	0.180165	0.262691	0.172033	0.219340	0.420817	0.381742	0.487988	0.468850	0.363114	0.464044	0.250902	0.180190	0.330803	0.131813	0.540609	0.398101	0.457944	0.420697	0.259075	0.334504	0.251342	0.258992	0.810379	0.652123	0.508269	0.232061	0.580451	0.270154
67	0.210415	0.143302	0.437215	0.592730	0.103698	0.090942	0.401310	0.240298	0.271127	0.260966	0.295491	0.407223	0.421288	0.218429	0.237938	0.287794	0.605016	0.372438	0.676104	0.388873	0.151530	0.289946	0.145531	0.260222	0.389751	0.158911	0.610209	0.523035	0.444849	0.470313	0.693643	0.396672	0.372352	0.270972	0.571581	0.385080	0.229206	0.445434	0.167565	0.504145	0.475694	0.715590	0.507534	0.534119	0.350697	0.525586	0.284803	0.249004	0.452044	0.150643	0.731033	0.505176	0.182766	0.215465	0.233227	0.218460	0.379607	0.342921	0.469891	0.462837	0.466366	0.442093	0.218733	0.146850	0.326510	0.141024	0.528600	0.393219	0.446143	0.427924	0.262898	0.337912	0.266693	0.233719	0.718145	0.590594	0.509365	0.200949	0.579331	0.222367
68	0.231702	0.155550	0.445141	0.484463	0.108449	0.091121	0.408548	0.249730	0.235547	0.255366	0.298977	0.403052	0.577893	0.224572	0.206078	0.221339	0.702151	0.453745	0.684446	0.408888	0.175299	0.294318	0.151400	0.274062	0.386986	0.174375	0.648347	0.601835	0.450351	0.571655	0.679489	0.409101	0.373805	0.222934	0.558890	0.393705	0.235445	0.447844	0.172410	0.526764	0.483036	0.793433	0.481680	0.523054	0.361956	0.541146	0.294994	0.254300	0.399309	0.148657	0.629464	0.438357	0.185421	0.195442	0.248801	0.201476	0.365448	0.343516	0.471355	0.497371	0.474560	0.330375	0.157756	0.117562	0.326145	0.174381	0.469349	0.346239	0.441459	0.422790	0.281346	0.338095	0.299059	0.250297	0.669712	0.573072	0.492276	0.164307	0.568368	0.213693
69	0.241816	0.177705	0.443843	0.488830	0.119693	0.092013	0.304205	0.216029	0.237340	0.256600	0.318379	0.404307	0.644534	0.227545	0.186275	0.193717	0.695591	0.489348	0.673002	0.393274	0.210775	0.301204	0.155834	0.281468	0.437081	0.244580	0.660368	0.694805	0.429419	0.569752	0.646194	0.408189	0.369579	0.201665	0.511414	0.382573	0.255387	0.461507	0.169680	0.539853	0.486375	0.810612	0.452348	0.519109	0.373278	0.541070	0.286128	0.236233	0.349628	0.148009	0.590374	0.524419	0.197162	0.185777	0.249913	0.194916	0.359750	0.317586	0.466368	0.493957	0.454767	0.150308	0.149631	0.115656	0.297902	0.182405	0.457151	0.317087	0.442880	0.421559	0.294283	0.339022	0.296680	0.233398	0.694800	0.718670	0.393032	0.150037	0.545829	0.208121
70	0.250042	0.188262	0.436765	0.413622	0.105048	0.092981	0.251351	0.189572	0.248839	0.265528	0.450440	0.386011	0.687898	0.233472	0.185372	0.191878	0.684627	0.463264	0.646446	0.391965	0.218064	0.296219	0.157773	0.294674	0.435878	0.256730	0.659119	0.695753	0.410963	0.567967	0.661538	0.413678	0.376366	0.188981	0.552095	0.467073	0.295398	0.524105	0.163928	0.539723	0.500523	0.830817	0.468646	0.556516	0.379264	0.540690	0.287191	0.212791	0.364476	0.159059	0.624084	0.592338	0.195788	0.182898	0.251930	0.224615	0.343566	0.264309	0.433773	0.493961	0.467891	0.139557	0.155395	0.114278	0.309498	0.181840	0.418364	0.308516	0.443748	0.418495	0.285579	0.340429	0.282152	0.225181	0.726232	0.636082	0.255329	0.125422	0.473347	0.207640
71	0.365565	0.193203	0.431979	0.331561	0.100603	0.076815	0.252473	0.188571	0.249654	0.272676	0.585001	0.407404	0.692565	0.233776	0.184197	0.182919	0.674040	0.455774	0.588711	0.357336	0.216957	0.299885	0.166602	0.292133	0.431402	0.258130	0.656940	0.731203	0.429021	0.570133	0.653904	0.451976	0.397711	0.185934	0.605577	0.481210	0.359342	0.625471	0.158083	0.533532	0.503409	0.839197	0.493796	0.598869	0.381087	0.549564	0.316019	0.221734	0.377763	0.166437	0.658261	0.591346	0.195228	0.185881	0.255569	0.232112	0.298776	0.178649	0.387271	0.553582	0.552536	0.139641	0.144354	0.099650	0.315170	0.172857	0.335897	0.223023	0.424446	0.417115	0.279774	0.325186	0.275138	0.223190	0.659114	0.616840	0.212595	0.109528	0.415032	0.203256
72	0.463298	0.190783	0.409297	0.348954	0.105157	0.105522	0.251988	0.171362	0.248358	0.279209	0.630962	0.447595	0.690899	0.234359	0.175407	0.169396	0.656648	0.444919	0.546272	0.316038	0.210626	0.279299	0.169461	0.283091	0.419330	0.278860	0.676078	0.774785	0.431981	0.571387	0.623546	0.457072	0.418489	0.187401	0.637831	0.449674	0.380115	0.661222	0.166913	0.499006	0.527190	0.850032	0.528087	0.619145	0.384389	0.550510	0.352691	0.237384	0.385515	0.170884	0.688200	0.584957	0.196579	0.175729	0.269244	0.222581	0.242811	0.129076	0.368479	0.472931	0.607403	0.141123	0.125286	0.067482	0.277624	0.151028	0.269666	0.195749	0.353926	0.416112	0.267616	0.311327	0.279470	0.219229	0.521227	0.633674	0.203737	0.096514	0.383737	0.203591
73	0.497595	0.182575	0.388064	0.389463	0.115640	0.240648	0.262862	0.182465	0.218536	0.272679	0.644098	0.436007	0.688353	0.233980	0.156216	0.156368	0.641441	0.513890	0.531712	0.322125	0.203980	0.261541	0.178954	0.280644	0.429514	0.285895	0.647534	0.790507	0.392214	0.567301	0.543285	0.440205	0.419773	0.189082	0.644148	0.537624	0.383688	0.650042	0.200666	0.465360	0.555963	0.852425	0.495841	0.557753	0.359624	0.483998	0.364657	0.242449	0.419805	0.184853	0.688285	0.575251	0.215443	0.161320	0.279960	0.210864	0.195650	0.118536	0.358874	0.476601	0.649826	0.142888	0.118674	0.076278	0.231555	0.141154	0.253887	0.217565	0.288632	0.393292	0.248961	0.260529	0.259265	0.203140	0.491165	0.653794	0.200479	0.076172	0.378380	0.211495
74	0.500796	0.223894	0.385995	0.403139	0.118360	0.307279	0.243429	0.158179	0.143854	0.247290	0.728467	0.409501	0.684738	0.226768	0.140467	0.153468	0.623360	0.552955	0.427241	0.404770	0.203654	0.260100	0.185712	0.276017	0.435478	0.315144	0.624993	0.782161	0.351899	0.539849	0.469511	0.368542	0.422361	0.189505	0.646702	0.598960	0.379474	0.652239	0.199084	0.387895	0.535273	0.810081	0.443593	0.505269	0.327518	0.429154	0.361496	0.245405	0.446520	0.187365	0.626809	0.537092	0.220477	0.166408	0.287989	0.212615	0.147218	0.107753	0.411846	0.481406	0.663058	0.134100	0.119833	0.086381	0.227597	0.139377	0.172577	0.270833	0.237288	0.372619	0.268769	0.223985	0.293625	0.188452	0.574406	0.653344	0.203635	0.075229	0.377143	0.221378
75	0.565598	0.584172	0.387546	0.507170	0.233621	0.398213	0.198044	0.142686	0.164079	0.241299	0.780674	0.400129	0.677104	0.208828	0.146454	0.161769	0.500702	0.533638	0.352301	0.519335	0.230440	0.266288	0.197537	0.279003	0.409953	0.304009	0.622124	0.761856	0.267000	0.422289	0.436582	0.342938	0.418742	0.174063	0.684720	0.593610	0.393356	0.663274	0.212030	0.378198	0.435990	0.662877	0.452471	0.544132	0.331267	0.430371	0.379851	0.250243	0.425166	0.177257	0.561447	0.568642	0.207964	0.133378	0.300530	0.232604	0.213031	0.110251	0.422200	0.489060	0.663005	0.134401	0.132375	0.088902	0.208541	0.101773	0.218016	0.326451	0.203320	0.369660	0.319397	0.246169	0.375140	0.169473	0.650656	0.650502	0.200683	0.069142	0.328951	0.216997
76	0.619601	0.790815	0.311239	0.537051	0.242837	0.447072	0.239960	0.246987	0.184309	0.237415	0.816112	0.377779	0.664142	0.198555	0.158643	0.173364	0.365666	0.470315	0.356629	0.512968	0.245647	0.265651	0.203408	0.278865	0.400620	0.295319	0.578553	0.759535	0.234594	0.352934	0.433059	0.385665	0.421309	0.171544	0.735677	0.585513	0.411078	0.648644	0.214237	0.422332	0.441550	0.784494	0.526744	0.599698	0.330348	0.440412	0.416308	0.283865	0.370770	0.160140	0.567391	0.678133	0.208605	0.120373	0.311865	0.257159	0.242574	0.154465	0.415725	0.481441	0.632867	0.131458	0.123469	0.104481	0.207003	0.062208	0.234218	0.351734	0.206618	0.363295	0.355364	0.238569	0.406148	0.167132	0.668549	0.628498	0.197989	0.064794	0.212574	0.179660
77	0.630140	0.881288	0.300956	0.538378	0.266794	0.447659	0.280365	0.301767	0.183921	0.235752	0.815725	0.375013	0.645578	0.198512	0.176817	0.176455	0.380775	0.464903	0.368466	0.509072	0.246143	0.258462	0.189382	0.288743	0.382659	0.282564	0.411151	0.614897	0.194185	0.127640	0.392502	0.375038	0.431258	0.189330	0.752135	0.599523	0.431756	0.663495	0.236229	0.417525	0.540466	0.964928	0.584672	0.626658	0.320432	0.395021	0.454579	0.355989	0.351775	0.158010	0.612395	0.710838	0.226077	0.136829	0.312637	0.275923	0.306821	0.303012	0.413018	0.469976	0.554416	0.125463	0.119113	0.128937	0.188598	0.060479	0.254500	0.460211	0.201616	0.341994	0.376718	0.257287	0.394033	0.150874	0.672246	0.627380	0.197381	0.043217	0.128932	0.162963
78	0.651592	0.954895	0.301749	0.539870	0.286878	0.448031	0.275020	0.301488	0.194374	0.245841	0.809904	0.373023	0.649776	0.197981	0.199088	0.178925	0.383901	0.466172	0.372391	0.519999	0.227797	0.179029	0.183773	0.294962	0.265757	0.220834	0.325762	0.535363	0.195201	0.100512	0.310675	0.382661	0.440487	0.221285	0.753711	0.635263	0.435135	0.653940	0.288961	0.413780	0.580021	1.010854	0.587920	0.598641	0.272391	0.248591	0.454970	0.374350	0.386104	0.190931	0.622070	0.691516	0.233777	0.143437	0.278022	0.275407	0.330204	0.356742	0.440734	0.486273	0.494271	0.121491	0.122875	0.133794	0.207774	0.066725	0.256779	0.538717	0.207096	0.327818	0.378486	0.312466	0.417108	0.140876	0.711480	0.575084	0.208799	0.046891	0.116115	0.164793
79	0.704674	0.960664	0.344980	0.605139	0.297745	0.440325	0.285078	0.304355	0.235932	0.250445	0.756006	0.389000	0.657326	0.139299	0.199642	0.184959	0.380087	0.463920	0.373690	0.536046	0.216521	0.189358	0.180554	0.315042	0.227281	0.208301	0.333936	0.523088	0.179387	0.094717	0.233729	0.391219	0.471983	0.328275	0.752116	0.655255	0.445686	0.655136	0.328981	0.393653	0.623573	1.126045	0.569186	0.568360	0.266697	0.237189	0.454005	0.375041	0.403252	0.200478	0.599112	0.624727	0.233735	0.146414	0.245293	0.273869	0.364395	0.580600	0.474091	0.503550	0.489548	0.089273	0.141327	0.141245	0.194463	0.072121	0.318639	0.539899	0.234458	0.135967	0.381797	0.338194	0.467045	0.160789	0.780123	0.395544	0.210442	0.060590	0.124654	0.141048
80	0.651081	1.006266	0.490583	0.765938	0.296420	0.392799	0.299199	0.323212	0.239176	0.245666	0.663497	0.453640	0.622803	0.108202	0.187701	0.174246	0.381146	0.465971	0.387229	0.601070	0.189695	0.219228	0.202655	0.311579	0.224542	0.202454	0.311727	0.417149	0.131696	0.085131	0.224686	0.366370	0.503019	0.433796	0.753439	0.654703	0.436816	0.635823	0.346692	0.380463	0.634958	1.118003	0.548139	0.530045	0.272713	0.238031	0.487187	0.400955	0.395122	0.192262	0.584477	0.694360	0.228651	0.146299	0.245389	0.269565	0.367126	0.621183	0.506902	0.496321	0.498178	0.079224	0.140761	0.138674	0.226341	0.089151	0.337417	0.539820	0.236012	0.084499	0.406004	0.336686	0.488848	0.160373	0.771048	0.441917	0.235057	0.069423	0.124348	0.169794
81	0.653325	1.028781	0.573909	0.846896	0.294130	0.333612	0.302779	0.360627	0.240053	0.250403	0.632283	0.416732	0.487406	0.094735	0.185009	0.150022	0.429492	0.420274	0.422265	0.628985	0.206148	0.244909	0.215708	0.302456	0.233957	0.185706	0.271095	0.315068	0.115812	0.085873	0.220422	0.363762	0.516273	0.466097	0.746947	0.645135	0.399766	0.572834	0.361357	0.375853	0.641905	1.112418	0.534055	0.490322	0.275144	0.237302	0.516137	0.449483	0.443105	0.195868	0.555841	0.760285	0.214125	0.147265	0.249684	0.253530	0.512884	0.636082	0.551996	0.558296	0.445974	0.077616	0.142643	0.144211	0.229532	0.087494	0.338884	0.528815	0.239821	0.140433	0.417529	0.337317	0.487664	0.161861	0.757922	0.431823	0.248790	0.069788	0.121393	0.254630
82	0.659728	1.041551	0.586660	0.835749	0.225333	0.254674	0.302259	0.358176	0.247856	0.255890	0.722598	0.488367	0.379034	0.084201	0.190324	0.141414	0.503645	0.326787	0.451592	0.578522	0.224698	0.248327	0.209009	0.306378	0.201013	0.189975	0.220806	0.283821	0.114383	0.086076	0.246432	0.366639	0.508555	0.531792	0.749713	0.585421	0.348227	0.457427	0.361987	0.377572	0.615096	1.112861	0.497093	0.472961	0.248842	0.203367	0.512348	0.465886	0.460441	0.201938	0.519034	0.746880	0.196828	0.149442	0.248185	0.228073	0.607769	0.636244	0.541764	0.574737	0.342668	0.072002	0.155479	0.175873	0.225361	0.085255	0.328393	0.485398	0.261252	0.179342	0.419271	0.333351	0.523233	0.182500	0.794007	0.388313	0.234215	0.073861	0.120939	0.278893
83	0.663593	1.017313	0.591515	0.813256	0.234219	0.087036	0.252900	0.309493	0.257006	0.247192	0.834592	0.745437	0.274540	0.071578	0.196441	0.140793	0.528591	0.311506	0.426747	0.484282	0.230501	0.262938	0.205586	0.302581	0.191838	0.134271	0.202835	0.274799	0.128611	0.080573	0.281714	0.379994	0.510597	0.611180	0.747287	0.567358	0.336216	0.421901	0.348936	0.371357	0.585012	1.113437	0.484832	0.464312	0.263350	0.189521	0.488599	0.456801	0.431327	0.193157	0.571980	0.834158	0.174753	0.147722	0.246510	0.230077	0.640443	0.636626	0.488744	0.567952	0.245661	0.050109	0.153261	0.190904	0.222846	0.090419	0.279679	0.533789	0.274212	0.182870	0.420728	0.323815	0.566585	0.208280	0.795867	0.407455	0.216596	0.096343	0.118888	0.281598
84	0.598360	0.820023	0.630078	0.796821	0.253466	0.079964	0.187170	0.242862	0.391740	0.335449	0.865967	0.950652	0.246080	0.072892	0.199087	0.144119	0.532794	0.283263	0.390023	0.439290	0.241280	0.264843	0.201458	0.288914	0.183662	0.136381	0.230977	0.241754	0.165417	0.077503	0.283706	0.381636	0.532699	0.649390	0.768885	0.583775	0.332159	0.408578	0.326896	0.360819	0.588500	1.113910	0.478672	0.443570	0.268586	0.185941	0.485848	0.453070	0.457412	0.194798	0.629375	0.934936	0.190000	0.149649	0.238907	0.221523	0.638028	0.636370	0.475226	0.548191	0.157369	0.047413	0.152520	0.189577	0.216010	0.090866	0.238883	0.528168	0.279915	0.179976	0.409831	0.314595	0.556896	0.218629	0.734616	0.411593	0.214367	0.108947	0.109930	0.293851
85	0.624919	0.714827	0.646012	0.786455	0.236349	0.075953	0.205334	0.246146	0.518837	0.429089	0.833306	0.976147	0.245547	0.094308	0.198988	0.155827	0.514695	0.205522	0.371448	0.459338	0.348524	0.436205	0.195204	0.282033	0.166348	0.144535	0.266458	0.221056	0.168475	0.077035	0.303520	0.329528	0.558912	0.666293	0.780002	0.537019	0.325312	0.398839	0.313594	0.341199	0.630082	1.094774	0.439873	0.414224	0.258262	0.191728	0.487747	0.452729	0.457172	0.193975	0.621443	0.949607	0.199584	0.150239	0.232023	0.236446	0.624883	0.635506	0.557763	0.574279	0.157763	0.040579	0.140949	0.205189	0.196219	0.086142	0.234546	0.445857	0.280040	0.180573	0.408688	0.307276	0.498775	0.214976	0.678172	0.410926	0.218924	0.113424	0.118123	0.279126
86	0.612956	0.513853	0.666967	0.790257	0.219793	0.078377	0.194520	0.243177	0.539862	0.603735	0.894187	1.114217	0.247166	0.138970	0.199017	0.164331	0.519429	0.164540	0.367788	0.487524	0.431641	0.702509	0.201439	0.278188	0.169228	0.146029	0.269120	0.305198	0.162614	0.076004	0.331652	0.302663	0.570514	0.676597	0.761078	0.515799	0.265344	0.376165	0.305645	0.259935	0.578398	0.930495	0.346451	0.394520	0.253227	0.188428	0.468738	0.446217	0.481922	0.201403	0.603182	0.894491	0.216941	0.145282	0.235468	0.237200	0.613877	0.594946	0.658308	0.688794	0.156880	0.042770	0.157496	0.274025	0.170975	0.082511	0.196467	0.508935	0.276993	0.179352	0.422880	0.296431	0.490932	0.215508	0.666051	0.413976	0.213485	0.111344	0.119448	0.280608
87	0.564114	0.459429	0.687419	0.801492	0.212462	0.089115	0.193605	0.212024	0.559414	0.674452	0.942096	1.308869	0.247995	0.145660	0.202903	0.165839	0.533116	0.151611	0.375650	0.490276	0.451690	0.768649	0.196515	0.249242	0.171551	0.146917	0.257161	0.327885	0.177545	0.066156	0.358959	0.311175	0.569074	0.679672	0.736343	0.509347	0.185390	0.263799	0.303879	0.214057	0.481836	0.686501	0.257696	0.347193	0.262632	0.152709	0.416915	0.402138	0.469579	0.190026	0.645406	0.954076	0.219338	0.134651	0.227890	0.219037	0.628147	0.575087	0.678007	0.704763	0.160191	0.043401	0.170459	0.302466	0.120416	0.073012	0.087308	0.512173	0.275973	0.180527	0.419116	0.290566	0.482222	0.204910	0.657419	0.410847	0.213176	0.111636	0.117468	0.283765
88	0.525384	0.443541	0.639586	0.779057	0.215623	0.083425	0.239650	0.153758	0.548658	0.670976	0.975431	1.342852	0.254023	0.159736	0.207013	0.167858	0.539261	0.100480	0.423763	0.413128	0.582043	0.954591	0.199449	0.222790	0.179716	0.146126	0.276009	0.362137	0.197818	0.068397	0.368130	0.295633	0.559882	0.685972	0.707650	0.512728	0.153597	0.222447	0.276372	0.209053	0.425550	0.487726	0.250207	0.343413	0.262561	0.138531	0.374594	0.327284	0.445138	0.165722	0.670998	0.981397	0.236167	0.132214	0.211157	0.188527	0.635037	0.401702	0.654930	0.689200	0.172895	0.048956	0.171505	0.297747	0.083942	0.067338	0.124719	0.510719	0.279329	0.183032	0.389486	0.270662	0.434671	0.180498	0.584632	0.411390	0.251186	0.110867	0.121743	0.286353
89	0.484763	0.291743	0.522634	0.585059	0.229727	0.075497	0.248600	0.163901	0.575833	0.670883	0.985461	1.326120	0.265348	0.213014	0.222281	0.152766	0.525095	0.044814	0.489293	0.346128	0.685580	1.032787	0.221516	0.229734	0.191103	0.144337	0.377352	0.508122	0.207780	0.062041	0.364968	0.267644	0.544812	0.699260	0.718486	0.549679	0.125814	0.223827	0.230431	0.160709	0.382193	0.220680	0.248212	0.350082	0.254606	0.138981	0.372280	0.319599	0.444587	0.169520	0.661424	0.940455	0.224078	0.114355	0.205161	0.154377	0.641728	0.295227	0.639857	0.650313	0.173211	0.049465	0.169997	0.294935	0.088333	0.066723	0.118397	0.508382	0.287833	0.194289	0.354570	0.268324	0.387263	0.167771	0.460723	0.349267	0.261252	0.113369	0.140083	0.304528
90	0.435873	0.230632	0.457465	0.507546	0.200338	0.072830	0.268439	0.188483	0.613583	0.681471	0.980985	1.394268	0.260877	0.229668	0.242035	0.156526	0.413582	0.042862	0.559159	0.418942	0.692525	1.044893	0.235616	0.193724	0.177863	0.123237	0.430662	0.553247	0.202838	0.051816	0.334718	0.262211	0.512336	0.696209	0.733583	0.580382	0.057986	0.220495	0.196712	0.167582	0.334087	0.206300	0.225061	0.363150	0.242410	0.140148	0.365938	0.316809	0.416641	0.169555	0.636830	0.874253	0.243550	0.105907	0.206911	0.155600	0.590071	0.251633	0.598097	0.582184	0.153980	0.050178	0.156536	0.293943	0.094738	0.067073	0.119684	0.474287	0.283264	0.201797	0.340975	0.253246	0.368022	0.165421	0.436254	0.298695	0.257030	0.114897	0.165994	0.341404
91	0.393149	0.181092	0.473351	0.509778	0.127592	0.069229	0.263571	0.205835	0.614467	0.699457	0.920636	1.411356	0.235707	0.230367	0.251205	0.159564	0.383316	0.044107	0.551767	0.618062	0.691511	1.044889	0.220191	0.174945	0.174823	0.093400	0.473766	0.554112	0.201126	0.050477	0.281660	0.245625	0.467675	0.640014	0.743440	0.613009	0.045061	0.218654	0.178761	0.188177	0.323863	0.197655	0.192864	0.348567	0.216865	0.138258	0.322285	0.286326	0.346968	0.143940	0.633546	0.860520	0.274123	0.099476	0.193783	0.155317	0.461560	0.245912	0.562053	0.531678	0.130943	0.050566	0.154635	0.298480	0.127886	0.080022	0.135181	0.409765	0.267097	0.216595	0.373624	0.203016	0.366006	0.161497	0.492833	0.300178	0.265710	0.112881	0.195095	0.386655
92	0.389995	0.178307	0.458725	0.494817	0.131960	0.069187	0.256008	0.234828	0.611798	0.698393	0.751491	1.373465	0.206674	0.236422	0.247147	0.177226	0.356763	0.073709	0.563596	0.681542	0.684083	1.040153	0.206007	0.182535	0.183904	0.081136	0.510443	0.560714	0.212939	0.050974	0.246351	0.186527	0.428861	0.578511	0.741729	0.630246	0.059463	0.219327	0.157689	0.182806	0.324496	0.143832	0.238622	0.361489	0.213256	0.137319	0.270975	0.228043	0.352886	0.143329	0.572655	0.803263	0.280707	0.099632	0.178901	0.168429	0.426282	0.245698	0.561116	0.530672	0.131106	0.042485	0.144289	0.298990	0.133354	0.082326	0.137384	0.371721	0.256008	0.226951	0.388598	0.170342	0.324624	0.141840	0.538250	0.434857	0.276300	0.115815	0.203797	0.375044
93	0.324907	0.146443	0.372301	0.444237	0.273466	0.075833	0.284151	0.241685	0.536527	0.660630	0.630815	1.298349	0.205878	0.337132	0.261894	0.183062	0.290233	0.074138	0.594442	0.720983	0.692281	1.039034	0.224403	0.242445	0.220214	0.093989	0.579508	0.562903	0.259400	0.053612	0.245472	0.172914	0.430226	0.566391	0.694127	0.628556	0.065311	0.219491	0.161081	0.182123	0.325122	0.132034	0.302828	0.389386	0.192438	0.126732	0.255479	0.216056	0.288955	0.117614	0.485435	0.645659	0.298116	0.100128	0.175642	0.177788	0.396119	0.249900	0.558774	0.525500	0.134254	0.042329	0.137952	0.288377	0.127161	0.079984	0.165214	0.277832	0.283285	0.321175	0.365797	0.165384	0.300257	0.114904	0.566529	0.649728	0.272040	0.116090	0.203778	0.336654
94	0.234317	0.098335	0.316239	0.515752	0.325766	0.058905	0.266284	0.240130	0.411456	0.595655	0.628961	1.322124	0.283914	0.576006	0.317039	0.183485	0.227748	0.085387	0.605892	0.764093	0.710570	1.033885	0.233200	0.266562	0.383358	0.151720	0.614300	0.615698	0.335290	0.060943	0.221792	0.208837	0.403313	0.484371	0.618925	0.628098	0.075563	0.218610	0.168024	0.202039	0.394941	0.154973	0.345573	0.415632	0.133332	0.103800	0.255525	0.229750	0.275627	0.112796	0.436223	0.521789	0.310947	0.098956	0.176923	0.169293	0.401310	0.249227	0.504596	0.567925	0.147996	0.042750	0.139393	0.282230	0.127987	0.078634	0.223042	0.189826	0.309604	0.432364	0.338266	0.163932	0.280281	0.095377	0.568219	0.692306	0.272318	0.105368	0.202687	0.333017
95	0.233315	0.092449	0.246797	0.603627	0.344358	0.060679	0.241974	0.226894	0.408508	0.437640	0.549627	1.222267	0.398750	0.776565	0.355539	0.196806	0.193237	0.092180	0.612548	0.775395	0.710215	1.033450	0.232479	0.265666	0.482872	0.185362	0.624753	0.629390	0.357114	0.071964	0.180777	0.212498	0.369645	0.407105	0.561155	0.619614	0.108054	0.215720	0.169037	0.246022	0.504238	0.193524	0.345370	0.377552	0.167120	0.084140	0.250073	0.230923	0.248152	0.103494	0.426996	0.481112	0.313130	0.095941	0.175078	0.151990	0.417246	0.233917	0.352980	0.438313	0.142620	0.050414	0.145636	0.281105	0.127041	0.074481	0.226761	0.190813	0.303250	0.474038	0.331208	0.163150	0.279365	0.096647	0.578863	0.719891	0.269747	0.084469	0.204810	0.326152
96	0.242289	0.092220	0.215771	0.550057	0.416503	0.069365	0.284646	0.233729	0.371961	0.288977	0.469126	1.078791	0.428946	0.803835	0.367326	0.200965	0.149748	0.109008	0.597785	0.841563	0.685594	1.001544	0.231132	0.265090	0.497318	0.190566	0.655965	0.629249	0.478351	0.088550	0.126098	0.258025	0.306238	0.360683	0.517026	0.601651	0.118599	0.192287	0.170781	0.253522	0.520842	0.192132	0.359514	0.318536	0.226645	0.075345	0.251819	0.242134	0.183897	0.092484	0.312765	0.416119	0.303719	0.092366	0.165638	0.159786	0.372722	0.182524	0.280829	0.347595	0.147847	0.049285	0.135836	0.249375	0.156230	0.086308	0.223162	0.197029	0.299016	0.486036	0.361471	0.163567	0.295772	0.099199	0.640386	0.834051	0.266888	0.075076	0.204062	0.326511
97	0.234096	0.088947	0.223606	0.510459	0.440705	0.076465	0.347170	0.229962	0.391470	0.302152	0.430613	1.117222	0.477588	0.965130	0.369198	0.200873	0.261644	0.161060	0.559372	0.844925	0.631180	0.837538	0.220897	0.268725	0.569988	0.232985	0.672755	0.630614	0.597761	0.095306	0.109566	0.327357	0.252032	0.334518	0.519890	0.563166	0.118875	0.124197	0.170366	0.277425	0.519485	0.183291	0.397010	0.319399	0.276409	0.074674	0.254620	0.270905	0.157816	0.084797	0.193118	0.268077	0.291254	0.076115	0.155385	0.135417	0.354273	0.119387	0.290547	0.356626	0.174471	0.049297	0.101155	0.159445	0.207440	0.102052	0.247416	0.200051	0.326553	0.541829	0.395619	0.173134	0.352049	0.106805	0.741445	1.037685	0.262501	0.071456	0.197586	0.334748
98	0.229215	0.086619	0.267530	0.502110	0.502983	0.099011	0.358785	0.211947	0.402469	0.317982	0.419963	1.127288	0.519125	1.104949	0.369026	0.191886	0.379959	0.204703	0.434881	0.856065	0.615605	0.732305	0.210475	0.274668	0.598085	0.243865	0.629543	0.555616	0.611241	0.139375	0.114688	0.330747	0.227065	0.317879	0.498755	0.544735	0.124583	0.084539	0.169839	0.336060	0.549120	0.202195	0.406312	0.404796	0.291234	0.071011	0.251970	0.291402	0.132449	0.067100	0.154057	0.389543	0.281213	0.066455	0.131860	0.132064	0.374610	0.124701	0.286508	0.363668	0.165864	0.041681	0.097562	0.163147	0.297031	0.123691	0.246339	0.199763	0.345171	0.590620	0.416648	0.176099	0.399574	0.121484	0.792686	1.134296	0.262295	0.070929	0.194860	0.342122
99	0.231970	0.094273	0.282975	0.524082	0.522763	0.101958	0.393751	0.183819	0.354917	0.289266	0.402514	1.041210	0.517844	1.120453	0.369504	0.184500	0.382467	0.208628	0.383619	0.767318	0.577820	0.573667	0.204842	0.285422	0.599763	0.244382	0.592554	0.535183	0.611281	0.220675	0.126908	0.356900	0.223735	0.315212	0.442079	0.546412	0.150900	0.070562	0.162669	0.354957	0.680217	0.227724	0.407715	0.491638	0.295245	0.067966	0.213098	0.294600	0.152023	0.063888	0.206632	0.458358	0.279405	0.060848	0.115464	0.134796	0.383403	0.124722	0.270556	0.379067	0.162177	0.039553	0.086716	0.176739	0.309882	0.125163	0.267745	0.194883	0.351535	0.604982	0.419971	0.210533	0.411780	0.134335	0.788069	1.138218	0.251674	0.080797	0.195391	0.355301
100	0.204503	0.105950	0.241355	0.544038	0.470245	0.112432	0.440587	0.170857	0.344868	0.199785	0.390056	0.981371	0.519462	1.124092	0.368421	0.182511	0.384911	0.201800	0.381258	0.675887	0.394744	0.253981	0.170439	0.292906	0.596581	0.244529	0.597988	0.536810	0.611187	0.284871	0.129280	0.357986	0.207300	0.285742	0.410318	0.538949	0.170250	0.067119	0.143748	0.351590	0.707153	0.233330	0.407142	0.496288	0.326447	0.059922	0.206198	0.280721	0.161394	0.078552	0.237463	0.456751	0.263985	0.050715	0.117856	0.134454	0.373599	0.124505	0.315756	0.393344	0.165281	0.039855	0.079473	0.180354	0.326903	0.124800	0.266169	0.228623	0.367400	0.617745	0.420665	0.231204	0.411933	0.135943	0.784587	1.173880	0.200502	0.084717	0.187743	0.352630
101	0.197327	0.113759	0.339104	0.547279	0.461943	0.197790	0.479578	0.198101	0.349693	0.190458	0.378474	0.887901	0.523228	1.125067	0.364957	0.176389	0.387876	0.203234	0.323895	0.646636	0.379523	0.195285	0.144276	0.288164	0.589517	0.246788	0.580122	0.584771	0.602269	0.349774	0.148748	0.381064	0.191631	0.228388	0.345835	0.450258	0.176261	0.065638	0.137364	0.343686	0.707330	0.233619	0.399336	0.559228	0.332502	0.060912	0.193935	0.280455	0.205626	0.100209	0.241602	0.448023	0.270705	0.074535	0.118727	0.141629	0.370528	0.132220	0.346545	0.442831	0.169930	0.038335	0.081629	0.180167	0.341750	0.124073	0.343522	0.260636	0.389511	0.630606	0.418740	0.232721	0.421230	0.136616	0.763351	1.257892	0.197291	0.079128	0.164149	0.326684
