	142_P_T1_sh_R_D_A_01.c3d	142_P_T1_sh_R_D_A_01.c3d	142_P_T1_sh_R_D_A_01.c3d	142_P_T1_sh_R_D_A_01.c3d	142_P_T1_sh_R_D_A_01.c3d	142_P_T1_sh_R_D_A_01.c3d	142_P_T1_sh_R_D_A_01.c3d	142_P_T1_sh_R_D_A_01.c3d	142_P_T1_sh_R_D_A_02.c3d	142_P_T1_sh_R_D_A_02.c3d	142_P_T1_sh_R_D_A_02.c3d	142_P_T1_sh_R_D_A_02.c3d	142_P_T1_sh_R_D_A_02.c3d	142_P_T1_sh_R_D_A_02.c3d	142_P_T1_sh_R_D_A_02.c3d	142_P_T1_sh_R_D_A_02.c3d	142_P_T1_sh_R_D_A_03.c3d	142_P_T1_sh_R_D_A_03.c3d	142_P_T1_sh_R_D_A_03.c3d	142_P_T1_sh_R_D_A_03.c3d	142_P_T1_sh_R_D_A_03.c3d	142_P_T1_sh_R_D_A_03.c3d	142_P_T1_sh_R_D_A_03.c3d	142_P_T1_sh_R_D_A_03.c3d	142_P_T1_sh_R_D_A_05.c3d	142_P_T1_sh_R_D_A_05.c3d	142_P_T1_sh_R_D_A_05.c3d	142_P_T1_sh_R_D_A_05.c3d	142_P_T1_sh_R_D_A_05.c3d	142_P_T1_sh_R_D_A_05.c3d	142_P_T1_sh_R_D_A_05.c3d	142_P_T1_sh_R_D_A_05.c3d	142_P_T1_sh_R_D_A_06.c3d	142_P_T1_sh_R_D_A_06.c3d	142_P_T1_sh_R_D_A_06.c3d	142_P_T1_sh_R_D_A_06.c3d	142_P_T1_sh_R_D_A_06.c3d	142_P_T1_sh_R_D_A_06.c3d	142_P_T1_sh_R_D_A_06.c3d	142_P_T1_sh_R_D_A_06.c3d	142_P_T1_sh_R_D_A_07.c3d	142_P_T1_sh_R_D_A_07.c3d	142_P_T1_sh_R_D_A_07.c3d	142_P_T1_sh_R_D_A_07.c3d	142_P_T1_sh_R_D_A_07.c3d	142_P_T1_sh_R_D_A_07.c3d	142_P_T1_sh_R_D_A_07.c3d	142_P_T1_sh_R_D_A_07.c3d	142_P_T1_sh_R_D_A_08.c3d	142_P_T1_sh_R_D_A_08.c3d	142_P_T1_sh_R_D_A_08.c3d	142_P_T1_sh_R_D_A_08.c3d	142_P_T1_sh_R_D_A_08.c3d	142_P_T1_sh_R_D_A_08.c3d	142_P_T1_sh_R_D_A_08.c3d	142_P_T1_sh_R_D_A_08.c3d	142_P_T1_sh_R_D_A_09.c3d	142_P_T1_sh_R_D_A_09.c3d	142_P_T1_sh_R_D_A_09.c3d	142_P_T1_sh_R_D_A_09.c3d	142_P_T1_sh_R_D_A_09.c3d	142_P_T1_sh_R_D_A_09.c3d	142_P_T1_sh_R_D_A_09.c3d	142_P_T1_sh_R_D_A_09.c3d	142_P_T1_sh_R_D_A_10.c3d	142_P_T1_sh_R_D_A_10.c3d	142_P_T1_sh_R_D_A_10.c3d	142_P_T1_sh_R_D_A_10.c3d	142_P_T1_sh_R_D_A_10.c3d	142_P_T1_sh_R_D_A_10.c3d	142_P_T1_sh_R_D_A_10.c3d	142_P_T1_sh_R_D_A_10.c3d
	Biceps femoris_lat	Semitendinosus_lat	Vastus lateralis_lat	Vastus medialis_lat	Biceps femoris_med	Semitendinosus_med	Vastus lateralis_med	Vastus medialis_med	Biceps femoris_lat	Semitendinosus_lat	Vastus lateralis_lat	Vastus medialis_lat	Biceps femoris_med	Semitendinosus_med	Vastus lateralis_med	Vastus medialis_med	Biceps femoris_lat	Semitendinosus_lat	Vastus lateralis_lat	Vastus medialis_lat	Biceps femoris_med	Semitendinosus_med	Vastus lateralis_med	Vastus medialis_med	Biceps femoris_lat	Semitendinosus_lat	Vastus lateralis_lat	Vastus medialis_lat	Biceps femoris_med	Semitendinosus_med	Vastus lateralis_med	Vastus medialis_med	Biceps femoris_lat	Semitendinosus_lat	Vastus lateralis_lat	Vastus medialis_lat	Biceps femoris_med	Semitendinosus_med	Vastus lateralis_med	Vastus medialis_med	Biceps femoris_lat	Semitendinosus_lat	Vastus lateralis_lat	Vastus medialis_lat	Biceps femoris_med	Semitendinosus_med	Vastus lateralis_med	Vastus medialis_med	Biceps femoris_lat	Semitendinosus_lat	Vastus lateralis_lat	Vastus medialis_lat	Biceps femoris_med	Semitendinosus_med	Vastus lateralis_med	Vastus medialis_med	Biceps femoris_lat	Semitendinosus_lat	Vastus lateralis_lat	Vastus medialis_lat	Biceps femoris_med	Semitendinosus_med	Vastus lateralis_med	Vastus medialis_med	Biceps femoris_lat	Semitendinosus_lat	Vastus lateralis_lat	Vastus medialis_lat	Biceps femoris_med	Semitendinosus_med	Vastus lateralis_med	Vastus medialis_med
	P2D	P2D	P2D	P2D	P2D	P2D	P2D	P2D	P2D	P2D	P2D	P2D	P2D	P2D	P2D	P2D	P2D	P2D	P2D	P2D	P2D	P2D	P2D	P2D	P2D	P2D	P2D	P2D	P2D	P2D	P2D	P2D	P2D	P2D	P2D	P2D	P2D	P2D	P2D	P2D	P2D	P2D	P2D	P2D	P2D	P2D	P2D	P2D	P2D	P2D	P2D	P2D	P2D	P2D	P2D	P2D	P2D	P2D	P2D	P2D	P2D	P2D	P2D	P2D	P2D	P2D	P2D	P2D	P2D	P2D	P2D	P2D
	EMG_lat	EMG_lat	EMG_lat	EMG_lat	EMG_med	EMG_med	EMG_med	EMG_med	EMG_lat	EMG_lat	EMG_lat	EMG_lat	EMG_med	EMG_med	EMG_med	EMG_med	EMG_lat	EMG_lat	EMG_lat	EMG_lat	EMG_med	EMG_med	EMG_med	EMG_med	EMG_lat	EMG_lat	EMG_lat	EMG_lat	EMG_med	EMG_med	EMG_med	EMG_med	EMG_lat	EMG_lat	EMG_lat	EMG_lat	EMG_med	EMG_med	EMG_med	EMG_med	EMG_lat	EMG_lat	EMG_lat	EMG_lat	EMG_med	EMG_med	EMG_med	EMG_med	EMG_lat	EMG_lat	EMG_lat	EMG_lat	EMG_med	EMG_med	EMG_med	EMG_med	EMG_lat	EMG_lat	EMG_lat	EMG_lat	EMG_med	EMG_med	EMG_med	EMG_med	EMG_lat	EMG_lat	EMG_lat	EMG_lat	EMG_med	EMG_med	EMG_med	EMG_med
ITEM	Y	Y	Y	Y	Y	Y	Y	Y	Y	Y	Y	Y	Y	Y	Y	Y	Y	Y	Y	Y	Y	Y	Y	Y	Y	Y	Y	Y	Y	Y	Y	Y	Y	Y	Y	Y	Y	Y	Y	Y	Y	Y	Y	Y	Y	Y	Y	Y	Y	Y	Y	Y	Y	Y	Y	Y	Y	Y	Y	Y	Y	Y	Y	Y	Y	Y	Y	Y	Y	Y	Y	Y
1	0.461278	0.482261	0.383454	0.243415	0.366219	0.455993	0.340924	0.286564	0.229566	0.329680	0.321237	0.200696	0.235740	0.241669	0.204194	0.099905	0.322444	0.266991	0.187513	0.236918	0.337482	0.188212	0.236655	0.194662	0.289136	0.261195	0.300914	0.367869	0.124978	0.048321	0.167982	0.289144	0.259685	0.240116	0.205663	0.180395	0.278807	0.230612	0.269610	0.200012	0.404152	0.389449	0.322221	0.320633	0.284969	0.296176	0.257054	0.175784	0.203620	0.184654	0.298142	0.182013	0.284945	0.128132	0.231705	0.180656	0.200266	0.131406	0.305509	0.156596	0.351135	0.238691	0.055483	0.231417	0.334276	0.469430	0.269435	0.208635	0.210384	0.152787	0.292292	0.238304
2	0.464123	0.480615	0.373990	0.244337	0.391018	0.484622	0.339456	0.290566	0.229451	0.331873	0.327020	0.255526	0.230601	0.224402	0.209781	0.100632	0.319815	0.249578	0.199027	0.248726	0.165172	0.153502	0.255008	0.167491	0.289639	0.260324	0.295945	0.377752	0.147068	0.054156	0.153665	0.296221	0.241645	0.229266	0.215741	0.189307	0.267273	0.223770	0.258676	0.190690	0.290909	0.327561	0.341074	0.321672	0.291233	0.296119	0.251470	0.173494	0.203320	0.183036	0.333093	0.183151	0.266270	0.122281	0.252785	0.182268	0.205135	0.130900	0.311732	0.165799	0.398066	0.239698	0.100342	0.229565	0.321156	0.464376	0.263137	0.263349	0.211484	0.141035	0.298646	0.241628
3	0.465092	0.479610	0.363678	0.244185	0.396570	0.487390	0.340965	0.292170	0.230175	0.332729	0.344264	0.285027	0.232888	0.224356	0.209520	0.107633	0.281870	0.242106	0.286856	0.274791	0.136262	0.178479	0.258305	0.147520	0.297373	0.256830	0.318314	0.418433	0.158232	0.060735	0.153420	0.298692	0.220683	0.204289	0.227487	0.192413	0.260598	0.213536	0.238531	0.179385	0.251060	0.291899	0.380245	0.318376	0.313917	0.293469	0.240652	0.167570	0.223356	0.188072	0.329712	0.182651	0.274337	0.097455	0.262108	0.157864	0.197713	0.123997	0.309403	0.177313	0.414967	0.241839	0.178611	0.248505	0.294344	0.408757	0.255913	0.284895	0.227682	0.152425	0.320863	0.236948
4	0.465553	0.476168	0.338449	0.236661	0.373081	0.438337	0.339795	0.289209	0.232004	0.321938	0.344182	0.318015	0.248635	0.222604	0.206332	0.115460	0.233430	0.218320	0.316035	0.301821	0.128351	0.192839	0.285853	0.123844	0.272326	0.222036	0.391270	0.481258	0.159632	0.063311	0.153000	0.301319	0.174477	0.165326	0.249416	0.193170	0.262934	0.200318	0.237634	0.177714	0.215799	0.252421	0.335620	0.267246	0.322922	0.286448	0.219414	0.173393	0.235146	0.180867	0.328124	0.178472	0.275175	0.096196	0.246010	0.138054	0.202234	0.126395	0.310767	0.185045	0.429448	0.252685	0.188398	0.292059	0.212064	0.280041	0.266526	0.297571	0.234468	0.155941	0.337399	0.296090
5	0.439230	0.465794	0.338187	0.242180	0.380273	0.416810	0.331260	0.275469	0.218648	0.281348	0.356807	0.344140	0.253473	0.221917	0.210218	0.118145	0.181152	0.122666	0.315322	0.330591	0.111499	0.207478	0.272953	0.126352	0.192376	0.178501	0.413361	0.506750	0.160886	0.063765	0.139640	0.297187	0.161772	0.164919	0.268743	0.199370	0.261828	0.201155	0.227088	0.151623	0.208793	0.241083	0.295709	0.244788	0.326685	0.292052	0.192341	0.182476	0.235047	0.178899	0.370485	0.177659	0.280286	0.089138	0.226255	0.147655	0.208812	0.123766	0.310092	0.179307	0.423853	0.243597	0.246533	0.290091	0.118321	0.159283	0.276886	0.297421	0.201624	0.170046	0.385359	0.338878
6	0.427645	0.463433	0.367819	0.313417	0.411207	0.425409	0.313413	0.264445	0.205477	0.194082	0.414200	0.343162	0.251401	0.206199	0.206370	0.125376	0.183277	0.068719	0.312882	0.344307	0.115927	0.217646	0.236397	0.188960	0.171119	0.171207	0.428977	0.503950	0.174564	0.064357	0.112437	0.228030	0.166559	0.189263	0.240240	0.207743	0.261573	0.199765	0.239364	0.104484	0.213943	0.241518	0.294031	0.264676	0.293112	0.264030	0.187955	0.189043	0.220235	0.174198	0.407424	0.183559	0.254320	0.084153	0.224591	0.153642	0.206743	0.118037	0.304473	0.175934	0.372495	0.198603	0.347516	0.317286	0.141727	0.134649	0.283146	0.334787	0.172423	0.162839	0.385742	0.341883
7	0.431382	0.456702	0.370565	0.341363	0.451205	0.409199	0.320888	0.274890	0.213315	0.127926	0.431177	0.353436	0.256366	0.185358	0.193294	0.122738	0.165331	0.072795	0.290510	0.346162	0.114967	0.233097	0.265289	0.375699	0.166685	0.128676	0.501817	0.516905	0.175212	0.085183	0.130622	0.163568	0.173864	0.197091	0.243023	0.231992	0.248608	0.182796	0.229311	0.104573	0.218072	0.246779	0.293980	0.268955	0.229046	0.168537	0.193089	0.177439	0.207445	0.169720	0.414579	0.168996	0.208682	0.071769	0.223489	0.159689	0.207176	0.110668	0.328543	0.173481	0.323707	0.168427	0.386056	0.303153	0.123910	0.142243	0.340694	0.413770	0.190875	0.196831	0.419268	0.341422
8	0.380408	0.411946	0.379382	0.349220	0.468079	0.422886	0.312294	0.275777	0.213499	0.106246	0.431569	0.380505	0.263857	0.155715	0.226988	0.127820	0.205117	0.107748	0.289148	0.366370	0.120542	0.247077	0.410921	0.445926	0.153160	0.081144	0.539982	0.538331	0.167610	0.110783	0.130876	0.152372	0.162616	0.212665	0.256001	0.229903	0.227983	0.161912	0.221086	0.098639	0.187198	0.239553	0.294146	0.246814	0.221091	0.146434	0.211142	0.158959	0.217182	0.163689	0.419652	0.174084	0.210437	0.059686	0.216100	0.166465	0.206102	0.101849	0.335639	0.167154	0.339318	0.149002	0.389597	0.350191	0.135241	0.188587	0.351117	0.444298	0.198020	0.203834	0.426350	0.351235
9	0.325142	0.257059	0.381164	0.361430	0.461200	0.401383	0.277689	0.286786	0.211494	0.099843	0.423989	0.405138	0.220973	0.087328	0.353987	0.265371	0.242298	0.151747	0.308058	0.395330	0.146787	0.246853	0.445290	0.459592	0.154193	0.073352	0.551442	0.549267	0.160495	0.119912	0.132070	0.156132	0.173326	0.228313	0.250788	0.230683	0.225150	0.138637	0.236559	0.104413	0.154016	0.212734	0.284112	0.168546	0.201870	0.145972	0.194946	0.173651	0.222122	0.161149	0.421254	0.199128	0.172732	0.053008	0.201028	0.169982	0.207812	0.101281	0.313771	0.158401	0.350445	0.136889	0.407220	0.397805	0.206862	0.250602	0.375191	0.477666	0.197723	0.205274	0.424184	0.375641
10	0.349396	0.132088	0.375863	0.364094	0.446840	0.363290	0.234301	0.277864	0.212939	0.100705	0.387683	0.425245	0.213752	0.112477	0.394548	0.301196	0.263768	0.209574	0.316913	0.408706	0.162655	0.240439	0.459404	0.509852	0.164950	0.073462	0.539048	0.551279	0.175330	0.125265	0.161386	0.153721	0.156523	0.234866	0.240971	0.251726	0.213071	0.078272	0.209197	0.100983	0.150686	0.201548	0.315167	0.187504	0.198280	0.146114	0.154856	0.177550	0.221758	0.140915	0.436230	0.196795	0.156079	0.053284	0.246314	0.161400	0.197834	0.095948	0.288214	0.173016	0.372568	0.149421	0.430815	0.438397	0.242019	0.253523	0.427939	0.504149	0.229567	0.208225	0.393448	0.383487
11	0.323532	0.119809	0.328021	0.346095	0.453683	0.334288	0.256179	0.278498	0.213892	0.100662	0.339081	0.430369	0.220314	0.130299	0.390379	0.301510	0.279962	0.236112	0.318195	0.420216	0.151037	0.204563	0.485040	0.575909	0.178238	0.073369	0.508835	0.516214	0.203841	0.142303	0.282752	0.151822	0.132997	0.238349	0.219050	0.249560	0.256292	0.060141	0.208447	0.106361	0.154860	0.181667	0.358046	0.214075	0.192660	0.148016	0.152119	0.181122	0.228166	0.133154	0.490432	0.222735	0.161053	0.052400	0.235220	0.139423	0.181982	0.086414	0.285561	0.193724	0.331102	0.149452	0.456130	0.455547	0.243075	0.267512	0.433006	0.509018	0.246891	0.207060	0.381714	0.392711
12	0.299099	0.127797	0.280934	0.345025	0.445860	0.302300	0.292468	0.278186	0.216116	0.104432	0.322061	0.438397	0.216782	0.146815	0.390948	0.314116	0.279824	0.238717	0.314046	0.423431	0.143438	0.160290	0.496601	0.611504	0.175050	0.073194	0.511111	0.480064	0.189479	0.142068	0.306161	0.147878	0.131884	0.238687	0.210959	0.238066	0.298593	0.056990	0.219300	0.121846	0.147599	0.166862	0.381388	0.226700	0.155067	0.136000	0.181798	0.175839	0.231523	0.131548	0.532096	0.261574	0.160946	0.053641	0.226128	0.133612	0.172317	0.082592	0.290928	0.201825	0.309902	0.144201	0.433274	0.446385	0.243810	0.273805	0.413568	0.501093	0.234133	0.197853	0.363504	0.387800
13	0.287482	0.130559	0.277590	0.353269	0.466098	0.306643	0.372057	0.340100	0.232254	0.109978	0.345214	0.463353	0.248847	0.153802	0.422649	0.370847	0.296704	0.276715	0.336620	0.419943	0.142550	0.154544	0.496136	0.620677	0.195033	0.079271	0.562282	0.460919	0.177867	0.150087	0.305814	0.149683	0.129292	0.235444	0.202024	0.220378	0.302297	0.065375	0.208243	0.125555	0.142489	0.177447	0.336542	0.224466	0.161396	0.150771	0.181996	0.181218	0.231523	0.131291	0.532347	0.276653	0.148551	0.075966	0.201512	0.136549	0.180557	0.100171	0.301134	0.202160	0.284778	0.112689	0.431234	0.431679	0.248369	0.279977	0.394800	0.467251	0.217326	0.195521	0.343685	0.395428
14	0.296749	0.137170	0.298067	0.389140	0.460253	0.309658	0.407462	0.400430	0.253664	0.118435	0.411149	0.492109	0.309038	0.158590	0.497200	0.424004	0.312068	0.300043	0.315586	0.405608	0.148344	0.126379	0.509592	0.617337	0.211406	0.084746	0.605683	0.470983	0.186450	0.165509	0.314344	0.146570	0.133766	0.223787	0.170613	0.218184	0.322452	0.110808	0.227205	0.143561	0.126645	0.176262	0.325539	0.224795	0.142400	0.152316	0.183475	0.187068	0.229138	0.134499	0.499888	0.277985	0.137704	0.091752	0.213954	0.134598	0.194116	0.116893	0.318968	0.202682	0.288228	0.111167	0.403495	0.431608	0.254833	0.280909	0.395257	0.447628	0.214440	0.176736	0.297289	0.427981
15	0.315046	0.142505	0.350995	0.454549	0.471475	0.305271	0.402296	0.408222	0.253617	0.122403	0.463383	0.496702	0.315924	0.159105	0.525594	0.431595	0.319574	0.306676	0.256605	0.389801	0.148936	0.112941	0.504418	0.567103	0.223476	0.088767	0.622786	0.500378	0.201092	0.190816	0.325113	0.166199	0.133464	0.205701	0.155743	0.208825	0.322939	0.151052	0.230580	0.168898	0.124884	0.178625	0.341745	0.238262	0.143751	0.151102	0.178581	0.174638	0.214114	0.136852	0.479287	0.286258	0.139714	0.109223	0.227065	0.149231	0.181347	0.115153	0.312035	0.198666	0.279086	0.096735	0.324223	0.399483	0.259242	0.278243	0.401634	0.436224	0.225976	0.159079	0.268687	0.445201
16	0.322968	0.142811	0.424106	0.496707	0.447283	0.267316	0.395414	0.465258	0.253867	0.120368	0.474103	0.473608	0.317229	0.159360	0.531252	0.430608	0.330514	0.312571	0.265143	0.361111	0.149541	0.053772	0.420909	0.469116	0.227600	0.089254	0.625469	0.509606	0.191531	0.193483	0.322101	0.171901	0.126254	0.183560	0.156296	0.188824	0.314253	0.166123	0.220056	0.170807	0.121772	0.180307	0.366861	0.253225	0.162622	0.174493	0.174726	0.174160	0.197355	0.139100	0.480015	0.294110	0.136665	0.117631	0.231784	0.184047	0.163588	0.116681	0.311816	0.190740	0.271431	0.094252	0.273126	0.388848	0.258628	0.279773	0.397953	0.427137	0.215606	0.108869	0.202501	0.433607
17	0.318469	0.138168	0.440002	0.516445	0.420470	0.222778	0.402126	0.473645	0.263870	0.116509	0.460705	0.450566	0.298420	0.156325	0.528415	0.430908	0.328271	0.314576	0.291832	0.323436	0.148105	0.041545	0.326851	0.460437	0.222272	0.082356	0.621393	0.486356	0.189232	0.193675	0.316176	0.176592	0.124681	0.176615	0.127826	0.159820	0.304130	0.166980	0.208886	0.170809	0.111079	0.171522	0.374925	0.286896	0.155006	0.177026	0.152469	0.169901	0.186908	0.144295	0.476333	0.293791	0.139187	0.128618	0.230717	0.188704	0.163601	0.113908	0.312867	0.186331	0.254970	0.106295	0.269418	0.344216	0.258291	0.279727	0.386891	0.425715	0.202882	0.106129	0.201856	0.447732
18	0.318730	0.134723	0.427115	0.515216	0.439079	0.218333	0.390100	0.510094	0.276759	0.119903	0.449924	0.436016	0.283530	0.155278	0.482349	0.389340	0.324311	0.315427	0.343948	0.318057	0.126263	0.043993	0.320245	0.418847	0.204016	0.065261	0.583500	0.426697	0.203223	0.181271	0.317550	0.207290	0.113525	0.146795	0.182916	0.157557	0.304061	0.166698	0.207323	0.177541	0.121625	0.168081	0.379022	0.304802	0.158362	0.187014	0.154011	0.156140	0.179395	0.149544	0.479423	0.293443	0.143430	0.136914	0.230451	0.184369	0.151877	0.107897	0.295140	0.181733	0.232630	0.114725	0.257619	0.286430	0.240534	0.276036	0.372945	0.380843	0.222321	0.134455	0.201554	0.451446
19	0.317851	0.133893	0.404376	0.475708	0.424398	0.199887	0.424538	0.544979	0.276232	0.122902	0.457445	0.416398	0.288653	0.146494	0.410974	0.351903	0.313853	0.311383	0.359034	0.307225	0.126181	0.041879	0.265027	0.348640	0.203157	0.059267	0.556809	0.373795	0.205078	0.194777	0.336785	0.209639	0.088540	0.164593	0.251622	0.156510	0.303475	0.172241	0.205538	0.182169	0.115040	0.168188	0.404356	0.304841	0.160837	0.186859	0.150957	0.151942	0.186072	0.147019	0.504407	0.296996	0.135302	0.144773	0.231061	0.194357	0.154896	0.111965	0.291020	0.188211	0.167403	0.103938	0.222729	0.212096	0.238417	0.270013	0.326694	0.301326	0.205776	0.133123	0.213584	0.442176
20	0.311960	0.133833	0.412987	0.453816	0.398609	0.164796	0.420702	0.561603	0.275140	0.120035	0.436627	0.403944	0.296527	0.115243	0.408124	0.376754	0.282352	0.297298	0.345951	0.267418	0.127290	0.083087	0.220221	0.237912	0.206586	0.060308	0.553887	0.373427	0.220565	0.274686	0.344384	0.209652	0.101094	0.181024	0.256096	0.099493	0.304670	0.189449	0.193752	0.176888	0.106551	0.163408	0.404414	0.300838	0.165762	0.199529	0.151664	0.169362	0.208319	0.144463	0.523603	0.302591	0.151606	0.158418	0.178625	0.213905	0.159189	0.131026	0.273078	0.192043	0.153143	0.122294	0.136539	0.156080	0.224065	0.230071	0.331520	0.272452	0.189682	0.168718	0.231363	0.431179
21	0.303135	0.134497	0.412746	0.446307	0.394045	0.162881	0.390779	0.606766	0.255770	0.106788	0.386526	0.402527	0.304801	0.107598	0.416519	0.380257	0.261163	0.268703	0.338990	0.224706	0.137901	0.158064	0.207260	0.197757	0.203144	0.060253	0.500442	0.365711	0.198947	0.291480	0.272258	0.210655	0.105067	0.179819	0.258058	0.074122	0.283633	0.193769	0.193571	0.175088	0.122949	0.170262	0.373659	0.289993	0.173102	0.208100	0.108035	0.211570	0.230932	0.167939	0.536676	0.317896	0.146036	0.158711	0.141715	0.217422	0.164349	0.153252	0.288970	0.194697	0.156472	0.130347	0.122054	0.144378	0.165297	0.169957	0.308867	0.286016	0.190399	0.218252	0.231522	0.428139
22	0.278310	0.134725	0.411217	0.435493	0.420252	0.183714	0.324401	0.619129	0.247362	0.099623	0.383719	0.387433	0.299032	0.086178	0.442183	0.345386	0.228615	0.225575	0.366384	0.198809	0.129675	0.186725	0.161189	0.191227	0.203126	0.060268	0.473195	0.366944	0.216133	0.325605	0.232453	0.219656	0.128879	0.230660	0.300741	0.083937	0.229346	0.212758	0.160407	0.184752	0.156342	0.168266	0.352913	0.289821	0.178738	0.210650	0.110341	0.203399	0.253614	0.183564	0.543657	0.316768	0.147381	0.169689	0.141244	0.217238	0.161952	0.162312	0.332637	0.212709	0.163728	0.133526	0.140764	0.147295	0.147157	0.162165	0.277622	0.316524	0.263865	0.300554	0.230523	0.405024
23	0.237765	0.132811	0.401750	0.427529	0.523772	0.268558	0.267266	0.614224	0.249786	0.102397	0.410499	0.364487	0.244137	0.105369	0.373195	0.285025	0.227568	0.218174	0.434502	0.288870	0.151673	0.237556	0.162325	0.201615	0.203163	0.061265	0.469601	0.388130	0.218551	0.339698	0.251037	0.229935	0.162007	0.237326	0.400167	0.117670	0.195022	0.219118	0.153524	0.184889	0.188225	0.206535	0.355658	0.295539	0.187051	0.205185	0.099129	0.189340	0.256187	0.185153	0.533209	0.322110	0.161746	0.187309	0.151166	0.217746	0.166845	0.162180	0.332123	0.214511	0.178728	0.136011	0.229497	0.272616	0.163866	0.131552	0.290172	0.334765	0.301058	0.345847	0.224990	0.311064
24	0.240686	0.134587	0.389997	0.427735	0.525222	0.294108	0.271708	0.617181	0.246432	0.105729	0.452363	0.351261	0.211969	0.116557	0.309925	0.284355	0.230737	0.198807	0.476320	0.391909	0.150892	0.240951	0.165996	0.192245	0.207375	0.068168	0.468264	0.391063	0.215887	0.336290	0.246510	0.239087	0.190415	0.238985	0.470575	0.133744	0.174260	0.216614	0.162657	0.206250	0.232098	0.287063	0.361642	0.304607	0.181713	0.206284	0.095683	0.189595	0.248034	0.184829	0.498159	0.309312	0.174609	0.185408	0.175297	0.215840	0.168896	0.160957	0.317871	0.211172	0.197981	0.136203	0.258346	0.352985	0.180449	0.116163	0.271419	0.336962	0.296957	0.353202	0.240048	0.354448
25	0.235794	0.129807	0.395180	0.428045	0.481630	0.312289	0.265049	0.571380	0.249716	0.110665	0.477951	0.377297	0.214705	0.137433	0.294569	0.299087	0.203175	0.135346	0.458113	0.416970	0.146959	0.245571	0.156108	0.202723	0.195650	0.069079	0.465070	0.385687	0.199162	0.327045	0.227193	0.231665	0.193663	0.239267	0.486376	0.138480	0.157279	0.241626	0.137968	0.227268	0.262198	0.331196	0.351412	0.307413	0.158817	0.188504	0.089204	0.189625	0.241384	0.183656	0.482320	0.298412	0.224080	0.223073	0.159206	0.211119	0.184191	0.182048	0.319760	0.199951	0.243185	0.136364	0.260810	0.403832	0.178754	0.096366	0.266873	0.341220	0.302188	0.357542	0.270745	0.413084
26	0.237757	0.128291	0.423408	0.428293	0.481663	0.332125	0.252405	0.556179	0.273264	0.118444	0.497741	0.531831	0.208949	0.147609	0.291072	0.299488	0.192207	0.109276	0.451060	0.419834	0.153753	0.245477	0.145142	0.267595	0.197114	0.070951	0.444696	0.385032	0.202900	0.335667	0.228050	0.227338	0.216082	0.254891	0.493596	0.145706	0.177733	0.258765	0.140774	0.249143	0.273441	0.330471	0.350689	0.302000	0.159619	0.193244	0.080824	0.185239	0.242935	0.183367	0.493612	0.289013	0.230255	0.228120	0.151463	0.174648	0.230334	0.255613	0.320886	0.198429	0.237185	0.125102	0.261144	0.415925	0.221683	0.133057	0.284993	0.384190	0.313861	0.357720	0.257569	0.401630
27	0.229784	0.122103	0.442922	0.405435	0.463639	0.329269	0.284958	0.505588	0.304479	0.126503	0.502343	0.650184	0.222066	0.186840	0.284480	0.307630	0.179248	0.108382	0.448360	0.413103	0.165997	0.245739	0.138788	0.281844	0.187842	0.072276	0.397058	0.383786	0.207870	0.339731	0.235978	0.258305	0.244116	0.267423	0.539028	0.202129	0.201764	0.271779	0.144275	0.260166	0.287376	0.329318	0.335203	0.270102	0.164677	0.186213	0.079582	0.186132	0.240991	0.181713	0.491381	0.281892	0.246197	0.236526	0.158157	0.165248	0.316978	0.375505	0.308433	0.225238	0.238085	0.110404	0.289881	0.525681	0.256048	0.156738	0.364599	0.439205	0.329444	0.357307	0.258509	0.393473
28	0.195768	0.108001	0.416804	0.334281	0.467071	0.330160	0.279315	0.459977	0.332046	0.134600	0.476810	0.667300	0.228628	0.194030	0.259568	0.314355	0.226408	0.136409	0.467801	0.434069	0.167192	0.243997	0.161493	0.268171	0.176906	0.071984	0.328527	0.369982	0.195521	0.340987	0.243861	0.265936	0.277936	0.265858	0.573342	0.463444	0.208893	0.278396	0.163021	0.259928	0.324450	0.352045	0.331590	0.225770	0.174389	0.189200	0.074816	0.196634	0.238184	0.178711	0.487371	0.272004	0.266748	0.239710	0.189423	0.350266	0.344585	0.407089	0.299440	0.262980	0.244390	0.106841	0.297807	0.576897	0.261947	0.155331	0.372558	0.447564	0.358178	0.360858	0.253808	0.403974
29	0.169041	0.096440	0.362167	0.291011	0.472760	0.331746	0.264116	0.487938	0.363308	0.144041	0.416153	0.648846	0.239178	0.197086	0.267097	0.284492	0.239354	0.138710	0.493024	0.484700	0.174196	0.213106	0.166782	0.299634	0.184988	0.077846	0.317323	0.332320	0.199908	0.341066	0.236665	0.271152	0.312510	0.236256	0.606347	0.562137	0.208491	0.279952	0.163604	0.275987	0.435549	0.452460	0.331997	0.220880	0.169797	0.170695	0.068215	0.187707	0.234424	0.172846	0.482590	0.262665	0.266770	0.239693	0.233720	0.387514	0.344578	0.406613	0.310391	0.287470	0.284054	0.083378	0.303283	0.598835	0.264922	0.157610	0.372363	0.448446	0.421971	0.362764	0.344699	0.417450
30	0.154183	0.088871	0.382362	0.314781	0.496552	0.339283	0.282027	0.485992	0.390452	0.154416	0.369298	0.649590	0.240547	0.209747	0.301343	0.275468	0.235961	0.153475	0.494042	0.521450	0.185026	0.208263	0.154337	0.324291	0.213140	0.093393	0.310604	0.305402	0.183105	0.291469	0.211371	0.281855	0.312068	0.218712	0.645545	0.566509	0.218078	0.272126	0.174937	0.300273	0.443973	0.466705	0.319996	0.217043	0.175666	0.168271	0.066259	0.131794	0.232437	0.158908	0.483810	0.277102	0.261140	0.230040	0.233071	0.387518	0.352949	0.426517	0.324894	0.293442	0.311068	0.074650	0.303673	0.602402	0.265544	0.159504	0.401820	0.473516	0.423027	0.330563	0.406474	0.419919
31	0.145388	0.085152	0.403161	0.328678	0.468406	0.326926	0.390880	0.456882	0.391565	0.155654	0.361107	0.675989	0.241812	0.214281	0.317585	0.273351	0.248591	0.153992	0.494998	0.522062	0.179417	0.127330	0.154074	0.317872	0.232539	0.107941	0.309691	0.333655	0.186208	0.248407	0.194264	0.288277	0.309108	0.205960	0.650370	0.586015	0.250194	0.267350	0.166829	0.328837	0.450848	0.470353	0.345760	0.214005	0.154207	0.139296	0.106308	0.124610	0.232236	0.149978	0.474582	0.292874	0.263163	0.227181	0.239378	0.406549	0.369846	0.440814	0.335713	0.292997	0.315171	0.069913	0.295231	0.593629	0.284938	0.170378	0.497219	0.501216	0.404252	0.289639	0.422871	0.420094
32	0.149650	0.085857	0.419307	0.331012	0.373831	0.263935	0.432630	0.411489	0.398540	0.158318	0.372340	0.719256	0.233117	0.204873	0.314234	0.265608	0.251549	0.151443	0.491012	0.515300	0.182846	0.116903	0.149828	0.309997	0.235435	0.112049	0.309783	0.355449	0.168727	0.220480	0.199014	0.310957	0.315081	0.159260	0.624986	0.615621	0.266608	0.265453	0.173338	0.354921	0.438996	0.468160	0.349810	0.202125	0.138682	0.114124	0.116585	0.128131	0.227896	0.148064	0.446327	0.282712	0.286661	0.231852	0.277270	0.445820	0.379980	0.442099	0.336193	0.291582	0.304625	0.063457	0.236374	0.544611	0.309811	0.182113	0.560707	0.494779	0.363920	0.205539	0.424253	0.422595
33	0.181240	0.108265	0.410901	0.331101	0.346145	0.228230	0.430242	0.435800	0.429451	0.168289	0.415591	0.754800	0.249192	0.217646	0.309737	0.232984	0.248703	0.150634	0.493396	0.514661	0.181127	0.105468	0.148169	0.306896	0.242688	0.118751	0.309075	0.366414	0.150011	0.167106	0.169849	0.314936	0.327104	0.170488	0.624606	0.655155	0.262389	0.255295	0.195047	0.353604	0.428149	0.458617	0.347523	0.230117	0.152631	0.108971	0.134014	0.132956	0.204441	0.136200	0.414022	0.309322	0.316800	0.224401	0.281689	0.494442	0.406269	0.449087	0.334198	0.287145	0.286421	0.061700	0.203621	0.504032	0.308308	0.184626	0.560766	0.456405	0.364171	0.186710	0.420945	0.374108
34	0.188215	0.115727	0.412347	0.341204	0.343832	0.196101	0.430572	0.466279	0.455466	0.177741	0.466652	0.768650	0.264380	0.216669	0.316897	0.224928	0.254333	0.154716	0.453807	0.502018	0.177977	0.106641	0.170523	0.261075	0.249798	0.130626	0.321483	0.364878	0.165785	0.177295	0.165314	0.308054	0.329183	0.174047	0.630041	0.672281	0.263099	0.249199	0.195254	0.350026	0.409952	0.414851	0.340013	0.232550	0.183979	0.109074	0.155915	0.141960	0.161506	0.099679	0.391610	0.314030	0.327478	0.223522	0.283086	0.505739	0.457962	0.484242	0.332333	0.295421	0.249901	0.059370	0.199620	0.460699	0.309922	0.189031	0.548836	0.431699	0.373712	0.178862	0.485602	0.420763
35	0.231390	0.125064	0.420681	0.369232	0.352232	0.159598	0.435001	0.485950	0.472166	0.184465	0.493164	0.772820	0.274053	0.212879	0.349827	0.233924	0.279775	0.163447	0.403268	0.422249	0.152748	0.109530	0.173899	0.212755	0.259244	0.139182	0.350153	0.361760	0.171249	0.171413	0.173392	0.304547	0.351191	0.181070	0.663777	0.673890	0.267666	0.247113	0.192220	0.330489	0.400533	0.364226	0.346235	0.245583	0.197159	0.103523	0.177688	0.173163	0.128116	0.063305	0.386819	0.310209	0.315291	0.200726	0.279278	0.505240	0.497499	0.513411	0.357141	0.332239	0.243257	0.053328	0.209160	0.451141	0.301013	0.189801	0.547677	0.427049	0.370534	0.173349	0.569678	0.517533
36	0.306748	0.146836	0.423979	0.392980	0.361267	0.156677	0.409246	0.488760	0.486675	0.188243	0.501019	0.776155	0.270414	0.187836	0.374949	0.229848	0.283361	0.167573	0.399771	0.367861	0.159918	0.120588	0.212437	0.211851	0.261881	0.144813	0.346158	0.357297	0.167463	0.151998	0.177203	0.301107	0.350000	0.165740	0.690680	0.672688	0.249303	0.184891	0.215126	0.306939	0.414045	0.356252	0.388600	0.289206	0.199808	0.099210	0.180019	0.175794	0.212638	0.080657	0.386821	0.321511	0.303353	0.168876	0.292183	0.505556	0.515216	0.524183	0.404860	0.348983	0.235642	0.051260	0.152257	0.322431	0.293038	0.189625	0.577851	0.449978	0.347427	0.144412	0.583859	0.511172
37	0.326274	0.152489	0.455820	0.404054	0.351050	0.149164	0.371729	0.468097	0.493673	0.187857	0.511043	0.776552	0.261672	0.166137	0.377853	0.216898	0.289384	0.172247	0.402348	0.359297	0.157463	0.123789	0.209684	0.228586	0.267605	0.151445	0.311867	0.366465	0.184353	0.132070	0.204519	0.344000	0.336803	0.160480	0.662089	0.649031	0.227664	0.137778	0.222408	0.280675	0.405076	0.355956	0.409625	0.279070	0.190961	0.089369	0.190234	0.171602	0.272964	0.100019	0.392447	0.325078	0.299181	0.154273	0.303929	0.526570	0.517815	0.526480	0.438871	0.340111	0.227426	0.056943	0.131908	0.211151	0.286175	0.181847	0.579754	0.441956	0.338411	0.137495	0.593153	0.527742
38	0.324731	0.150002	0.472552	0.404718	0.334101	0.147513	0.370535	0.424698	0.492652	0.185616	0.574179	0.776854	0.245037	0.161585	0.383423	0.257326	0.314370	0.178179	0.401448	0.357277	0.138483	0.096549	0.199990	0.168996	0.262127	0.149129	0.313465	0.370284	0.212035	0.125455	0.278490	0.400161	0.308692	0.157744	0.606918	0.474051	0.209491	0.111046	0.215700	0.275827	0.401017	0.356113	0.410619	0.295609	0.189101	0.089571	0.193133	0.176136	0.286270	0.102608	0.404896	0.312605	0.273967	0.133504	0.301879	0.497849	0.515514	0.525075	0.445315	0.334920	0.171073	0.079466	0.146894	0.134844	0.238738	0.138557	0.560424	0.396842	0.233843	0.096874	0.562776	0.535332
39	0.323312	0.149175	0.451821	0.395924	0.321170	0.143408	0.360243	0.409097	0.490154	0.183275	0.596303	0.773481	0.225380	0.147945	0.359910	0.278084	0.298451	0.155606	0.402568	0.348927	0.164933	0.108783	0.203484	0.154054	0.257064	0.146911	0.319125	0.364625	0.205198	0.116209	0.285102	0.394079	0.280623	0.155500	0.600475	0.396116	0.210514	0.094504	0.218075	0.277139	0.299381	0.256967	0.399744	0.330356	0.177125	0.074883	0.198532	0.177019	0.293414	0.108859	0.384246	0.306319	0.271904	0.125251	0.258125	0.407965	0.503736	0.507158	0.440447	0.335073	0.102948	0.078369	0.161708	0.128944	0.210873	0.118212	0.518102	0.413913	0.243646	0.113804	0.617459	0.560733
40	0.326362	0.147308	0.455490	0.386878	0.400165	0.154131	0.251797	0.390294	0.482928	0.179517	0.581673	0.761551	0.231703	0.133662	0.332277	0.282993	0.274864	0.147025	0.357727	0.293600	0.172143	0.109447	0.341868	0.178069	0.255306	0.146706	0.318063	0.368494	0.219800	0.110312	0.291321	0.391677	0.293072	0.166784	0.621220	0.399391	0.221396	0.092473	0.222790	0.309379	0.261178	0.150012	0.383495	0.370584	0.187869	0.085440	0.200595	0.189488	0.315206	0.119253	0.397814	0.326527	0.290064	0.129363	0.263289	0.406385	0.471349	0.445673	0.439508	0.326992	0.089069	0.091785	0.163570	0.156341	0.202272	0.118655	0.569928	0.466575	0.238997	0.122670	0.640379	0.560848
41	0.328570	0.146113	0.505662	0.383669	0.415192	0.156206	0.127503	0.389850	0.469961	0.174019	0.566695	0.661825	0.276323	0.144220	0.287202	0.303159	0.283586	0.143077	0.373845	0.211299	0.204935	0.122590	0.361101	0.184645	0.255365	0.144390	0.310004	0.376509	0.236963	0.131846	0.304935	0.391518	0.310733	0.180796	0.628316	0.378980	0.225554	0.096227	0.255241	0.432391	0.259488	0.158513	0.383558	0.405466	0.205023	0.113006	0.199544	0.243617	0.330117	0.122494	0.414526	0.363157	0.289218	0.129142	0.313338	0.387904	0.451425	0.378890	0.468675	0.306396	0.084925	0.093100	0.197613	0.155606	0.198619	0.115022	0.639373	0.474142	0.235259	0.123488	0.638590	0.557990
42	0.328795	0.145504	0.519495	0.365943	0.393850	0.146376	0.133668	0.350024	0.459631	0.169653	0.562132	0.563096	0.262470	0.129412	0.293771	0.303246	0.281066	0.138404	0.365508	0.154518	0.226829	0.135268	0.361911	0.205499	0.273450	0.144657	0.305930	0.383960	0.256013	0.131467	0.314206	0.399947	0.339851	0.190475	0.627608	0.324897	0.193416	0.083809	0.278051	0.501261	0.265834	0.150545	0.344794	0.415318	0.201298	0.116783	0.215370	0.287764	0.372870	0.124576	0.425076	0.429916	0.284519	0.127546	0.305847	0.354152	0.497433	0.390737	0.507725	0.293218	0.107702	0.105724	0.286106	0.143984	0.198409	0.111033	0.617966	0.451315	0.243070	0.158878	0.639466	0.557909
43	0.329837	0.145751	0.485635	0.324010	0.389708	0.143047	0.292786	0.312116	0.437459	0.161575	0.563851	0.543306	0.232488	0.087533	0.286858	0.306039	0.265666	0.139032	0.401609	0.205792	0.267311	0.200612	0.364123	0.215380	0.280001	0.143799	0.319305	0.393768	0.297341	0.135563	0.321008	0.416834	0.346872	0.189160	0.561267	0.238323	0.174429	0.066649	0.270885	0.500580	0.267930	0.155247	0.321546	0.401868	0.175437	0.123814	0.286121	0.305011	0.398750	0.123462	0.441221	0.452244	0.227503	0.102655	0.298114	0.284980	0.530333	0.396936	0.533892	0.289712	0.120881	0.108766	0.297529	0.145707	0.165563	0.093620	0.544051	0.435444	0.221959	0.159006	0.603085	0.498078
44	0.333266	0.146126	0.467148	0.321016	0.376573	0.140373	0.298736	0.279645	0.396593	0.146741	0.578897	0.555800	0.223586	0.107041	0.276259	0.295930	0.267138	0.144438	0.406426	0.243110	0.281045	0.220841	0.367477	0.217206	0.260934	0.135479	0.354563	0.404202	0.332280	0.130254	0.326927	0.434163	0.332737	0.185873	0.513511	0.198781	0.180043	0.068380	0.260964	0.502307	0.268804	0.156052	0.322880	0.387310	0.157321	0.119828	0.310678	0.307434	0.400580	0.126505	0.427008	0.457207	0.197314	0.083825	0.287657	0.230136	0.528809	0.372229	0.555203	0.299687	0.158225	0.128051	0.328256	0.180275	0.207016	0.105301	0.494838	0.446330	0.213581	0.159788	0.511640	0.346777
45	0.333649	0.146288	0.453821	0.323284	0.378271	0.183532	0.306001	0.283680	0.372904	0.137719	0.599591	0.545682	0.245547	0.124184	0.231314	0.291832	0.268445	0.143067	0.391171	0.256520	0.305955	0.254731	0.351858	0.191894	0.239331	0.123555	0.378122	0.385433	0.387494	0.141761	0.366295	0.448260	0.311085	0.178343	0.455219	0.199268	0.183610	0.074567	0.286371	0.529062	0.267416	0.157595	0.325588	0.384593	0.157579	0.122764	0.311024	0.311072	0.413846	0.137146	0.387409	0.519306	0.181900	0.076511	0.288016	0.224051	0.521664	0.369308	0.563531	0.304552	0.166296	0.132143	0.343559	0.184960	0.248551	0.118145	0.489692	0.450971	0.220415	0.160139	0.478409	0.334872
46	0.319886	0.132961	0.445153	0.321830	0.394291	0.288458	0.342812	0.284532	0.373643	0.137913	0.602606	0.504822	0.252420	0.124573	0.223601	0.291944	0.266761	0.135308	0.482398	0.414558	0.307201	0.254016	0.357250	0.181181	0.234388	0.116941	0.382978	0.370734	0.407744	0.166315	0.396186	0.449315	0.306047	0.181444	0.410147	0.199861	0.214143	0.079864	0.289146	0.593364	0.228009	0.151048	0.299472	0.368714	0.170487	0.136696	0.308354	0.302772	0.421721	0.142370	0.382750	0.558517	0.195266	0.134285	0.305658	0.223340	0.510568	0.365119	0.639341	0.329097	0.218258	0.136127	0.346967	0.180273	0.252620	0.115525	0.490810	0.465792	0.214034	0.159058	0.467302	0.275649
47	0.327369	0.128466	0.445974	0.309918	0.440212	0.345148	0.418381	0.274340	0.362433	0.132467	0.592703	0.439449	0.257441	0.125032	0.222875	0.269464	0.251247	0.124502	0.604239	0.458403	0.314986	0.256403	0.356114	0.190523	0.246007	0.118062	0.418575	0.399170	0.401973	0.185278	0.405869	0.434129	0.345144	0.222840	0.413696	0.199510	0.249708	0.098883	0.278094	0.634815	0.219649	0.154547	0.327232	0.381652	0.169702	0.140166	0.307918	0.296067	0.429753	0.147043	0.384258	0.572962	0.204221	0.173620	0.285217	0.210491	0.478410	0.330770	0.689530	0.349509	0.236091	0.123842	0.346495	0.179066	0.255658	0.115871	0.479944	0.463611	0.210124	0.157446	0.454004	0.222846
48	0.314654	0.122567	0.485685	0.329849	0.442892	0.352075	0.421059	0.219200	0.316972	0.115707	0.555989	0.444054	0.258367	0.125164	0.223396	0.231999	0.249029	0.118382	0.655483	0.468959	0.297414	0.251886	0.289955	0.174216	0.266643	0.113867	0.491817	0.436089	0.403012	0.196467	0.367119	0.338353	0.363397	0.241422	0.462643	0.209555	0.277971	0.115487	0.286518	0.648163	0.205619	0.153661	0.350871	0.395556	0.170045	0.141985	0.307191	0.299795	0.443181	0.155059	0.419861	0.590645	0.206613	0.179722	0.279351	0.148790	0.446012	0.263757	0.695099	0.325197	0.235105	0.120194	0.341374	0.182023	0.257791	0.116231	0.455098	0.449782	0.164781	0.139142	0.342686	0.114583
49	0.231648	0.089951	0.499933	0.394486	0.367823	0.390465	0.420904	0.207779	0.284441	0.102152	0.536811	0.466766	0.257046	0.128859	0.214841	0.233883	0.243123	0.117435	0.664960	0.488276	0.285978	0.248716	0.193400	0.160043	0.311909	0.120636	0.567753	0.446860	0.434813	0.230485	0.342494	0.331176	0.358861	0.247994	0.404858	0.227115	0.301335	0.121733	0.319202	0.653544	0.208683	0.153901	0.357127	0.374685	0.157257	0.141721	0.295027	0.295649	0.413628	0.149414	0.488306	0.584156	0.207919	0.196499	0.281269	0.169156	0.451757	0.232694	0.660199	0.285959	0.238982	0.114215	0.359889	0.208527	0.257793	0.116019	0.454062	0.445657	0.138608	0.120557	0.169034	0.111039
50	0.197308	0.072142	0.487115	0.387031	0.318707	0.410989	0.426468	0.215252	0.300073	0.108906	0.535135	0.473918	0.228161	0.127054	0.215434	0.227312	0.228235	0.116385	0.664392	0.504700	0.328597	0.243523	0.178172	0.136787	0.377939	0.144593	0.678652	0.442493	0.444212	0.237241	0.337043	0.317103	0.355954	0.242789	0.321039	0.214479	0.301047	0.127872	0.331695	0.653537	0.215876	0.169853	0.365873	0.362639	0.132306	0.124451	0.292526	0.253696	0.374908	0.137094	0.547347	0.582074	0.200430	0.198035	0.276979	0.182541	0.470963	0.227747	0.654324	0.267180	0.249729	0.116303	0.350769	0.231777	0.259265	0.116619	0.473067	0.448098	0.148308	0.115753	0.163224	0.135394
51	0.236576	0.080633	0.469224	0.389836	0.320878	0.421393	0.428341	0.210361	0.341426	0.127120	0.553531	0.472075	0.200506	0.132735	0.250272	0.211225	0.277925	0.125351	0.724450	0.566787	0.342411	0.214658	0.172314	0.117507	0.428961	0.155457	0.763847	0.404741	0.435806	0.236736	0.340882	0.314511	0.347737	0.235333	0.312849	0.198630	0.291012	0.139598	0.327072	0.608278	0.220409	0.214529	0.358032	0.379352	0.139415	0.131088	0.285239	0.197090	0.362650	0.134717	0.556224	0.579823	0.213309	0.211577	0.244094	0.190364	0.471056	0.225715	0.653880	0.281115	0.245500	0.105830	0.276846	0.227630	0.259347	0.115086	0.468811	0.389510	0.159391	0.076546	0.172969	0.135852
52	0.249073	0.080581	0.489355	0.389796	0.339437	0.431078	0.342370	0.199252	0.390340	0.144797	0.555599	0.469372	0.208232	0.142235	0.255240	0.193223	0.294553	0.121266	0.862747	0.620489	0.325627	0.155219	0.150321	0.123066	0.445466	0.160616	0.799295	0.370480	0.427968	0.233918	0.342130	0.291167	0.300506	0.224976	0.347511	0.198440	0.274493	0.142434	0.290553	0.512662	0.218765	0.235575	0.362734	0.368269	0.156300	0.127108	0.212940	0.173696	0.357144	0.130489	0.546320	0.579172	0.216542	0.216737	0.196835	0.191003	0.486527	0.229678	0.671513	0.288344	0.240269	0.103803	0.260694	0.229179	0.259342	0.113458	0.380422	0.341244	0.177613	0.076660	0.187810	0.153852
53	0.270703	0.098110	0.468890	0.408472	0.353032	0.433866	0.333453	0.225429	0.420589	0.153080	0.509729	0.464520	0.207882	0.141497	0.246926	0.186243	0.294589	0.115282	0.928542	0.640658	0.307605	0.099495	0.110539	0.126348	0.451313	0.162999	0.799670	0.372984	0.396606	0.230070	0.367069	0.252564	0.314611	0.238053	0.391782	0.261055	0.277367	0.161545	0.279561	0.449683	0.220428	0.236562	0.373869	0.407170	0.175164	0.128355	0.148515	0.166616	0.338249	0.119945	0.552946	0.569644	0.224902	0.238168	0.187335	0.203167	0.493710	0.231981	0.705944	0.287040	0.215830	0.078317	0.218379	0.206105	0.259509	0.113549	0.281986	0.334978	0.181046	0.076771	0.207488	0.166592
54	0.376722	0.137585	0.484894	0.464610	0.338718	0.418966	0.326847	0.249946	0.423095	0.154573	0.496015	0.454657	0.192073	0.110020	0.231278	0.175482	0.293706	0.114262	0.924932	0.632721	0.377037	0.079212	0.105310	0.149178	0.459095	0.166614	0.815992	0.381624	0.381870	0.238598	0.424306	0.238680	0.340292	0.250801	0.421196	0.305089	0.296657	0.181370	0.274909	0.449686	0.270365	0.301713	0.371202	0.429804	0.179927	0.129388	0.141403	0.152000	0.351608	0.118689	0.564708	0.550435	0.232088	0.252622	0.182864	0.199577	0.485165	0.226000	0.700658	0.283915	0.209243	0.070747	0.198123	0.197930	0.258503	0.114441	0.301299	0.319549	0.197192	0.087018	0.225078	0.181264
55	0.414254	0.148763	0.540826	0.516245	0.314600	0.358392	0.293837	0.278846	0.438010	0.163028	0.502058	0.426999	0.163337	0.106168	0.228476	0.175742	0.290384	0.108807	0.913978	0.614857	0.422606	0.067218	0.108668	0.189740	0.467731	0.172973	0.836369	0.373973	0.335556	0.241537	0.401167	0.209511	0.358474	0.256590	0.448088	0.360744	0.325229	0.196128	0.274505	0.442587	0.319451	0.332751	0.372809	0.443137	0.192028	0.120240	0.180645	0.250125	0.361359	0.120993	0.560644	0.505745	0.226761	0.255613	0.195600	0.201048	0.465948	0.211244	0.673278	0.270933	0.171718	0.061360	0.190939	0.200796	0.246741	0.107198	0.281096	0.304796	0.191647	0.088824	0.253139	0.187655
56	0.419869	0.151172	0.555384	0.527594	0.248374	0.299675	0.170015	0.282235	0.438723	0.165780	0.527464	0.426652	0.157571	0.105680	0.229152	0.185903	0.286847	0.104307	0.915734	0.616488	0.423516	0.052101	0.127708	0.192498	0.495005	0.189885	0.890563	0.369564	0.305513	0.231542	0.404447	0.213482	0.373342	0.246140	0.457982	0.411339	0.366003	0.211766	0.240532	0.411949	0.356051	0.339963	0.377153	0.440384	0.196882	0.115704	0.223647	0.276430	0.336085	0.119639	0.547017	0.475603	0.224130	0.246823	0.167376	0.203767	0.458807	0.195838	0.651576	0.266181	0.142971	0.055026	0.175774	0.201841	0.170405	0.071942	0.270657	0.284421	0.215506	0.095396	0.247556	0.190579
57	0.487241	0.174404	0.577555	0.519494	0.208257	0.284160	0.175951	0.266156	0.433763	0.166010	0.529800	0.442618	0.151831	0.114599	0.219892	0.169926	0.279141	0.105252	0.927798	0.609671	0.428369	0.045357	0.140798	0.210071	0.526569	0.204655	0.977957	0.392969	0.316329	0.234538	0.390990	0.300236	0.341771	0.199233	0.436826	0.426182	0.372554	0.215048	0.268661	0.343787	0.359433	0.338576	0.342234	0.441854	0.199104	0.114751	0.230776	0.279599	0.350541	0.129214	0.540613	0.463591	0.191691	0.206740	0.152069	0.207180	0.467947	0.184496	0.630873	0.273179	0.146694	0.054671	0.191133	0.192915	0.118428	0.049313	0.280189	0.248825	0.217159	0.094570	0.242220	0.189913
58	0.593939	0.209997	0.631060	0.522345	0.200630	0.224075	0.169445	0.243254	0.444824	0.169812	0.543483	0.445232	0.150323	0.135976	0.209889	0.140821	0.313173	0.121202	0.860323	0.534361	0.414958	0.047023	0.139210	0.216733	0.546389	0.211369	1.045254	0.426550	0.321112	0.242466	0.388641	0.322955	0.328633	0.183868	0.385900	0.477890	0.366273	0.211030	0.331844	0.290273	0.363284	0.335569	0.264053	0.504294	0.194476	0.104505	0.257948	0.282439	0.378459	0.137607	0.542443	0.399368	0.197608	0.198558	0.153233	0.200118	0.493565	0.185732	0.622467	0.281612	0.132994	0.046898	0.156048	0.141012	0.090528	0.040919	0.284339	0.206733	0.216576	0.094013	0.241922	0.185700
59	0.645840	0.224125	0.681558	0.524170	0.222987	0.202638	0.162535	0.233462	0.468992	0.178154	0.580752	0.445349	0.120245	0.130525	0.210072	0.120911	0.350279	0.135099	0.806384	0.537830	0.377657	0.059915	0.153935	0.217049	0.551236	0.213188	1.064311	0.429292	0.289507	0.214986	0.404831	0.322847	0.331741	0.170925	0.473736	0.505453	0.344921	0.203987	0.349689	0.273341	0.370072	0.338316	0.289003	0.528234	0.225902	0.142969	0.259417	0.285397	0.398865	0.139923	0.544086	0.315442	0.198457	0.185035	0.152078	0.177383	0.516900	0.189091	0.581051	0.276619	0.108972	0.035679	0.146371	0.116434	0.095566	0.045538	0.275610	0.187530	0.210992	0.091714	0.244085	0.175634
60	0.662862	0.224891	0.699807	0.524254	0.215767	0.263037	0.158466	0.238775	0.515462	0.194326	0.645221	0.458052	0.113857	0.126229	0.149057	0.111416	0.347953	0.134231	0.816019	0.538840	0.374820	0.066930	0.211518	0.211814	0.553250	0.213931	1.064820	0.425161	0.299897	0.204583	0.413491	0.346568	0.380833	0.182628	0.508352	0.507321	0.334753	0.203289	0.313114	0.257297	0.395638	0.343939	0.293262	0.544833	0.238945	0.151827	0.266757	0.308963	0.429302	0.140130	0.546452	0.252693	0.203320	0.174748	0.146467	0.151856	0.519397	0.192649	0.536156	0.262907	0.097052	0.032228	0.144747	0.111936	0.141409	0.063267	0.274440	0.176447	0.198474	0.088792	0.247463	0.183058
61	0.660096	0.222794	0.668776	0.500281	0.199266	0.297788	0.158141	0.266219	0.536369	0.202282	0.754803	0.464729	0.102642	0.113689	0.111104	0.107576	0.334834	0.121554	0.824609	0.542213	0.394907	0.069803	0.220968	0.203782	0.551662	0.213692	1.061765	0.398250	0.298544	0.198266	0.460606	0.347818	0.431844	0.196942	0.595970	0.509918	0.372724	0.213928	0.321087	0.249320	0.402041	0.328080	0.297204	0.523321	0.227531	0.149492	0.255116	0.337081	0.451793	0.133869	0.516568	0.198522	0.178685	0.164961	0.152013	0.153093	0.539960	0.188444	0.527619	0.271148	0.110105	0.051243	0.176626	0.112932	0.174234	0.070475	0.268628	0.176318	0.180733	0.071690	0.231681	0.207623
62	0.660298	0.227863	0.661064	0.432464	0.176400	0.298014	0.167487	0.274018	0.534601	0.203223	0.801088	0.457729	0.082775	0.107207	0.129209	0.090296	0.322566	0.118406	0.823012	0.510343	0.411654	0.073254	0.220216	0.201204	0.539710	0.210296	1.033310	0.351324	0.347668	0.210454	0.466662	0.348511	0.426588	0.188829	0.588193	0.525906	0.397698	0.219141	0.378657	0.262345	0.388669	0.297906	0.299675	0.513913	0.219279	0.144473	0.254566	0.342492	0.452817	0.129504	0.457628	0.185556	0.192343	0.159102	0.148927	0.151039	0.580049	0.176573	0.514077	0.285054	0.156170	0.059807	0.189625	0.163515	0.173517	0.069501	0.226365	0.140649	0.182413	0.071922	0.198164	0.237765
63	0.667318	0.239180	0.696396	0.451048	0.172167	0.299107	0.173421	0.253061	0.538985	0.206107	0.802917	0.390397	0.065566	0.106850	0.121389	0.089926	0.295741	0.127942	0.695581	0.442858	0.319964	0.080837	0.213603	0.148479	0.513871	0.201148	0.991281	0.327512	0.351914	0.211146	0.461476	0.343608	0.398940	0.162625	0.547913	0.498547	0.407505	0.222383	0.382408	0.277375	0.406290	0.294253	0.264428	0.546699	0.216516	0.141250	0.262014	0.344244	0.459076	0.134443	0.372143	0.189120	0.197259	0.146455	0.143859	0.141862	0.556843	0.161352	0.497954	0.283486	0.243226	0.171786	0.173438	0.215556	0.171941	0.068899	0.210895	0.089543	0.198324	0.082573	0.188623	0.235949
64	0.725758	0.261457	0.761167	0.463935	0.180033	0.311247	0.176682	0.221449	0.534109	0.204444	0.788660	0.352798	0.058990	0.112397	0.119286	0.091412	0.312439	0.141274	0.606524	0.443914	0.289698	0.079349	0.213260	0.120339	0.470901	0.184171	0.916261	0.324458	0.357613	0.209513	0.410015	0.340615	0.383513	0.143743	0.534955	0.478047	0.412605	0.212084	0.382165	0.278453	0.411322	0.262760	0.270309	0.626785	0.194028	0.137182	0.248783	0.288436	0.461270	0.135624	0.281905	0.206617	0.186655	0.103035	0.145145	0.140610	0.556033	0.163474	0.464967	0.276471	0.246201	0.183630	0.171230	0.216674	0.172127	0.070332	0.204928	0.098235	0.205699	0.090205	0.212877	0.228638
65	0.938836	0.300578	0.801350	0.474437	0.199678	0.330813	0.166620	0.218231	0.505190	0.192859	0.776527	0.344596	0.056154	0.113469	0.131725	0.078093	0.325390	0.147161	0.585263	0.487942	0.286269	0.082199	0.197178	0.115937	0.419288	0.166607	0.843335	0.332407	0.340817	0.191849	0.396657	0.349083	0.362431	0.133282	0.512511	0.426131	0.415079	0.206014	0.387248	0.274573	0.421383	0.205967	0.269387	0.650922	0.192207	0.137817	0.237359	0.276003	0.463861	0.135495	0.275892	0.221004	0.182287	0.087952	0.153425	0.141003	0.555903	0.176449	0.459035	0.260240	0.259240	0.186601	0.176384	0.262481	0.173035	0.071961	0.209676	0.111546	0.188835	0.091463	0.232599	0.226374
66	1.020212	0.311512	0.828347	0.529325	0.215732	0.344432	0.150043	0.219546	0.463030	0.178649	0.762410	0.347670	0.084765	0.114201	0.162907	0.053207	0.361634	0.159760	0.584223	0.523310	0.281565	0.083018	0.231703	0.094252	0.393638	0.161347	0.805310	0.348911	0.340680	0.189625	0.377101	0.341738	0.347174	0.134730	0.507730	0.409809	0.389824	0.190876	0.388801	0.268413	0.404903	0.177843	0.359201	0.652258	0.192266	0.137687	0.235026	0.271684	0.470960	0.134735	0.249028	0.234274	0.180526	0.082624	0.148925	0.139467	0.543911	0.177380	0.403297	0.259495	0.264703	0.191522	0.161494	0.296596	0.173861	0.071746	0.192778	0.133675	0.186437	0.096205	0.237613	0.225346
67	1.006336	0.300744	0.797861	0.517686	0.213413	0.348514	0.147572	0.227647	0.419008	0.167137	0.742895	0.354707	0.161465	0.109400	0.169791	0.071624	0.439199	0.183211	0.591036	0.526068	0.265595	0.076732	0.251750	0.093698	0.392190	0.165697	0.800729	0.354282	0.327151	0.163414	0.360118	0.292283	0.344220	0.138531	0.512809	0.410389	0.347556	0.174400	0.385133	0.228267	0.406486	0.175813	0.444004	0.661160	0.192801	0.142198	0.208814	0.268121	0.454235	0.135100	0.246940	0.317597	0.174629	0.086493	0.136857	0.129969	0.545108	0.176983	0.376008	0.303703	0.303590	0.205939	0.162690	0.312368	0.175243	0.070719	0.200003	0.223222	0.186584	0.096654	0.238100	0.225679
68	0.991073	0.295128	0.739118	0.465855	0.211759	0.334371	0.140691	0.229590	0.406567	0.167493	0.713507	0.361313	0.196348	0.108529	0.232490	0.099006	0.454262	0.185936	0.576369	0.511761	0.247196	0.074470	0.216833	0.094917	0.382925	0.171508	0.790988	0.341383	0.308358	0.145104	0.355762	0.249924	0.344339	0.139467	0.529966	0.369556	0.316301	0.168271	0.349588	0.187280	0.413751	0.178719	0.462541	0.611281	0.160524	0.128114	0.207607	0.265441	0.417206	0.134753	0.529703	0.504987	0.164481	0.085070	0.137368	0.127190	0.545058	0.172048	0.384597	0.424690	0.332331	0.218430	0.172728	0.319228	0.174923	0.068041	0.202168	0.280856	0.186584	0.097716	0.236301	0.218208
69	0.991214	0.295767	0.736434	0.442370	0.289325	0.273882	0.130293	0.223250	0.419936	0.175999	0.713673	0.350951	0.201283	0.110778	0.246493	0.101027	0.441470	0.180441	0.537439	0.502567	0.245360	0.095317	0.187415	0.097964	0.375788	0.177874	0.785283	0.336314	0.299982	0.156068	0.332813	0.245612	0.364404	0.155626	0.475236	0.345416	0.314406	0.168791	0.283359	0.236347	0.444274	0.192906	0.521798	0.580216	0.125664	0.127833	0.195490	0.243970	0.415351	0.138266	0.657576	0.572343	0.160089	0.093002	0.142410	0.124285	0.526114	0.162715	0.383186	0.452705	0.334490	0.223805	0.188368	0.322694	0.170955	0.066978	0.190514	0.290309	0.186354	0.100444	0.226579	0.214916
70	0.964963	0.284879	0.726815	0.429896	0.333314	0.214663	0.124326	0.189909	0.426585	0.178917	0.733688	0.331915	0.207455	0.118314	0.248508	0.100191	0.396502	0.166429	0.560493	0.504886	0.169021	0.147133	0.186376	0.098789	0.337232	0.173275	0.776631	0.335914	0.321660	0.198981	0.328849	0.212526	0.321684	0.144129	0.463475	0.392828	0.327995	0.174048	0.267247	0.282455	0.425989	0.182078	0.510744	0.571175	0.134789	0.131366	0.194768	0.192878	0.408339	0.130439	0.664114	0.579435	0.159698	0.113389	0.175037	0.127045	0.492754	0.161201	0.382909	0.445246	0.331313	0.224221	0.161622	0.319890	0.172969	0.070058	0.227498	0.297846	0.183029	0.105620	0.221926	0.190372
71	0.907065	0.262444	0.681814	0.421118	0.355416	0.201569	0.093272	0.148241	0.427999	0.177571	0.767161	0.304851	0.240555	0.147806	0.240321	0.101256	0.414429	0.173945	0.542659	0.493214	0.166478	0.157586	0.199199	0.098186	0.269360	0.151769	0.712244	0.312276	0.326361	0.207353	0.260570	0.206971	0.277728	0.125874	0.348459	0.431564	0.329565	0.173755	0.273510	0.297242	0.393858	0.162707	0.536979	0.580149	0.138046	0.134273	0.194570	0.160918	0.395896	0.115925	0.675476	0.635630	0.156876	0.123339	0.183713	0.106304	0.478458	0.170446	0.444241	0.457772	0.315160	0.232902	0.143253	0.297852	0.178807	0.071090	0.240443	0.339991	0.170328	0.113498	0.222470	0.147328
72	0.886867	0.259059	0.629863	0.427868	0.364712	0.197208	0.111722	0.130009	0.414090	0.171415	0.786996	0.283942	0.255759	0.162585	0.243047	0.112371	0.459952	0.190490	0.520826	0.481925	0.182520	0.220259	0.210070	0.100917	0.254898	0.166668	0.625150	0.305943	0.273150	0.199284	0.209618	0.206262	0.278543	0.125973	0.412847	0.431099	0.293741	0.155912	0.262671	0.294944	0.393945	0.159394	0.547449	0.616897	0.125848	0.171897	0.188417	0.145480	0.380508	0.105537	0.687013	0.688972	0.147978	0.127703	0.183707	0.090379	0.462407	0.173850	0.561416	0.480022	0.256672	0.180139	0.149221	0.260226	0.138805	0.056100	0.254048	0.348843	0.127776	0.112977	0.219190	0.120080
73	0.876464	0.260424	0.604215	0.433180	0.405737	0.175430	0.128158	0.126778	0.402598	0.168499	0.768374	0.264462	0.255760	0.162324	0.245473	0.121459	0.479443	0.199110	0.501780	0.476046	0.181554	0.226731	0.211187	0.095624	0.345915	0.254639	0.571578	0.447642	0.271637	0.206450	0.196634	0.203060	0.288422	0.135157	0.445783	0.591096	0.267410	0.141335	0.202110	0.279884	0.395985	0.155715	0.637241	0.605805	0.138146	0.179382	0.174869	0.139753	0.337508	0.110099	0.714727	0.758303	0.143370	0.153948	0.177869	0.085080	0.445463	0.168981	0.570619	0.476094	0.260891	0.205018	0.166457	0.256756	0.125408	0.052127	0.280417	0.367307	0.152969	0.129082	0.167837	0.107088
74	0.872833	0.260960	0.602900	0.457869	0.459688	0.133194	0.132517	0.123031	0.364598	0.157473	0.730145	0.234157	0.269600	0.163129	0.259123	0.136100	0.476137	0.194265	0.539629	0.477743	0.167591	0.231222	0.188053	0.074866	0.426379	0.312064	0.561120	0.567806	0.264172	0.213539	0.188893	0.176722	0.355634	0.165187	0.451622	0.800511	0.254493	0.134974	0.209934	0.290291	0.437837	0.171853	0.653176	0.534489	0.139104	0.179846	0.127231	0.096830	0.294965	0.120126	0.816606	0.831864	0.143923	0.157036	0.191755	0.063110	0.441635	0.167831	0.537295	0.467097	0.247564	0.205073	0.158304	0.215249	0.172691	0.062373	0.322641	0.408751	0.141687	0.129019	0.128261	0.112482
75	0.872548	0.257012	0.602829	0.452978	0.512029	0.090103	0.156360	0.128006	0.298722	0.138703	0.659198	0.209492	0.272194	0.163042	0.254991	0.139734	0.456056	0.174042	0.528224	0.438153	0.178014	0.232834	0.136113	0.078377	0.462608	0.327138	0.559970	0.619344	0.259111	0.226983	0.190731	0.146008	0.453160	0.199246	0.448031	0.829163	0.237688	0.142473	0.217128	0.296522	0.421566	0.166355	0.691636	0.448281	0.171734	0.190368	0.113064	0.090613	0.290849	0.123746	0.869440	0.873511	0.156363	0.155938	0.206687	0.062094	0.348275	0.167688	0.518207	0.456423	0.240558	0.201298	0.155247	0.177671	0.261398	0.088752	0.342148	0.460810	0.139032	0.128523	0.103535	0.114867
76	0.867500	0.247115	0.565092	0.438296	0.513367	0.073546	0.175270	0.115212	0.264235	0.128463	0.538255	0.203201	0.249624	0.158209	0.252472	0.136766	0.448704	0.168549	0.448753	0.384959	0.202845	0.237748	0.119285	0.074891	0.517938	0.342402	0.558249	0.623784	0.255903	0.226507	0.172398	0.148115	0.472851	0.204845	0.481782	0.835315	0.219098	0.164119	0.206164	0.294644	0.384509	0.159161	0.678497	0.484966	0.227503	0.193691	0.102758	0.139550	0.303355	0.126570	0.880548	0.890181	0.160651	0.156274	0.199904	0.056785	0.308895	0.168319	0.523071	0.452716	0.195513	0.189253	0.146912	0.146124	0.326191	0.110541	0.377031	0.573393	0.159159	0.135056	0.101772	0.112516
77	0.819052	0.222670	0.474928	0.435972	0.520639	0.101551	0.174519	0.092731	0.251441	0.124245	0.496038	0.279754	0.205141	0.144427	0.216359	0.127119	0.443822	0.163827	0.455189	0.392225	0.205319	0.240615	0.124819	0.068001	0.573514	0.355446	0.559987	0.622775	0.256042	0.226649	0.161698	0.143560	0.477513	0.204234	0.517039	0.830646	0.219820	0.168881	0.203780	0.296167	0.388327	0.168915	0.605587	0.467577	0.237261	0.185887	0.157102	0.206690	0.338095	0.139102	0.884039	0.897615	0.161164	0.154030	0.199768	0.059692	0.311879	0.169493	0.524932	0.458142	0.138960	0.174650	0.133567	0.113031	0.332092	0.111223	0.384011	0.634848	0.161671	0.135976	0.100952	0.111280
78	0.575243	0.168393	0.381889	0.481400	0.494519	0.119306	0.174980	0.093049	0.263083	0.127345	0.524327	0.401599	0.210201	0.151047	0.176682	0.132724	0.389928	0.142997	0.470987	0.388343	0.248504	0.227460	0.124541	0.068612	0.578533	0.356449	0.575923	0.632301	0.260459	0.224935	0.161233	0.124014	0.485632	0.205828	0.499151	0.824592	0.243602	0.171379	0.202380	0.299300	0.428320	0.217945	0.598068	0.471758	0.236765	0.178485	0.153911	0.204169	0.352434	0.144507	0.884030	0.895801	0.160405	0.152087	0.209498	0.061112	0.320830	0.161103	0.536929	0.459327	0.136682	0.188411	0.108149	0.110601	0.335032	0.112327	0.398944	0.633718	0.161630	0.139741	0.103073	0.111156
79	0.395135	0.142206	0.297843	0.474640	0.464133	0.125213	0.178172	0.095814	0.294914	0.137420	0.570342	0.528668	0.219284	0.152332	0.167881	0.145271	0.357042	0.131458	0.464135	0.428486	0.350494	0.222186	0.115544	0.085222	0.604264	0.360442	0.590807	0.659106	0.261696	0.213838	0.154656	0.220864	0.462798	0.191277	0.496373	0.821911	0.255144	0.176002	0.204643	0.294660	0.430859	0.234531	0.547544	0.497606	0.261324	0.177796	0.158546	0.206640	0.343225	0.145434	0.884064	0.895175	0.161816	0.150971	0.221796	0.062305	0.373851	0.155106	0.537980	0.469152	0.142784	0.194433	0.105392	0.111318	0.355246	0.120374	0.429006	0.617398	0.158303	0.133843	0.102931	0.104447
80	0.356168	0.138006	0.265299	0.454665	0.443149	0.125444	0.181270	0.090520	0.304086	0.139878	0.586110	0.591758	0.204941	0.129760	0.166448	0.147706	0.454163	0.152186	0.463355	0.573947	0.352044	0.191577	0.080941	0.081979	0.630061	0.364701	0.592182	0.673717	0.218821	0.171930	0.141351	0.239465	0.438231	0.182184	0.483040	0.797032	0.282664	0.224398	0.203179	0.245422	0.512960	0.238142	0.514563	0.484314	0.281305	0.176343	0.158180	0.209457	0.341054	0.143951	0.874712	0.971767	0.158059	0.143874	0.212227	0.053520	0.431952	0.161423	0.587993	0.516758	0.142398	0.190246	0.122654	0.116902	0.412040	0.133351	0.437216	0.709445	0.161092	0.132112	0.111866	0.102935
81	0.395925	0.150466	0.265536	0.455316	0.437657	0.125889	0.164505	0.081190	0.314909	0.143258	0.586382	0.604930	0.166700	0.096363	0.170643	0.142825	0.540839	0.177090	0.471061	0.781518	0.349411	0.160142	0.084506	0.078305	0.657286	0.371030	0.593956	0.683848	0.229788	0.150241	0.132957	0.240199	0.433003	0.181863	0.472643	0.778099	0.265239	0.221852	0.201563	0.219491	0.521375	0.241154	0.519041	0.473569	0.287456	0.147214	0.176611	0.232593	0.343927	0.142241	0.747015	1.118857	0.152944	0.127479	0.194379	0.055893	0.448330	0.162027	0.716098	0.509283	0.140251	0.184977	0.129638	0.127694	0.438412	0.138259	0.481026	0.807410	0.164635	0.117484	0.144309	0.130827
82	0.432984	0.160508	0.254556	0.464710	0.397760	0.130550	0.138192	0.087344	0.347608	0.152730	0.609502	0.620933	0.164928	0.103817	0.210416	0.135370	0.560346	0.181224	0.420610	0.863201	0.354699	0.152155	0.107052	0.177662	0.692865	0.378780	0.601951	0.689266	0.311182	0.183320	0.130542	0.241272	0.434650	0.183102	0.408080	0.760522	0.257189	0.218980	0.178684	0.204868	0.595093	0.291663	0.507772	0.433109	0.283607	0.134550	0.183291	0.261433	0.378627	0.154328	0.620232	1.252608	0.147860	0.129611	0.189994	0.064729	0.437479	0.154941	0.785239	0.478713	0.096095	0.137814	0.112892	0.134739	0.436137	0.135776	0.483103	0.814728	0.136802	0.096340	0.143064	0.163648
83	0.442914	0.162603	0.301310	0.485779	0.326052	0.136859	0.137419	0.095578	0.369717	0.153212	0.608323	0.652618	0.157499	0.107401	0.238048	0.123541	0.526543	0.163810	0.400422	0.869468	0.366561	0.145937	0.106305	0.198714	0.709076	0.380739	0.648637	0.708911	0.307039	0.186893	0.116348	0.251648	0.423181	0.174056	0.393146	0.628054	0.246666	0.217807	0.137507	0.206617	0.758432	0.390399	0.533143	0.429935	0.284081	0.134294	0.181305	0.286158	0.446641	0.178107	0.611093	1.306921	0.126092	0.099311	0.192261	0.068083	0.434187	0.142235	0.788794	0.479310	0.098340	0.134562	0.111355	0.147308	0.430153	0.132641	0.482686	0.808836	0.142499	0.085687	0.135396	0.169666
84	0.436714	0.158400	0.318256	0.499345	0.231548	0.137581	0.119659	0.095748	0.361867	0.141321	0.595410	0.655924	0.135685	0.103397	0.217732	0.116424	0.508446	0.151323	0.404805	0.945609	0.354893	0.142204	0.115754	0.199303	0.710355	0.375584	0.650366	0.734668	0.319822	0.182826	0.112345	0.261080	0.404011	0.163865	0.380916	0.367881	0.249823	0.218141	0.130381	0.201505	0.858078	0.426413	0.671654	0.475087	0.282615	0.122469	0.185712	0.289936	0.479483	0.193120	0.603509	1.283976	0.119722	0.067328	0.194739	0.075279	0.425861	0.127200	0.771395	0.489023	0.103578	0.134355	0.126411	0.149803	0.442288	0.137253	0.488271	0.820855	0.144543	0.080492	0.212446	0.175008
85	0.402567	0.141680	0.313818	0.495580	0.244294	0.137297	0.117191	0.115147	0.354836	0.131854	0.555831	0.670948	0.138731	0.105539	0.210823	0.123754	0.565205	0.163789	0.402562	1.070119	0.358308	0.124635	0.150833	0.211233	0.709564	0.375087	0.600087	0.755594	0.337060	0.173990	0.109037	0.262478	0.384349	0.158860	0.403678	0.336711	0.263856	0.216800	0.106733	0.167316	0.849627	0.423675	0.704615	0.458378	0.263542	0.109681	0.206625	0.272790	0.485439	0.200066	0.611017	1.280437	0.131414	0.095021	0.195962	0.087483	0.404108	0.107982	0.706737	0.513806	0.104549	0.131711	0.148786	0.168227	0.505374	0.167086	0.478591	0.848692	0.134653	0.093851	0.249727	0.188150
86	0.385537	0.132472	0.309576	0.503860	0.253683	0.142998	0.134648	0.167777	0.367388	0.139351	0.497373	0.743287	0.134935	0.103539	0.226328	0.146212	0.643696	0.187228	0.293339	1.153635	0.364035	0.120372	0.156976	0.243662	0.696944	0.369110	0.541425	0.764406	0.351953	0.192249	0.115321	0.262303	0.374986	0.156719	0.397586	0.289700	0.274862	0.201543	0.096133	0.182250	0.849722	0.423779	0.695682	0.416142	0.257458	0.100969	0.204199	0.223803	0.491806	0.196416	0.603214	1.284147	0.119473	0.099440	0.201068	0.090023	0.409904	0.107679	0.647774	0.526537	0.109456	0.132105	0.157041	0.169839	0.514029	0.177514	0.562273	0.875773	0.127839	0.093452	0.250932	0.199958
87	0.392979	0.132876	0.317495	0.518876	0.229666	0.131792	0.162176	0.187773	0.452681	0.166914	0.487902	0.869342	0.121216	0.096336	0.230750	0.167652	0.702474	0.202636	0.262067	1.184801	0.258733	0.138413	0.166465	0.257616	0.657646	0.328135	0.498532	0.699044	0.353330	0.197596	0.174764	0.267114	0.385616	0.160663	0.346046	0.270427	0.292723	0.179879	0.093062	0.188911	0.884103	0.438487	0.711885	0.404257	0.253650	0.079976	0.221896	0.231766	0.515047	0.196657	0.458740	1.294775	0.137140	0.099392	0.200697	0.099278	0.417744	0.108505	0.644276	0.526384	0.108200	0.107445	0.165567	0.162259	0.470493	0.165031	0.615848	0.855072	0.131120	0.087723	0.251726	0.202190
88	0.441160	0.144359	0.309338	0.669782	0.279896	0.139305	0.160173	0.187518	0.583243	0.212432	0.484682	1.009272	0.098674	0.088833	0.230408	0.173167	0.715411	0.206633	0.280083	1.195739	0.219819	0.162346	0.177990	0.256583	0.600250	0.258239	0.493716	0.600172	0.351061	0.198353	0.246116	0.266095	0.388143	0.162974	0.340828	0.261933	0.302929	0.177539	0.097485	0.191491	0.906615	0.431787	0.833208	0.450439	0.234698	0.077913	0.222528	0.229614	0.551126	0.202610	0.344410	1.296446	0.148335	0.100984	0.197056	0.102904	0.422016	0.108683	0.639099	0.532177	0.125513	0.092828	0.167267	0.176478	0.438752	0.155881	0.603657	0.773045	0.155149	0.098376	0.258186	0.204211
89	0.521537	0.170468	0.293551	0.747177	0.367688	0.149147	0.166481	0.196542	0.731780	0.265986	0.482800	1.165770	0.069540	0.084728	0.230477	0.166785	0.715544	0.205792	0.272555	1.183019	0.224708	0.171741	0.182016	0.270321	0.566716	0.230621	0.492257	0.527203	0.351238	0.198417	0.255281	0.203392	0.396230	0.169534	0.313036	0.243843	0.310459	0.176517	0.101393	0.183288	0.919375	0.417154	0.969613	0.444716	0.212928	0.079834	0.255074	0.229176	0.575058	0.202735	0.329741	1.308146	0.156427	0.102509	0.182083	0.110897	0.420322	0.108774	0.637652	0.541489	0.160805	0.090293	0.159032	0.195781	0.436894	0.156439	0.598083	0.744585	0.169126	0.098786	0.264517	0.202593
90	0.601677	0.199524	0.287857	0.747263	0.385353	0.155264	0.166624	0.215557	0.814387	0.294509	0.530283	1.267813	0.063267	0.085022	0.229338	0.167330	0.732278	0.204667	0.269475	1.200211	0.226202	0.174620	0.182149	0.250374	0.531346	0.211361	0.484430	0.524828	0.350602	0.198297	0.258289	0.165013	0.402572	0.170234	0.344055	0.269780	0.290589	0.145371	0.124171	0.181247	0.904008	0.404392	1.009303	0.419517	0.238262	0.078273	0.267338	0.225850	0.590035	0.197161	0.334729	1.315994	0.162175	0.104764	0.194329	0.125276	0.418953	0.107412	0.636684	0.546092	0.180397	0.092462	0.188241	0.230825	0.441768	0.156627	0.580041	0.758762	0.167997	0.097545	0.249099	0.180127
91	0.669172	0.224630	0.301118	0.716852	0.404150	0.171834	0.180806	0.236733	0.847015	0.302353	0.595262	1.305822	0.072881	0.089721	0.211851	0.166531	0.722221	0.197657	0.289112	1.194920	0.201241	0.174658	0.203780	0.204716	0.483699	0.191318	0.483527	0.589603	0.323243	0.197030	0.261453	0.155676	0.423943	0.172270	0.350036	0.292025	0.279940	0.079226	0.140364	0.162209	0.884972	0.403545	1.012040	0.415304	0.237870	0.080094	0.270359	0.212920	0.636592	0.200653	0.350400	1.325809	0.161776	0.104845	0.196248	0.128577	0.435681	0.104700	0.649485	0.571034	0.185741	0.089378	0.233417	0.248680	0.422750	0.151594	0.569905	0.747081	0.164382	0.096761	0.245539	0.147662
92	0.683552	0.229564	0.409712	0.678382	0.425450	0.181231	0.187179	0.234805	0.853793	0.302532	0.608717	1.291802	0.067867	0.083189	0.153355	0.164887	0.681434	0.178908	0.300846	1.090950	0.193944	0.174450	0.222627	0.212028	0.510171	0.199625	0.469381	0.725186	0.246996	0.168950	0.261719	0.155247	0.437243	0.175140	0.351994	0.252729	0.334008	0.084862	0.138357	0.154617	0.901375	0.392851	1.005950	0.432880	0.239833	0.079916	0.269958	0.181641	0.682041	0.205986	0.364366	1.332105	0.162036	0.100902	0.194358	0.123647	0.422446	0.095053	0.642170	0.584192	0.187279	0.090287	0.252993	0.240357	0.369690	0.153345	0.619068	0.627477	0.156025	0.096682	0.244679	0.149529
93	0.673787	0.225593	0.497761	0.666793	0.438774	0.198117	0.184360	0.230665	0.845861	0.299124	0.571541	1.254827	0.083073	0.107151	0.138009	0.163783	0.643294	0.163203	0.308619	0.980767	0.188503	0.174348	0.231864	0.208064	0.538432	0.207043	0.446815	0.854383	0.219820	0.139683	0.260479	0.147117	0.454366	0.176709	0.350343	0.232785	0.343320	0.084683	0.136168	0.149311	0.821406	0.318380	1.030713	0.415735	0.225419	0.080178	0.267246	0.182738	0.723324	0.209559	0.367236	1.276326	0.161421	0.097451	0.193655	0.122271	0.365665	0.102432	0.633568	0.566497	0.194851	0.097997	0.248150	0.244847	0.363221	0.178450	0.671491	0.550451	0.156024	0.098235	0.205078	0.136085
94	0.680690	0.227101	0.525151	0.671880	0.436174	0.211014	0.165292	0.219265	0.863404	0.301818	0.537516	1.208891	0.093169	0.121005	0.135638	0.163141	0.647208	0.161207	0.342983	0.942944	0.150093	0.173704	0.244746	0.190764	0.544357	0.205540	0.421525	0.918897	0.202372	0.136194	0.251304	0.151069	0.413644	0.154098	0.391222	0.250434	0.348047	0.099445	0.132468	0.151530	0.658037	0.205469	1.054565	0.361878	0.195773	0.089913	0.254075	0.177787	0.721487	0.208849	0.365899	1.086514	0.155450	0.094369	0.197388	0.119803	0.313870	0.113843	0.515437	0.500398	0.199733	0.103214	0.245347	0.254786	0.364030	0.190947	0.684376	0.587163	0.155754	0.088008	0.135924	0.128311
95	0.709622	0.232531	0.519542	0.681776	0.416779	0.196723	0.154599	0.186717	0.905573	0.310803	0.538081	1.201900	0.090201	0.121450	0.121030	0.151899	0.677542	0.161419	0.371812	0.926576	0.144446	0.157202	0.256550	0.176552	0.523709	0.193141	0.405535	0.914245	0.182238	0.121884	0.251036	0.164500	0.348617	0.116534	0.466769	0.341688	0.363709	0.123335	0.145790	0.160958	0.586259	0.171268	1.008981	0.349898	0.221533	0.108313	0.237339	0.175712	0.702108	0.198528	0.366278	0.880173	0.170835	0.090557	0.184786	0.119964	0.293297	0.110862	0.322212	0.457051	0.202043	0.101774	0.256847	0.272878	0.364070	0.200411	0.685534	0.577946	0.156722	0.079719	0.142946	0.108210
96	0.744298	0.238310	0.499200	0.672710	0.419525	0.195028	0.120753	0.164455	0.937508	0.319071	0.526352	1.232818	0.092103	0.121161	0.089397	0.115203	0.665651	0.154519	0.401565	0.808477	0.214918	0.100670	0.247940	0.169310	0.478131	0.169755	0.410298	0.913537	0.188034	0.108256	0.277578	0.184622	0.345742	0.115929	0.498772	0.427379	0.363566	0.126441	0.152032	0.220770	0.603114	0.173999	0.992324	0.442888	0.228866	0.109422	0.219196	0.168303	0.661992	0.176825	0.376510	0.814983	0.185184	0.064087	0.157820	0.118418	0.298999	0.119044	0.291068	0.532540	0.205188	0.100057	0.260769	0.274597	0.337950	0.203180	0.677634	0.554312	0.158345	0.078570	0.138875	0.102104
97	0.794203	0.245449	0.512832	0.665995	0.385561	0.186236	0.127600	0.166304	0.972249	0.330262	0.496071	1.267749	0.095649	0.117575	0.088210	0.072894	0.598981	0.126948	0.407173	0.646034	0.304716	0.070051	0.245430	0.166704	0.448330	0.154508	0.338610	0.941725	0.219299	0.103247	0.281737	0.180145	0.328816	0.109650	0.599370	0.447864	0.355329	0.158233	0.153713	0.246697	0.609177	0.169115	0.988573	0.485933	0.224259	0.105607	0.216087	0.167158	0.682225	0.164955	0.402645	0.857310	0.186117	0.066388	0.157147	0.113953	0.344046	0.163611	0.387934	0.668274	0.192029	0.090846	0.259459	0.266332	0.352877	0.190299	0.675972	0.482692	0.143180	0.069185	0.135744	0.102240
98	0.826212	0.250161	0.533892	0.665087	0.304909	0.179694	0.114903	0.179069	1.036004	0.351461	0.495493	1.316100	0.095113	0.115923	0.085770	0.095535	0.559860	0.132762	0.407679	0.568775	0.312421	0.028961	0.236217	0.155023	0.465268	0.163980	0.233266	0.997622	0.228418	0.104520	0.220450	0.183807	0.327745	0.107658	0.642436	0.504915	0.377172	0.180414	0.157700	0.244597	0.523566	0.111128	0.942343	0.465491	0.240682	0.107693	0.190783	0.164018	0.815488	0.181179	0.415699	0.878603	0.184482	0.072939	0.190757	0.108725	0.345911	0.165485	0.435225	0.688421	0.158838	0.074580	0.258793	0.251359	0.493703	0.185516	0.613788	0.405511	0.123488	0.070464	0.105570	0.100313
99	0.827678	0.250487	0.545866	0.660633	0.275993	0.183081	0.111496	0.168629	1.112140	0.373361	0.491905	1.393056	0.100798	0.114500	0.085654	0.105824	0.656764	0.149966	0.432432	0.511970	0.356845	0.056617	0.232859	0.152309	0.492199	0.178315	0.212423	1.043650	0.241728	0.111583	0.199282	0.181874	0.349560	0.109687	0.665266	0.550789	0.463851	0.190984	0.159139	0.255495	0.477906	0.097118	0.782786	0.425631	0.247195	0.105378	0.156774	0.137287	0.917521	0.198281	0.462625	0.914045	0.199114	0.101608	0.225837	0.102943	0.339440	0.176352	0.430722	0.657159	0.132734	0.065923	0.232661	0.213048	0.572599	0.236070	0.579039	0.393310	0.117415	0.074019	0.106834	0.101357
100	0.843833	0.251506	0.543679	0.640471	0.248444	0.172070	0.120364	0.137348	1.161535	0.387722	0.504620	1.423098	0.102103	0.111579	0.087275	0.106932	0.663077	0.172357	0.428832	0.481244	0.530167	0.093849	0.225881	0.147017	0.533227	0.188648	0.206580	1.075184	0.235862	0.113621	0.206132	0.178261	0.374102	0.124105	0.693092	0.597401	0.470229	0.190756	0.164613	0.256595	0.439548	0.105572	0.687119	0.445749	0.266151	0.106224	0.136195	0.102606	0.952286	0.198498	0.487214	0.884596	0.229641	0.131321	0.226570	0.098505	0.375819	0.202653	0.435519	0.653409	0.124931	0.064360	0.181141	0.184733	0.726403	0.284716	0.599280	0.402262	0.121378	0.085413	0.103811	0.091107
101	0.830482	0.246452	0.545088	0.489948	0.212005	0.168790	0.146998	0.132050	1.172446	0.388379	0.508833	1.382771	0.105091	0.103509	0.069826	0.106730	0.671996	0.207176	0.512854	0.494313	0.580670	0.098729	0.226141	0.141348	0.589547	0.197973	0.260639	1.085961	0.258175	0.123776	0.201388	0.193640	0.354689	0.122432	0.697410	0.602083	0.471648	0.196742	0.148104	0.256669	0.455613	0.124005	0.668129	0.472185	0.263963	0.115957	0.136753	0.095720	0.960828	0.198847	0.478965	0.835302	0.227898	0.131694	0.241370	0.086754	0.377929	0.206335	0.487374	0.663759	0.121582	0.059355	0.151687	0.182007	0.783078	0.294074	0.644868	0.415363	0.113280	0.084528	0.103122	0.075140
