	143_P_T1_sh_R_D_A_02.c3d	143_P_T1_sh_R_D_A_02.c3d	143_P_T1_sh_R_D_A_02.c3d	143_P_T1_sh_R_D_A_02.c3d	143_P_T1_sh_R_D_A_02.c3d	143_P_T1_sh_R_D_A_02.c3d	143_P_T1_sh_R_D_A_02.c3d	143_P_T1_sh_R_D_A_02.c3d	143_P_T1_sh_R_D_A_03.c3d	143_P_T1_sh_R_D_A_03.c3d	143_P_T1_sh_R_D_A_03.c3d	143_P_T1_sh_R_D_A_03.c3d	143_P_T1_sh_R_D_A_03.c3d	143_P_T1_sh_R_D_A_03.c3d	143_P_T1_sh_R_D_A_03.c3d	143_P_T1_sh_R_D_A_03.c3d	143_P_T1_sh_R_D_A_04.c3d	143_P_T1_sh_R_D_A_04.c3d	143_P_T1_sh_R_D_A_04.c3d	143_P_T1_sh_R_D_A_04.c3d	143_P_T1_sh_R_D_A_04.c3d	143_P_T1_sh_R_D_A_04.c3d	143_P_T1_sh_R_D_A_04.c3d	143_P_T1_sh_R_D_A_04.c3d	143_P_T1_sh_R_D_A_06.c3d	143_P_T1_sh_R_D_A_06.c3d	143_P_T1_sh_R_D_A_06.c3d	143_P_T1_sh_R_D_A_06.c3d	143_P_T1_sh_R_D_A_06.c3d	143_P_T1_sh_R_D_A_06.c3d	143_P_T1_sh_R_D_A_06.c3d	143_P_T1_sh_R_D_A_06.c3d	143_P_T1_sh_R_D_A_07.c3d	143_P_T1_sh_R_D_A_07.c3d	143_P_T1_sh_R_D_A_07.c3d	143_P_T1_sh_R_D_A_07.c3d	143_P_T1_sh_R_D_A_07.c3d	143_P_T1_sh_R_D_A_07.c3d	143_P_T1_sh_R_D_A_07.c3d	143_P_T1_sh_R_D_A_07.c3d	143_P_T1_sh_R_D_A_09.c3d	143_P_T1_sh_R_D_A_09.c3d	143_P_T1_sh_R_D_A_09.c3d	143_P_T1_sh_R_D_A_09.c3d	143_P_T1_sh_R_D_A_09.c3d	143_P_T1_sh_R_D_A_09.c3d	143_P_T1_sh_R_D_A_09.c3d	143_P_T1_sh_R_D_A_09.c3d
	Biceps femoris_lat	Semitendinosus_lat	Vastus lateralis_lat	Vastus medialis_lat	Biceps femoris_med	Semitendinosus_med	Vastus lateralis_med	Vastus medialis_med	Biceps femoris_lat	Semitendinosus_lat	Vastus lateralis_lat	Vastus medialis_lat	Biceps femoris_med	Semitendinosus_med	Vastus lateralis_med	Vastus medialis_med	Biceps femoris_lat	Semitendinosus_lat	Vastus lateralis_lat	Vastus medialis_lat	Biceps femoris_med	Semitendinosus_med	Vastus lateralis_med	Vastus medialis_med	Biceps femoris_lat	Semitendinosus_lat	Vastus lateralis_lat	Vastus medialis_lat	Biceps femoris_med	Semitendinosus_med	Vastus lateralis_med	Vastus medialis_med	Biceps femoris_lat	Semitendinosus_lat	Vastus lateralis_lat	Vastus medialis_lat	Biceps femoris_med	Semitendinosus_med	Vastus lateralis_med	Vastus medialis_med	Biceps femoris_lat	Semitendinosus_lat	Vastus lateralis_lat	Vastus medialis_lat	Biceps femoris_med	Semitendinosus_med	Vastus lateralis_med	Vastus medialis_med
	P2D	P2D	P2D	P2D	P2D	P2D	P2D	P2D	P2D	P2D	P2D	P2D	P2D	P2D	P2D	P2D	P2D	P2D	P2D	P2D	P2D	P2D	P2D	P2D	P2D	P2D	P2D	P2D	P2D	P2D	P2D	P2D	P2D	P2D	P2D	P2D	P2D	P2D	P2D	P2D	P2D	P2D	P2D	P2D	P2D	P2D	P2D	P2D
	EMG_lat	EMG_lat	EMG_lat	EMG_lat	EMG_med	EMG_med	EMG_med	EMG_med	EMG_lat	EMG_lat	EMG_lat	EMG_lat	EMG_med	EMG_med	EMG_med	EMG_med	EMG_lat	EMG_lat	EMG_lat	EMG_lat	EMG_med	EMG_med	EMG_med	EMG_med	EMG_lat	EMG_lat	EMG_lat	EMG_lat	EMG_med	EMG_med	EMG_med	EMG_med	EMG_lat	EMG_lat	EMG_lat	EMG_lat	EMG_med	EMG_med	EMG_med	EMG_med	EMG_lat	EMG_lat	EMG_lat	EMG_lat	EMG_med	EMG_med	EMG_med	EMG_med
ITEM	Y	Y	Y	Y	Y	Y	Y	Y	Y	Y	Y	Y	Y	Y	Y	Y	Y	Y	Y	Y	Y	Y	Y	Y	Y	Y	Y	Y	Y	Y	Y	Y	Y	Y	Y	Y	Y	Y	Y	Y	Y	Y	Y	Y	Y	Y	Y	Y
1	0.283390	0.199374	0.117984	0.130177	0.168687	0.095766	0.165542	0.057114	0.073220	0.052046	0.155929	0.155970	0.118801	0.049805	0.154803	0.106706	0.116653	0.063051	0.133121	0.154556	0.125030	0.063228	0.093754	0.120493	0.226258	0.318225	0.038888	0.112839	0.084173	0.058958	0.096758	0.105496	0.180108	0.062648	0.211022	0.215278	0.281766	0.098924	0.102588	0.067695	0.100857	0.333946	0.145197	0.098086	0.051623	0.041153	0.122192	0.060217
2	0.364944	0.218570	0.121831	0.126819	0.132881	0.078069	0.167108	0.053898	0.082121	0.049584	0.165147	0.123487	0.072963	0.030616	0.157245	0.096691	0.114596	0.065544	0.143273	0.151936	0.103418	0.060457	0.089722	0.118726	0.282983	0.413204	0.039747	0.113043	0.061113	0.060278	0.107564	0.101680	0.174815	0.062105	0.259308	0.230048	0.261275	0.091562	0.120950	0.053985	0.106174	0.341227	0.129316	0.072393	0.047959	0.041092	0.118564	0.068776
3	0.442239	0.240033	0.117276	0.125201	0.099275	0.070122	0.169005	0.094928	0.080554	0.049111	0.186505	0.101053	0.072668	0.025696	0.162784	0.089827	0.112769	0.066871	0.143379	0.186303	0.082852	0.058597	0.085744	0.122602	0.274053	0.428681	0.046077	0.102568	0.035053	0.097637	0.107162	0.102685	0.092417	0.060496	0.289596	0.235071	0.250654	0.087133	0.128993	0.047836	0.108214	0.333304	0.089670	0.067718	0.045300	0.040227	0.140008	0.079702
4	0.443645	0.241668	0.099462	0.129409	0.091110	0.069586	0.151869	0.123072	0.076805	0.048714	0.217296	0.111146	0.069016	0.026127	0.175376	0.093026	0.112014	0.070159	0.135225	0.205742	0.080889	0.049362	0.083055	0.130111	0.269148	0.431426	0.051418	0.085355	0.025669	0.118977	0.107241	0.103130	0.044284	0.061466	0.299704	0.261166	0.244145	0.086027	0.127272	0.049491	0.108408	0.310597	0.086101	0.066582	0.045540	0.044275	0.148879	0.090920
5	0.443711	0.241697	0.096359	0.125755	0.085928	0.069782	0.122884	0.125977	0.085940	0.048961	0.231874	0.111583	0.052453	0.023717	0.192296	0.090289	0.119860	0.080607	0.122746	0.194535	0.077780	0.038235	0.080725	0.124210	0.264831	0.422545	0.053622	0.113332	0.025617	0.123647	0.114295	0.104225	0.047108	0.062762	0.295292	0.278679	0.233560	0.081253	0.126556	0.050805	0.118821	0.328113	0.094984	0.068599	0.045132	0.049375	0.154892	0.095306
6	0.443677	0.237384	0.109243	0.101221	0.076302	0.068868	0.114998	0.136805	0.101698	0.048998	0.232735	0.110305	0.052217	0.020160	0.206909	0.091752	0.131119	0.084448	0.093139	0.194118	0.071066	0.030691	0.077970	0.121813	0.239906	0.370077	0.111979	0.268888	0.029203	0.135742	0.141715	0.085150	0.048141	0.067557	0.292189	0.281451	0.231638	0.078588	0.125721	0.050505	0.139725	0.323246	0.102868	0.118055	0.044259	0.050984	0.155655	0.098596
7	0.413298	0.204095	0.108833	0.100848	0.066931	0.067644	0.114601	0.165302	0.101616	0.047945	0.233625	0.118409	0.047594	0.019444	0.207952	0.091765	0.114336	0.079943	0.095374	0.196378	0.064100	0.029131	0.081984	0.129595	0.237991	0.335968	0.174475	0.278956	0.049778	0.141915	0.172456	0.077336	0.044331	0.077018	0.292320	0.280791	0.230336	0.076683	0.125905	0.054515	0.291933	0.316909	0.106450	0.137295	0.039765	0.051715	0.144949	0.097077
8	0.381317	0.172068	0.099685	0.094221	0.050753	0.062811	0.115901	0.176964	0.098641	0.049567	0.230802	0.133372	0.035748	0.018287	0.209427	0.082118	0.093601	0.082092	0.116891	0.186074	0.057321	0.029881	0.082801	0.125912	0.148628	0.297729	0.184407	0.313142	0.057875	0.154336	0.189148	0.079046	0.045994	0.077026	0.293561	0.283076	0.230305	0.076534	0.128913	0.064363	0.389368	0.251016	0.127149	0.135082	0.029884	0.053403	0.140405	0.095899
9	0.381330	0.162554	0.098665	0.088848	0.044792	0.059796	0.113532	0.177708	0.098035	0.053021	0.207887	0.145373	0.028824	0.017949	0.215001	0.071419	0.093468	0.089613	0.164154	0.170190	0.050818	0.029296	0.095121	0.122978	0.081797	0.175663	0.205825	0.327465	0.058187	0.160615	0.199104	0.072415	0.057367	0.080018	0.308710	0.246997	0.201312	0.072160	0.125301	0.066157	0.413193	0.204089	0.135432	0.152083	0.028642	0.055682	0.136149	0.102017
10	0.358402	0.128582	0.094630	0.086959	0.047045	0.053553	0.104745	0.183131	0.081888	0.047797	0.201818	0.144982	0.026768	0.020017	0.213966	0.072269	0.094425	0.088010	0.177334	0.158252	0.045332	0.029853	0.105353	0.124964	0.084026	0.161552	0.271495	0.327896	0.061540	0.175712	0.195728	0.101957	0.064915	0.076617	0.282694	0.193428	0.090419	0.058330	0.116332	0.078908	0.543077	0.196197	0.199001	0.204314	0.030865	0.055826	0.128112	0.157872
11	0.210240	0.086168	0.092276	0.141113	0.044960	0.048732	0.093062	0.188574	0.078606	0.051276	0.224300	0.138901	0.028204	0.021078	0.202875	0.074877	0.098575	0.086980	0.174820	0.077844	0.043901	0.030417	0.106247	0.125456	0.088304	0.156463	0.284456	0.327794	0.072265	0.218953	0.230138	0.160916	0.071156	0.076177	0.250483	0.194638	0.041217	0.051001	0.122050	0.104559	0.698390	0.212571	0.281233	0.211837	0.035983	0.055973	0.125471	0.230651
12	0.164374	0.040075	0.089899	0.281905	0.043415	0.050840	0.091257	0.189561	0.079386	0.051222	0.231312	0.154307	0.029388	0.019643	0.174479	0.087748	0.097457	0.082881	0.181374	0.053976	0.039581	0.031085	0.107806	0.126077	0.100479	0.173802	0.283641	0.301288	0.080309	0.229321	0.277076	0.187712	0.074105	0.077037	0.250100	0.179726	0.027481	0.050615	0.120424	0.116959	0.701166	0.286601	0.403056	0.214745	0.046283	0.057489	0.165347	0.275719
13	0.170488	0.043913	0.153754	0.328575	0.044741	0.053476	0.091122	0.190206	0.075803	0.057300	0.215750	0.184571	0.029973	0.019500	0.182650	0.111630	0.080629	0.072892	0.200339	0.079870	0.033274	0.031384	0.111469	0.126720	0.100410	0.172653	0.256325	0.211477	0.085415	0.220557	0.355193	0.220611	0.075651	0.076608	0.268126	0.156259	0.024271	0.051350	0.117313	0.136381	0.699529	0.298804	0.421887	0.226986	0.048867	0.058580	0.233949	0.287908
14	0.171425	0.044004	0.197474	0.331850	0.044519	0.053696	0.093969	0.168412	0.046406	0.054986	0.242320	0.206425	0.027528	0.019647	0.206767	0.129249	0.078418	0.074222	0.224562	0.104276	0.034201	0.026512	0.113561	0.121146	0.094314	0.161117	0.232452	0.202507	0.104231	0.212808	0.435204	0.227227	0.075124	0.077553	0.260797	0.141710	0.025563	0.051864	0.119236	0.150417	0.696755	0.411965	0.485605	0.246318	0.051669	0.057114	0.328209	0.285190
15	0.167566	0.047404	0.215177	0.360703	0.044451	0.053378	0.104254	0.147855	0.113821	0.069077	0.288790	0.210299	0.029466	0.025809	0.228162	0.129912	0.091504	0.083894	0.250614	0.158667	0.036334	0.025288	0.116370	0.107276	0.087327	0.138704	0.231551	0.136626	0.111182	0.212031	0.459610	0.241424	0.072535	0.069930	0.233533	0.143089	0.032062	0.067684	0.120334	0.152487	0.646629	0.406048	0.554552	0.299710	0.059367	0.056933	0.400987	0.284215
16	0.146433	0.048480	0.216282	0.378468	0.044017	0.052231	0.098986	0.146228	0.128469	0.074344	0.298240	0.223928	0.031529	0.033352	0.245973	0.129274	0.096720	0.079341	0.325145	0.340530	0.036800	0.025032	0.118033	0.116976	0.087744	0.127680	0.191774	0.120262	0.113165	0.204947	0.458362	0.271441	0.073601	0.063110	0.274875	0.148223	0.034406	0.071264	0.128118	0.174371	0.597609	0.406728	0.610867	0.321936	0.059773	0.071020	0.418983	0.302334
17	0.129813	0.065324	0.243234	0.385603	0.046059	0.049591	0.093714	0.135343	0.137861	0.073879	0.319578	0.247322	0.034830	0.034505	0.252202	0.134452	0.098960	0.074639	0.386985	0.357304	0.034755	0.025020	0.146874	0.147383	0.087380	0.131450	0.096941	0.123562	0.108423	0.216141	0.469321	0.321431	0.071829	0.057989	0.283437	0.148305	0.038679	0.074760	0.136781	0.203867	0.589511	0.407147	0.635852	0.316842	0.071980	0.109893	0.427177	0.349277
18	0.123787	0.078910	0.283429	0.386985	0.046087	0.045650	0.099038	0.102726	0.139529	0.074858	0.387444	0.301462	0.034723	0.034592	0.253995	0.158126	0.097173	0.082405	0.396057	0.373169	0.033934	0.023333	0.198376	0.148083	0.070066	0.116302	0.076075	0.135336	0.108128	0.208494	0.513324	0.353050	0.065506	0.058216	0.269584	0.173925	0.043066	0.070016	0.138868	0.224288	0.432190	0.409084	0.621115	0.293892	0.080101	0.116334	0.489779	0.386966
19	0.119998	0.082743	0.306816	0.385418	0.046337	0.058819	0.127801	0.084144	0.145187	0.083480	0.467979	0.325122	0.036891	0.036020	0.261313	0.172780	0.086533	0.080602	0.430063	0.386369	0.038484	0.021087	0.254071	0.143580	0.053487	0.082599	0.104888	0.271997	0.108535	0.251201	0.577844	0.361078	0.065815	0.067713	0.269891	0.173840	0.060142	0.066720	0.175621	0.228990	0.194345	0.468920	0.581597	0.293645	0.082198	0.133921	0.551975	0.409650
20	0.117356	0.086602	0.331459	0.333389	0.047254	0.068629	0.157935	0.082282	0.146627	0.088068	0.478942	0.321009	0.040631	0.041745	0.292450	0.174252	0.126791	0.081403	0.543867	0.435446	0.049277	0.021492	0.309695	0.143190	0.069566	0.102301	0.367347	0.391446	0.110736	0.308835	0.623634	0.356553	0.058237	0.070987	0.248037	0.178622	0.080944	0.069149	0.256182	0.228920	0.191838	0.495855	0.507896	0.291416	0.083460	0.136396	0.591233	0.419931
21	0.116770	0.086569	0.324801	0.257202	0.061678	0.069482	0.165142	0.070162	0.143331	0.086468	0.473036	0.305786	0.048740	0.046644	0.324779	0.173915	0.199572	0.104393	0.640116	0.487413	0.069120	0.057540	0.352568	0.148660	0.068746	0.169644	0.516206	0.405363	0.142698	0.300669	0.625538	0.335738	0.056387	0.072741	0.232748	0.169449	0.101411	0.074136	0.292912	0.228661	0.209439	0.595610	0.494369	0.278286	0.096749	0.175504	0.611787	0.402060
22	0.111581	0.084608	0.291881	0.242204	0.082806	0.090446	0.164967	0.075537	0.142543	0.085093	0.463489	0.289755	0.048771	0.053488	0.333583	0.174339	0.232728	0.110012	0.652774	0.502619	0.072115	0.062162	0.356576	0.166424	0.068307	0.162505	0.519880	0.422591	0.161560	0.331002	0.606615	0.319536	0.054568	0.074843	0.219414	0.162052	0.116420	0.089990	0.294121	0.222199	0.200339	0.596952	0.430164	0.245857	0.116820	0.267028	0.627956	0.364624
23	0.109290	0.085458	0.272229	0.232041	0.086557	0.172303	0.174110	0.093341	0.121694	0.082493	0.434873	0.290567	0.047864	0.057770	0.339000	0.173225	0.243982	0.106662	0.635693	0.447123	0.077104	0.082787	0.372055	0.185408	0.077661	0.161216	0.563059	0.487295	0.162556	0.387145	0.567138	0.300606	0.073974	0.092993	0.237016	0.188130	0.116558	0.103370	0.291472	0.214318	0.173661	0.597948	0.368809	0.264546	0.115509	0.341293	0.622933	0.332209
24	0.101841	0.085746	0.266767	0.173864	0.105873	0.216390	0.192135	0.099502	0.085342	0.075284	0.423302	0.301670	0.050326	0.073272	0.342060	0.161549	0.288663	0.115038	0.581720	0.380967	0.076918	0.111217	0.411517	0.202664	0.113575	0.173718	0.664448	0.520953	0.153736	0.402328	0.511805	0.292631	0.078939	0.097427	0.230800	0.183289	0.140928	0.117593	0.288931	0.203870	0.161987	0.597239	0.355776	0.366008	0.123703	0.347128	0.598300	0.321240
25	0.108268	0.089255	0.277063	0.155303	0.124485	0.229296	0.200480	0.111161	0.066802	0.079029	0.433749	0.333870	0.062062	0.089881	0.332598	0.147928	0.358387	0.121971	0.554714	0.403621	0.077389	0.118352	0.452149	0.218306	0.125556	0.184303	0.692707	0.526863	0.145547	0.401602	0.475632	0.290412	0.076940	0.096703	0.177052	0.193688	0.159178	0.169100	0.283069	0.190184	0.145272	0.596562	0.328455	0.392076	0.141598	0.396071	0.546444	0.332383
26	0.103944	0.098065	0.269145	0.157802	0.126595	0.252079	0.213122	0.117355	0.064551	0.094438	0.453530	0.339629	0.067248	0.088832	0.311902	0.145086	0.364937	0.125981	0.564436	0.393961	0.077129	0.138849	0.482209	0.223388	0.124171	0.190176	0.688307	0.437376	0.145234	0.415377	0.478518	0.285818	0.074314	0.094218	0.191260	0.208869	0.162481	0.177863	0.278519	0.185720	0.144062	0.593192	0.324632	0.387126	0.140976	0.425048	0.494063	0.343552
27	0.099853	0.109239	0.253111	0.182478	0.132543	0.268438	0.233930	0.117620	0.084244	0.099753	0.406895	0.321278	0.067753	0.094486	0.287726	0.145017	0.373280	0.126169	0.522839	0.373660	0.088476	0.143218	0.504910	0.217438	0.118748	0.166557	0.555393	0.369950	0.144773	0.408420	0.475722	0.250828	0.069495	0.087005	0.200296	0.203797	0.167007	0.305167	0.276403	0.176031	0.118988	0.507678	0.325060	0.410906	0.140630	0.449834	0.480166	0.330423
28	0.092650	0.106270	0.220575	0.185365	0.137354	0.366945	0.247389	0.117756	0.111416	0.144004	0.354938	0.310887	0.065908	0.186655	0.266922	0.140995	0.357596	0.121172	0.362499	0.288840	0.094812	0.148100	0.510864	0.198946	0.119807	0.180619	0.480155	0.379946	0.140618	0.407636	0.449340	0.200961	0.068647	0.085991	0.202290	0.203297	0.170165	0.454862	0.272128	0.146640	0.111647	0.461578	0.331101	0.449249	0.134908	0.481012	0.475181	0.285702
29	0.074625	0.102792	0.201044	0.180098	0.166979	0.386224	0.247672	0.113903	0.121368	0.186777	0.366427	0.323787	0.070322	0.250153	0.258131	0.117412	0.320865	0.114227	0.221797	0.211780	0.094722	0.154705	0.498666	0.181323	0.135759	0.223466	0.485553	0.358519	0.139856	0.391898	0.385855	0.189142	0.069223	0.089022	0.198046	0.205693	0.174475	0.473467	0.270780	0.102065	0.065580	0.193890	0.345315	0.477039	0.138609	0.482051	0.421109	0.257630
30	0.070087	0.103035	0.213513	0.167928	0.204378	0.508026	0.232962	0.113132	0.121446	0.190907	0.388783	0.366593	0.093533	0.270378	0.253605	0.088471	0.299913	0.119197	0.205149	0.192532	0.094031	0.161580	0.474532	0.179391	0.122491	0.246843	0.417625	0.297884	0.140695	0.333009	0.308798	0.225808	0.069074	0.092748	0.191448	0.207854	0.190261	0.531370	0.267761	0.076132	0.071340	0.084978	0.358764	0.477582	0.141001	0.478362	0.360387	0.236982
31	0.081234	0.106089	0.212816	0.145566	0.217956	0.665272	0.213907	0.117375	0.127106	0.189644	0.408793	0.390695	0.097136	0.325131	0.219683	0.110681	0.293175	0.120474	0.208940	0.191776	0.091006	0.163077	0.442726	0.180957	0.145872	0.260608	0.300690	0.255172	0.114636	0.324830	0.276398	0.230760	0.055645	0.085213	0.177873	0.188432	0.186020	0.614696	0.210779	0.082973	0.078383	0.088542	0.316105	0.426376	0.140078	0.478516	0.314358	0.218033
32	0.091745	0.106005	0.210694	0.157579	0.230843	0.679685	0.209712	0.139973	0.133380	0.188434	0.420421	0.391169	0.111544	0.425283	0.167568	0.157486	0.175598	0.105636	0.205249	0.146135	0.083109	0.165528	0.400292	0.189286	0.164327	0.472617	0.277893	0.241177	0.060311	0.280641	0.275875	0.248863	0.033066	0.071955	0.146069	0.176537	0.188110	0.632140	0.108607	0.112494	0.077433	0.088567	0.226924	0.384653	0.130490	0.464866	0.283464	0.218587
33	0.092109	0.105801	0.209053	0.171360	0.238491	0.703125	0.228643	0.200178	0.133953	0.187226	0.410570	0.356460	0.113213	0.468080	0.164161	0.206752	0.133251	0.100941	0.174607	0.091290	0.072378	0.168563	0.380506	0.208271	0.166698	0.471550	0.263083	0.275328	0.043339	0.201775	0.276649	0.282832	0.039585	0.072533	0.141154	0.182325	0.179689	0.644573	0.077895	0.132528	0.077281	0.088900	0.230370	0.402958	0.112773	0.417733	0.259327	0.227901
34	0.081936	0.096297	0.182782	0.228997	0.240704	0.699083	0.265913	0.264821	0.133285	0.182012	0.352597	0.303994	0.136421	0.542872	0.180933	0.241308	0.121019	0.118863	0.125268	0.086499	0.069479	0.166102	0.383336	0.260897	0.174317	0.468886	0.293083	0.281160	0.060356	0.140545	0.277906	0.307571	0.043253	0.071338	0.125856	0.181454	0.177398	0.645968	0.085998	0.149066	0.072973	0.092809	0.238982	0.409148	0.110973	0.361276	0.262285	0.237581
35	0.080530	0.073797	0.168828	0.228699	0.232597	0.690866	0.340715	0.306238	0.127598	0.179200	0.268468	0.278732	0.149840	0.680407	0.189728	0.252208	0.062238	0.165882	0.120403	0.130427	0.066418	0.150372	0.378771	0.310036	0.193107	0.454666	0.334712	0.259734	0.061046	0.148647	0.291409	0.310469	0.045476	0.076219	0.099758	0.174594	0.174047	0.664885	0.093457	0.153874	0.087116	0.101860	0.248468	0.379701	0.100105	0.356170	0.263592	0.240621
36	0.085725	0.077611	0.161942	0.218139	0.224014	0.694324	0.426403	0.309253	0.102493	0.150765	0.249532	0.280614	0.147965	0.686037	0.186992	0.250449	0.056818	0.166787	0.269334	0.348988	0.070115	0.138412	0.368130	0.328614	0.195427	0.441795	0.321476	0.226911	0.071273	0.168985	0.317099	0.300621	0.051823	0.078369	0.087814	0.173611	0.148340	0.677899	0.099856	0.154607	0.103111	0.108289	0.241390	0.357357	0.071478	0.300446	0.268825	0.223884
37	0.088091	0.080230	0.164931	0.219819	0.224272	0.690640	0.467095	0.317528	0.091788	0.096792	0.235408	0.296301	0.149706	0.686402	0.185215	0.266039	0.058176	0.156712	0.405421	0.415655	0.074477	0.126401	0.355588	0.322999	0.194223	0.444181	0.297410	0.202579	0.071441	0.168241	0.325329	0.282670	0.052984	0.077194	0.099996	0.189486	0.137347	0.670916	0.117655	0.155941	0.102593	0.099477	0.227040	0.350410	0.065592	0.263251	0.285714	0.202412
38	0.090956	0.085271	0.168779	0.247188	0.220566	0.684368	0.462907	0.339033	0.102531	0.139003	0.219954	0.351284	0.149173	0.689661	0.188457	0.288110	0.062211	0.160431	0.454166	0.420556	0.083993	0.119159	0.337422	0.337933	0.146978	0.407746	0.263603	0.225371	0.073374	0.186492	0.312847	0.274930	0.058515	0.096828	0.106964	0.218622	0.134945	0.659020	0.189170	0.174167	0.102132	0.091252	0.226996	0.354494	0.066597	0.218792	0.298221	0.193374
39	0.090919	0.086200	0.165770	0.310769	0.217121	0.636552	0.463766	0.356645	0.171369	0.180665	0.228718	0.419300	0.149248	0.677007	0.213035	0.288883	0.082969	0.162601	0.454044	0.438188	0.092722	0.126504	0.320798	0.361798	0.137903	0.276186	0.248823	0.208548	0.074730	0.192418	0.289189	0.270650	0.079745	0.213150	0.106442	0.228942	0.126743	0.570154	0.255605	0.191359	0.109323	0.082253	0.233739	0.350660	0.069144	0.115109	0.303670	0.183025
40	0.081540	0.146602	0.185402	0.343854	0.194201	0.626897	0.530028	0.365532	0.170122	0.212369	0.356683	0.440195	0.148554	0.655971	0.227766	0.289002	0.086997	0.169818	0.468421	0.439683	0.095363	0.162203	0.318488	0.380158	0.210649	0.360107	0.244632	0.174233	0.071153	0.206280	0.267578	0.241721	0.091857	0.367714	0.107634	0.231933	0.125542	0.508675	0.272439	0.192715	0.119099	0.082063	0.244865	0.285649	0.057486	0.115974	0.286677	0.153438
41	0.107897	0.289074	0.234959	0.353715	0.153319	0.520457	0.608182	0.371954	0.178277	0.363350	0.468637	0.443257	0.137176	0.656112	0.233307	0.292867	0.089782	0.219959	0.537638	0.442467	0.109608	0.181045	0.318336	0.387164	0.245337	0.462088	0.210137	0.183806	0.071693	0.227940	0.252978	0.232120	0.160437	0.431243	0.137133	0.255837	0.105059	0.500605	0.273921	0.221013	0.131443	0.083573	0.224653	0.238929	0.050761	0.123407	0.255072	0.129757
42	0.158419	0.378829	0.269422	0.335872	0.133476	0.313406	0.626268	0.375175	0.202745	0.527358	0.480186	0.466251	0.132386	0.625453	0.258739	0.295912	0.091492	0.192279	0.588875	0.471838	0.116942	0.311735	0.326830	0.389553	0.230553	0.461316	0.169465	0.195398	0.071521	0.234126	0.250482	0.221419	0.174245	0.611908	0.152077	0.248483	0.086335	0.362301	0.295999	0.268844	0.164615	0.084032	0.218525	0.225854	0.051925	0.119670	0.229348	0.126814
43	0.173567	0.407781	0.273934	0.303491	0.099576	0.279071	0.629419	0.369041	0.232460	0.939768	0.494613	0.466504	0.119564	0.584002	0.285884	0.293113	0.096157	0.171570	0.599853	0.481931	0.117395	0.450706	0.339183	0.392354	0.231779	0.452452	0.177430	0.312184	0.070845	0.234950	0.255142	0.175003	0.174662	0.630860	0.149030	0.246983	0.073981	0.326666	0.349846	0.304873	0.189908	0.092964	0.207447	0.221914	0.053745	0.121032	0.216198	0.126339
44	0.181550	0.409453	0.269187	0.300456	0.069127	0.216132	0.625794	0.337424	0.231470	1.008663	0.540317	0.477673	0.114386	0.526436	0.294285	0.274918	0.112234	0.168253	0.554205	0.379920	0.122685	0.458636	0.355648	0.386379	0.257816	0.497536	0.343271	0.479800	0.058515	0.237621	0.264389	0.126724	0.173930	0.640136	0.154001	0.295958	0.056947	0.271571	0.405318	0.314555	0.250769	0.207353	0.207116	0.183090	0.051763	0.123840	0.199418	0.136639
45	0.258855	0.636694	0.272310	0.303465	0.072380	0.174833	0.611427	0.286318	0.283734	1.008459	0.581544	0.504555	0.095950	0.494649	0.309989	0.240859	0.119467	0.167853	0.491617	0.351875	0.125601	0.600310	0.376260	0.362688	0.258233	0.488604	0.498858	0.528840	0.054088	0.244462	0.274545	0.107723	0.177100	0.640195	0.182146	0.349424	0.065907	0.268509	0.432166	0.308849	0.293732	0.264963	0.249348	0.228169	0.050923	0.125341	0.182224	0.146500
46	0.268306	0.639386	0.280091	0.299340	0.085571	0.160441	0.566660	0.242224	0.339352	1.004594	0.625445	0.498848	0.065945	0.217038	0.301261	0.237720	0.106838	0.159660	0.473059	0.341465	0.128302	0.681642	0.396303	0.307947	0.261788	0.478269	0.529188	0.544234	0.039819	0.206840	0.253638	0.103553	0.221469	0.640856	0.246753	0.343904	0.069262	0.243816	0.443106	0.304127	0.412405	0.436461	0.344202	0.274672	0.051004	0.126381	0.180782	0.157651
47	0.333677	0.695075	0.285139	0.256905	0.091251	0.131466	0.499827	0.234367	0.512937	1.003001	0.650417	0.427544	0.060170	0.142849	0.316723	0.273614	0.093678	0.153392	0.481716	0.341384	0.134531	0.681721	0.372226	0.256582	0.213775	0.411038	0.557855	0.634334	0.036275	0.222740	0.219976	0.123871	0.319199	0.661073	0.293783	0.332484	0.067963	0.148649	0.445408	0.303614	0.418969	0.472846	0.403718	0.274191	0.049914	0.123662	0.176068	0.172865
48	0.341608	0.756012	0.291084	0.181596	0.109986	0.109192	0.454969	0.224839	0.668212	0.998677	0.598710	0.369832	0.043798	0.146665	0.335840	0.275452	0.092447	0.121276	0.487963	0.361857	0.131990	0.681685	0.339069	0.243269	0.214311	0.321609	0.662623	0.700505	0.033428	0.304214	0.193523	0.128588	0.362617	0.746805	0.306152	0.343429	0.066774	0.119555	0.442633	0.305421	0.416842	0.475109	0.399669	0.290637	0.049796	0.111780	0.168672	0.180184
49	0.346906	0.730891	0.283276	0.136270	0.152097	0.109143	0.448727	0.199484	0.698078	0.985056	0.502428	0.363426	0.055704	0.142499	0.339932	0.248852	0.084544	0.066897	0.468769	0.360152	0.128038	0.682467	0.313500	0.234472	0.379659	0.335084	0.712262	0.721216	0.029734	0.317976	0.180620	0.132442	0.353276	0.742722	0.318782	0.464394	0.069422	0.120004	0.433244	0.315032	0.416842	0.479192	0.471388	0.309757	0.051609	0.104871	0.171796	0.184376
50	0.338991	0.694785	0.272378	0.238839	0.171494	0.124571	0.440474	0.190781	0.898706	0.893110	0.469874	0.327998	0.063255	0.137100	0.329590	0.246560	0.083666	0.100513	0.451044	0.291839	0.112671	0.687883	0.298563	0.199303	0.551990	0.327801	0.712778	0.645402	0.037538	0.312294	0.177015	0.137794	0.447636	0.753042	0.409935	0.567464	0.070184	0.115495	0.401137	0.321504	0.441666	0.623545	0.492123	0.312630	0.055740	0.106784	0.160274	0.223509
51	0.330324	0.659446	0.349779	0.402144	0.173891	0.134195	0.355785	0.200680	0.964604	0.614599	0.461442	0.326004	0.070968	0.130549	0.316492	0.258815	0.085359	0.224808	0.418769	0.219697	0.102254	0.679236	0.296390	0.154265	0.605959	0.313739	0.629995	0.550508	0.052214	0.300659	0.177968	0.141485	0.470991	0.713642	0.453357	0.583243	0.069796	0.110780	0.385649	0.328660	0.430765	0.732527	0.496069	0.317854	0.060864	0.099747	0.160558	0.275376
52	0.335981	0.661392	0.448130	0.441758	0.174815	0.131825	0.221584	0.205624	0.978542	0.263814	0.416449	0.319028	0.073714	0.096179	0.346418	0.258177	0.071912	0.416971	0.410102	0.203922	0.096551	0.676415	0.298835	0.123643	0.879306	0.363973	0.524643	0.511689	0.072914	0.346385	0.177253	0.142658	0.482892	0.716888	0.455321	0.576341	0.067943	0.099351	0.393407	0.322948	0.407710	0.782715	0.498131	0.331871	0.066552	0.128717	0.169866	0.305524
53	0.293433	0.607928	0.489022	0.448766	0.174165	0.128528	0.205556	0.202178	0.969852	0.281953	0.354962	0.286550	0.081779	0.094110	0.379473	0.248545	0.080954	0.500764	0.423135	0.203022	0.081200	0.662365	0.294503	0.114604	0.887882	0.390186	0.514723	0.478570	0.074825	0.367367	0.170281	0.145116	0.521567	0.721848	0.447397	0.606592	0.066511	0.088675	0.396059	0.290759	0.390844	0.791242	0.468937	0.274089	0.090786	0.131009	0.179121	0.308770
54	0.279923	0.453787	0.488434	0.519931	0.174184	0.124813	0.236295	0.198333	0.953222	0.299448	0.276612	0.215475	0.085318	0.102133	0.361270	0.229752	0.086868	0.631730	0.420903	0.193868	0.078441	0.570281	0.283329	0.126766	0.885216	0.389783	0.453661	0.337482	0.075550	0.367859	0.157805	0.142458	0.518968	0.722362	0.440890	0.629472	0.066367	0.089541	0.370941	0.240158	0.288035	0.710100	0.384915	0.224893	0.112358	0.149394	0.188223	0.312828
55	0.248858	0.443159	0.570572	0.577270	0.171639	0.111602	0.275109	0.195729	0.886145	0.286078	0.203644	0.180259	0.086442	0.104882	0.346745	0.212579	0.129819	0.632542	0.397367	0.160437	0.074877	0.524348	0.264626	0.150413	0.868118	0.381607	0.296191	0.205579	0.084411	0.361348	0.143296	0.130884	0.484443	0.719718	0.419565	0.629731	0.064402	0.091586	0.305670	0.195523	0.280284	0.709513	0.328966	0.234421	0.120942	0.182353	0.191010	0.301762
56	0.194089	0.276035	0.695626	0.598169	0.165245	0.109594	0.286172	0.197418	0.761571	0.271838	0.288517	0.176555	0.088002	0.106907	0.317654	0.207926	0.201174	0.645321	0.324830	0.109411	0.068361	0.489251	0.240462	0.150044	0.798021	0.377592	0.317330	0.181979	0.088604	0.360471	0.125123	0.127586	0.432167	0.652871	0.425924	0.630673	0.054928	0.083838	0.250811	0.181116	0.280639	0.710831	0.320207	0.251725	0.123560	0.199503	0.192502	0.290554
57	0.188451	0.221028	0.755076	0.607237	0.159109	0.107751	0.287569	0.203264	0.710573	0.267127	0.307687	0.176508	0.085222	0.111375	0.307226	0.200280	0.202218	0.675464	0.270964	0.150486	0.074676	0.195975	0.186306	0.145355	0.693592	0.333997	0.316455	0.183578	0.089440	0.358425	0.121063	0.107771	0.416863	0.502882	0.436604	0.598756	0.043315	0.071828	0.222688	0.182048	0.269544	0.707048	0.179359	0.275599	0.123649	0.199678	0.193100	0.281412
58	0.186754	0.222490	0.769323	0.603758	0.160802	0.100417	0.297309	0.215045	0.484027	0.206040	0.307492	0.174868	0.084985	0.115573	0.288907	0.149975	0.206277	0.670488	0.256915	0.152724	0.066553	0.163067	0.133000	0.147766	0.556134	0.292935	0.329641	0.184276	0.092645	0.337422	0.119221	0.093834	0.396057	0.456541	0.391632	0.470994	0.046176	0.072913	0.214088	0.184110	0.215781	0.549991	0.142376	0.282385	0.124652	0.204682	0.192126	0.272286
59	0.174064	0.202854	0.746734	0.524996	0.148389	0.096324	0.308115	0.218419	0.271185	0.195461	0.308694	0.188520	0.084767	0.110166	0.261639	0.114515	0.201481	0.613677	0.239566	0.152271	0.061951	0.191017	0.130747	0.156151	0.127262	0.206703	0.346250	0.189280	0.093472	0.343996	0.118095	0.096777	0.246802	0.244809	0.328569	0.395328	0.055451	0.092626	0.211974	0.183475	0.218789	0.437587	0.130894	0.277612	0.127066	0.209808	0.211308	0.268632
60	0.153003	0.183621	0.696381	0.443247	0.106057	0.096006	0.334735	0.212696	0.069837	0.187672	0.328212	0.190889	0.077376	0.110431	0.255218	0.110663	0.208765	0.540918	0.199817	0.180661	0.065948	0.217616	0.132549	0.166079	0.133427	0.149677	0.356472	0.178534	0.091895	0.344864	0.113146	0.093484	0.243339	0.207712	0.338829	0.391130	0.064776	0.104293	0.215624	0.172227	0.193840	0.248194	0.112017	0.255373	0.128440	0.205593	0.212821	0.264987
61	0.142875	0.157164	0.641582	0.434636	0.077656	0.072447	0.360443	0.191974	0.087575	0.141366	0.340832	0.180863	0.071532	0.102123	0.254347	0.110314	0.211199	0.364841	0.205969	0.203586	0.070901	0.215731	0.131057	0.171948	0.146462	0.150485	0.363246	0.156280	0.089771	0.355061	0.120156	0.085736	0.153897	0.143028	0.345225	0.348291	0.062911	0.158466	0.222813	0.138354	0.126659	0.203457	0.106523	0.248864	0.126663	0.203976	0.204352	0.230959
62	0.132253	0.129347	0.631046	0.404957	0.073639	0.047173	0.369616	0.164741	0.099017	0.069201	0.339362	0.164636	0.061452	0.095414	0.255617	0.082721	0.233837	0.423317	0.230005	0.208613	0.075654	0.204447	0.126090	0.173506	0.149912	0.139805	0.308739	0.144461	0.083081	0.332750	0.161099	0.084030	0.094335	0.130351	0.339970	0.205021	0.067846	0.187423	0.222987	0.090013	0.125755	0.166565	0.155161	0.257124	0.121140	0.210415	0.204807	0.162467
63	0.126933	0.131375	0.616338	0.330672	0.072727	0.044806	0.361321	0.144228	0.102556	0.051475	0.325049	0.145344	0.058959	0.106534	0.231428	0.063788	0.167041	0.431709	0.236072	0.244866	0.077107	0.213840	0.116254	0.176665	0.150107	0.139452	0.221513	0.140809	0.096520	0.316808	0.180283	0.087290	0.076653	0.123250	0.321846	0.120655	0.094405	0.217753	0.203823	0.081789	0.125834	0.135095	0.262993	0.358592	0.122949	0.209125	0.200358	0.096424
64	0.097526	0.140693	0.534474	0.351654	0.072983	0.044030	0.343060	0.137698	0.103710	0.044538	0.246106	0.151937	0.049308	0.119293	0.114652	0.064338	0.160924	0.378096	0.255884	0.242785	0.075855	0.216787	0.108348	0.174646	0.155159	0.139731	0.230302	0.151784	0.098144	0.332427	0.182360	0.089476	0.068143	0.104868	0.298579	0.108038	0.103435	0.246811	0.183706	0.101375	0.124756	0.117145	0.298110	0.379947	0.120360	0.262555	0.197888	0.099862
65	0.094596	0.140571	0.577654	0.492232	0.073667	0.120773	0.315394	0.137185	0.109359	0.044174	0.223797	0.175476	0.049002	0.167673	0.071033	0.065672	0.162373	0.358568	0.294199	0.229838	0.077760	0.213113	0.109008	0.168159	0.157744	0.148189	0.228367	0.188908	0.096178	0.347531	0.176779	0.086228	0.058292	0.085570	0.269810	0.114062	0.102370	0.266188	0.181000	0.116432	0.126531	0.107433	0.300786	0.353546	0.102667	0.260255	0.203118	0.091582
66	0.077467	0.143507	0.687777	0.536191	0.082470	0.291992	0.274747	0.134484	0.110699	0.035031	0.282739	0.183245	0.047732	0.195143	0.067455	0.066617	0.157421	0.352498	0.343612	0.228698	0.080563	0.213474	0.120219	0.142238	0.137851	0.132851	0.197558	0.215448	0.091362	0.353277	0.158069	0.080850	0.044858	0.078760	0.266607	0.106484	0.102690	0.265409	0.198124	0.127703	0.095109	0.098650	0.317009	0.374832	0.111402	0.318536	0.230415	0.094037
67	0.102642	0.159513	0.691367	0.545468	0.084121	0.416438	0.255194	0.127066	0.105264	0.029754	0.321430	0.174365	0.043641	0.201003	0.066995	0.077376	0.153066	0.325993	0.351756	0.228255	0.079973	0.218153	0.125349	0.127924	0.088826	0.099847	0.180104	0.232401	0.090459	0.352950	0.155461	0.078449	0.045843	0.078644	0.272037	0.105037	0.104292	0.264853	0.256525	0.130755	0.061741	0.082459	0.337941	0.422690	0.111183	0.357701	0.242520	0.093342
68	0.113000	0.177570	0.728504	0.626835	0.109199	0.473798	0.251354	0.120471	0.098026	0.042596	0.330841	0.161789	0.046378	0.247812	0.066358	0.120523	0.151832	0.325182	0.351803	0.212514	0.081045	0.215054	0.125763	0.133749	0.067457	0.086894	0.145259	0.236951	0.089135	0.323704	0.155945	0.081532	0.045732	0.078635	0.252734	0.105906	0.110893	0.299720	0.306651	0.150514	0.051687	0.069381	0.339792	0.449452	0.111669	0.359631	0.241975	0.095050
69	0.116915	0.188680	0.758759	0.738985	0.138824	0.716839	0.239953	0.146247	0.086741	0.078266	0.330710	0.198145	0.055668	0.281849	0.071811	0.151509	0.126425	0.230052	0.350005	0.205096	0.087761	0.216772	0.127050	0.135084	0.097145	0.158993	0.166988	0.224740	0.088641	0.274268	0.158166	0.076265	0.047844	0.079900	0.225169	0.095675	0.111001	0.372907	0.305167	0.162178	0.049125	0.060856	0.345033	0.469825	0.112441	0.371552	0.251686	0.095608
70	0.120854	0.191710	0.798815	0.805227	0.135997	0.747969	0.229587	0.202924	0.072873	0.105139	0.355487	0.212516	0.059346	0.289379	0.097538	0.162239	0.090981	0.094592	0.363662	0.182737	0.109405	0.201811	0.193754	0.151572	0.103991	0.229707	0.194657	0.238944	0.086951	0.267347	0.167852	0.071055	0.056463	0.077123	0.226028	0.119453	0.115310	0.400422	0.306193	0.165125	0.049835	0.053268	0.356853	0.468038	0.110347	0.369651	0.235493	0.093528
71	0.147045	0.224685	0.847232	0.813890	0.134162	0.749507	0.211253	0.229827	0.063858	0.111754	0.376359	0.204063	0.065363	0.296053	0.160356	0.170335	0.082525	0.088941	0.366177	0.122915	0.138435	0.182871	0.242745	0.190256	0.110517	0.294009	0.175742	0.235151	0.085676	0.244456	0.177294	0.073300	0.058576	0.075630	0.262175	0.258976	0.116021	0.545303	0.308623	0.164954	0.051823	0.068802	0.306872	0.386199	0.109717	0.376865	0.219257	0.101084
72	0.150422	0.259039	0.844069	0.785925	0.132520	0.759886	0.231367	0.234207	0.066015	0.113954	0.369216	0.233974	0.109180	0.296500	0.213479	0.173869	0.078886	0.089268	0.337124	0.112330	0.146475	0.175869	0.255912	0.205849	0.107425	0.292646	0.159850	0.211958	0.082311	0.234735	0.153957	0.092820	0.059886	0.077237	0.281872	0.279246	0.120590	0.579904	0.334877	0.163777	0.053727	0.086634	0.291694	0.348124	0.109931	0.380665	0.220356	0.105484
73	0.159267	0.253277	0.808640	0.757113	0.132659	0.796581	0.291343	0.233427	0.068987	0.136518	0.381237	0.245438	0.145849	0.298692	0.224275	0.174913	0.075359	0.090508	0.313728	0.111030	0.191060	0.231395	0.261450	0.205963	0.141141	0.299980	0.212095	0.205269	0.050932	0.201344	0.149191	0.141495	0.061250	0.084697	0.272942	0.275401	0.132319	0.564702	0.351259	0.163191	0.051352	0.096020	0.334443	0.394408	0.111259	0.375913	0.219409	0.103195
74	0.182092	0.291420	0.696080	0.741355	0.146999	0.804532	0.349004	0.237756	0.063285	0.154394	0.372061	0.267533	0.150150	0.307941	0.231021	0.185868	0.077363	0.110143	0.289718	0.123831	0.263402	0.227524	0.280400	0.202346	0.181786	0.361970	0.269638	0.193095	0.049717	0.161550	0.183685	0.156800	0.061355	0.087481	0.308741	0.274032	0.154204	0.562091	0.352046	0.163541	0.055644	0.100661	0.396419	0.403990	0.104561	0.367089	0.220276	0.104701
75	0.181115	0.304411	0.668859	0.757577	0.154369	0.850347	0.377058	0.238845	0.068858	0.169241	0.337274	0.339653	0.149652	0.339262	0.248504	0.204945	0.076932	0.128421	0.290952	0.126577	0.274379	0.217559	0.294809	0.200478	0.188756	0.367029	0.280033	0.200851	0.051423	0.146079	0.190795	0.161223	0.063701	0.086582	0.366297	0.290796	0.156536	0.551460	0.351959	0.153292	0.056488	0.100450	0.392054	0.378649	0.087481	0.331474	0.239487	0.097552
76	0.171006	0.303761	0.659741	0.737900	0.153517	0.847064	0.385861	0.252855	0.073035	0.178150	0.324068	0.415873	0.147769	0.334833	0.258096	0.220506	0.064057	0.132549	0.271832	0.120863	0.275813	0.232994	0.296552	0.204843	0.175547	0.325067	0.282495	0.242544	0.050982	0.155798	0.190178	0.180990	0.073813	0.089004	0.344847	0.320493	0.220022	0.551237	0.352700	0.141766	0.054341	0.101647	0.390450	0.419846	0.084713	0.324890	0.249671	0.088369
77	0.175493	0.298141	0.652986	0.673028	0.149354	0.804374	0.386806	0.276900	0.069980	0.170876	0.351273	0.421869	0.151183	0.322152	0.274408	0.223094	0.066120	0.134201	0.318196	0.168731	0.275937	0.240608	0.308040	0.223584	0.172489	0.295916	0.349485	0.308534	0.049824	0.154972	0.196099	0.199234	0.080131	0.103174	0.334656	0.362926	0.325000	0.553388	0.348134	0.129805	0.055243	0.108278	0.380154	0.447480	0.057809	0.242957	0.228145	0.085599
78	0.192298	0.296496	0.695876	0.572079	0.148703	0.748127	0.402329	0.298804	0.080383	0.161344	0.365769	0.413416	0.153774	0.321461	0.284968	0.222550	0.085665	0.157242	0.398583	0.328050	0.280765	0.240621	0.333534	0.233358	0.167281	0.236992	0.411919	0.311147	0.046839	0.146739	0.202551	0.216530	0.079461	0.117435	0.346066	0.417345	0.333031	0.553881	0.329593	0.130868	0.061575	0.119738	0.351445	0.445664	0.060522	0.180943	0.215195	0.087745
79	0.247574	0.314542	0.650692	0.527008	0.127344	0.709970	0.445998	0.310344	0.091986	0.157318	0.334972	0.461628	0.154370	0.298135	0.285035	0.208466	0.086670	0.162368	0.411858	0.356305	0.291319	0.235282	0.338873	0.228064	0.167183	0.227618	0.412805	0.300966	0.046084	0.146488	0.209731	0.222071	0.081762	0.128154	0.357489	0.411882	0.331492	0.552815	0.271121	0.124255	0.058477	0.113631	0.351554	0.453937	0.090116	0.178266	0.220554	0.087786
80	0.275588	0.288531	0.615541	0.554940	0.088914	0.467015	0.506034	0.303423	0.122959	0.168465	0.338154	0.559308	0.156116	0.263865	0.283750	0.183800	0.089838	0.162567	0.398900	0.366260	0.288789	0.239591	0.349486	0.226364	0.119269	0.215208	0.417389	0.339280	0.047663	0.152785	0.211790	0.221940	0.079003	0.127632	0.350949	0.356729	0.330058	0.511413	0.241375	0.096933	0.054767	0.098349	0.347365	0.487925	0.099247	0.152542	0.219250	0.087054
81	0.301506	0.272344	0.676562	0.590366	0.097581	0.438075	0.563873	0.267637	0.130050	0.162432	0.331046	0.562336	0.158710	0.250337	0.278706	0.172006	0.095875	0.162840	0.390576	0.405532	0.285584	0.241738	0.358209	0.230288	0.101554	0.143302	0.478264	0.381876	0.047416	0.160266	0.207877	0.219605	0.074028	0.120477	0.354439	0.358902	0.330263	0.488072	0.240664	0.078401	0.056172	0.090307	0.290907	0.512011	0.102765	0.154216	0.213247	0.086939
82	0.298896	0.260213	0.689370	0.560354	0.118301	0.445739	0.581486	0.243822	0.132575	0.146830	0.296153	0.566336	0.161067	0.245565	0.256541	0.163727	0.092061	0.156335	0.388882	0.407126	0.272688	0.263627	0.319711	0.200988	0.098534	0.185799	0.481758	0.389984	0.044216	0.162668	0.203263	0.214005	0.072388	0.129686	0.341418	0.382104	0.326157	0.387081	0.236230	0.076711	0.080488	0.090961	0.277115	0.523258	0.102858	0.149710	0.207538	0.088847
83	0.447218	0.229513	0.629678	0.486729	0.147285	0.430785	0.561510	0.239389	0.136491	0.163991	0.305842	0.577102	0.157222	0.241517	0.211347	0.157811	0.144234	0.158526	0.397016	0.422295	0.269704	0.275583	0.298499	0.162811	0.120672	0.205007	0.461297	0.349717	0.053047	0.178129	0.190251	0.188265	0.082167	0.153065	0.306352	0.448996	0.324136	0.210248	0.215279	0.074842	0.099039	0.098373	0.350886	0.525117	0.099994	0.142221	0.205007	0.110024
84	0.489793	0.239705	0.600888	0.500245	0.173754	0.362182	0.523677	0.240382	0.137946	0.182750	0.332333	0.574542	0.136982	0.247910	0.189832	0.157148	0.157873	0.163656	0.408583	0.427009	0.267796	0.271693	0.297526	0.156290	0.138612	0.207319	0.402777	0.288566	0.054324	0.186061	0.151664	0.163478	0.101101	0.173068	0.339891	0.482306	0.322303	0.181169	0.149847	0.075108	0.101176	0.105026	0.367852	0.464313	0.101194	0.145809	0.207324	0.123041
85	0.494365	0.224653	0.597136	0.559997	0.201455	0.344577	0.484550	0.236916	0.145635	0.184537	0.298731	0.567305	0.132198	0.248693	0.186677	0.148256	0.151572	0.158744	0.348177	0.369747	0.185203	0.250270	0.285371	0.170151	0.167148	0.221296	0.360747	0.287296	0.048337	0.201043	0.128009	0.161135	0.110610	0.183205	0.390044	0.473292	0.314556	0.187658	0.107854	0.073078	0.111538	0.110530	0.366448	0.426670	0.107209	0.136237	0.205389	0.126031
86	0.489463	0.220804	0.542907	0.607286	0.212086	0.214431	0.463085	0.237555	0.167796	0.186686	0.239275	0.562898	0.201056	0.189827	0.160585	0.121865	0.157940	0.174436	0.266934	0.314355	0.142005	0.252287	0.267369	0.177565	0.166735	0.226118	0.358356	0.280634	0.040326	0.168566	0.125801	0.141382	0.122745	0.181047	0.392702	0.438832	0.315622	0.213287	0.106896	0.075725	0.108959	0.095917	0.354914	0.430770	0.108387	0.134627	0.175377	0.121648
87	0.477330	0.198149	0.519431	0.637377	0.249662	0.195897	0.457580	0.223406	0.168926	0.184155	0.236124	0.540399	0.214584	0.173067	0.147536	0.087098	0.162746	0.214295	0.301310	0.332877	0.143820	0.272364	0.264971	0.178468	0.168662	0.222387	0.291849	0.198829	0.039794	0.166906	0.116315	0.113025	0.125168	0.174146	0.385631	0.398341	0.329048	0.204056	0.104394	0.077562	0.109957	0.092343	0.337644	0.423989	0.108588	0.133837	0.142155	0.119350
88	0.445673	0.171825	0.556147	0.615269	0.275569	0.193284	0.459902	0.194917	0.160626	0.176216	0.221028	0.447830	0.214910	0.152710	0.123131	0.081626	0.159385	0.212981	0.325011	0.325525	0.143678	0.268152	0.263587	0.163983	0.176680	0.260755	0.153419	0.113538	0.039971	0.166821	0.105239	0.071671	0.126575	0.171330	0.401005	0.399113	0.233415	0.176617	0.096969	0.078220	0.150216	0.093794	0.344067	0.384767	0.109391	0.129862	0.134022	0.118782
89	0.428567	0.167793	0.530707	0.591003	0.298115	0.190673	0.452695	0.165022	0.144606	0.173484	0.204876	0.492642	0.216636	0.159227	0.100335	0.091193	0.154310	0.207621	0.305461	0.322149	0.138083	0.317563	0.241702	0.133879	0.174844	0.240346	0.146863	0.088592	0.039727	0.164568	0.085241	0.031881	0.138822	0.184009	0.429288	0.404015	0.183687	0.176073	0.083464	0.073795	0.171752	0.099684	0.372603	0.293900	0.105421	0.112282	0.131287	0.115384
90	0.414738	0.168600	0.428332	0.555015	0.300520	0.188640	0.416626	0.137247	0.143298	0.174322	0.281607	0.657810	0.216819	0.162501	0.109940	0.098759	0.196186	0.247890	0.305244	0.316995	0.117569	0.320005	0.230937	0.123558	0.196305	0.232072	0.172510	0.127367	0.037902	0.157101	0.062854	0.021789	0.145862	0.192155	0.436874	0.418153	0.190475	0.183780	0.065712	0.057287	0.192756	0.099590	0.340064	0.232341	0.079742	0.106620	0.119991	0.114992
91	0.382556	0.165420	0.390287	0.537804	0.300472	0.184837	0.346451	0.105676	0.137228	0.158750	0.485340	0.661450	0.215589	0.169875	0.112764	0.100491	0.272060	0.295282	0.283497	0.306110	0.101506	0.319423	0.238942	0.122768	0.282494	0.245322	0.187870	0.132160	0.042642	0.150365	0.030708	0.021808	0.148424	0.201769	0.434801	0.387858	0.195152	0.208276	0.064877	0.042403	0.211812	0.106822	0.282910	0.257321	0.066423	0.096861	0.092095	0.117855
92	0.142686	0.112678	0.396592	0.535315	0.297986	0.144297	0.241194	0.094484	0.139610	0.107593	0.556045	0.629256	0.213608	0.178830	0.112198	0.097827	0.380481	0.316468	0.257950	0.322603	0.102504	0.330506	0.209620	0.115353	0.375414	0.243587	0.202684	0.139132	0.048613	0.145595	0.011595	0.022576	0.137831	0.204111	0.408047	0.300593	0.219091	0.228508	0.069666	0.040592	0.271489	0.102657	0.278691	0.293018	0.059176	0.090263	0.075111	0.122348
93	0.114618	0.091847	0.398471	0.488059	0.290840	0.108096	0.171976	0.097055	0.135528	0.096594	0.560482	0.659864	0.211234	0.176658	0.105575	0.096379	0.485421	0.324914	0.239302	0.314207	0.103017	0.323361	0.180791	0.106229	0.592591	0.276809	0.201318	0.167002	0.044204	0.122387	0.009157	0.021817	0.127740	0.202949	0.352179	0.251083	0.278084	0.275892	0.073667	0.042309	0.289075	0.090530	0.279630	0.294077	0.054289	0.069765	0.091985	0.119542
94	0.130702	0.100149	0.380485	0.362957	0.278838	0.087259	0.157397	0.097487	0.108788	0.088478	0.618000	0.699849	0.203814	0.175965	0.099448	0.096909	0.490005	0.297010	0.232141	0.272274	0.093923	0.309572	0.171640	0.105332	0.596308	0.266833	0.283438	0.171852	0.047763	0.100103	0.012976	0.041914	0.113962	0.194486	0.319034	0.258465	0.291230	0.279370	0.074046	0.043165	0.350102	0.098871	0.281567	0.303275	0.053401	0.068970	0.097485	0.110148
95	0.166059	0.111548	0.327269	0.240323	0.262826	0.074052	0.157238	0.100674	0.106754	0.096896	0.694565	0.725220	0.190921	0.173403	0.099393	0.100046	0.491413	0.283989	0.152059	0.257823	0.078543	0.281822	0.169258	0.104414	0.615815	0.194429	0.304582	0.186631	0.053873	0.071170	0.043981	0.115304	0.101834	0.195718	0.323239	0.258443	0.303926	0.281485	0.074440	0.044768	0.361515	0.102169	0.320078	0.300810	0.051545	0.057040	0.092690	0.110989
96	0.195414	0.115147	0.240398	0.196835	0.234502	0.091931	0.156654	0.102433	0.129649	0.114083	0.743709	0.729857	0.186732	0.169153	0.097295	0.104029	0.536891	0.290386	0.128244	0.218237	0.074746	0.271077	0.170865	0.087306	0.613851	0.196574	0.361991	0.207321	0.056911	0.027438	0.072854	0.163903	0.104654	0.210101	0.323970	0.256521	0.307474	0.280922	0.072924	0.045439	0.345388	0.106619	0.383359	0.291903	0.053049	0.070048	0.086787	0.115568
97	0.211293	0.108929	0.174608	0.206308	0.223445	0.106830	0.154831	0.099346	0.131790	0.110008	0.765583	0.695280	0.135697	0.169078	0.096402	0.106108	0.569615	0.293230	0.153587	0.202161	0.073280	0.271388	0.172556	0.061306	0.609712	0.197885	0.349726	0.191801	0.065164	0.030673	0.084480	0.176934	0.097582	0.215298	0.267821	0.245079	0.299441	0.271175	0.071698	0.041632	0.332307	0.098949	0.365658	0.288071	0.060888	0.105346	0.087534	0.119999
98	0.231660	0.110723	0.175328	0.194234	0.177993	0.115905	0.150826	0.095441	0.138453	0.112406	0.761475	0.551428	0.088329	0.175340	0.094116	0.107192	0.629163	0.275978	0.190271	0.218818	0.057409	0.253619	0.171621	0.050056	0.555040	0.180752	0.342623	0.192864	0.071901	0.034805	0.086675	0.178382	0.079506	0.203820	0.228985	0.229832	0.281880	0.255472	0.067069	0.037186	0.313961	0.091465	0.331742	0.282956	0.060300	0.107887	0.088107	0.128386
99	0.232939	0.106682	0.230221	0.160985	0.134587	0.119462	0.140879	0.090494	0.151165	0.125356	0.666959	0.464002	0.096361	0.183080	0.089106	0.104338	0.592212	0.228738	0.208157	0.190867	0.042279	0.241336	0.168786	0.049221	0.445838	0.153179	0.336277	0.197775	0.077823	0.044643	0.088724	0.198450	0.073688	0.187124	0.222923	0.195572	0.263614	0.255151	0.058829	0.043340	0.292177	0.073225	0.320334	0.242128	0.059866	0.108919	0.089076	0.130144
100	0.230612	0.101723	0.262057	0.136390	0.075703	0.147123	0.115818	0.078914	0.213446	0.159504	0.558566	0.457003	0.085618	0.178027	0.078635	0.092769	0.496718	0.197410	0.206663	0.174504	0.045261	0.185677	0.165464	0.050611	0.246904	0.125680	0.330637	0.209087	0.078985	0.046038	0.097904	0.211244	0.066752	0.165187	0.219735	0.189265	0.260420	0.265124	0.053486	0.047896	0.234925	0.064720	0.318665	0.218664	0.060434	0.111298	0.093379	0.137657
101	0.230632	0.101626	0.254853	0.132190	0.069485	0.185302	0.081742	0.071909	0.216638	0.169853	0.557665	0.412947	0.083837	0.169294	0.056650	0.079590	0.461344	0.192404	0.196973	0.176683	0.048179	0.137735	0.143126	0.052603	0.216926	0.161482	0.276597	0.218195	0.086645	0.061289	0.099977	0.215911	0.058798	0.138962	0.193189	0.188362	0.251414	0.264850	0.054630	0.048276	0.225128	0.064978	0.322946	0.212839	0.062339	0.113624	0.093332	0.141677
