	144_P_T1_sh_R_D_A_02.c3d	144_P_T1_sh_R_D_A_02.c3d	144_P_T1_sh_R_D_A_02.c3d	144_P_T1_sh_R_D_A_02.c3d	144_P_T1_sh_R_D_A_02.c3d	144_P_T1_sh_R_D_A_02.c3d	144_P_T1_sh_R_D_A_02.c3d	144_P_T1_sh_R_D_A_02.c3d	144_P_T1_sh_R_D_A_03.c3d	144_P_T1_sh_R_D_A_03.c3d	144_P_T1_sh_R_D_A_03.c3d	144_P_T1_sh_R_D_A_03.c3d	144_P_T1_sh_R_D_A_03.c3d	144_P_T1_sh_R_D_A_03.c3d	144_P_T1_sh_R_D_A_03.c3d	144_P_T1_sh_R_D_A_03.c3d	144_P_T1_sh_R_D_A_04.c3d	144_P_T1_sh_R_D_A_04.c3d	144_P_T1_sh_R_D_A_04.c3d	144_P_T1_sh_R_D_A_04.c3d	144_P_T1_sh_R_D_A_04.c3d	144_P_T1_sh_R_D_A_04.c3d	144_P_T1_sh_R_D_A_04.c3d	144_P_T1_sh_R_D_A_04.c3d	144_P_T1_sh_R_D_A_05.c3d	144_P_T1_sh_R_D_A_05.c3d	144_P_T1_sh_R_D_A_05.c3d	144_P_T1_sh_R_D_A_05.c3d	144_P_T1_sh_R_D_A_05.c3d	144_P_T1_sh_R_D_A_05.c3d	144_P_T1_sh_R_D_A_05.c3d	144_P_T1_sh_R_D_A_05.c3d	144_P_T1_sh_R_D_A_06.c3d	144_P_T1_sh_R_D_A_06.c3d	144_P_T1_sh_R_D_A_06.c3d	144_P_T1_sh_R_D_A_06.c3d	144_P_T1_sh_R_D_A_06.c3d	144_P_T1_sh_R_D_A_06.c3d	144_P_T1_sh_R_D_A_06.c3d	144_P_T1_sh_R_D_A_06.c3d	144_P_T1_sh_R_D_A_07.c3d	144_P_T1_sh_R_D_A_07.c3d	144_P_T1_sh_R_D_A_07.c3d	144_P_T1_sh_R_D_A_07.c3d	144_P_T1_sh_R_D_A_07.c3d	144_P_T1_sh_R_D_A_07.c3d	144_P_T1_sh_R_D_A_07.c3d	144_P_T1_sh_R_D_A_07.c3d	144_P_T1_sh_R_D_A_08.c3d	144_P_T1_sh_R_D_A_08.c3d	144_P_T1_sh_R_D_A_08.c3d	144_P_T1_sh_R_D_A_08.c3d	144_P_T1_sh_R_D_A_08.c3d	144_P_T1_sh_R_D_A_08.c3d	144_P_T1_sh_R_D_A_08.c3d	144_P_T1_sh_R_D_A_08.c3d	144_P_T1_sh_R_D_A_09.c3d	144_P_T1_sh_R_D_A_09.c3d	144_P_T1_sh_R_D_A_09.c3d	144_P_T1_sh_R_D_A_09.c3d	144_P_T1_sh_R_D_A_09.c3d	144_P_T1_sh_R_D_A_09.c3d	144_P_T1_sh_R_D_A_09.c3d	144_P_T1_sh_R_D_A_09.c3d	144_P_T1_sh_R_D_A_10.c3d	144_P_T1_sh_R_D_A_10.c3d	144_P_T1_sh_R_D_A_10.c3d	144_P_T1_sh_R_D_A_10.c3d	144_P_T1_sh_R_D_A_10.c3d	144_P_T1_sh_R_D_A_10.c3d	144_P_T1_sh_R_D_A_10.c3d	144_P_T1_sh_R_D_A_10.c3d
	Biceps femoris_lat	Semitendinosus_lat	Vastus lateralis_lat	Vastus medialis_lat	Biceps femoris_med	Semitendinosus_med	Vastus lateralis_med	Vastus medialis_med	Biceps femoris_lat	Semitendinosus_lat	Vastus lateralis_lat	Vastus medialis_lat	Biceps femoris_med	Semitendinosus_med	Vastus lateralis_med	Vastus medialis_med	Biceps femoris_lat	Semitendinosus_lat	Vastus lateralis_lat	Vastus medialis_lat	Biceps femoris_med	Semitendinosus_med	Vastus lateralis_med	Vastus medialis_med	Biceps femoris_lat	Semitendinosus_lat	Vastus lateralis_lat	Vastus medialis_lat	Biceps femoris_med	Semitendinosus_med	Vastus lateralis_med	Vastus medialis_med	Biceps femoris_lat	Semitendinosus_lat	Vastus lateralis_lat	Vastus medialis_lat	Biceps femoris_med	Semitendinosus_med	Vastus lateralis_med	Vastus medialis_med	Biceps femoris_lat	Semitendinosus_lat	Vastus lateralis_lat	Vastus medialis_lat	Biceps femoris_med	Semitendinosus_med	Vastus lateralis_med	Vastus medialis_med	Biceps femoris_lat	Semitendinosus_lat	Vastus lateralis_lat	Vastus medialis_lat	Biceps femoris_med	Semitendinosus_med	Vastus lateralis_med	Vastus medialis_med	Biceps femoris_lat	Semitendinosus_lat	Vastus lateralis_lat	Vastus medialis_lat	Biceps femoris_med	Semitendinosus_med	Vastus lateralis_med	Vastus medialis_med	Biceps femoris_lat	Semitendinosus_lat	Vastus lateralis_lat	Vastus medialis_lat	Biceps femoris_med	Semitendinosus_med	Vastus lateralis_med	Vastus medialis_med
	P2D	P2D	P2D	P2D	P2D	P2D	P2D	P2D	P2D	P2D	P2D	P2D	P2D	P2D	P2D	P2D	P2D	P2D	P2D	P2D	P2D	P2D	P2D	P2D	P2D	P2D	P2D	P2D	P2D	P2D	P2D	P2D	P2D	P2D	P2D	P2D	P2D	P2D	P2D	P2D	P2D	P2D	P2D	P2D	P2D	P2D	P2D	P2D	P2D	P2D	P2D	P2D	P2D	P2D	P2D	P2D	P2D	P2D	P2D	P2D	P2D	P2D	P2D	P2D	P2D	P2D	P2D	P2D	P2D	P2D	P2D	P2D
	EMG_lat	EMG_lat	EMG_lat	EMG_lat	EMG_med	EMG_med	EMG_med	EMG_med	EMG_lat	EMG_lat	EMG_lat	EMG_lat	EMG_med	EMG_med	EMG_med	EMG_med	EMG_lat	EMG_lat	EMG_lat	EMG_lat	EMG_med	EMG_med	EMG_med	EMG_med	EMG_lat	EMG_lat	EMG_lat	EMG_lat	EMG_med	EMG_med	EMG_med	EMG_med	EMG_lat	EMG_lat	EMG_lat	EMG_lat	EMG_med	EMG_med	EMG_med	EMG_med	EMG_lat	EMG_lat	EMG_lat	EMG_lat	EMG_med	EMG_med	EMG_med	EMG_med	EMG_lat	EMG_lat	EMG_lat	EMG_lat	EMG_med	EMG_med	EMG_med	EMG_med	EMG_lat	EMG_lat	EMG_lat	EMG_lat	EMG_med	EMG_med	EMG_med	EMG_med	EMG_lat	EMG_lat	EMG_lat	EMG_lat	EMG_med	EMG_med	EMG_med	EMG_med
ITEM	Y	Y	Y	Y	Y	Y	Y	Y	Y	Y	Y	Y	Y	Y	Y	Y	Y	Y	Y	Y	Y	Y	Y	Y	Y	Y	Y	Y	Y	Y	Y	Y	Y	Y	Y	Y	Y	Y	Y	Y	Y	Y	Y	Y	Y	Y	Y	Y	Y	Y	Y	Y	Y	Y	Y	Y	Y	Y	Y	Y	Y	Y	Y	Y	Y	Y	Y	Y	Y	Y	Y	Y
1	0.612090	0.801983	0.219061	0.200552	0.183704	0.452376	0.260122	0.217450	0.524702	0.580768	0.365568	0.181052	0.274237	0.318469	0.315500	0.260020	0.636545	0.599679	0.246723	0.175314	0.352167	0.504984	0.150388	0.167729	0.372301	0.648277	0.255539	0.103735	0.442202	0.581195	0.140627	0.222411	0.617801	0.973027	0.539653	0.425713	0.178164	0.259779	0.288570	0.083851	0.499004	0.520952	0.330849	0.084563	0.700246	0.949899	0.153876	0.208257	0.511933	0.469956	0.261935	0.183731	0.250031	0.382297	0.266116	0.137340	0.511769	0.389292	0.102517	0.054561	0.734473	0.436898	0.211228	0.307569	0.446131	0.610036	0.088994	0.045975	0.227180	0.418037	0.305644	0.176051
2	0.610216	0.739273	0.189368	0.202839	0.179947	0.462414	0.256424	0.218980	0.543663	0.568580	0.344314	0.166783	0.286817	0.314619	0.315728	0.258015	0.615311	0.586524	0.244358	0.157316	0.310308	0.504972	0.149770	0.184753	0.384604	0.613797	0.266564	0.102060	0.435534	0.582023	0.142028	0.229771	0.655158	0.997459	0.539675	0.426407	0.147177	0.258092	0.286714	0.078980	0.497008	0.519682	0.346481	0.081909	0.762292	0.964795	0.150116	0.164891	0.429947	0.423930	0.261895	0.184835	0.136525	0.337710	0.272561	0.141283	0.512577	0.379830	0.109161	0.061935	0.679922	0.427614	0.207144	0.293802	0.415996	0.647613	0.143286	0.074544	0.229142	0.426408	0.305212	0.176391
3	0.543971	0.719764	0.186258	0.206682	0.161847	0.435371	0.254357	0.220477	0.549432	0.564976	0.298063	0.165408	0.294632	0.302886	0.314596	0.258579	0.606415	0.592386	0.269901	0.140356	0.310721	0.514227	0.144324	0.187275	0.388820	0.615437	0.272996	0.115745	0.436733	0.578712	0.166618	0.229603	0.662800	1.116285	0.539726	0.427652	0.110931	0.247261	0.284658	0.077875	0.511499	0.539661	0.346704	0.081081	0.766735	0.960621	0.146658	0.161303	0.443526	0.423276	0.266590	0.184810	0.143585	0.350656	0.270387	0.159113	0.489297	0.387671	0.112123	0.081615	0.543926	0.391116	0.152818	0.251732	0.399663	0.686629	0.176020	0.090767	0.210388	0.445450	0.292436	0.174242
4	0.484997	0.748658	0.186136	0.203444	0.218832	0.363706	0.256924	0.213952	0.532267	0.535214	0.212157	0.162487	0.290076	0.299331	0.312390	0.268046	0.549863	0.477001	0.292697	0.141592	0.321233	0.545437	0.143013	0.171826	0.381178	0.605669	0.236462	0.130707	0.421769	0.595454	0.160447	0.233588	0.609293	1.142093	0.539609	0.427899	0.105362	0.215239	0.273411	0.077235	0.500049	0.540174	0.361694	0.086657	0.766069	0.946390	0.166309	0.162311	0.469779	0.416241	0.232394	0.178840	0.145108	0.352006	0.256220	0.159851	0.513325	0.423415	0.146264	0.100618	0.239107	0.241685	0.116136	0.245075	0.281880	0.704859	0.203748	0.091150	0.195728	0.442418	0.327234	0.195195
5	0.503077	0.846252	0.183796	0.204074	0.249271	0.338711	0.217079	0.194803	0.504733	0.503956	0.204035	0.161231	0.320609	0.301847	0.314801	0.315391	0.487631	0.396016	0.290044	0.122133	0.319079	0.488660	0.147707	0.181807	0.437454	0.625588	0.212857	0.152511	0.415949	0.591611	0.154759	0.241746	0.598375	1.104661	0.538178	0.427351	0.113320	0.231204	0.270771	0.087817	0.409132	0.563113	0.387335	0.096838	0.800636	0.952964	0.173230	0.146697	0.430944	0.304083	0.214284	0.137323	0.146876	0.356592	0.252133	0.158600	0.567168	0.520486	0.181142	0.112605	0.238079	0.248978	0.110864	0.193124	0.256053	0.703666	0.253557	0.093677	0.192577	0.428034	0.328438	0.194533
6	0.518354	0.904051	0.194670	0.203270	0.256453	0.350085	0.217532	0.203357	0.536013	0.525179	0.208111	0.163051	0.330705	0.278602	0.298514	0.360305	0.464821	0.441976	0.274674	0.125545	0.288849	0.496870	0.161071	0.168931	0.465235	0.605324	0.212769	0.154169	0.378154	0.492218	0.159026	0.246590	0.582889	1.067954	0.477422	0.389573	0.090115	0.251763	0.230578	0.093570	0.367083	0.663245	0.391949	0.108134	0.820820	0.962911	0.180118	0.132125	0.440528	0.297545	0.244513	0.149054	0.159143	0.390120	0.253684	0.153705	0.515341	0.564245	0.194046	0.176312	0.224402	0.226655	0.099501	0.084943	0.280797	0.726003	0.260332	0.123542	0.179138	0.422656	0.329905	0.210367
7	0.509551	0.911818	0.251021	0.185457	0.308699	0.345727	0.224414	0.202714	0.405728	0.463486	0.211225	0.160452	0.321268	0.225109	0.279504	0.362674	0.409767	0.494861	0.269360	0.131035	0.254564	0.478496	0.161417	0.155262	0.475851	0.556262	0.214184	0.164733	0.355911	0.407851	0.162883	0.225951	0.570638	1.066299	0.415835	0.304325	0.097858	0.254445	0.182341	0.108279	0.399073	0.727516	0.381725	0.124295	0.831292	0.918012	0.169681	0.123835	0.427468	0.321509	0.207672	0.170333	0.185417	0.456648	0.248528	0.141396	0.431851	0.545212	0.247282	0.196095	0.244537	0.215443	0.095760	0.066562	0.306551	0.743224	0.295903	0.130827	0.179780	0.403246	0.329412	0.220081
8	0.534831	0.913050	0.326271	0.176515	0.320238	0.348435	0.217770	0.210479	0.390429	0.417007	0.237610	0.133292	0.317823	0.149523	0.306328	0.361012	0.372115	0.497388	0.288283	0.124326	0.233209	0.461387	0.167600	0.154190	0.460939	0.535983	0.229159	0.170465	0.321378	0.405541	0.162876	0.243292	0.553840	1.044721	0.408220	0.293451	0.110394	0.266564	0.181873	0.139655	0.388063	0.726166	0.349711	0.145476	0.756277	0.799656	0.159837	0.114419	0.432814	0.326963	0.163475	0.163953	0.208446	0.498008	0.221826	0.128769	0.448557	0.570694	0.260422	0.204841	0.231114	0.195086	0.093169	0.064857	0.330374	0.787020	0.319558	0.173038	0.171318	0.407248	0.320967	0.222242
9	0.599290	0.906550	0.342579	0.181718	0.353935	0.351860	0.201658	0.205776	0.473129	0.474934	0.249398	0.110544	0.297353	0.171784	0.311502	0.345094	0.370022	0.489688	0.289021	0.125504	0.243576	0.462503	0.141192	0.174362	0.410967	0.435633	0.225316	0.170659	0.306667	0.394855	0.166924	0.262413	0.544682	1.053571	0.407757	0.240435	0.192521	0.275995	0.171486	0.141933	0.381580	0.722596	0.374719	0.149348	0.655495	0.667415	0.161055	0.101948	0.484477	0.362415	0.168726	0.166586	0.212596	0.494540	0.210676	0.128599	0.423392	0.574589	0.257855	0.239562	0.218365	0.179563	0.116566	0.049993	0.467970	0.733451	0.367852	0.186362	0.178929	0.414453	0.311372	0.210228
10	0.551583	0.882989	0.346368	0.163341	0.363144	0.391272	0.209498	0.205006	0.498114	0.523760	0.253629	0.112263	0.283906	0.227128	0.304564	0.333915	0.367193	0.489134	0.271039	0.131353	0.231051	0.453747	0.116322	0.186821	0.473694	0.415271	0.200814	0.181338	0.297133	0.353820	0.186829	0.284903	0.478596	1.050558	0.376559	0.136218	0.255701	0.281895	0.147821	0.133483	0.385975	0.754071	0.396013	0.148876	0.691091	0.713012	0.155351	0.101885	0.668521	0.541196	0.182407	0.172834	0.209586	0.478474	0.208172	0.128885	0.461587	0.558819	0.296918	0.264290	0.215078	0.179644	0.129972	0.042454	0.495948	0.696224	0.399865	0.189416	0.177435	0.374417	0.292181	0.239937
11	0.540678	0.908151	0.383716	0.154363	0.398573	0.396104	0.210935	0.199454	0.507100	0.606008	0.257322	0.089836	0.282111	0.291839	0.262877	0.338581	0.328410	0.473143	0.238736	0.125304	0.197790	0.453046	0.106610	0.185413	0.531933	0.411305	0.195415	0.183993	0.288137	0.340771	0.200586	0.292937	0.391760	0.952919	0.204176	0.110736	0.278746	0.258445	0.138509	0.130160	0.404385	0.733971	0.384930	0.147695	0.663204	0.635624	0.163403	0.103389	0.663761	0.568056	0.203661	0.175449	0.202734	0.471913	0.208612	0.131098	0.465542	0.552984	0.339646	0.264341	0.240014	0.185924	0.133574	0.041518	0.489593	0.709164	0.399913	0.192339	0.164230	0.358338	0.259917	0.240510
12	0.532634	0.914253	0.430528	0.188155	0.416962	0.377832	0.197866	0.170015	0.511613	0.673545	0.239384	0.074595	0.272342	0.321156	0.236366	0.344053	0.269173	0.467433	0.277853	0.111268	0.200736	0.453287	0.109751	0.186217	0.551625	0.424883	0.176368	0.203350	0.248270	0.320219	0.220525	0.315309	0.414161	0.840968	0.079930	0.082740	0.286741	0.245901	0.156097	0.137416	0.404927	0.696480	0.335385	0.151385	0.591517	0.591332	0.182007	0.094902	0.690651	0.583975	0.218911	0.241501	0.215397	0.455233	0.190697	0.128488	0.469003	0.553325	0.353789	0.261980	0.236216	0.288630	0.133473	0.041591	0.483644	0.730085	0.398204	0.201660	0.151965	0.353869	0.253036	0.238452
13	0.560316	0.899460	0.452135	0.201743	0.433251	0.357242	0.178129	0.169387	0.515823	0.625480	0.223735	0.100240	0.264122	0.420029	0.240664	0.348180	0.266520	0.465270	0.313039	0.113075	0.200992	0.418646	0.110805	0.177001	0.560187	0.454032	0.174409	0.195258	0.261306	0.294020	0.226141	0.397110	0.383859	0.809691	0.092178	0.056725	0.315046	0.262173	0.209231	0.160978	0.403553	0.710120	0.318555	0.182108	0.585966	0.618638	0.182556	0.105685	0.764286	0.638418	0.216595	0.249564	0.210706	0.451965	0.224939	0.118676	0.484282	0.555857	0.353207	0.260615	0.238353	0.318218	0.140158	0.041845	0.501428	0.713559	0.382521	0.196058	0.156480	0.338173	0.215872	0.237091
14	0.561555	0.823825	0.458883	0.205202	0.459433	0.335609	0.193443	0.289718	0.578373	0.657247	0.235065	0.156941	0.242141	0.499921	0.252602	0.351850	0.261948	0.426602	0.306037	0.103673	0.196135	0.399357	0.112807	0.162823	0.557162	0.458115	0.182768	0.183074	0.261234	0.288295	0.260023	0.410773	0.321453	0.752668	0.093019	0.052291	0.317553	0.261109	0.255027	0.173969	0.392992	0.692315	0.330025	0.205038	0.602707	0.635910	0.175078	0.092237	0.775626	0.732209	0.241598	0.297196	0.199133	0.448661	0.226955	0.111492	0.469179	0.542808	0.352356	0.255266	0.232679	0.317757	0.175204	0.039475	0.583558	0.689366	0.368921	0.189250	0.157107	0.341236	0.103554	0.200818
15	0.552207	0.829715	0.462346	0.207774	0.481908	0.332531	0.212173	0.326691	0.737426	0.720561	0.269297	0.164987	0.236567	0.520913	0.261254	0.351921	0.233885	0.388258	0.276965	0.098136	0.177556	0.368411	0.114059	0.161118	0.560312	0.425539	0.181686	0.165071	0.262515	0.195155	0.271457	0.410397	0.296271	0.544312	0.094251	0.041931	0.317199	0.259802	0.257429	0.181953	0.374529	0.690771	0.336135	0.207966	0.583075	0.630164	0.166845	0.159607	0.763236	0.745063	0.285603	0.306813	0.199387	0.444596	0.228833	0.077385	0.417813	0.514374	0.338876	0.250192	0.232470	0.310050	0.186632	0.070102	0.612063	0.643669	0.367581	0.192297	0.147854	0.340207	0.085823	0.194874
16	0.538913	0.754030	0.460393	0.208010	0.479274	0.364354	0.291089	0.333274	0.791084	0.796288	0.319092	0.170222	0.236857	0.527105	0.270681	0.339518	0.201268	0.457578	0.282682	0.099498	0.148641	0.294993	0.126433	0.148392	0.529147	0.364981	0.184699	0.164091	0.272512	0.189451	0.270674	0.407192	0.343655	0.439758	0.094681	0.039966	0.319365	0.245778	0.260660	0.177940	0.382294	0.679904	0.315831	0.222489	0.522835	0.601682	0.174810	0.180499	0.765038	0.735775	0.264850	0.289441	0.198608	0.441954	0.232841	0.073506	0.345559	0.421829	0.325627	0.245033	0.228312	0.287880	0.186003	0.084646	0.648023	0.670601	0.329814	0.191658	0.135488	0.300116	0.083960	0.185410
17	0.529344	0.750937	0.441638	0.209872	0.502557	0.452747	0.359519	0.368559	0.799033	0.819489	0.370950	0.193760	0.159263	0.525205	0.271867	0.297167	0.259196	0.445241	0.290821	0.093275	0.158832	0.238942	0.112452	0.150172	0.517810	0.372763	0.188625	0.155506	0.257186	0.183680	0.268729	0.407087	0.380052	0.411950	0.093484	0.038771	0.319098	0.222187	0.254835	0.183506	0.371019	0.588789	0.307119	0.230684	0.504758	0.573450	0.183741	0.184210	0.760951	0.730301	0.269671	0.276280	0.200298	0.424747	0.229877	0.070419	0.338357	0.361749	0.319593	0.204485	0.206490	0.317803	0.187416	0.095497	0.652347	0.674926	0.325561	0.178893	0.145537	0.273183	0.081247	0.176568
18	0.520876	0.752510	0.427336	0.233316	0.495629	0.459743	0.383724	0.377149	0.783726	0.840195	0.402756	0.205583	0.138887	0.524619	0.258308	0.237082	0.257357	0.360992	0.297819	0.082421	0.155289	0.257063	0.113002	0.155532	0.517553	0.379944	0.167137	0.146605	0.248499	0.220565	0.263745	0.405453	0.447376	0.424034	0.094127	0.034393	0.327166	0.226636	0.259911	0.175258	0.327173	0.475602	0.316667	0.234980	0.461199	0.519078	0.184696	0.213236	0.757929	0.731420	0.271309	0.274348	0.191666	0.387190	0.236889	0.073313	0.341365	0.355569	0.277466	0.188424	0.194186	0.400250	0.187750	0.096960	0.678200	0.675920	0.303533	0.180002	0.155117	0.278792	0.066945	0.164814
19	0.452762	0.752333	0.412515	0.245460	0.466068	0.458191	0.376629	0.382616	0.773108	0.853417	0.405052	0.205523	0.150187	0.524546	0.216244	0.226273	0.254047	0.341881	0.282484	0.085650	0.143767	0.256417	0.104039	0.166925	0.517150	0.416197	0.161700	0.133420	0.249751	0.247641	0.273410	0.388909	0.553387	0.470127	0.093842	0.028921	0.331454	0.231558	0.281774	0.153425	0.338359	0.426716	0.341145	0.218265	0.459393	0.510844	0.195942	0.227034	0.640071	0.635281	0.262321	0.267619	0.166533	0.339667	0.249602	0.083774	0.303745	0.305829	0.258957	0.178308	0.180470	0.429136	0.174514	0.097008	0.678266	0.622101	0.292157	0.153164	0.146816	0.238039	0.064993	0.157968
20	0.348119	0.762128	0.412838	0.227513	0.459679	0.455822	0.420825	0.379714	0.767551	0.850334	0.387532	0.206573	0.155010	0.529011	0.176197	0.222832	0.251747	0.363524	0.281116	0.083275	0.126966	0.257506	0.104844	0.153658	0.447248	0.373371	0.138682	0.115837	0.248183	0.253450	0.272701	0.370732	0.556586	0.454111	0.091970	0.024038	0.290807	0.220232	0.285429	0.151111	0.366163	0.429278	0.328314	0.249834	0.399770	0.436209	0.197629	0.227616	0.533977	0.547565	0.257923	0.266604	0.158300	0.301909	0.226059	0.083243	0.297314	0.284051	0.261586	0.130475	0.182760	0.455477	0.153032	0.100947	0.600044	0.600093	0.248373	0.126731	0.178825	0.240607	0.071127	0.094942
21	0.291419	0.686521	0.388437	0.266848	0.435255	0.450881	0.492002	0.375623	0.732728	0.820738	0.375445	0.208079	0.166017	0.532512	0.170819	0.190043	0.265372	0.375301	0.303164	0.098661	0.112126	0.260182	0.105807	0.123182	0.370868	0.382219	0.142178	0.122028	0.246900	0.264566	0.268349	0.349319	0.608459	0.406358	0.089295	0.025048	0.244216	0.204369	0.286326	0.152619	0.362231	0.381866	0.293408	0.258749	0.302340	0.410208	0.195380	0.227194	0.516963	0.540905	0.236103	0.229768	0.161124	0.300344	0.255335	0.087521	0.236674	0.331351	0.218772	0.071598	0.130196	0.453906	0.147887	0.104993	0.561688	0.605233	0.165664	0.123484	0.201236	0.400460	0.071276	0.067591
22	0.271568	0.580426	0.338052	0.362263	0.419371	0.432030	0.503978	0.375829	0.741003	0.795402	0.373593	0.216382	0.188978	0.537043	0.171933	0.151690	0.257675	0.392817	0.305817	0.139327	0.132093	0.265054	0.101934	0.120736	0.332502	0.366113	0.138816	0.092809	0.245910	0.275932	0.268526	0.312019	0.624382	0.400358	0.114204	0.037711	0.216332	0.225182	0.278043	0.153854	0.354462	0.368748	0.297126	0.264257	0.297946	0.397758	0.177917	0.225242	0.351574	0.550398	0.234565	0.202523	0.160086	0.310700	0.268438	0.083836	0.244084	0.335702	0.148794	0.072759	0.100623	0.430249	0.146966	0.114170	0.581116	0.588832	0.170220	0.120788	0.204781	0.423463	0.068269	0.064654
23	0.210695	0.609320	0.289711	0.351560	0.410138	0.430383	0.507682	0.376909	0.799752	0.787446	0.380471	0.227262	0.278730	0.534017	0.172518	0.131607	0.309924	0.502742	0.272764	0.186146	0.139402	0.287979	0.099542	0.117896	0.310620	0.320349	0.142472	0.129516	0.240772	0.282246	0.240019	0.308617	0.653225	0.411934	0.142164	0.125934	0.214629	0.220057	0.265685	0.146441	0.434941	0.417531	0.296758	0.272913	0.285767	0.373877	0.169639	0.225860	0.266223	0.430671	0.220583	0.155356	0.153672	0.310307	0.268820	0.103959	0.292199	0.366476	0.119342	0.072265	0.131047	0.482181	0.158756	0.135444	0.597704	0.569673	0.170702	0.115804	0.196820	0.452707	0.066026	0.070520
24	0.181424	0.601272	0.279882	0.380554	0.362173	0.498952	0.508642	0.378074	0.865503	0.773113	0.393966	0.235909	0.304118	0.543275	0.168326	0.114626	0.316440	0.556544	0.226176	0.202056	0.173822	0.380513	0.101175	0.114198	0.310629	0.309937	0.157067	0.145910	0.203094	0.275857	0.233320	0.227024	0.720978	0.418258	0.219774	0.176574	0.214865	0.203534	0.226152	0.118716	0.574784	0.484451	0.289908	0.257771	0.135282	0.294381	0.167096	0.232080	0.263857	0.400536	0.162670	0.065604	0.148651	0.328328	0.269156	0.107991	0.396713	0.421693	0.120235	0.078715	0.130082	0.485094	0.133465	0.137827	0.584793	0.521811	0.175752	0.110394	0.194341	0.495840	0.075172	0.071392
25	0.175806	0.557862	0.275593	0.407120	0.345318	0.511023	0.506425	0.387992	0.861832	0.790417	0.401541	0.229228	0.300311	0.473464	0.163293	0.100906	0.314058	0.562644	0.212766	0.253566	0.226407	0.410309	0.097891	0.102612	0.241865	0.292466	0.176612	0.146008	0.138941	0.313450	0.208465	0.131493	0.775072	0.437357	0.224715	0.196329	0.320436	0.241296	0.187248	0.107173	0.596119	0.512159	0.285426	0.236354	0.129305	0.288141	0.146195	0.206864	0.291897	0.452831	0.101389	0.045517	0.139554	0.331434	0.268439	0.113588	0.415908	0.429414	0.120911	0.091026	0.148208	0.483934	0.121007	0.124817	0.528114	0.497020	0.177673	0.107374	0.193677	0.579386	0.078707	0.112455
26	0.178482	0.499806	0.273742	0.409730	0.318290	0.510680	0.499677	0.355634	0.826320	0.778288	0.396159	0.203641	0.396401	0.502844	0.136287	0.118137	0.312690	0.557335	0.223420	0.288702	0.228307	0.411927	0.096403	0.098130	0.220225	0.297454	0.175021	0.145110	0.137736	0.319909	0.151021	0.141861	0.781382	0.440833	0.236368	0.269703	0.325199	0.257771	0.192992	0.117320	0.655983	0.509928	0.274782	0.242069	0.125382	0.293161	0.122423	0.188602	0.292192	0.451474	0.094194	0.043230	0.127907	0.360552	0.271347	0.122119	0.516430	0.443711	0.120273	0.086516	0.152904	0.485096	0.123249	0.123128	0.458066	0.493311	0.156918	0.105781	0.194164	0.592986	0.086113	0.162972
27	0.168160	0.401093	0.284399	0.412192	0.269260	0.510662	0.496823	0.285290	0.672187	0.726182	0.375321	0.208819	0.424662	0.526159	0.121421	0.209320	0.300399	0.500541	0.217647	0.296205	0.229931	0.458054	0.078172	0.098414	0.214805	0.424085	0.170516	0.150178	0.134374	0.322558	0.140547	0.141519	0.773735	0.441456	0.238596	0.304775	0.320112	0.258833	0.185538	0.117647	0.686313	0.520377	0.265101	0.303820	0.183080	0.337667	0.104607	0.190481	0.262296	0.453976	0.091872	0.038193	0.126848	0.370225	0.267808	0.125185	0.561545	0.440838	0.118585	0.085784	0.154251	0.467373	0.122045	0.119245	0.411230	0.467594	0.162382	0.123091	0.184957	0.627704	0.173026	0.172735
28	0.166520	0.382568	0.258537	0.414285	0.244077	0.510870	0.465916	0.281726	0.685149	0.669726	0.335279	0.212678	0.424046	0.536186	0.096466	0.220493	0.366053	0.511122	0.204799	0.297448	0.237669	0.518985	0.066862	0.088045	0.192076	0.431487	0.173299	0.155169	0.129085	0.334499	0.137192	0.135778	0.753139	0.438174	0.252500	0.305945	0.319707	0.256873	0.179935	0.116597	0.700110	0.602457	0.262963	0.318882	0.254308	0.420388	0.096183	0.174131	0.246073	0.429534	0.100183	0.033307	0.124808	0.411201	0.263421	0.138872	0.563790	0.442277	0.119583	0.086495	0.153896	0.404311	0.139222	0.118411	0.383892	0.418201	0.174643	0.124080	0.171926	0.637336	0.189346	0.215615
29	0.146285	0.349012	0.203364	0.407352	0.149258	0.443643	0.407908	0.247219	0.683514	0.633182	0.287336	0.195271	0.423485	0.543258	0.166657	0.236610	0.582157	0.578525	0.190220	0.298735	0.320367	0.563701	0.089594	0.092500	0.193659	0.433257	0.172155	0.157331	0.146691	0.330952	0.137861	0.129545	0.747746	0.446560	0.257247	0.317972	0.308773	0.254889	0.183618	0.115355	0.745517	0.687831	0.252373	0.341955	0.295500	0.423221	0.111575	0.135540	0.239734	0.423929	0.095175	0.033104	0.115671	0.412135	0.262599	0.143645	0.560942	0.444720	0.134553	0.086601	0.213767	0.396722	0.151190	0.123128	0.327285	0.375914	0.169546	0.126208	0.182843	0.632529	0.189060	0.253650
30	0.142161	0.341557	0.174608	0.404531	0.185989	0.438645	0.365396	0.200209	0.686483	0.581038	0.252104	0.181367	0.422670	0.549313	0.216850	0.261474	0.672745	0.601343	0.211249	0.304734	0.452133	0.583791	0.131156	0.114166	0.191226	0.431545	0.168000	0.155902	0.158291	0.301168	0.122218	0.128480	0.701609	0.435731	0.260559	0.335023	0.302669	0.238593	0.148955	0.114674	0.768674	0.708226	0.217921	0.354171	0.293782	0.420082	0.129456	0.128960	0.224843	0.417815	0.083130	0.044051	0.104715	0.383693	0.249334	0.145118	0.562265	0.440693	0.145865	0.175619	0.263134	0.413252	0.164644	0.120664	0.297077	0.365669	0.146323	0.120987	0.160421	0.629242	0.188625	0.256673
31	0.139934	0.325790	0.189252	0.406438	0.259392	0.459919	0.359927	0.173584	0.689050	0.556617	0.242819	0.182237	0.420531	0.550678	0.220285	0.284379	0.829961	0.662224	0.225690	0.359849	0.462926	0.584245	0.147806	0.119382	0.186149	0.421111	0.166105	0.147255	0.155520	0.297818	0.102327	0.132084	0.652201	0.404025	0.263795	0.335736	0.299187	0.242205	0.149987	0.119417	0.768912	0.711052	0.169614	0.415894	0.306867	0.377528	0.129001	0.130038	0.209651	0.386435	0.078833	0.044404	0.097892	0.376276	0.254112	0.155094	0.554698	0.416311	0.275102	0.381778	0.380408	0.434242	0.164965	0.152287	0.307390	0.298643	0.141887	0.119652	0.133185	0.553355	0.261946	0.258519
32	0.138197	0.354975	0.187477	0.342524	0.284962	0.458707	0.340249	0.166059	0.688536	0.553784	0.247400	0.211990	0.423723	0.547607	0.220644	0.302723	0.850528	0.660855	0.224044	0.370581	0.550437	0.633544	0.195629	0.152114	0.181040	0.435059	0.195510	0.165974	0.161890	0.289236	0.091375	0.131589	0.655291	0.412131	0.268857	0.336189	0.314963	0.248666	0.154872	0.122093	0.766990	0.709624	0.173875	0.479399	0.415424	0.387132	0.155129	0.131424	0.198640	0.311039	0.099720	0.045534	0.085653	0.376379	0.228200	0.157358	0.553732	0.360914	0.441911	0.417775	0.385176	0.404508	0.168108	0.164425	0.301212	0.254267	0.141022	0.118971	0.203246	0.515635	0.314518	0.270756
33	0.135851	0.369695	0.181352	0.305399	0.333708	0.483825	0.230562	0.167493	0.677115	0.554380	0.249743	0.214405	0.420927	0.525309	0.233168	0.308750	0.850627	0.660297	0.247820	0.358247	0.592056	0.671560	0.264401	0.176255	0.181957	0.443492	0.203981	0.197069	0.166837	0.275940	0.084834	0.126806	0.607890	0.412967	0.312161	0.343357	0.347629	0.245392	0.169914	0.120958	0.758119	0.696051	0.199971	0.492046	0.459399	0.392637	0.177837	0.130186	0.192560	0.294920	0.128968	0.048506	0.091223	0.373464	0.198218	0.156655	0.545681	0.356958	0.464700	0.454727	0.391409	0.306356	0.154356	0.149843	0.269000	0.250713	0.138711	0.118852	0.219468	0.494845	0.341025	0.289879
34	0.133897	0.342474	0.177308	0.285096	0.375940	0.509299	0.124660	0.176764	0.645414	0.534412	0.251154	0.205117	0.416506	0.493385	0.279645	0.308837	0.835583	0.606752	0.250994	0.335418	0.599594	0.671363	0.269349	0.186587	0.179366	0.443368	0.276304	0.185979	0.184297	0.276214	0.075245	0.123948	0.591722	0.404656	0.316346	0.390281	0.369706	0.247565	0.212097	0.121139	0.700222	0.668067	0.198722	0.486643	0.635255	0.496816	0.190124	0.116011	0.092835	0.175665	0.131686	0.074092	0.099632	0.364909	0.192683	0.149217	0.514138	0.322193	0.480307	0.514348	0.491236	0.330423	0.140005	0.151344	0.201411	0.248453	0.145601	0.111545	0.221606	0.457394	0.385442	0.297149
35	0.133121	0.340253	0.170309	0.235821	0.424090	0.518614	0.093740	0.191618	0.566002	0.479671	0.240585	0.197700	0.361155	0.466318	0.289154	0.310161	0.828151	0.524947	0.252377	0.329071	0.594061	0.631719	0.270853	0.186486	0.140877	0.443683	0.312443	0.187437	0.251616	0.305473	0.077912	0.123525	0.530142	0.375623	0.326537	0.495777	0.356965	0.263087	0.259397	0.122589	0.604870	0.625692	0.198510	0.496735	0.732198	0.558877	0.209540	0.108960	0.162482	0.211371	0.161777	0.081925	0.093552	0.323213	0.201920	0.135415	0.419420	0.235559	0.557933	0.551553	0.529928	0.363605	0.193204	0.152327	0.178514	0.235620	0.153195	0.109202	0.221052	0.332325	0.394859	0.321026
36	0.113711	0.338585	0.170166	0.209855	0.440768	0.470771	0.072671	0.194042	0.421623	0.383184	0.283996	0.210312	0.355258	0.455181	0.287657	0.311909	0.829805	0.524880	0.247651	0.302673	0.573123	0.590554	0.271356	0.187380	0.095876	0.421629	0.367555	0.199491	0.258116	0.278394	0.097146	0.120658	0.397365	0.326257	0.300000	0.498229	0.266109	0.249092	0.253697	0.113729	0.568694	0.596845	0.182229	0.502358	0.736945	0.559792	0.210936	0.112383	0.234345	0.254880	0.176592	0.113152	0.089547	0.312793	0.173811	0.134764	0.400876	0.225128	0.601801	0.579510	0.549725	0.373383	0.236450	0.187796	0.172310	0.225693	0.151064	0.115366	0.226031	0.288579	0.394171	0.306287
37	0.105504	0.336138	0.157293	0.208739	0.453069	0.447495	0.070161	0.188038	0.414748	0.334511	0.331441	0.234540	0.353071	0.418062	0.288932	0.311861	0.829978	0.523402	0.255194	0.268669	0.573480	0.585745	0.272710	0.191808	0.094303	0.287339	0.513155	0.232423	0.259955	0.267304	0.100320	0.091954	0.332337	0.294850	0.297922	0.532051	0.261602	0.242168	0.262462	0.094102	0.524472	0.607883	0.196431	0.503390	0.730592	0.541000	0.252025	0.086754	0.292909	0.246825	0.169244	0.115905	0.090113	0.287390	0.157119	0.126951	0.242161	0.174545	0.614201	0.585911	0.568232	0.385446	0.245196	0.219198	0.164744	0.181544	0.175184	0.112222	0.226130	0.212163	0.369849	0.295485
38	0.114526	0.335763	0.166457	0.196518	0.455702	0.443956	0.083173	0.156768	0.412081	0.302065	0.346329	0.237694	0.215396	0.341517	0.291175	0.295326	0.832386	0.523323	0.269081	0.258310	0.576290	0.566176	0.276573	0.201128	0.087487	0.264201	0.543798	0.308960	0.280272	0.362737	0.103966	0.096102	0.334868	0.293828	0.291530	0.562753	0.344190	0.330266	0.291666	0.110304	0.454589	0.601175	0.207281	0.468843	0.727014	0.499647	0.300750	0.101192	0.318220	0.255105	0.179163	0.115479	0.092834	0.258225	0.161748	0.121078	0.110847	0.128490	0.615217	0.590912	0.578208	0.391107	0.283600	0.221039	0.150540	0.162828	0.373169	0.151430	0.228724	0.150760	0.354823	0.279793
39	0.118105	0.327098	0.222905	0.230572	0.468104	0.430485	0.104982	0.148750	0.402115	0.293068	0.355142	0.290431	0.173301	0.306991	0.288351	0.241278	0.806115	0.495015	0.272029	0.257367	0.577176	0.498405	0.282528	0.202069	0.086340	0.195092	0.543994	0.325530	0.395219	0.417135	0.104823	0.104605	0.334583	0.292178	0.314727	0.566906	0.471178	0.424375	0.313123	0.138950	0.440864	0.546987	0.250118	0.440031	0.742101	0.475365	0.305104	0.105444	0.365406	0.290924	0.339624	0.112271	0.094821	0.224018	0.168691	0.116743	0.104890	0.113000	0.626183	0.602515	0.561653	0.367212	0.287591	0.224441	0.139835	0.140332	0.468932	0.260769	0.224052	0.151587	0.364006	0.244042
40	0.118517	0.324988	0.294033	0.262707	0.472465	0.424171	0.139302	0.148537	0.255258	0.206607	0.363192	0.308884	0.171604	0.312313	0.287066	0.234945	0.675451	0.410925	0.281278	0.257279	0.551409	0.444605	0.307343	0.203422	0.092284	0.178917	0.543346	0.325298	0.415046	0.446779	0.129807	0.104233	0.315863	0.278937	0.327796	0.582312	0.501752	0.450676	0.305741	0.145499	0.392106	0.437815	0.284600	0.424285	0.731715	0.467090	0.295891	0.110624	0.388758	0.292319	0.408273	0.109883	0.089099	0.157626	0.168923	0.097725	0.103852	0.103575	0.630549	0.608931	0.541608	0.314466	0.399513	0.231292	0.105037	0.105449	0.472460	0.260781	0.237715	0.195245	0.376693	0.239929
41	0.122911	0.302618	0.322169	0.288577	0.474349	0.439629	0.172921	0.137464	0.150413	0.179697	0.355462	0.311992	0.182504	0.338734	0.248499	0.215941	0.596795	0.379792	0.273342	0.257464	0.451780	0.399658	0.298743	0.182109	0.115059	0.192206	0.544249	0.324937	0.421848	0.457665	0.192990	0.109674	0.292151	0.254532	0.324865	0.585875	0.504846	0.458992	0.309429	0.169882	0.312994	0.389000	0.320056	0.413560	0.731712	0.457546	0.312584	0.125006	0.388970	0.293212	0.411984	0.109588	0.091209	0.154315	0.171848	0.095521	0.087216	0.103840	0.642517	0.587177	0.474876	0.290901	0.458421	0.213938	0.099622	0.091218	0.500638	0.293073	0.233117	0.195438	0.347283	0.250043
42	0.148448	0.294040	0.355587	0.273682	0.460551	0.435406	0.182467	0.138384	0.105047	0.172976	0.374229	0.317931	0.183958	0.344667	0.226380	0.185813	0.311924	0.220947	0.305882	0.226961	0.420072	0.417550	0.287802	0.173211	0.124113	0.191053	0.534668	0.316060	0.426342	0.456816	0.211693	0.107419	0.264605	0.228589	0.323516	0.584895	0.505647	0.459230	0.319146	0.168565	0.270132	0.363611	0.374628	0.353505	0.694307	0.440474	0.340035	0.139903	0.396768	0.295055	0.431495	0.107753	0.345787	0.315698	0.172344	0.088114	0.118679	0.126555	0.596478	0.480713	0.495122	0.319443	0.461153	0.208343	0.079655	0.062809	0.554066	0.343232	0.199895	0.190822	0.281460	0.245546
43	0.141601	0.217412	0.536201	0.293304	0.416872	0.398670	0.182288	0.150897	0.064335	0.159180	0.396345	0.368574	0.177544	0.341265	0.229708	0.151780	0.165647	0.172837	0.342204	0.258448	0.335314	0.386598	0.271186	0.157547	0.121291	0.177447	0.527695	0.284188	0.432073	0.456494	0.217294	0.103140	0.235574	0.202241	0.333089	0.584901	0.509095	0.473435	0.319754	0.167078	0.274286	0.368115	0.388573	0.233525	0.656591	0.431014	0.327843	0.155057	0.426904	0.296729	0.440406	0.102881	0.624923	0.472999	0.167536	0.114332	0.137098	0.141287	0.500635	0.453631	0.492231	0.329503	0.460451	0.210308	0.050095	0.053409	0.603823	0.349839	0.192484	0.187249	0.274038	0.221942
44	0.135669	0.187963	0.645978	0.305140	0.389135	0.389895	0.191413	0.157496	0.088862	0.164637	0.394571	0.431913	0.167569	0.347045	0.243879	0.139426	0.150258	0.150770	0.328328	0.274125	0.222700	0.283525	0.198557	0.131453	0.127742	0.201905	0.487435	0.287009	0.433677	0.458430	0.216006	0.107181	0.208693	0.166698	0.337826	0.601660	0.502855	0.473272	0.330544	0.166654	0.287189	0.371932	0.405995	0.183753	0.622232	0.405065	0.325072	0.183852	0.430344	0.258403	0.438548	0.095052	0.698658	0.505725	0.199153	0.136516	0.142180	0.152323	0.513186	0.414573	0.441151	0.318157	0.460773	0.207911	0.058689	0.087812	0.614240	0.349803	0.240253	0.209634	0.202797	0.216802
45	0.140314	0.215409	0.661321	0.314844	0.369041	0.378878	0.248340	0.158205	0.108057	0.144185	0.396391	0.434137	0.161311	0.355237	0.224148	0.151532	0.149134	0.140553	0.321510	0.284606	0.167457	0.257577	0.197846	0.124355	0.138456	0.214238	0.458396	0.290248	0.435145	0.468104	0.223056	0.116351	0.182164	0.136764	0.316944	0.623771	0.495405	0.473215	0.307775	0.169556	0.286256	0.383054	0.425884	0.192345	0.419007	0.291093	0.308101	0.182143	0.427372	0.216828	0.425451	0.065857	0.899843	0.660007	0.260242	0.140314	0.143583	0.152865	0.511817	0.341965	0.409169	0.289561	0.442118	0.205920	0.093392	0.110571	0.613594	0.350662	0.299991	0.230703	0.170327	0.175462
46	0.160226	0.237223	0.672192	0.336790	0.320756	0.356666	0.269797	0.149405	0.134876	0.149658	0.435888	0.445776	0.133858	0.347841	0.189606	0.187249	0.179572	0.161712	0.321315	0.304389	0.173610	0.286772	0.197326	0.180686	0.147006	0.237537	0.419600	0.286367	0.405451	0.457403	0.244324	0.118389	0.173829	0.136082	0.331541	0.577516	0.490352	0.461136	0.300223	0.179584	0.282593	0.381720	0.438134	0.171335	0.497182	0.368264	0.308142	0.179834	0.461835	0.190465	0.425335	0.039426	1.074060	0.777242	0.260777	0.145337	0.143813	0.161160	0.430421	0.279610	0.410256	0.335719	0.429851	0.216654	0.132513	0.124385	0.611178	0.351832	0.315591	0.239688	0.166114	0.160335
47	0.173873	0.237189	0.697223	0.367194	0.254036	0.339480	0.272004	0.168256	0.139234	0.122886	0.481633	0.461550	0.116683	0.338854	0.192759	0.220251	0.189864	0.168037	0.325675	0.315887	0.176328	0.286301	0.198978	0.223954	0.147232	0.238576	0.226899	0.261948	0.390137	0.451076	0.255784	0.122264	0.173786	0.139662	0.312770	0.494647	0.489384	0.450362	0.334700	0.181427	0.263670	0.347465	0.452971	0.147752	0.665634	0.491982	0.305781	0.178238	0.461451	0.187512	0.424397	0.046312	1.085773	0.781540	0.246526	0.149402	0.143125	0.159943	0.374021	0.212117	0.442746	0.351414	0.431712	0.283469	0.141637	0.130597	0.615269	0.350390	0.319427	0.240096	0.166709	0.160209
48	0.172081	0.244415	0.699764	0.370077	0.204532	0.333798	0.274798	0.194210	0.140036	0.116152	0.472302	0.499258	0.109947	0.334019	0.192344	0.224931	0.190118	0.165048	0.318662	0.315847	0.185206	0.297455	0.204151	0.250759	0.146284	0.239247	0.122776	0.160407	0.390549	0.449800	0.252881	0.122827	0.173117	0.138216	0.306783	0.487722	0.489961	0.446738	0.332520	0.187688	0.246607	0.315362	0.451234	0.140356	0.692855	0.498296	0.261433	0.173568	0.430711	0.159098	0.383300	0.047800	1.087907	0.780933	0.240995	0.159220	0.143353	0.168438	0.352912	0.196150	0.431990	0.344155	0.405359	0.290610	0.142123	0.141761	0.612575	0.350334	0.342112	0.241103	0.180257	0.158624
49	0.165288	0.244730	0.688407	0.370051	0.170494	0.321030	0.309552	0.203672	0.144183	0.134982	0.443623	0.528605	0.104620	0.312789	0.196531	0.244296	0.187832	0.167875	0.304457	0.317916	0.175691	0.283109	0.253870	0.319745	0.145282	0.239329	0.120769	0.125393	0.387700	0.407854	0.252729	0.122562	0.117415	0.117154	0.317011	0.427819	0.433539	0.379391	0.308960	0.178753	0.244760	0.313709	0.438124	0.148828	0.660107	0.510476	0.235269	0.166460	0.390492	0.147996	0.236494	0.051249	1.089041	0.782499	0.245071	0.172575	0.142501	0.170323	0.349154	0.179879	0.435260	0.346031	0.405209	0.339572	0.154402	0.162164	0.550242	0.344334	0.411410	0.261900	0.176133	0.151344
50	0.164852	0.249309	0.681239	0.339251	0.172290	0.313431	0.355876	0.206044	0.153246	0.155762	0.512253	0.538465	0.101379	0.273285	0.200314	0.248529	0.176243	0.163370	0.301041	0.325774	0.153134	0.270945	0.262213	0.346750	0.150532	0.243438	0.128451	0.126441	0.344705	0.319567	0.253318	0.115085	0.098980	0.100852	0.384965	0.418134	0.303332	0.292557	0.294208	0.150040	0.235443	0.302149	0.421048	0.172409	0.741968	0.546193	0.231214	0.162382	0.389094	0.209155	0.208588	0.051367	1.091825	0.795660	0.280892	0.179777	0.137236	0.163289	0.328266	0.131753	0.457615	0.352096	0.317689	0.351006	0.154556	0.165020	0.422843	0.261497	0.431627	0.254711	0.139964	0.172554
51	0.165967	0.244420	0.652894	0.308772	0.155106	0.312695	0.372300	0.269185	0.175914	0.180369	0.529084	0.522695	0.104936	0.268286	0.221542	0.266353	0.174541	0.163077	0.300732	0.340153	0.151432	0.279280	0.227633	0.352393	0.141346	0.225108	0.191752	0.127265	0.237036	0.317101	0.252124	0.118558	0.099029	0.100047	0.432087	0.416088	0.274585	0.255244	0.306650	0.143036	0.214674	0.279745	0.390077	0.214287	0.790122	0.585518	0.217901	0.165003	0.387019	0.253505	0.162386	0.057965	1.092589	0.800006	0.299648	0.187338	0.138308	0.165934	0.316708	0.100413	0.498478	0.365475	0.256858	0.349855	0.174055	0.199456	0.422192	0.251640	0.457581	0.249092	0.151613	0.178405
52	0.156766	0.251102	0.657982	0.309918	0.133736	0.311987	0.382218	0.307450	0.191483	0.208691	0.544254	0.515682	0.108889	0.227905	0.222193	0.266857	0.175517	0.161159	0.296630	0.342256	0.139873	0.279710	0.221343	0.352584	0.130395	0.198345	0.252830	0.142911	0.187368	0.240846	0.220391	0.133269	0.101265	0.109048	0.426181	0.447390	0.301057	0.257706	0.333659	0.115213	0.214839	0.274715	0.378655	0.228176	0.815367	0.604581	0.185494	0.145457	0.358821	0.248573	0.117380	0.069726	1.093174	0.800907	0.313831	0.198732	0.138406	0.172427	0.287922	0.104611	0.476129	0.345040	0.261025	0.344807	0.183518	0.217969	0.399272	0.230941	0.468168	0.260641	0.155586	0.174777
53	0.162566	0.269409	0.583935	0.292114	0.160203	0.306580	0.381096	0.312836	0.198194	0.220587	0.544340	0.513925	0.079073	0.157857	0.210330	0.268309	0.172208	0.157072	0.261868	0.331884	0.143267	0.259372	0.241585	0.355260	0.130080	0.201763	0.256548	0.144498	0.167761	0.259824	0.183198	0.133645	0.119441	0.122006	0.447106	0.510645	0.310140	0.266871	0.331057	0.115608	0.217787	0.272150	0.334131	0.278772	0.847410	0.625302	0.149542	0.144017	0.352642	0.246702	0.112942	0.089644	1.086125	0.789254	0.332845	0.199850	0.109834	0.163075	0.285277	0.104451	0.471014	0.339330	0.261975	0.343486	0.199818	0.231876	0.327845	0.129437	0.454308	0.262813	0.153458	0.172320
54	0.163609	0.253359	0.403105	0.276581	0.250442	0.306435	0.374343	0.316552	0.197958	0.220714	0.533423	0.509999	0.075121	0.148910	0.211298	0.295667	0.173197	0.170165	0.206652	0.289231	0.140641	0.211609	0.265693	0.358321	0.124632	0.176222	0.299084	0.161531	0.152071	0.259764	0.171970	0.140316	0.126657	0.124687	0.459399	0.516595	0.290450	0.253299	0.327695	0.115061	0.216552	0.266098	0.311340	0.327207	0.864387	0.632507	0.149661	0.103431	0.348588	0.250407	0.125027	0.120369	0.981935	0.700552	0.352531	0.194468	0.078283	0.149313	0.257040	0.106591	0.434441	0.332682	0.262265	0.343137	0.216870	0.242757	0.217304	0.104387	0.461206	0.262815	0.160240	0.166847
55	0.158132	0.231160	0.311106	0.269757	0.276721	0.289877	0.376806	0.315425	0.197207	0.221867	0.517489	0.482267	0.071034	0.151063	0.219150	0.303292	0.181198	0.208036	0.191500	0.261728	0.144961	0.217845	0.275620	0.357779	0.141211	0.179565	0.300548	0.163473	0.128238	0.258546	0.169542	0.142364	0.149689	0.195889	0.451387	0.518276	0.323355	0.269994	0.308900	0.116160	0.193148	0.259498	0.284836	0.336593	0.859241	0.624701	0.156034	0.083475	0.194591	0.244887	0.278922	0.199855	0.860308	0.638369	0.356355	0.192736	0.089894	0.180838	0.186078	0.111121	0.413664	0.331385	0.263769	0.343153	0.238572	0.235180	0.162632	0.109696	0.452528	0.329066	0.169044	0.163778
56	0.142874	0.194695	0.306138	0.263277	0.278217	0.289062	0.377491	0.311769	0.189028	0.218131	0.515822	0.429453	0.070669	0.120557	0.208689	0.302780	0.183981	0.212274	0.210748	0.255081	0.144204	0.218224	0.270005	0.353985	0.179336	0.159889	0.329591	0.159968	0.123050	0.250960	0.164402	0.134113	0.370106	0.449353	0.456323	0.495852	0.310768	0.283245	0.304174	0.111894	0.182122	0.244809	0.240074	0.329913	0.832949	0.591685	0.158975	0.078050	0.170818	0.246381	0.302804	0.671980	0.817331	0.601699	0.337137	0.199317	0.092775	0.203034	0.136431	0.101495	0.396667	0.268327	0.249360	0.318447	0.231250	0.225991	0.166625	0.107015	0.479275	0.394314	0.175137	0.147101
57	0.127827	0.179306	0.259977	0.208264	0.283111	0.287168	0.361065	0.310311	0.181608	0.221403	0.514705	0.432308	0.064379	0.114347	0.206618	0.320245	0.181505	0.200174	0.239454	0.249707	0.137825	0.185157	0.269779	0.341128	0.185941	0.168020	0.332431	0.156531	0.113172	0.235989	0.143561	0.139202	0.514422	0.527969	0.515625	0.516207	0.405069	0.301216	0.272470	0.094813	0.154459	0.205656	0.270488	0.330252	0.763283	0.508498	0.145932	0.072192	0.150002	0.252773	0.326748	0.707688	0.393152	0.309784	0.348893	0.199557	0.100373	0.209124	0.131674	0.103788	0.473838	0.295691	0.242635	0.236823	0.210285	0.216687	0.183460	0.105971	0.511148	0.476765	0.184501	0.148619
58	0.131845	0.175620	0.222153	0.183984	0.282363	0.270943	0.321320	0.312188	0.165300	0.220649	0.482688	0.422577	0.067452	0.128850	0.181864	0.295915	0.165093	0.180587	0.238052	0.280922	0.142416	0.185452	0.267176	0.304230	0.190402	0.176807	0.331300	0.157218	0.105902	0.224808	0.107771	0.140108	0.642414	0.548404	0.516024	0.526852	0.438390	0.362124	0.226554	0.109327	0.144711	0.180887	0.278463	0.330731	0.705784	0.473505	0.125087	0.069262	0.146400	0.233816	0.356677	0.832727	0.213106	0.214379	0.383712	0.192044	0.155923	0.241995	0.164276	0.102474	0.563427	0.326628	0.241153	0.228432	0.199751	0.213531	0.199410	0.170838	0.574776	0.540109	0.189405	0.149552
59	0.139381	0.212553	0.221627	0.174109	0.281927	0.240270	0.319378	0.306870	0.162983	0.223382	0.445390	0.407545	0.070762	0.143482	0.179678	0.281977	0.161947	0.196892	0.242898	0.291611	0.152327	0.197575	0.267481	0.301700	0.256224	0.178927	0.332149	0.151778	0.107879	0.238958	0.082006	0.136402	0.742525	0.642231	0.512371	0.527688	0.509242	0.521909	0.211045	0.099373	0.132331	0.165922	0.271291	0.332379	0.754706	0.516682	0.117802	0.067806	0.144410	0.223303	0.491946	0.923072	0.203213	0.215126	0.397267	0.189151	0.160118	0.241337	0.175050	0.102170	0.621957	0.357162	0.229109	0.139226	0.200046	0.206447	0.195745	0.234517	0.539593	0.565396	0.180109	0.148387
60	0.141324	0.221925	0.199318	0.171609	0.281148	0.223538	0.317382	0.275642	0.243041	0.260371	0.415924	0.355231	0.067246	0.147820	0.178085	0.273627	0.188192	0.210968	0.247911	0.369018	0.197783	0.223962	0.229289	0.226203	0.276966	0.178824	0.341595	0.156248	0.105318	0.246726	0.077994	0.132639	0.802234	0.676521	0.520849	0.529433	0.592295	0.564312	0.221203	0.114766	0.132158	0.163923	0.273305	0.331336	0.762228	0.511319	0.119897	0.068313	0.160532	0.161551	0.541392	0.938605	0.194887	0.218624	0.397163	0.176832	0.160437	0.241311	0.174890	0.109504	0.708301	0.465642	0.198068	0.091772	0.190830	0.191090	0.196990	0.242464	0.510113	0.576933	0.179508	0.146012
61	0.144918	0.249314	0.173282	0.183990	0.280979	0.216662	0.313574	0.280723	0.255536	0.262466	0.406907	0.297032	0.066854	0.156275	0.164013	0.260419	0.296243	0.242845	0.266509	0.397699	0.214452	0.235806	0.202839	0.158857	0.273223	0.183041	0.309699	0.182932	0.112549	0.282025	0.073450	0.141542	0.817009	0.682514	0.514960	0.537929	0.604123	0.557771	0.272024	0.132246	0.136519	0.170615	0.290273	0.318643	0.709518	0.487280	0.114970	0.068204	0.177117	0.194188	0.599396	0.938557	0.181333	0.186479	0.378483	0.169779	0.167935	0.246782	0.171484	0.118245	0.695947	0.468647	0.169662	0.115359	0.192882	0.189653	0.213315	0.289471	0.502036	0.575133	0.202693	0.151918
62	0.147131	0.259676	0.140147	0.186065	0.278476	0.243406	0.257598	0.303654	0.304860	0.359368	0.306764	0.304519	0.078375	0.221590	0.157255	0.251574	0.433198	0.279077	0.288295	0.392055	0.215393	0.227603	0.202110	0.149396	0.272777	0.184302	0.262541	0.198844	0.143037	0.295311	0.071689	0.143640	0.818035	0.688320	0.453776	0.500431	0.602176	0.555382	0.292901	0.135665	0.143733	0.211972	0.313479	0.298167	0.683042	0.457317	0.092068	0.055499	0.170964	0.197509	0.616305	0.944343	0.173327	0.122683	0.352787	0.154927	0.172095	0.243528	0.191107	0.118139	0.700063	0.469758	0.158299	0.127130	0.182589	0.163919	0.271988	0.320559	0.482046	0.572940	0.289382	0.155585
63	0.141362	0.250371	0.178618	0.197402	0.276377	0.247396	0.207729	0.272709	0.396713	0.469283	0.260438	0.318276	0.072888	0.232576	0.124181	0.256490	0.498682	0.328926	0.295527	0.388429	0.210150	0.210269	0.200540	0.145214	0.271231	0.172029	0.298160	0.200040	0.181630	0.283616	0.063884	0.129541	0.818356	0.688334	0.402102	0.495076	0.586752	0.548894	0.257416	0.153656	0.141949	0.217060	0.321742	0.279757	0.706064	0.477199	0.081353	0.060453	0.139660	0.196918	0.624625	0.946460	0.170808	0.117862	0.343902	0.150999	0.193857	0.261364	0.449512	0.240007	0.698472	0.467289	0.153635	0.137339	0.167350	0.142903	0.345158	0.327121	0.481819	0.569549	0.312355	0.187558
64	0.137622	0.257383	0.181553	0.401366	0.277880	0.252266	0.204803	0.210909	0.552583	0.541361	0.227425	0.310494	0.068595	0.232621	0.120265	0.259007	0.633709	0.419690	0.290818	0.384071	0.210741	0.209115	0.182259	0.144547	0.272254	0.225032	0.338394	0.189599	0.181929	0.308060	0.071971	0.120338	0.818043	0.688210	0.403291	0.424658	0.584536	0.544896	0.258766	0.164112	0.151782	0.213789	0.335477	0.240887	0.740652	0.556456	0.080455	0.054465	0.129888	0.201395	0.621389	0.944355	0.182681	0.113706	0.326631	0.139829	0.205590	0.275890	0.475067	0.477179	0.695380	0.472407	0.176088	0.148648	0.301899	0.216206	0.361075	0.328619	0.473026	0.565867	0.301860	0.235504
65	0.145622	0.263403	0.209631	0.415499	0.270726	0.270485	0.181062	0.201763	0.672930	0.578150	0.233756	0.311421	0.070904	0.232183	0.119973	0.253362	0.674399	0.446757	0.286197	0.392324	0.207067	0.223355	0.137323	0.129190	0.261112	0.228445	0.399532	0.184846	0.256518	0.354044	0.073655	0.115724	0.822657	0.686436	0.382096	0.346155	0.583692	0.545126	0.282527	0.163768	0.204510	0.255409	0.396486	0.186364	0.787897	0.561052	0.075368	0.060216	0.135322	0.202879	0.595692	0.784298	0.149903	0.104795	0.304350	0.136005	0.214544	0.282399	0.504523	0.496045	0.694557	0.484439	0.268744	0.167766	0.460191	0.257439	0.368353	0.328053	0.435486	0.527463	0.296378	0.242399
66	0.145145	0.266208	0.241274	0.416245	0.318673	0.313182	0.186150	0.197558	0.849957	0.717336	0.219564	0.312763	0.066426	0.234805	0.100983	0.217472	0.695477	0.438005	0.295126	0.397885	0.199988	0.225996	0.118227	0.139545	0.231090	0.286469	0.377490	0.196129	0.313389	0.380674	0.072824	0.108494	0.842266	0.689877	0.373676	0.347164	0.555808	0.609701	0.293446	0.167257	0.221263	0.257028	0.408852	0.148896	0.788046	0.552671	0.073508	0.063348	0.141030	0.193755	0.606597	0.644306	0.138948	0.105369	0.284491	0.106668	0.220974	0.272175	0.522013	0.583659	0.689947	0.489878	0.290307	0.213651	0.628278	0.299141	0.370257	0.324233	0.396657	0.460804	0.295358	0.248394
67	0.155437	0.266133	0.255406	0.511911	0.514284	0.327671	0.225333	0.191906	0.906592	0.745371	0.208231	0.311697	0.089471	0.234891	0.064874	0.210464	0.700061	0.437290	0.282488	0.400698	0.199579	0.229001	0.099824	0.145179	0.224417	0.281898	0.370265	0.205104	0.314598	0.388389	0.070743	0.112583	0.834569	0.650452	0.374972	0.357725	0.559376	0.670681	0.297352	0.167062	0.241008	0.282221	0.406581	0.168652	0.750055	0.541571	0.080950	0.065365	0.143621	0.190431	0.589493	0.579211	0.136041	0.106814	0.275497	0.104001	0.229656	0.265968	0.547465	0.601877	0.603776	0.475262	0.308496	0.238289	0.671282	0.321643	0.393553	0.338521	0.367400	0.407356	0.314333	0.259784
68	0.158001	0.266363	0.272563	0.531827	0.607786	0.340686	0.247856	0.187834	0.915321	0.749009	0.207705	0.286456	0.091447	0.241127	0.067149	0.186231	0.697866	0.443255	0.257002	0.400892	0.199532	0.234053	0.089967	0.145279	0.221321	0.277130	0.373508	0.215778	0.319437	0.402041	0.061395	0.114627	0.749327	0.513925	0.341067	0.345835	0.495422	0.672518	0.303812	0.166025	0.299424	0.319013	0.451216	0.228276	0.736736	0.530974	0.083101	0.066621	0.143478	0.186618	0.538357	0.327021	0.129880	0.111137	0.243722	0.098289	0.238124	0.266244	0.605088	0.671683	0.515419	0.485065	0.340403	0.262707	0.714714	0.340706	0.407168	0.449940	0.218549	0.287491	0.310588	0.259865
69	0.151324	0.253729	0.309815	0.597865	0.627491	0.397622	0.294251	0.188256	0.925948	0.755128	0.207291	0.288411	0.103216	0.245828	0.067178	0.146320	0.695242	0.446094	0.261819	0.358423	0.196722	0.229470	0.138579	0.156745	0.141813	0.276469	0.395700	0.245682	0.326043	0.420641	0.090923	0.107732	0.648704	0.453849	0.229132	0.313411	0.467280	0.651687	0.328001	0.158167	0.309992	0.316170	0.483760	0.272723	0.707918	0.514547	0.081780	0.066800	0.141777	0.178014	0.418426	0.268606	0.124036	0.114506	0.186182	0.096622	0.230000	0.277390	0.647589	0.697284	0.449366	0.471332	0.375666	0.284508	0.823611	0.374172	0.390812	0.452142	0.175102	0.228410	0.320011	0.263227
70	0.157853	0.226279	0.432860	0.640670	0.892462	0.638481	0.338315	0.186911	0.927341	0.755732	0.211230	0.379082	0.122651	0.244985	0.062962	0.140204	0.694553	0.441539	0.252451	0.350151	0.175566	0.221752	0.158733	0.149794	0.078005	0.272604	0.415792	0.243631	0.364898	0.424331	0.096088	0.100739	0.545587	0.409513	0.253427	0.344175	0.387638	0.540879	0.376203	0.226740	0.311614	0.317821	0.491387	0.278721	0.645495	0.484081	0.116462	0.068211	0.113476	0.120978	0.379765	0.262312	0.117618	0.115465	0.112181	0.098718	0.230261	0.284491	0.751807	0.699289	0.283495	0.422383	0.384780	0.283276	0.840210	0.386576	0.494149	0.425072	0.172527	0.123129	0.320314	0.261526
71	0.209792	0.276058	0.538628	0.651393	0.955446	0.691437	0.347288	0.204687	0.932345	0.754984	0.192867	0.385868	0.139238	0.250867	0.065511	0.150496	0.692268	0.439205	0.253601	0.290291	0.179282	0.270196	0.264250	0.139158	0.098329	0.275712	0.476742	0.289489	0.470910	0.455474	0.110697	0.100095	0.411987	0.263166	0.263143	0.345594	0.249229	0.502245	0.383380	0.234409	0.309989	0.317547	0.503667	0.290590	0.659380	0.484634	0.162954	0.070474	0.109261	0.110953	0.295005	0.269508	0.112269	0.103352	0.094651	0.101505	0.230072	0.281315	0.767916	0.713811	0.262025	0.516036	0.373654	0.274064	0.855875	0.403246	0.565546	0.438471	0.167153	0.150773	0.311213	0.250197
72	0.237740	0.301127	0.543844	0.653537	0.964996	0.700909	0.391210	0.334984	0.917741	0.742704	0.193987	0.385035	0.220795	0.277673	0.080302	0.151339	0.661736	0.430022	0.245958	0.222544	0.258579	0.288875	0.317914	0.135786	0.102045	0.277585	0.539415	0.468481	0.591851	0.456935	0.146880	0.086300	0.268444	0.161419	0.311438	0.337795	0.204055	0.507447	0.347015	0.227527	0.307935	0.315971	0.593214	0.293226	0.649194	0.480798	0.229730	0.074631	0.108001	0.125011	0.327686	0.232041	0.110625	0.109651	0.093891	0.101533	0.227643	0.278581	0.779701	0.784889	0.244242	0.532026	0.370294	0.268616	0.864107	0.407213	0.560481	0.421103	0.168434	0.205365	0.235016	0.246926
73	0.292235	0.315926	0.548929	0.672321	0.966365	0.700163	0.427958	0.348871	0.922785	0.739299	0.198032	0.384113	0.279502	0.269095	0.091749	0.154757	0.580894	0.417147	0.272534	0.208052	0.382720	0.313531	0.340698	0.127118	0.109793	0.277668	0.533026	0.509217	0.647095	0.457195	0.188647	0.071963	0.252609	0.145008	0.334862	0.348768	0.188090	0.517190	0.343013	0.237013	0.308039	0.292454	0.656828	0.293036	0.632045	0.500623	0.256953	0.073352	0.107199	0.118885	0.338564	0.238695	0.115730	0.126864	0.096694	0.101465	0.232008	0.282972	0.806202	0.871167	0.238692	0.553169	0.370739	0.262744	0.864758	0.406658	0.543613	0.397591	0.171676	0.266998	0.179279	0.236068
74	0.289232	0.309643	0.592508	0.628115	0.969367	0.693889	0.445529	0.346160	0.911709	0.703333	0.191224	0.370436	0.295308	0.220512	0.101844	0.153142	0.560732	0.412932	0.280888	0.244364	0.445377	0.343339	0.348157	0.128007	0.126067	0.240314	0.488130	0.533329	0.641228	0.443284	0.195348	0.067321	0.263975	0.147831	0.332871	0.350442	0.187114	0.517065	0.413147	0.234910	0.367402	0.302904	0.656408	0.314950	0.562209	0.385019	0.258988	0.083112	0.095798	0.110826	0.338549	0.266216	0.123936	0.143841	0.100873	0.114110	0.228161	0.266403	0.734593	0.875073	0.231590	0.550710	0.361835	0.255942	0.864730	0.404221	0.490632	0.399391	0.171784	0.270425	0.173131	0.180808
75	0.284820	0.298827	0.631297	0.574585	0.972640	0.698367	0.478258	0.369649	0.879026	0.626085	0.225638	0.346753	0.320039	0.216660	0.116525	0.115315	0.359951	0.294084	0.384302	0.256509	0.489565	0.347928	0.358467	0.126264	0.149659	0.228396	0.495837	0.645017	0.640395	0.444694	0.216228	0.071519	0.305437	0.205147	0.333117	0.360595	0.175659	0.514104	0.447871	0.249694	0.398229	0.347133	0.668095	0.323713	0.446277	0.357255	0.270629	0.142353	0.090508	0.111121	0.316721	0.272236	0.170544	0.151235	0.090587	0.115386	0.220059	0.248465	0.724335	0.787822	0.227317	0.543711	0.296525	0.243889	0.840847	0.372510	0.492231	0.413384	0.172381	0.281461	0.171393	0.165784
76	0.287707	0.298373	0.676039	0.583642	0.972318	0.698789	0.517609	0.372573	0.812231	0.555558	0.237504	0.355905	0.433371	0.229691	0.128546	0.113486	0.286650	0.243817	0.394985	0.246381	0.503706	0.342438	0.364143	0.125680	0.150884	0.131489	0.578590	0.718547	0.637972	0.426130	0.240633	0.152187	0.313464	0.217391	0.325929	0.385824	0.182266	0.505024	0.485234	0.256824	0.438708	0.402418	0.650481	0.318500	0.391873	0.361099	0.279794	0.214212	0.077398	0.111886	0.379625	0.271009	0.269321	0.331169	0.078267	0.120941	0.213548	0.245871	0.725062	0.848410	0.227536	0.583056	0.271815	0.207711	0.769304	0.331890	0.491916	0.485131	0.161502	0.285362	0.167762	0.158450
77	0.285261	0.315848	0.828767	0.734755	0.975487	0.700410	0.552436	0.375634	0.703128	0.521410	0.283908	0.382027	0.437531	0.232505	0.133379	0.122304	0.224033	0.226662	0.388028	0.243605	0.507664	0.339397	0.363555	0.117534	0.169838	0.143066	0.619606	0.735492	0.603004	0.401848	0.241180	0.453724	0.270475	0.210753	0.322855	0.519387	0.191504	0.414351	0.516759	0.254453	0.458363	0.406671	0.663566	0.506498	0.390167	0.368709	0.326529	0.219256	0.080056	0.114807	0.417132	0.268659	0.387542	0.390908	0.078551	0.130010	0.215656	0.254321	0.724735	0.804907	0.227284	0.573643	0.246979	0.170796	0.635935	0.287783	0.499010	0.522483	0.145373	0.282044	0.141687	0.135195
78	0.282336	0.422914	0.878762	0.988290	0.975799	0.707789	0.557202	0.373069	0.476057	0.291006	0.284951	0.406609	0.437773	0.255002	0.134534	0.118840	0.200694	0.222750	0.416081	0.249607	0.514543	0.356557	0.362666	0.107046	0.184013	0.157263	0.624843	0.732020	0.674182	0.471990	0.242761	0.499164	0.220983	0.202674	0.321549	0.546110	0.172959	0.361200	0.519310	0.260408	0.488602	0.478786	0.678371	0.672788	0.392667	0.388505	0.338074	0.269447	0.118977	0.156469	0.449492	0.262281	0.454359	0.456534	0.078139	0.119214	0.208198	0.252849	0.707819	0.803089	0.225533	0.555822	0.203600	0.140819	0.565954	0.270941	0.489446	0.549520	0.146937	0.287730	0.128412	0.124394
79	0.359275	0.447226	0.886650	1.004247	0.890541	0.677394	0.556123	0.376662	0.352922	0.213164	0.344664	0.456406	0.435786	0.277241	0.157363	0.117259	0.207681	0.225376	0.436342	0.244344	0.519640	0.357935	0.363533	0.104220	0.188388	0.158373	0.619862	0.721928	0.678182	0.478342	0.245019	0.530185	0.209583	0.204451	0.317379	0.562347	0.163422	0.358644	0.524049	0.277767	0.648140	0.548992	0.649514	0.685068	0.383666	0.403042	0.345446	0.484897	0.185505	0.190265	0.497896	0.293659	0.527202	0.481382	0.075522	0.101735	0.202563	0.252991	0.662360	0.758571	0.221122	0.553641	0.137444	0.086869	0.523380	0.245822	0.467680	0.493320	0.147752	0.296806	0.098159	0.123080
80	0.356870	0.471282	0.942530	1.167537	0.804739	0.687610	0.549765	0.390658	0.336190	0.231308	0.345845	0.508292	0.435939	0.276215	0.253023	0.117271	0.235576	0.216793	0.438066	0.243401	0.521147	0.357320	0.358367	0.084086	0.188909	0.159017	0.608070	0.729947	0.680301	0.447931	0.243116	0.606288	0.215851	0.202849	0.321121	0.595420	0.174393	0.346559	0.520206	0.307629	0.660447	0.555935	0.616949	0.668129	0.338914	0.424400	0.351339	0.572718	0.265521	0.265857	0.508041	0.287149	0.577576	0.481413	0.106974	0.120016	0.257765	0.270347	0.609417	0.745232	0.163313	0.509693	0.097812	0.084622	0.324454	0.197897	0.471002	0.473476	0.143660	0.301230	0.092782	0.114174
81	0.352207	0.463229	1.030391	1.340774	0.792700	0.697531	0.534369	0.402005	0.302914	0.204174	0.356497	0.518320	0.447207	0.325310	0.285859	0.124301	0.240466	0.219730	0.454885	0.293713	0.519695	0.351189	0.349674	0.068107	0.186180	0.157662	0.565644	0.722137	0.677910	0.442502	0.273429	0.643994	0.270975	0.210699	0.324319	0.575411	0.177702	0.340596	0.492301	0.304838	0.658710	0.554667	0.603406	0.668293	0.260834	0.406553	0.335485	0.574549	0.402557	0.424094	0.542989	0.290052	0.602506	0.536800	0.107843	0.128071	0.269698	0.272806	0.479600	0.749168	0.087844	0.399842	0.188625	0.087886	0.295104	0.200101	0.408413	0.469859	0.102144	0.299062	0.093836	0.093132
82	0.346392	0.431494	1.081770	1.395615	0.604661	0.533434	0.513955	0.420571	0.295322	0.192130	0.360431	0.626089	0.450415	0.329906	0.291509	0.127740	0.264696	0.229725	0.483247	0.373911	0.516245	0.307177	0.297264	0.069570	0.219482	0.184884	0.503414	0.614056	0.625695	0.426323	0.296561	0.655687	0.295494	0.213932	0.287623	0.555818	0.211186	0.341978	0.486394	0.301156	0.662881	0.558897	0.607126	0.693771	0.224117	0.419498	0.313607	0.587728	0.409774	0.432489	0.673257	0.289934	0.624004	0.581270	0.172702	0.125461	0.303038	0.309951	0.459144	0.733617	0.098987	0.397973	0.339601	0.095959	0.278995	0.209108	0.251453	0.457075	0.091789	0.294393	0.094966	0.095863
83	0.315643	0.405164	1.079501	1.393992	0.361040	0.384939	0.505236	0.463925	0.281363	0.194513	0.372730	0.717855	0.449448	0.326533	0.289152	0.116632	0.288357	0.231242	0.512067	0.388255	0.483287	0.276337	0.287461	0.070851	0.317476	0.213379	0.499640	0.579059	0.514941	0.402104	0.297066	0.656519	0.305027	0.215273	0.274681	0.621491	0.229679	0.342533	0.486994	0.336830	0.689940	0.585400	0.534849	0.703508	0.187628	0.423621	0.262820	0.622399	0.409690	0.449524	0.680528	0.272084	0.642931	0.618797	0.190622	0.272803	0.329923	0.324709	0.452153	0.658028	0.100827	0.418205	0.358919	0.138707	0.262835	0.203585	0.257855	0.469714	0.084272	0.287370	0.096065	0.100545
84	0.302597	0.407140	1.080749	1.382489	0.291612	0.343744	0.494864	0.415293	0.276695	0.204218	0.389096	0.770969	0.404150	0.309333	0.299537	0.115170	0.284401	0.208653	0.488338	0.388184	0.369894	0.237137	0.276072	0.185097	0.350770	0.244785	0.540097	0.560070	0.442782	0.385447	0.278941	0.656525	0.312944	0.215892	0.181109	0.694192	0.229547	0.351984	0.468870	0.391273	0.703199	0.614495	0.459570	0.790220	0.130293	0.493472	0.264742	0.682302	0.408603	0.452849	0.680401	0.257490	0.653701	0.636639	0.306778	0.305108	0.340374	0.330184	0.540803	0.558027	0.100822	0.425258	0.364007	0.140517	0.263673	0.207912	0.304186	0.494414	0.085911	0.280302	0.097327	0.098630
85	0.303347	0.407892	1.049385	1.406141	0.283532	0.343295	0.472131	0.400107	0.242890	0.212923	0.390860	0.779051	0.383250	0.320794	0.307985	0.113842	0.269842	0.181488	0.476705	0.374270	0.321316	0.199651	0.267807	0.212369	0.353685	0.247767	0.495528	0.427657	0.378720	0.377321	0.266962	0.656734	0.331942	0.227194	0.189043	0.678352	0.228957	0.351184	0.410295	0.409932	0.695235	0.614375	0.482820	0.928248	0.142655	0.480700	0.258364	0.718859	0.409812	0.459102	0.661063	0.256599	0.652878	0.630852	0.409034	0.336564	0.334954	0.328783	0.573325	0.511100	0.105992	0.415610	0.410879	0.143988	0.271253	0.221243	0.316148	0.489278	0.088930	0.277315	0.098013	0.098144
86	0.318502	0.432202	1.038864	1.454299	0.275289	0.338892	0.471386	0.409174	0.243399	0.207925	0.408446	0.844023	0.387658	0.320988	0.314551	0.113194	0.269626	0.188231	0.407900	0.368645	0.212866	0.182991	0.279072	0.231721	0.355044	0.247242	0.419099	0.318208	0.371530	0.369986	0.265812	0.656841	0.328448	0.215050	0.291816	0.712922	0.229119	0.359384	0.365262	0.396711	0.671224	0.598105	0.498972	0.970032	0.163359	0.477652	0.261778	0.704673	0.416569	0.481643	0.625039	0.252739	0.650815	0.632968	0.416295	0.412351	0.343840	0.329517	0.615298	0.495634	0.104504	0.348286	0.475228	0.160386	0.276070	0.231610	0.289476	0.487882	0.086977	0.265088	0.098063	0.098748
87	0.326659	0.437135	0.972588	1.500131	0.258920	0.313502	0.445448	0.377972	0.223493	0.214011	0.392397	0.940738	0.348513	0.313381	0.310814	0.124282	0.265940	0.194763	0.387819	0.441972	0.165104	0.183075	0.282582	0.277377	0.349652	0.276673	0.492290	0.274075	0.368209	0.348145	0.248677	0.656690	0.317596	0.197699	0.332482	0.740271	0.221894	0.381869	0.295331	0.392807	0.678485	0.562973	0.472348	0.977940	0.180272	0.476118	0.233458	0.697616	0.417588	0.491104	0.619755	0.251483	0.629397	0.656301	0.418491	0.423414	0.347514	0.339634	0.709658	0.382655	0.102932	0.335072	0.492491	0.209800	0.274856	0.233618	0.275475	0.460187	0.086336	0.263483	0.089602	0.109724
88	0.332270	0.387201	0.888942	1.320221	0.249856	0.308842	0.402301	0.364708	0.195170	0.229442	0.428134	1.018905	0.228177	0.306643	0.309637	0.126404	0.247320	0.201243	0.395289	0.531632	0.156992	0.177047	0.295272	0.291071	0.420726	0.348947	0.597768	0.287607	0.361271	0.343578	0.247004	0.573497	0.320793	0.197658	0.341976	0.759357	0.209832	0.480081	0.230926	0.392698	0.646695	0.549179	0.465955	0.927426	0.182793	0.475136	0.168799	0.694270	0.396040	0.495146	0.581261	0.130764	0.610425	0.637940	0.420598	0.422340	0.343185	0.337622	0.852452	0.358931	0.106790	0.341854	0.491278	0.215007	0.276122	0.235223	0.279584	0.503514	0.084039	0.259852	0.060055	0.125380
89	0.272658	0.288231	1.002464	1.241742	0.242177	0.293622	0.354187	0.363647	0.260310	0.307311	0.514788	1.040978	0.242617	0.302247	0.314202	0.110683	0.244535	0.201422	0.368440	0.535719	0.140438	0.145091	0.296085	0.289510	0.450858	0.373206	0.612402	0.292574	0.279607	0.249128	0.245489	0.448415	0.321068	0.197957	0.343380	0.749995	0.207087	0.480153	0.219175	0.388232	0.629593	0.502626	0.466260	0.811753	0.179621	0.476201	0.160775	0.625906	0.365632	0.505105	0.557186	0.115766	0.558936	0.628517	0.452117	0.424245	0.344538	0.363393	0.948994	0.338711	0.108606	0.335890	0.488188	0.226153	0.276546	0.231507	0.341224	0.494480	0.081162	0.245992	0.058572	0.126772
90	0.243354	0.265188	1.015033	1.212325	0.223747	0.250941	0.334146	0.375280	0.292337	0.361527	0.530057	1.034394	0.240024	0.281059	0.323360	0.110968	0.246857	0.191542	0.368679	0.540713	0.113644	0.137552	0.296631	0.290518	0.467304	0.390654	0.666238	0.291496	0.155489	0.167002	0.244811	0.451097	0.349961	0.231242	0.344351	0.761839	0.204306	0.491162	0.200958	0.376691	0.461433	0.375746	0.460986	0.810541	0.180580	0.439608	0.137814	0.479115	0.201094	0.401915	0.545327	0.101715	0.492734	0.595780	0.470073	0.427784	0.340930	0.374657	0.949762	0.375561	0.109051	0.333628	0.493792	0.256286	0.275316	0.229495	0.355753	0.481566	0.083288	0.232728	0.097960	0.133755
91	0.251922	0.252476	0.903814	0.985681	0.209817	0.215880	0.318723	0.374310	0.286206	0.352013	0.496254	1.022124	0.238481	0.267044	0.308584	0.112013	0.211481	0.192106	0.396068	0.572676	0.112708	0.131688	0.296604	0.296213	0.467582	0.388578	0.724507	0.296842	0.130901	0.161525	0.247507	0.361864	0.420559	0.296719	0.367140	0.757654	0.191483	0.485344	0.174557	0.354321	0.379801	0.342057	0.445449	0.814328	0.177512	0.457786	0.135485	0.464136	0.173634	0.356351	0.380160	0.094189	0.437804	0.605301	0.467545	0.429583	0.285331	0.332234	0.962201	0.379506	0.107052	0.327448	0.473899	0.260884	0.267072	0.227286	0.360832	0.495842	0.096008	0.222038	0.108174	0.134495
92	0.239612	0.250263	0.772944	0.823508	0.184736	0.201856	0.310067	0.371030	0.276037	0.331308	0.539521	1.006262	0.237941	0.247156	0.252278	0.119035	0.217178	0.196661	0.421344	0.593441	0.108597	0.129477	0.295168	0.297719	0.456698	0.386193	0.741688	0.319358	0.122494	0.162300	0.225770	0.249581	0.490008	0.346806	0.428769	0.752641	0.184558	0.482899	0.159860	0.331642	0.394260	0.354122	0.463515	0.821372	0.168368	0.485111	0.128957	0.467241	0.259748	0.368356	0.172641	0.167838	0.384437	0.589326	0.480722	0.425826	0.279470	0.323414	0.960174	0.368869	0.095277	0.297450	0.382232	0.271712	0.226725	0.211059	0.355045	0.514409	0.116327	0.195545	0.138306	0.126140
93	0.218362	0.267053	0.795653	0.804892	0.127728	0.115028	0.321386	0.368704	0.277716	0.329436	0.570350	1.029145	0.209312	0.173418	0.244569	0.122179	0.211531	0.176580	0.433545	0.542402	0.097292	0.122582	0.295194	0.297711	0.407788	0.388942	0.777696	0.339290	0.148414	0.154474	0.178874	0.177818	0.480031	0.344920	0.437545	0.764859	0.169418	0.495528	0.137659	0.332246	0.401918	0.359444	0.493491	0.839713	0.165678	0.472371	0.129583	0.440871	0.291839	0.362039	0.172293	0.165279	0.356300	0.535409	0.486459	0.426158	0.248853	0.292439	0.960412	0.400257	0.093328	0.226632	0.361211	0.280123	0.207806	0.181539	0.349908	0.520500	0.154228	0.119190	0.145647	0.116021
94	0.233458	0.268120	0.896472	0.805966	0.088243	0.097687	0.314950	0.369909	0.279775	0.330223	0.612692	0.961057	0.209805	0.161273	0.244678	0.117599	0.176987	0.172087	0.385138	0.516080	0.079794	0.103686	0.251651	0.319220	0.380730	0.378430	0.871230	0.459341	0.221232	0.135147	0.146250	0.164745	0.477026	0.348851	0.456689	0.829015	0.319980	0.494425	0.120774	0.292510	0.369209	0.329978	0.541242	0.933656	0.166324	0.391547	0.127044	0.363708	0.304309	0.381500	0.162318	0.186283	0.317013	0.493535	0.471565	0.409971	0.211230	0.272754	0.978151	0.482669	0.094148	0.194978	0.356504	0.281739	0.168454	0.164470	0.344391	0.508569	0.198371	0.104296	0.155392	0.124611
95	0.240171	0.269607	0.953813	0.789281	0.069719	0.108448	0.305911	0.306572	0.291859	0.331526	0.646226	0.917780	0.205070	0.147525	0.239621	0.129598	0.221476	0.205770	0.395713	0.523888	0.093471	0.109167	0.205511	0.300908	0.370922	0.374808	0.880983	0.480136	0.272480	0.157257	0.139775	0.164080	0.485096	0.363755	0.457784	0.862676	0.393269	0.479556	0.137168	0.202519	0.335818	0.270745	0.514526	0.900553	0.160729	0.369737	0.125480	0.230390	0.398320	0.417028	0.165850	0.212554	0.289515	0.476881	0.447081	0.324525	0.196007	0.262415	0.915190	0.481641	0.088255	0.192601	0.302949	0.279963	0.178612	0.167518	0.318689	0.473755	0.201956	0.097562	0.157927	0.128886
96	0.265088	0.284283	0.973934	0.706968	0.062826	0.109190	0.301586	0.293114	0.367369	0.464417	0.639059	0.993471	0.215154	0.152036	0.220558	0.130304	0.234706	0.232731	0.401494	0.524578	0.104446	0.140010	0.205943	0.266270	0.371574	0.378805	0.980208	0.548791	0.323846	0.151656	0.124875	0.164637	0.484796	0.368164	0.476049	0.832480	0.540967	0.541129	0.143842	0.150190	0.334938	0.251947	0.482875	0.808937	0.144262	0.375431	0.147710	0.187702	0.402079	0.416117	0.230158	0.257235	0.278766	0.476599	0.346009	0.318124	0.196341	0.266100	0.879589	0.479306	0.084457	0.191167	0.189037	0.271686	0.221217	0.184020	0.303230	0.470549	0.202355	0.136146	0.169557	0.151412
97	0.248566	0.259593	0.955965	0.559494	0.063765	0.140264	0.282944	0.259909	0.381469	0.497086	0.641323	1.017570	0.218241	0.154294	0.206590	0.131939	0.239745	0.235520	0.488847	0.523944	0.108928	0.170842	0.185086	0.258005	0.390082	0.375963	1.047906	0.553911	0.382171	0.153001	0.122080	0.163814	0.514165	0.412346	0.466637	0.879308	0.614301	0.543917	0.144686	0.156254	0.337881	0.255634	0.431581	0.750118	0.112982	0.389668	0.171750	0.210867	0.429830	0.391593	0.225050	0.283218	0.278187	0.480801	0.298071	0.225866	0.199509	0.280173	0.847386	0.477735	0.070518	0.201469	0.161311	0.252209	0.298244	0.212881	0.317544	0.468806	0.210747	0.139890	0.177913	0.160841
98	0.256765	0.290135	0.949706	0.497335	0.063445	0.158690	0.238082	0.208787	0.393129	0.503353	0.642073	0.999838	0.196316	0.179284	0.196053	0.132925	0.243815	0.245757	0.526321	0.516237	0.108519	0.180626	0.160015	0.207315	0.307219	0.301354	1.006636	0.581392	0.389627	0.152285	0.100645	0.163994	0.528949	0.429013	0.468297	0.910493	0.613242	0.526151	0.132903	0.157609	0.264446	0.213845	0.485426	0.741942	0.092321	0.449554	0.173145	0.215359	0.446915	0.387306	0.249550	0.289034	0.271325	0.466305	0.298032	0.121415	0.332844	0.293035	0.750894	0.462472	0.056906	0.161439	0.162057	0.325035	0.448133	0.328935	0.348229	0.479048	0.219259	0.140580	0.178137	0.147961
99	0.264198	0.333114	0.873489	0.498162	0.058002	0.245623	0.228905	0.205655	0.393327	0.514548	0.672023	0.993519	0.222297	0.196179	0.194913	0.129898	0.240704	0.247178	0.516285	0.414533	0.110724	0.233731	0.132036	0.178043	0.272362	0.267701	1.028079	0.589179	0.389401	0.160321	0.065797	0.172108	0.514700	0.415715	0.467636	0.893790	0.612215	0.422598	0.128526	0.157790	0.247353	0.202636	0.499799	0.734643	0.094543	0.461859	0.180819	0.244790	0.456357	0.360952	0.407111	0.476082	0.235081	0.349927	0.295457	0.117890	0.449794	0.276058	0.572245	0.457667	0.052733	0.160599	0.161223	0.326224	0.472836	0.378378	0.368434	0.390392	0.249437	0.153126	0.185836	0.177248
100	0.347558	0.447875	0.752554	0.392825	0.058604	0.250600	0.232244	0.206003	0.439698	0.548384	0.688964	0.942266	0.257535	0.267586	0.189568	0.142718	0.238608	0.244880	0.523313	0.385971	0.103050	0.238195	0.134942	0.176136	0.254504	0.241657	1.006134	0.583226	0.389215	0.162628	0.063243	0.175339	0.514199	0.414615	0.476548	0.851122	0.633966	0.400250	0.137076	0.158049	0.244725	0.216014	0.483103	0.729058	0.084636	0.459354	0.195461	0.259070	0.457383	0.362239	0.415553	0.579897	0.188096	0.319511	0.273970	0.106007	0.459964	0.239361	0.405308	0.458727	0.052088	0.161112	0.152251	0.326389	0.480019	0.391952	0.322074	0.371031	0.250773	0.153018	0.196161	0.176431
101	0.422791	0.461923	0.726976	0.315751	0.057737	0.283547	0.217443	0.203050	0.452104	0.526794	0.602805	0.920152	0.392639	0.336697	0.187410	0.148665	0.235380	0.244233	0.558778	0.397022	0.120721	0.233932	0.139833	0.179130	0.250749	0.243206	0.974899	0.585716	0.387723	0.167610	0.062784	0.137212	0.518367	0.414579	0.486913	0.792188	0.645134	0.375793	0.144091	0.156623	0.243215	0.214528	0.514631	0.683576	0.085370	0.424314	0.204017	0.251038	0.445147	0.347245	0.432472	0.627105	0.168798	0.312314	0.214416	0.096067	0.493914	0.254925	0.404844	0.408748	0.052820	0.138032	0.176069	0.332838	0.685867	0.564397	0.289251	0.385574	0.245523	0.153108	0.188401	0.231462
