	145_P_T1_sh_L_D_A_01.c3d	145_P_T1_sh_L_D_A_01.c3d	145_P_T1_sh_L_D_A_01.c3d	145_P_T1_sh_L_D_A_01.c3d	145_P_T1_sh_L_D_A_01.c3d	145_P_T1_sh_L_D_A_01.c3d	145_P_T1_sh_L_D_A_01.c3d	145_P_T1_sh_L_D_A_01.c3d	145_P_T1_sh_L_D_A_03.c3d	145_P_T1_sh_L_D_A_03.c3d	145_P_T1_sh_L_D_A_03.c3d	145_P_T1_sh_L_D_A_03.c3d	145_P_T1_sh_L_D_A_03.c3d	145_P_T1_sh_L_D_A_03.c3d	145_P_T1_sh_L_D_A_03.c3d	145_P_T1_sh_L_D_A_03.c3d	145_P_T1_sh_L_D_A_05.c3d	145_P_T1_sh_L_D_A_05.c3d	145_P_T1_sh_L_D_A_05.c3d	145_P_T1_sh_L_D_A_05.c3d	145_P_T1_sh_L_D_A_05.c3d	145_P_T1_sh_L_D_A_05.c3d	145_P_T1_sh_L_D_A_05.c3d	145_P_T1_sh_L_D_A_05.c3d	145_P_T1_sh_L_D_A_06.c3d	145_P_T1_sh_L_D_A_06.c3d	145_P_T1_sh_L_D_A_06.c3d	145_P_T1_sh_L_D_A_06.c3d	145_P_T1_sh_L_D_A_06.c3d	145_P_T1_sh_L_D_A_06.c3d	145_P_T1_sh_L_D_A_06.c3d	145_P_T1_sh_L_D_A_06.c3d	145_P_T1_sh_L_D_A_09.c3d	145_P_T1_sh_L_D_A_09.c3d	145_P_T1_sh_L_D_A_09.c3d	145_P_T1_sh_L_D_A_09.c3d	145_P_T1_sh_L_D_A_09.c3d	145_P_T1_sh_L_D_A_09.c3d	145_P_T1_sh_L_D_A_09.c3d	145_P_T1_sh_L_D_A_09.c3d	145_P_T1_sh_L_D_A_10.c3d	145_P_T1_sh_L_D_A_10.c3d	145_P_T1_sh_L_D_A_10.c3d	145_P_T1_sh_L_D_A_10.c3d	145_P_T1_sh_L_D_A_10.c3d	145_P_T1_sh_L_D_A_10.c3d	145_P_T1_sh_L_D_A_10.c3d	145_P_T1_sh_L_D_A_10.c3d
	Biceps femoris_lat	Semitendinosus_lat	Vastus lateralis_lat	Vastus medialis_lat	Biceps femoris_med	Semitendinosus_med	Vastus lateralis_med	Vastus medialis_med	Biceps femoris_lat	Semitendinosus_lat	Vastus lateralis_lat	Vastus medialis_lat	Biceps femoris_med	Semitendinosus_med	Vastus lateralis_med	Vastus medialis_med	Biceps femoris_lat	Semitendinosus_lat	Vastus lateralis_lat	Vastus medialis_lat	Biceps femoris_med	Semitendinosus_med	Vastus lateralis_med	Vastus medialis_med	Biceps femoris_lat	Semitendinosus_lat	Vastus lateralis_lat	Vastus medialis_lat	Biceps femoris_med	Semitendinosus_med	Vastus lateralis_med	Vastus medialis_med	Biceps femoris_lat	Semitendinosus_lat	Vastus lateralis_lat	Vastus medialis_lat	Biceps femoris_med	Semitendinosus_med	Vastus lateralis_med	Vastus medialis_med	Biceps femoris_lat	Semitendinosus_lat	Vastus lateralis_lat	Vastus medialis_lat	Biceps femoris_med	Semitendinosus_med	Vastus lateralis_med	Vastus medialis_med
	P2D	P2D	P2D	P2D	P2D	P2D	P2D	P2D	P2D	P2D	P2D	P2D	P2D	P2D	P2D	P2D	P2D	P2D	P2D	P2D	P2D	P2D	P2D	P2D	P2D	P2D	P2D	P2D	P2D	P2D	P2D	P2D	P2D	P2D	P2D	P2D	P2D	P2D	P2D	P2D	P2D	P2D	P2D	P2D	P2D	P2D	P2D	P2D
	EMG_lat	EMG_lat	EMG_lat	EMG_lat	EMG_med	EMG_med	EMG_med	EMG_med	EMG_lat	EMG_lat	EMG_lat	EMG_lat	EMG_med	EMG_med	EMG_med	EMG_med	EMG_lat	EMG_lat	EMG_lat	EMG_lat	EMG_med	EMG_med	EMG_med	EMG_med	EMG_lat	EMG_lat	EMG_lat	EMG_lat	EMG_med	EMG_med	EMG_med	EMG_med	EMG_lat	EMG_lat	EMG_lat	EMG_lat	EMG_med	EMG_med	EMG_med	EMG_med	EMG_lat	EMG_lat	EMG_lat	EMG_lat	EMG_med	EMG_med	EMG_med	EMG_med
ITEM	Y	Y	Y	Y	Y	Y	Y	Y	Y	Y	Y	Y	Y	Y	Y	Y	Y	Y	Y	Y	Y	Y	Y	Y	Y	Y	Y	Y	Y	Y	Y	Y	Y	Y	Y	Y	Y	Y	Y	Y	Y	Y	Y	Y	Y	Y	Y	Y
1	0.513537	1.035426	0.313076	0.131540	0.283213	0.477896	0.449368	0.320401	0.215444	0.490313	0.321592	0.113929	0.194795	0.536906	0.694646	0.370728	0.084505	0.068711	0.232621	0.079400	0.284891	0.478353	0.468347	0.482582	0.105266	0.344299	0.201489	0.162120	0.198723	0.174789	0.332877	0.442241	0.143426	0.342496	0.203993	0.296636	0.159687	0.384921	0.302019	0.339166	0.089709	0.218507	0.328574	0.149491	0.290698	0.131064	0.608507	0.426039
2	0.455379	0.828466	0.175523	0.127806	0.273386	0.389394	0.438891	0.358052	0.188972	0.471707	0.282922	0.138040	0.224124	0.642995	0.559642	0.344525	0.066416	0.062035	0.237287	0.088521	0.283916	0.510240	0.480162	0.457941	0.105068	0.329147	0.203533	0.158332	0.157946	0.184639	0.323802	0.434361	0.167891	0.331172	0.204373	0.296890	0.152568	0.386289	0.299706	0.345681	0.095140	0.238578	0.334678	0.154947	0.266335	0.108553	0.578151	0.409026
3	0.423288	0.765722	0.154573	0.109860	0.300991	0.521409	0.439244	0.343189	0.188239	0.468718	0.264378	0.198810	0.242014	0.702809	0.490139	0.322029	0.065878	0.061783	0.238865	0.085004	0.269401	0.519343	0.490035	0.494541	0.111649	0.337421	0.204590	0.173639	0.112275	0.200934	0.321136	0.421601	0.176426	0.338894	0.194812	0.297183	0.138131	0.374528	0.287854	0.346888	0.206194	0.382765	0.337964	0.140854	0.256042	0.090950	0.560446	0.419814
4	0.291582	0.504660	0.112313	0.095002	0.336827	0.564943	0.400855	0.339774	0.190895	0.440630	0.264221	0.215751	0.241659	0.686452	0.509295	0.284043	0.067839	0.055987	0.240413	0.140421	0.258875	0.519521	0.470736	0.498791	0.107741	0.297740	0.217884	0.190049	0.087374	0.216670	0.322114	0.421140	0.175343	0.320270	0.198786	0.304408	0.136420	0.337421	0.255123	0.363069	0.287291	0.497691	0.275868	0.101803	0.256703	0.081952	0.558008	0.371228
5	0.210999	0.347196	0.083386	0.076911	0.348514	0.570660	0.354177	0.340037	0.187664	0.423735	0.289080	0.221996	0.258640	0.707023	0.505852	0.250725	0.058390	0.042931	0.275115	0.239144	0.243380	0.514039	0.426206	0.494062	0.104048	0.311782	0.217414	0.215475	0.086739	0.219037	0.313888	0.420422	0.174297	0.317553	0.248902	0.301805	0.133998	0.321668	0.203847	0.340028	0.299054	0.515207	0.268320	0.108125	0.256253	0.078917	0.557916	0.379290
6	0.183195	0.275390	0.117924	0.089725	0.361918	0.574184	0.361177	0.340355	0.159940	0.278827	0.314942	0.229015	0.257000	0.718953	0.503782	0.258965	0.064004	0.053638	0.323752	0.242382	0.239276	0.510691	0.416604	0.493150	0.092026	0.269389	0.237007	0.214620	0.085444	0.226364	0.304162	0.433755	0.171546	0.318581	0.356159	0.296571	0.130879	0.308046	0.192269	0.330331	0.311857	0.553109	0.238843	0.120582	0.256535	0.078438	0.557350	0.464039
7	0.150768	0.232137	0.190024	0.190049	0.371559	0.575600	0.363872	0.336662	0.159973	0.220460	0.340668	0.230470	0.256264	0.733241	0.491430	0.247882	0.063909	0.058000	0.343646	0.258360	0.242518	0.510314	0.409453	0.493259	0.095990	0.267676	0.240682	0.214249	0.086406	0.231912	0.278599	0.497472	0.170624	0.322714	0.399135	0.288343	0.105564	0.224735	0.228829	0.326536	0.365934	0.629461	0.183417	0.137456	0.258310	0.078756	0.546346	0.469804
8	0.152692	0.226385	0.399205	0.227730	0.372600	0.575973	0.354217	0.434598	0.230317	0.214304	0.343283	0.233419	0.257008	0.733861	0.460130	0.241547	0.068027	0.062663	0.319747	0.261377	0.233341	0.510120	0.345026	0.456932	0.098323	0.266721	0.290267	0.207179	0.087419	0.229814	0.270597	0.539137	0.171057	0.321027	0.398290	0.201884	0.100182	0.194865	0.250227	0.276816	0.409787	0.650850	0.277152	0.146435	0.260710	0.078263	0.522413	0.462892
9	0.176952	0.239623	0.416347	0.275133	0.372455	0.574990	0.354078	0.494838	0.252654	0.222607	0.322980	0.240488	0.256147	0.737390	0.465669	0.262686	0.093689	0.090213	0.328517	0.263734	0.217188	0.505509	0.267585	0.408023	0.098191	0.263010	0.329335	0.234024	0.086854	0.226990	0.260553	0.553025	0.167434	0.314278	0.390006	0.188062	0.102221	0.186765	0.240076	0.249168	0.421156	0.648900	0.346315	0.195563	0.265039	0.077019	0.460005	0.460387
10	0.199903	0.236904	0.414690	0.290211	0.369983	0.560018	0.369943	0.474888	0.254175	0.243072	0.314699	0.234346	0.258146	0.734337	0.465463	0.256957	0.107066	0.106707	0.336201	0.266575	0.195398	0.418004	0.263611	0.408813	0.132662	0.316198	0.358056	0.216982	0.083147	0.215763	0.323096	0.483773	0.156619	0.282567	0.410360	0.140397	0.107387	0.180451	0.208142	0.248919	0.427944	0.639182	0.362039	0.201691	0.256879	0.077529	0.358400	0.459862
11	0.212371	0.250060	0.428133	0.308816	0.361222	0.544162	0.338084	0.458823	0.258418	0.242440	0.359169	0.248736	0.259800	0.695092	0.469545	0.243707	0.107337	0.108912	0.338374	0.266587	0.179853	0.340804	0.258046	0.405857	0.158547	0.345356	0.361461	0.222860	0.080682	0.212031	0.353469	0.477242	0.159378	0.262971	0.472791	0.135123	0.108392	0.178568	0.199423	0.247317	0.427760	0.622587	0.379247	0.202578	0.250048	0.078262	0.333282	0.458760
12	0.243394	0.258665	0.515785	0.322643	0.321591	0.506413	0.285491	0.466721	0.262219	0.256517	0.363634	0.243686	0.264025	0.697947	0.468862	0.236090	0.115415	0.120187	0.331941	0.246723	0.180651	0.341641	0.247031	0.404081	0.162825	0.345969	0.362082	0.224698	0.080189	0.215687	0.351155	0.495354	0.171766	0.254502	0.540776	0.139016	0.110699	0.158981	0.198479	0.244679	0.419734	0.621466	0.374212	0.199289	0.249414	0.077571	0.336955	0.449846
13	0.252331	0.252334	0.536966	0.323531	0.283660	0.484306	0.266679	0.458859	0.262573	0.282902	0.382469	0.199913	0.253089	0.576901	0.436500	0.213915	0.136210	0.120793	0.302271	0.232827	0.186734	0.325890	0.248325	0.378291	0.164371	0.340135	0.357897	0.223052	0.069944	0.195756	0.336999	0.529263	0.167232	0.238886	0.552329	0.158824	0.117496	0.131225	0.200497	0.244817	0.382848	0.521672	0.406837	0.202574	0.240085	0.071404	0.307466	0.443870
14	0.253193	0.245566	0.537313	0.322594	0.283930	0.414829	0.278272	0.422745	0.265358	0.379375	0.389429	0.173664	0.226529	0.461496	0.426834	0.241795	0.145810	0.156415	0.248994	0.263151	0.197465	0.267508	0.250235	0.359588	0.172227	0.355313	0.377591	0.219091	0.069784	0.200257	0.327600	0.553269	0.137777	0.170611	0.552478	0.176948	0.122700	0.123720	0.200477	0.235135	0.372554	0.485726	0.439291	0.210530	0.223422	0.069209	0.224352	0.451795
15	0.249031	0.240347	0.529730	0.323317	0.244303	0.227661	0.296181	0.429015	0.280486	0.469096	0.403276	0.170534	0.213122	0.399184	0.369392	0.251274	0.148221	0.240215	0.208943	0.272551	0.205703	0.185285	0.238965	0.354195	0.200252	0.397767	0.367958	0.232829	0.087110	0.220440	0.340440	0.563610	0.140563	0.209906	0.552046	0.177499	0.135696	0.106341	0.199213	0.219317	0.371065	0.475381	0.450126	0.228546	0.204196	0.067087	0.168132	0.443220
16	0.235344	0.215829	0.484093	0.257454	0.205818	0.152320	0.293128	0.435919	0.283010	0.516809	0.372793	0.170494	0.213554	0.399857	0.345640	0.261356	0.178741	0.241686	0.190648	0.270474	0.216283	0.125233	0.213175	0.305595	0.291374	0.502077	0.373794	0.262485	0.104409	0.209866	0.357385	0.563309	0.200676	0.308812	0.551234	0.161175	0.145129	0.079961	0.195617	0.204341	0.343174	0.388333	0.451346	0.249284	0.175810	0.058879	0.167920	0.422415
17	0.219651	0.195569	0.366602	0.219872	0.190877	0.132972	0.293275	0.442406	0.283385	0.531960	0.339466	0.177614	0.181038	0.353236	0.345625	0.246657	0.252984	0.244686	0.114598	0.270278	0.225481	0.122091	0.219352	0.230154	0.319530	0.516611	0.352739	0.265015	0.110888	0.211578	0.375463	0.563288	0.228262	0.358883	0.539788	0.165434	0.149060	0.071517	0.193644	0.140114	0.270699	0.296311	0.426572	0.268137	0.153263	0.056271	0.164247	0.422876
18	0.191476	0.174781	0.361791	0.190355	0.166048	0.147019	0.281657	0.451057	0.236168	0.531591	0.343469	0.176185	0.170840	0.299817	0.329146	0.239639	0.260921	0.241142	0.156675	0.270659	0.227731	0.142098	0.220557	0.233312	0.320759	0.534724	0.282957	0.253569	0.111237	0.218299	0.376207	0.551555	0.231468	0.368080	0.474784	0.171260	0.149228	0.071834	0.181698	0.124448	0.240219	0.322502	0.324866	0.243060	0.148081	0.055714	0.163593	0.410778
19	0.179868	0.188691	0.362551	0.161845	0.150423	0.191400	0.284644	0.446337	0.202927	0.536041	0.352287	0.160573	0.174383	0.260717	0.309344	0.230502	0.262061	0.248018	0.167801	0.270882	0.222985	0.158321	0.219819	0.232621	0.341158	0.518018	0.235818	0.252413	0.116165	0.234775	0.377276	0.502243	0.235914	0.373546	0.434966	0.178550	0.150999	0.083838	0.170727	0.106127	0.239139	0.392343	0.311809	0.228254	0.141812	0.054120	0.170103	0.398244
20	0.153985	0.163603	0.349285	0.125213	0.166737	0.212302	0.279560	0.320248	0.205288	0.562341	0.341257	0.159564	0.176607	0.228443	0.271085	0.221415	0.277634	0.245493	0.177900	0.267796	0.214334	0.186338	0.217612	0.233282	0.329995	0.507931	0.240806	0.245252	0.125870	0.241288	0.379562	0.465270	0.237826	0.382666	0.428119	0.188002	0.165889	0.123391	0.116077	0.110888	0.239378	0.407939	0.276097	0.241657	0.139317	0.053511	0.182926	0.396859
21	0.129177	0.146907	0.232907	0.122416	0.187139	0.213730	0.255874	0.263753	0.205503	0.576650	0.292022	0.131960	0.173790	0.315616	0.255099	0.198562	0.296323	0.262989	0.224784	0.202570	0.213529	0.186651	0.217961	0.214560	0.328879	0.510913	0.244442	0.240212	0.143280	0.263806	0.382178	0.447407	0.242913	0.384596	0.428166	0.189530	0.170216	0.131589	0.084247	0.099820	0.230059	0.366051	0.270236	0.290304	0.153718	0.054621	0.195636	0.347504
22	0.130341	0.259758	0.254176	0.120122	0.192145	0.218833	0.230531	0.255688	0.210525	0.612779	0.280748	0.148720	0.190033	0.552665	0.254086	0.201070	0.294898	0.242866	0.293786	0.160529	0.208981	0.187716	0.218154	0.224600	0.331646	0.512734	0.256071	0.230753	0.162450	0.317561	0.326470	0.434625	0.242175	0.400130	0.409384	0.185088	0.171943	0.132223	0.098951	0.081436	0.209106	0.353508	0.302966	0.359065	0.169146	0.055305	0.204874	0.221727
23	0.141545	0.359351	0.285616	0.118551	0.204246	0.214232	0.230138	0.232895	0.211535	0.604738	0.257177	0.153805	0.204014	0.613988	0.207859	0.201832	0.298678	0.205419	0.444727	0.115321	0.199101	0.189365	0.191898	0.233603	0.336945	0.494518	0.225747	0.221950	0.179993	0.372389	0.268013	0.425291	0.238863	0.408779	0.339804	0.180141	0.167453	0.138752	0.112627	0.079377	0.164283	0.331995	0.262952	0.380551	0.182161	0.055089	0.206823	0.204180
24	0.168561	0.413072	0.272805	0.109708	0.218828	0.230879	0.225849	0.219570	0.229220	0.602272	0.251479	0.155385	0.196115	0.631510	0.103943	0.190786	0.284191	0.214804	0.473198	0.115143	0.196321	0.207091	0.172119	0.236196	0.345046	0.471190	0.212361	0.204481	0.182008	0.381435	0.265542	0.375452	0.231745	0.419236	0.189443	0.176366	0.167052	0.139222	0.119959	0.083013	0.188715	0.322085	0.243904	0.388771	0.181165	0.056871	0.189325	0.203631
25	0.194238	0.483254	0.278369	0.108131	0.229284	0.244332	0.224391	0.214293	0.229487	0.509887	0.216705	0.160150	0.226885	0.741671	0.066272	0.183809	0.214721	0.201739	0.479184	0.122790	0.201977	0.244812	0.172810	0.232612	0.291180	0.374099	0.210518	0.176047	0.190399	0.381430	0.252068	0.312982	0.233499	0.419871	0.140716	0.165713	0.166792	0.190346	0.127699	0.084149	0.200946	0.321319	0.247269	0.389548	0.169008	0.060112	0.171631	0.203630
26	0.196632	0.496953	0.299486	0.124290	0.227452	0.247028	0.216239	0.202667	0.244252	0.482420	0.197328	0.162480	0.236125	0.775343	0.105450	0.134030	0.213014	0.199912	0.475833	0.164865	0.199836	0.264944	0.170254	0.234653	0.245983	0.349412	0.214451	0.180428	0.254031	0.393399	0.248584	0.245253	0.238093	0.422564	0.171315	0.153914	0.161110	0.218275	0.124407	0.079870	0.193875	0.318082	0.248223	0.374035	0.163805	0.062003	0.169151	0.200680
27	0.198264	0.497932	0.320338	0.135472	0.266850	0.268322	0.214259	0.183274	0.260920	0.438463	0.200719	0.159279	0.237396	0.773131	0.108754	0.124858	0.212337	0.190510	0.503549	0.213374	0.219334	0.442568	0.168350	0.229311	0.252029	0.307447	0.209652	0.154932	0.344196	0.404865	0.228961	0.199702	0.232868	0.401371	0.188269	0.164722	0.156357	0.221823	0.125540	0.079894	0.201826	0.309150	0.249445	0.371345	0.163066	0.061077	0.160592	0.192051
28	0.197644	0.490109	0.318016	0.159946	0.378112	0.327574	0.202967	0.166674	0.261490	0.442183	0.204403	0.171062	0.242760	0.770286	0.106381	0.105315	0.199281	0.191914	0.506181	0.219533	0.242012	0.522762	0.145104	0.236417	0.223157	0.292764	0.210129	0.141939	0.376564	0.403769	0.207097	0.197569	0.203668	0.335796	0.182654	0.176458	0.148832	0.241496	0.125346	0.108207	0.208238	0.218448	0.251070	0.378385	0.166524	0.061010	0.151939	0.174171
29	0.196722	0.488535	0.280211	0.154779	0.479760	0.347069	0.185633	0.154368	0.270263	0.438058	0.201981	0.187077	0.244932	0.770383	0.118643	0.098942	0.160948	0.167858	0.487085	0.219224	0.231852	0.525438	0.141678	0.250104	0.206953	0.264179	0.198098	0.156312	0.376700	0.407550	0.168084	0.198878	0.208750	0.277420	0.214537	0.182745	0.140163	0.247123	0.125471	0.108977	0.204940	0.121365	0.264681	0.384663	0.178828	0.058698	0.167398	0.138611
30	0.194965	0.486782	0.269377	0.157966	0.562385	0.352122	0.171662	0.129507	0.326789	0.377705	0.194211	0.192315	0.246107	0.771171	0.120377	0.101300	0.151656	0.163344	0.449767	0.210982	0.220981	0.524991	0.121327	0.260787	0.204648	0.243764	0.174995	0.190243	0.389212	0.413141	0.155720	0.197890	0.220311	0.262636	0.232011	0.181532	0.141432	0.250559	0.126218	0.105643	0.209088	0.119441	0.281037	0.364685	0.179589	0.055538	0.187918	0.104061
31	0.199118	0.395652	0.219632	0.157829	0.613912	0.337665	0.160717	0.129251	0.418913	0.340474	0.205156	0.202828	0.244990	0.771235	0.128571	0.103816	0.142997	0.099709	0.300190	0.210847	0.219000	0.520639	0.106826	0.256888	0.194149	0.224885	0.157941	0.209436	0.396557	0.399933	0.149458	0.169382	0.216459	0.248301	0.272615	0.171609	0.143574	0.251290	0.130145	0.104875	0.210993	0.116554	0.263156	0.307767	0.177677	0.054395	0.186135	0.093213
32	0.206149	0.354174	0.190617	0.156695	0.613399	0.330627	0.159480	0.127695	0.445416	0.303415	0.230943	0.192554	0.241538	0.769933	0.150683	0.104484	0.179322	0.078619	0.257098	0.237664	0.229012	0.518001	0.105394	0.252780	0.188507	0.220449	0.152050	0.210972	0.396519	0.400680	0.145282	0.122657	0.228909	0.238586	0.276242	0.161564	0.137280	0.242488	0.122055	0.102740	0.208702	0.115049	0.195356	0.241765	0.176962	0.055592	0.193044	0.114188
33	0.182478	0.270887	0.200357	0.154696	0.645110	0.341895	0.162738	0.126701	0.450051	0.267588	0.248677	0.218139	0.244455	0.708927	0.152072	0.111549	0.229198	0.082263	0.251739	0.236239	0.232699	0.509108	0.110477	0.252466	0.145790	0.207152	0.155751	0.204794	0.390501	0.390917	0.129683	0.143121	0.237934	0.236667	0.274530	0.154722	0.112563	0.225230	0.123493	0.098205	0.179582	0.094595	0.190606	0.251991	0.182015	0.057389	0.201395	0.178866
34	0.185204	0.145702	0.176787	0.153461	0.703036	0.348078	0.164173	0.118705	0.442620	0.228748	0.248391	0.250963	0.218961	0.548462	0.155537	0.106825	0.222957	0.089335	0.223999	0.199837	0.231000	0.506822	0.115271	0.251171	0.107513	0.090784	0.151237	0.270714	0.381244	0.347150	0.122729	0.156815	0.241360	0.205160	0.280727	0.157759	0.090668	0.219723	0.122293	0.098127	0.152473	0.072510	0.177832	0.354928	0.200584	0.089260	0.200880	0.245165
35	0.212112	0.120027	0.175214	0.152857	0.749681	0.348627	0.175453	0.102230	0.436300	0.166120	0.234628	0.260167	0.202423	0.510218	0.155729	0.106045	0.287021	0.294241	0.160544	0.191940	0.226559	0.506842	0.119663	0.243365	0.103592	0.071218	0.121985	0.266079	0.371165	0.284887	0.122745	0.157979	0.245240	0.173794	0.292216	0.167537	0.082538	0.218833	0.112293	0.101360	0.157433	0.077768	0.181173	0.456436	0.214699	0.098125	0.192264	0.250920
36	0.212373	0.121974	0.134642	0.392586	0.782117	0.338512	0.183944	0.095543	0.431737	0.164944	0.242596	0.259969	0.203214	0.433971	0.154966	0.104097	0.419953	0.438084	0.148338	0.201252	0.223041	0.506042	0.125149	0.224449	0.091752	0.081421	0.110105	0.261791	0.369808	0.266182	0.123154	0.166759	0.250400	0.146459	0.333578	0.174688	0.085306	0.213652	0.103130	0.117501	0.162105	0.083951	0.188611	0.461747	0.217253	0.098895	0.178332	0.250926
37	0.211516	0.133073	0.130938	0.429475	0.816775	0.333874	0.183897	0.096442	0.425549	0.163842	0.247559	0.255109	0.163598	0.195872	0.150299	0.100892	0.486502	0.475893	0.169696	0.230792	0.222136	0.504971	0.126079	0.202697	0.090358	0.086851	0.106342	0.269372	0.366368	0.264408	0.133551	0.173781	0.241692	0.137608	0.364579	0.184934	0.086779	0.210301	0.098004	0.141687	0.161180	0.110755	0.191315	0.497522	0.207919	0.099701	0.165247	0.251510
38	0.200004	0.134152	0.162798	0.499802	0.820659	0.332855	0.155898	0.091405	0.425041	0.159568	0.238279	0.247343	0.157214	0.084927	0.128072	0.099832	0.492806	0.503416	0.175257	0.249572	0.217594	0.485933	0.122109	0.185548	0.092435	0.085960	0.097723	0.270661	0.330283	0.235482	0.148786	0.174453	0.231204	0.126103	0.354969	0.195591	0.084282	0.154473	0.093716	0.196101	0.166411	0.197608	0.178304	0.550060	0.194514	0.099867	0.166002	0.254609
39	0.189914	0.133644	0.182661	0.512552	0.803069	0.305349	0.113578	0.092038	0.419519	0.153309	0.224599	0.239014	0.142980	0.063135	0.125738	0.097637	0.496617	0.518560	0.175133	0.258270	0.214801	0.478324	0.122316	0.183467	0.097411	0.088754	0.150496	0.262673	0.231737	0.176456	0.150072	0.172658	0.238503	0.116121	0.347588	0.194747	0.087582	0.127654	0.091813	0.207079	0.160434	0.199589	0.177195	0.575888	0.183439	0.106670	0.167991	0.261071
40	0.170083	0.136746	0.242447	0.529917	0.749533	0.239551	0.106041	0.070886	0.380947	0.167004	0.256604	0.249084	0.129829	0.060946	0.131204	0.097560	0.550469	0.616847	0.171673	0.236019	0.202456	0.394297	0.119396	0.166441	0.096545	0.089942	0.238370	0.247718	0.155588	0.164335	0.142155	0.164946	0.240539	0.100364	0.345815	0.200603	0.085908	0.124352	0.089751	0.200178	0.160505	0.203970	0.219916	0.579527	0.180366	0.110472	0.168681	0.267009
41	0.171844	0.145427	0.244117	0.532744	0.688424	0.223375	0.105793	0.069287	0.256582	0.154957	0.264238	0.234211	0.127205	0.063656	0.126649	0.095808	0.597217	0.705087	0.158491	0.230563	0.145354	0.174731	0.113310	0.152593	0.099920	0.098869	0.282318	0.244761	0.150889	0.146895	0.141243	0.166202	0.211040	0.116469	0.319710	0.209273	0.080408	0.069863	0.090784	0.189204	0.163269	0.207201	0.235128	0.582173	0.182030	0.113002	0.172025	0.271620
42	0.168373	0.123261	0.261277	0.542866	0.624398	0.193602	0.105300	0.069761	0.175901	0.131947	0.247540	0.232279	0.121922	0.054548	0.146590	0.099553	0.597194	0.714281	0.147993	0.231101	0.110186	0.069537	0.114489	0.133917	0.116758	0.101406	0.556049	0.272396	0.117891	0.100434	0.145764	0.172320	0.192288	0.136559	0.310454	0.208130	0.080290	0.062812	0.091748	0.189279	0.164625	0.207338	0.234588	0.601017	0.182105	0.122663	0.173379	0.273413
43	0.163215	0.130783	0.267501	0.545738	0.588602	0.183106	0.104413	0.063959	0.150245	0.119279	0.224193	0.217845	0.121901	0.054329	0.158035	0.103003	0.568602	0.656731	0.116945	0.196037	0.109678	0.068405	0.103574	0.098718	0.125617	0.115975	0.845595	0.329938	0.080866	0.094650	0.153199	0.179752	0.193255	0.134798	0.278819	0.229943	0.070726	0.047430	0.087943	0.190990	0.166866	0.222306	0.234790	0.614819	0.180438	0.130418	0.173422	0.271986
44	0.145836	0.133977	0.256708	0.559676	0.589534	0.200811	0.103850	0.063333	0.145168	0.132482	0.231875	0.187653	0.123269	0.053116	0.144914	0.104308	0.473421	0.571010	0.128932	0.181800	0.104748	0.068384	0.099741	0.080603	0.155691	0.142822	0.871017	0.338246	0.065818	0.080009	0.155433	0.186574	0.179065	0.143080	0.288436	0.277466	0.068842	0.045166	0.085016	0.192931	0.173957	0.254096	0.227123	0.509247	0.175595	0.156144	0.174907	0.274571
45	0.149420	0.124346	0.256834	0.395729	0.539559	0.179680	0.100161	0.069133	0.131408	0.132899	0.265388	0.183518	0.113410	0.052394	0.143688	0.095880	0.403460	0.545686	0.116061	0.169400	0.073443	0.060010	0.101602	0.100277	0.172082	0.190144	0.976815	0.342486	0.064353	0.059554	0.153657	0.180491	0.176455	0.153399	0.315208	0.285026	0.064820	0.041166	0.082610	0.193815	0.166827	0.273061	0.225176	0.495487	0.164790	0.176036	0.175740	0.278634
46	0.153366	0.123957	0.285453	0.358458	0.460340	0.160946	0.116135	0.066035	0.117664	0.149073	0.266360	0.188361	0.132133	0.065176	0.146613	0.093996	0.395617	0.528097	0.192499	0.161135	0.045368	0.050009	0.099838	0.107180	0.220901	0.266251	1.077141	0.339815	0.064368	0.066254	0.161789	0.166981	0.198890	0.157173	0.316187	0.307690	0.065067	0.042345	0.132305	0.194219	0.155696	0.278117	0.240237	0.481020	0.178076	0.186378	0.164113	0.281716
47	0.155275	0.118641	0.291361	0.282376	0.368546	0.143805	0.113908	0.070155	0.086106	0.162349	0.261816	0.197443	0.140564	0.087897	0.148823	0.110267	0.397823	0.519996	0.234787	0.159094	0.047966	0.049416	0.092294	0.105179	0.312071	0.385864	1.141231	0.332039	0.064277	0.068501	0.188821	0.168027	0.236016	0.171530	0.307339	0.309726	0.067455	0.055797	0.161225	0.194410	0.127823	0.275294	0.247565	0.418812	0.208331	0.192986	0.179794	0.282303
48	0.155383	0.117607	0.267364	0.263443	0.283076	0.139542	0.104264	0.070481	0.065662	0.166875	0.257839	0.205163	0.139461	0.095619	0.149081	0.143695	0.328338	0.408573	0.244893	0.270290	0.055908	0.067060	0.081686	0.097772	0.320308	0.430026	1.152704	0.323282	0.066066	0.072162	0.182157	0.172581	0.265114	0.178398	0.268085	0.306334	0.083402	0.139476	0.161675	0.192300	0.241238	0.343280	0.245735	0.353973	0.256778	0.203621	0.171376	0.276433
49	0.152406	0.102968	0.261854	0.256397	0.167151	0.128138	0.114280	0.063947	0.055598	0.169604	0.253945	0.220202	0.146783	0.094091	0.156907	0.158585	0.193201	0.227993	0.259834	0.412580	0.054752	0.068175	0.075208	0.101733	0.338858	0.439990	1.141420	0.327464	0.068895	0.072700	0.165936	0.201771	0.280994	0.185120	0.224136	0.298421	0.117746	0.208193	0.182608	0.202810	0.298592	0.396662	0.208416	0.330324	0.315924	0.210799	0.165815	0.223956
50	0.154283	0.082913	0.284132	0.251665	0.156455	0.127344	0.155574	0.059710	0.051852	0.205736	0.226786	0.206410	0.198082	0.094123	0.157811	0.158311	0.186311	0.193022	0.384272	0.422729	0.056778	0.071963	0.057354	0.125138	0.423789	0.534540	1.131400	0.331035	0.068012	0.072063	0.151738	0.244742	0.286750	0.186953	0.288530	0.287282	0.148245	0.238542	0.190202	0.210259	0.300343	0.405153	0.173005	0.328078	0.364084	0.202964	0.165607	0.177374
51	0.147634	0.085468	0.266513	0.240285	0.152570	0.126963	0.157508	0.059699	0.053919	0.254170	0.195124	0.204372	0.209319	0.095173	0.174855	0.161721	0.186206	0.191473	0.427309	0.460314	0.056174	0.080358	0.080355	0.167985	0.550281	0.622802	1.071028	0.342104	0.082198	0.085718	0.149711	0.264880	0.285662	0.197646	0.310288	0.282832	0.158372	0.243151	0.190128	0.234125	0.327288	0.407362	0.187704	0.330154	0.398644	0.201257	0.171134	0.202518
52	0.172223	0.068079	0.262656	0.238587	0.152991	0.125246	0.158385	0.060157	0.093014	0.289196	0.191616	0.201329	0.209642	0.100185	0.175585	0.161777	0.188581	0.190237	0.434975	0.480204	0.056170	0.082948	0.100391	0.177843	0.587224	0.648329	0.834923	0.285085	0.096353	0.103823	0.178307	0.268667	0.273220	0.217108	0.310898	0.276267	0.156647	0.246828	0.212428	0.286600	0.349322	0.403982	0.263436	0.296662	0.412076	0.205186	0.176867	0.206620
53	0.235279	0.091078	0.334262	0.236329	0.158669	0.109262	0.163952	0.060170	0.243251	0.431449	0.186383	0.212222	0.209873	0.097032	0.171984	0.186503	0.208731	0.178030	0.468184	0.472263	0.056365	0.081881	0.127665	0.178412	0.585134	0.641496	0.789353	0.230873	0.101757	0.114721	0.197015	0.265921	0.269819	0.213087	0.328267	0.260883	0.155373	0.246513	0.220120	0.291866	0.353101	0.403824	0.277032	0.331984	0.413075	0.223459	0.174807	0.228361
54	0.241413	0.120408	0.343113	0.274490	0.156808	0.109380	0.174537	0.062421	0.293035	0.441790	0.184967	0.228419	0.209302	0.131334	0.145323	0.204119	0.226445	0.162758	0.443018	0.470023	0.067396	0.085854	0.164041	0.181410	0.584148	0.636419	0.681956	0.226495	0.103462	0.133102	0.197219	0.262802	0.270882	0.200591	0.350607	0.262564	0.155197	0.246516	0.220950	0.298707	0.372096	0.390062	0.334043	0.334159	0.426046	0.261560	0.167987	0.251854
55	0.250047	0.117754	0.320499	0.275608	0.142716	0.100983	0.177997	0.069752	0.295677	0.460628	0.225878	0.220233	0.207840	0.151379	0.131126	0.205737	0.215888	0.142378	0.422545	0.509488	0.082170	0.091356	0.163982	0.189136	0.601944	0.602800	0.507550	0.230413	0.105665	0.142178	0.191473	0.258983	0.270578	0.204173	0.358779	0.255839	0.156891	0.246803	0.221514	0.307483	0.383525	0.401019	0.322552	0.349502	0.479747	0.349542	0.168375	0.253218
56	0.268263	0.122906	0.314779	0.265935	0.118168	0.049418	0.178276	0.091420	0.297796	0.464853	0.242712	0.208586	0.206583	0.212114	0.131154	0.204522	0.158901	0.097284	0.416886	0.469772	0.086953	0.092196	0.172210	0.202488	0.586637	0.555187	0.341156	0.273256	0.108961	0.143361	0.187355	0.253775	0.280014	0.193785	0.378197	0.228942	0.159913	0.249719	0.230127	0.308933	0.383594	0.373715	0.331936	0.447856	0.565046	0.442837	0.167389	0.247941
57	0.295192	0.154508	0.318042	0.261077	0.098092	0.043698	0.182828	0.085655	0.298419	0.462315	0.247436	0.196144	0.201878	0.219907	0.134446	0.201040	0.148704	0.096534	0.413094	0.378500	0.087283	0.128537	0.184290	0.203598	0.577270	0.498174	0.312854	0.290363	0.116052	0.161688	0.188820	0.249906	0.276337	0.183123	0.365236	0.230983	0.159879	0.258088	0.242177	0.307932	0.354171	0.341464	0.398115	0.490203	0.659935	0.487601	0.190615	0.244757
58	0.306586	0.180208	0.285677	0.256000	0.087136	0.044953	0.167946	0.085318	0.301882	0.461234	0.258166	0.192734	0.182491	0.286827	0.127837	0.200010	0.164047	0.096037	0.306687	0.372835	0.098372	0.278204	0.192136	0.192983	0.579275	0.496511	0.317475	0.289203	0.142397	0.191112	0.202316	0.279253	0.257447	0.199503	0.364716	0.205273	0.161893	0.287328	0.251965	0.307547	0.284400	0.254783	0.451247	0.525006	0.713688	0.492846	0.237227	0.245695
59	0.306359	0.194473	0.272595	0.281858	0.081297	0.045527	0.173613	0.081786	0.305986	0.461827	0.273443	0.169528	0.171258	0.339666	0.128679	0.194145	0.166884	0.096074	0.255288	0.328166	0.135436	0.419038	0.199586	0.185927	0.546173	0.428436	0.323707	0.300493	0.155632	0.212586	0.182755	0.295705	0.222075	0.194322	0.365109	0.220101	0.178297	0.377448	0.221966	0.307591	0.259331	0.196574	0.462792	0.536421	0.738577	0.492087	0.284734	0.323167
60	0.315996	0.233070	0.276884	0.283124	0.082312	0.120553	0.207047	0.083864	0.306687	0.462192	0.281183	0.169882	0.171068	0.350594	0.129618	0.181433	0.162937	0.112316	0.233029	0.302301	0.162171	0.448106	0.206807	0.183606	0.408706	0.264133	0.322944	0.314343	0.155274	0.215367	0.178869	0.293788	0.200254	0.222098	0.368517	0.234318	0.210637	0.446544	0.210671	0.307311	0.247554	0.194371	0.517031	0.658850	0.739967	0.524972	0.326703	0.402419
61	0.279476	0.247317	0.271374	0.301395	0.095179	0.188464	0.221648	0.110994	0.338123	0.434101	0.298459	0.172275	0.158844	0.353820	0.122381	0.174265	0.134991	0.124739	0.144037	0.300600	0.162980	0.461097	0.212658	0.183381	0.317487	0.139905	0.319985	0.282795	0.155486	0.224219	0.190906	0.271197	0.231053	0.292597	0.388960	0.236420	0.224102	0.431116	0.205380	0.304988	0.196355	0.192004	0.492776	0.725042	0.739018	0.564321	0.344726	0.409958
62	0.242091	0.241417	0.204437	0.362764	0.097977	0.190289	0.220083	0.183669	0.461821	0.457665	0.313805	0.176076	0.096038	0.357147	0.121799	0.172306	0.102632	0.129395	0.147074	0.353191	0.178072	0.555957	0.216672	0.183033	0.320701	0.158233	0.342958	0.281554	0.155038	0.225954	0.196285	0.238218	0.241191	0.309111	0.349523	0.238678	0.218382	0.407695	0.202795	0.287731	0.172844	0.179880	0.494336	0.781969	0.735497	0.575101	0.346873	0.408618
63	0.237371	0.230728	0.216355	0.339580	0.097726	0.222708	0.231996	0.252190	0.485677	0.352619	0.393683	0.256953	0.167440	0.390641	0.092637	0.172041	0.095465	0.154616	0.290725	0.355315	0.210745	0.635336	0.222736	0.181583	0.311285	0.164040	0.375922	0.294393	0.150910	0.235338	0.200020	0.226020	0.240611	0.315618	0.323190	0.233560	0.201859	0.395139	0.234746	0.277174	0.154965	0.147511	0.465553	0.821269	0.726881	0.577744	0.339593	0.411929
64	0.231754	0.234895	0.214508	0.376916	0.095849	0.248720	0.235620	0.268952	0.452274	0.308805	0.412741	0.300781	0.207144	0.401726	0.122209	0.183462	0.110839	0.175624	0.351110	0.383899	0.219232	0.658048	0.224258	0.165311	0.255262	0.159483	0.414784	0.318337	0.140479	0.236985	0.183747	0.221837	0.269649	0.399711	0.322695	0.233844	0.196742	0.393690	0.254237	0.317288	0.112814	0.113663	0.479920	0.829635	0.708034	0.577798	0.346024	0.430659
65	0.233676	0.253219	0.212680	0.426675	0.090228	0.252134	0.232165	0.315637	0.452270	0.274636	0.383793	0.295087	0.210125	0.400908	0.124082	0.197504	0.151264	0.198409	0.348462	0.416993	0.220822	0.663597	0.219847	0.165298	0.175687	0.150629	0.413010	0.300866	0.145946	0.232396	0.165114	0.230283	0.318919	0.495261	0.316702	0.242176	0.200573	0.392255	0.259947	0.338277	0.114808	0.097923	0.485489	0.804022	0.679492	0.584987	0.369978	0.456198
66	0.204438	0.246096	0.209079	0.430090	0.092061	0.259319	0.287067	0.337126	0.454888	0.262453	0.352604	0.300362	0.216150	0.419575	0.122135	0.197234	0.156058	0.205654	0.348783	0.702129	0.220847	0.663594	0.223649	0.174937	0.157667	0.149993	0.364727	0.273266	0.148865	0.223437	0.162222	0.230382	0.378890	0.504545	0.286005	0.258195	0.209219	0.395071	0.280837	0.339346	0.185818	0.123668	0.457073	0.800383	0.650579	0.605462	0.404619	0.463058
67	0.196096	0.239049	0.215753	0.422107	0.095608	0.259968	0.363431	0.345747	0.461267	0.255955	0.351530	0.300060	0.258380	0.478368	0.124769	0.217047	0.160001	0.205609	0.390997	0.715371	0.220306	0.663451	0.195773	0.211281	0.117966	0.136368	0.386655	0.276723	0.150018	0.221837	0.164170	0.233571	0.395130	0.512813	0.276268	0.306911	0.228098	0.403513	0.281764	0.343144	0.227988	0.162709	0.377395	0.778267	0.630239	0.606633	0.425133	0.454605
68	0.187535	0.222788	0.225854	0.418767	0.112704	0.268170	0.382424	0.342235	0.474701	0.255907	0.388088	0.390205	0.314113	0.506169	0.130025	0.254673	0.190355	0.208996	0.447247	0.714313	0.215520	0.663802	0.244258	0.239855	0.101106	0.131075	0.381073	0.269176	0.152103	0.221767	0.163847	0.234456	0.396652	0.514888	0.256385	0.293771	0.243635	0.412792	0.297755	0.350640	0.256333	0.186904	0.352763	0.780096	0.625090	0.604274	0.450696	0.452616
69	0.194541	0.184024	0.344872	0.424822	0.128013	0.268238	0.378717	0.342317	0.477693	0.251480	0.444173	0.456615	0.315722	0.506257	0.130290	0.270642	0.246031	0.215999	0.472979	0.729305	0.219495	0.671818	0.253064	0.229001	0.102442	0.123368	0.390736	0.249885	0.148879	0.208760	0.160667	0.227774	0.402166	0.532043	0.247240	0.285808	0.245143	0.413768	0.323944	0.356361	0.268970	0.192701	0.318006	0.715479	0.627178	0.595974	0.490620	0.439676
70	0.263122	0.178341	0.363623	0.379102	0.136175	0.268128	0.378229	0.347167	0.478501	0.239774	0.443754	0.472006	0.328277	0.465990	0.131288	0.276701	0.283767	0.223380	0.484675	0.706956	0.242178	0.689420	0.245438	0.245817	0.131659	0.115155	0.447059	0.215672	0.124700	0.184797	0.144028	0.189120	0.465375	0.547302	0.241169	0.284331	0.246037	0.411146	0.344423	0.362040	0.271276	0.194883	0.282812	0.645385	0.614550	0.573591	0.515231	0.427163
71	0.297253	0.195970	0.378012	0.344364	0.138809	0.268431	0.370677	0.364241	0.471074	0.233694	0.444852	0.485577	0.363266	0.468648	0.143404	0.271599	0.288300	0.207375	0.415921	0.699192	0.264218	0.674020	0.238620	0.278385	0.144187	0.114849	0.455655	0.214108	0.106068	0.165212	0.129644	0.159424	0.552748	0.577300	0.278821	0.271746	0.246780	0.376597	0.383946	0.432050	0.278413	0.204199	0.292919	0.469290	0.567919	0.512534	0.516989	0.426016
72	0.305030	0.209703	0.385334	0.354092	0.143070	0.240774	0.352221	0.368510	0.367131	0.159882	0.439250	0.584027	0.370505	0.475083	0.165073	0.265921	0.300671	0.189143	0.377953	0.688691	0.265920	0.599725	0.234300	0.281812	0.157465	0.153984	0.428373	0.226429	0.105089	0.159496	0.130928	0.150243	0.630246	0.602493	0.319863	0.263035	0.232967	0.270398	0.401563	0.441287	0.277601	0.210782	0.273391	0.452154	0.473201	0.438308	0.515479	0.425764
73	0.294772	0.200289	0.379959	0.334818	0.168880	0.230691	0.337830	0.359752	0.250260	0.133244	0.385035	0.601596	0.373904	0.479550	0.170442	0.265568	0.296001	0.163127	0.382202	0.654537	0.251051	0.549514	0.230260	0.308527	0.157656	0.156160	0.400132	0.207470	0.104489	0.145174	0.115333	0.152579	0.637301	0.580108	0.293516	0.286414	0.203232	0.171250	0.402290	0.461145	0.276424	0.228630	0.254282	0.398152	0.342689	0.403239	0.503035	0.425027
74	0.279806	0.162351	0.399198	0.293601	0.173759	0.236145	0.325353	0.320316	0.214071	0.145546	0.362600	0.560649	0.369059	0.474820	0.173637	0.265137	0.285820	0.154114	0.377118	0.354361	0.284176	0.569898	0.223780	0.343098	0.160637	0.178225	0.375921	0.201059	0.105574	0.147920	0.103919	0.144294	0.641674	0.569966	0.294285	0.330230	0.179655	0.155667	0.406118	0.481213	0.288986	0.243778	0.205960	0.560754	0.240703	0.399544	0.481409	0.417906
75	0.277295	0.147345	0.424210	0.290427	0.175757	0.243091	0.317127	0.285178	0.216426	0.151481	0.390334	0.579298	0.335831	0.446492	0.169250	0.265605	0.281347	0.150269	0.328883	0.344924	0.302209	0.527806	0.219797	0.360899	0.174492	0.180451	0.374698	0.198510	0.105333	0.137223	0.095941	0.122232	0.645600	0.565931	0.297619	0.349265	0.168791	0.153002	0.394907	0.490920	0.307352	0.258452	0.417703	0.682419	0.187431	0.390955	0.453540	0.336949
76	0.276317	0.146416	0.447597	0.298009	0.192722	0.292031	0.316453	0.259552	0.210344	0.151357	0.417292	0.588546	0.319420	0.440273	0.147488	0.251779	0.260866	0.132253	0.247555	0.346408	0.287087	0.402757	0.215690	0.362635	0.210201	0.187590	0.346258	0.186934	0.099086	0.164068	0.075717	0.118724	0.636328	0.511379	0.320933	0.376415	0.167708	0.150745	0.378469	0.473564	0.300355	0.249296	0.709527	0.705695	0.187270	0.322187	0.423731	0.267435
77	0.274696	0.145560	0.468596	0.300407	0.193908	0.292843	0.314793	0.203836	0.199596	0.147630	0.421859	0.593006	0.318360	0.439785	0.147156	0.221699	0.208277	0.095325	0.195843	0.345378	0.275837	0.332179	0.210024	0.359147	0.258735	0.204217	0.343657	0.186756	0.085538	0.165788	0.067627	0.099895	0.615531	0.432061	0.417758	0.374530	0.166236	0.150507	0.361287	0.406550	0.300024	0.229344	0.743089	0.970742	0.184444	0.276062	0.409905	0.263263
78	0.246613	0.157206	0.377042	0.287988	0.190632	0.290350	0.238787	0.173231	0.156923	0.132147	0.403698	0.563993	0.311107	0.403057	0.147239	0.229558	0.153145	0.042192	0.192265	0.337276	0.273651	0.306024	0.209203	0.352947	0.294052	0.208636	0.339166	0.186288	0.098346	0.186613	0.086646	0.096736	0.580851	0.425632	0.445689	0.417351	0.160637	0.150389	0.347086	0.377841	0.290588	0.221762	0.812338	1.077621	0.181603	0.303435	0.411027	0.263999
79	0.184820	0.197558	0.383938	0.286191	0.197261	0.294342	0.119318	0.157166	0.149062	0.137430	0.326309	0.536179	0.265571	0.306598	0.142912	0.215818	0.159720	0.073103	0.205812	0.284272	0.273478	0.303210	0.196917	0.344239	0.290267	0.206720	0.269756	0.244578	0.138958	0.189814	0.147679	0.093780	0.567710	0.414009	0.445839	0.414947	0.145715	0.139044	0.335234	0.375486	0.335008	0.242744	0.931325	1.082382	0.186010	0.337430	0.412012	0.248426
80	0.139875	0.197184	0.380425	0.254686	0.192211	0.290500	0.092980	0.173109	0.173621	0.151923	0.329027	0.533400	0.216476	0.257713	0.147937	0.180012	0.152784	0.106008	0.185955	0.254865	0.275547	0.303413	0.204247	0.342555	0.297306	0.214359	0.221340	0.308264	0.186528	0.191736	0.175416	0.086723	0.564615	0.411286	0.443384	0.428286	0.108026	0.107516	0.335512	0.363319	0.420404	0.279954	1.035715	1.082595	0.195737	0.345077	0.406284	0.195159
81	0.135072	0.194699	0.383114	0.203197	0.190589	0.296626	0.110576	0.175980	0.233120	0.184596	0.324646	0.529499	0.217883	0.253279	0.161712	0.160725	0.137346	0.111277	0.169877	0.254955	0.288539	0.333800	0.181794	0.318529	0.311418	0.217496	0.207538	0.331547	0.193696	0.191454	0.179908	0.080166	0.563445	0.390607	0.466223	0.436058	0.073582	0.068970	0.318581	0.351156	0.453237	0.308802	1.043986	1.073309	0.198411	0.320248	0.382543	0.134703
82	0.131199	0.239552	0.389497	0.191518	0.187101	0.299939	0.130763	0.162757	0.307471	0.216254	0.323282	0.468284	0.181927	0.219461	0.162488	0.157483	0.157273	0.124172	0.170075	0.212558	0.303079	0.360991	0.109724	0.368937	0.318636	0.221312	0.214402	0.325287	0.199352	0.187446	0.212722	0.081786	0.517496	0.360866	0.468791	0.483351	0.076218	0.051784	0.290852	0.346340	0.453796	0.305341	1.044428	1.074779	0.197883	0.304608	0.353145	0.098748
83	0.116417	0.253474	0.387416	0.203936	0.194012	0.298940	0.132770	0.129673	0.385202	0.244729	0.331992	0.458268	0.128427	0.168113	0.146758	0.180285	0.210165	0.163067	0.160773	0.181245	0.298907	0.335389	0.111262	0.378159	0.333822	0.212134	0.211994	0.364808	0.221724	0.177217	0.251454	0.133056	0.428212	0.306540	0.451067	0.490400	0.089207	0.057152	0.251117	0.330365	0.480392	0.290630	1.043074	1.064676	0.198874	0.314817	0.330108	0.098318
84	0.122713	0.260668	0.355786	0.253759	0.190842	0.290715	0.147227	0.123809	0.461289	0.293311	0.327510	0.459286	0.115666	0.125641	0.134046	0.192096	0.214109	0.166656	0.158501	0.174123	0.278139	0.321248	0.116360	0.356373	0.341301	0.216453	0.203417	0.376606	0.262032	0.178113	0.271026	0.151191	0.284903	0.226400	0.444673	0.513709	0.101552	0.088945	0.180934	0.248974	0.482959	0.276442	1.042294	0.939153	0.198302	0.337763	0.293496	0.098103
85	0.153928	0.266158	0.323297	0.299725	0.163514	0.299854	0.163192	0.126164	0.524643	0.303793	0.293272	0.460464	0.109292	0.104419	0.157885	0.192891	0.215941	0.183425	0.169081	0.133048	0.265314	0.343124	0.116957	0.355984	0.369918	0.252678	0.193368	0.381803	0.284917	0.178845	0.272677	0.148253	0.218110	0.203164	0.457409	0.550727	0.109844	0.128472	0.158888	0.245909	0.457991	0.256285	0.900137	0.913641	0.189361	0.344987	0.217595	0.092958
86	0.158404	0.266546	0.288159	0.305403	0.177314	0.351653	0.166339	0.125162	0.539640	0.325810	0.252984	0.465942	0.120305	0.108155	0.171334	0.195190	0.218138	0.206210	0.148122	0.138047	0.264208	0.349600	0.109211	0.351215	0.345337	0.245953	0.254587	0.463264	0.295513	0.177625	0.272616	0.151296	0.208100	0.275724	0.455556	0.546775	0.109899	0.146097	0.158247	0.204691	0.439308	0.254156	0.844269	0.767604	0.175048	0.345579	0.176453	0.087766
87	0.148998	0.266376	0.281866	0.425591	0.181796	0.317071	0.176810	0.122007	0.547764	0.385568	0.233906	0.469466	0.137885	0.130349	0.171770	0.200978	0.205863	0.195863	0.129346	0.135506	0.238371	0.320919	0.111860	0.320319	0.369798	0.236125	0.267847	0.523568	0.300373	0.185265	0.273504	0.153820	0.193439	0.294270	0.454475	0.537511	0.115365	0.147785	0.143114	0.161431	0.451492	0.255167	0.819095	0.399164	0.160884	0.351014	0.174881	0.088898
88	0.134891	0.231521	0.243007	0.435107	0.169767	0.343921	0.173991	0.121931	0.668930	0.475348	0.273499	0.467100	0.159659	0.195370	0.174121	0.202341	0.190859	0.182487	0.144196	0.130570	0.196911	0.287887	0.111885	0.287410	0.510887	0.236839	0.328643	0.527432	0.301097	0.160877	0.275239	0.154640	0.241211	0.309311	0.441876	0.516359	0.114921	0.166053	0.138611	0.136854	0.444131	0.242370	0.758478	0.382237	0.150065	0.351718	0.175477	0.094811
89	0.137106	0.217842	0.220247	0.463502	0.190863	0.380936	0.177746	0.120940	0.877077	0.535368	0.329562	0.446931	0.162761	0.195929	0.174805	0.199415	0.207658	0.195752	0.167795	0.129093	0.188404	0.284914	0.113907	0.279123	0.551869	0.231083	0.406528	0.492549	0.305286	0.212749	0.276129	0.158376	0.307855	0.396493	0.351126	0.513803	0.116946	0.176114	0.138806	0.128361	0.384916	0.210296	0.580881	0.424089	0.140886	0.351718	0.175186	0.095643
90	0.132298	0.216046	0.192308	0.467728	0.191895	0.380891	0.183305	0.116752	0.981658	0.547110	0.330905	0.403335	0.216040	0.209952	0.174658	0.176478	0.198480	0.198472	0.171132	0.128939	0.183501	0.286477	0.120186	0.277420	0.548609	0.188411	0.438285	0.509236	0.302795	0.219937	0.271154	0.162532	0.379053	0.491372	0.303149	0.477666	0.126763	0.181194	0.135869	0.126142	0.349711	0.146013	0.531592	0.424018	0.132463	0.350945	0.173393	0.097187
91	0.132778	0.152287	0.174460	0.470888	0.184439	0.378957	0.185845	0.109663	1.010544	0.541737	0.334545	0.406315	0.306724	0.238250	0.174216	0.159645	0.141499	0.174482	0.175108	0.124714	0.184749	0.293475	0.126187	0.273977	0.546739	0.174499	0.470908	0.524312	0.286215	0.214655	0.244612	0.159592	0.421376	0.510100	0.298443	0.441716	0.154716	0.231309	0.122181	0.126167	0.382981	0.124943	0.559191	0.425770	0.129803	0.348801	0.173912	0.104723
92	0.134356	0.149829	0.133432	0.479093	0.179958	0.381724	0.182869	0.087042	0.995006	0.528522	0.339239	0.409754	0.396114	0.273574	0.161590	0.163223	0.136023	0.184916	0.194073	0.124359	0.200372	0.339001	0.122371	0.269288	0.536849	0.176514	0.480221	0.490249	0.260162	0.228801	0.222428	0.158547	0.421430	0.511288	0.285068	0.428369	0.166158	0.259651	0.119620	0.125627	0.357071	0.120911	0.577190	0.401413	0.129022	0.340977	0.173128	0.113029
93	0.131019	0.134835	0.137414	0.458605	0.175728	0.385762	0.178675	0.114177	0.968897	0.513104	0.327110	0.333405	0.423099	0.277505	0.149567	0.167453	0.142435	0.169669	0.233516	0.185518	0.207477	0.354826	0.112753	0.265141	0.541224	0.171755	0.479507	0.614410	0.266270	0.250514	0.219876	0.157010	0.419075	0.513737	0.233617	0.420474	0.168239	0.284990	0.110554	0.126171	0.329854	0.120160	0.586505	0.370808	0.129062	0.320432	0.168056	0.115320
94	0.095920	0.137497	0.140876	0.485709	0.174787	0.384668	0.171262	0.167080	0.935239	0.484600	0.357179	0.328364	0.422836	0.275481	0.152045	0.159029	0.148550	0.146337	0.244062	0.288471	0.199546	0.348816	0.097547	0.260936	0.548808	0.122796	0.474631	0.695693	0.286434	0.271538	0.187626	0.154151	0.440066	0.532209	0.230124	0.367449	0.168459	0.291913	0.093379	0.145378	0.367216	0.119696	0.556093	0.368104	0.121805	0.269467	0.161227	0.116727
95	0.110065	0.123636	0.166767	0.445568	0.164542	0.384026	0.168733	0.263748	0.897844	0.469697	0.359096	0.371707	0.425511	0.273545	0.150338	0.130124	0.176364	0.145611	0.244971	0.388000	0.196052	0.341849	0.095247	0.210364	0.579350	0.110217	0.458433	0.681860	0.291802	0.280666	0.129728	0.113731	0.440231	0.543986	0.235383	0.355194	0.164585	0.290594	0.083310	0.165324	0.417028	0.139757	0.503722	0.355703	0.103637	0.222836	0.155565	0.114986
96	0.104948	0.112755	0.161091	0.366904	0.162471	0.382874	0.154609	0.299148	0.881958	0.461837	0.358152	0.357335	0.458554	0.273063	0.135411	0.118803	0.215325	0.149216	0.243966	0.417417	0.187751	0.339945	0.094869	0.126772	0.581609	0.121605	0.448591	0.668380	0.276493	0.282466	0.071984	0.080427	0.439699	0.552762	0.191431	0.342516	0.154533	0.288502	0.078936	0.158099	0.436768	0.156007	0.510517	0.386817	0.082812	0.211216	0.147892	0.108787
97	0.102616	0.138240	0.159227	0.363529	0.169100	0.354731	0.145658	0.301569	0.885328	0.419916	0.439152	0.336928	0.503777	0.275212	0.094357	0.121674	0.199431	0.127034	0.347563	0.458664	0.188405	0.339481	0.084737	0.119967	0.462435	0.128620	0.425866	0.671952	0.261360	0.282072	0.058950	0.079334	0.436805	0.548300	0.228027	0.344125	0.140924	0.276964	0.104708	0.171955	0.430710	0.155043	0.450400	0.389835	0.082186	0.200904	0.135187	0.106900
98	0.150651	0.161610	0.165923	0.342907	0.163126	0.307183	0.150048	0.343180	0.848324	0.339527	0.446023	0.368263	0.512698	0.272673	0.071731	0.123231	0.246424	0.111967	0.374346	0.626915	0.184760	0.316089	0.079452	0.091482	0.384593	0.160454	0.339729	0.710481	0.253559	0.281150	0.058672	0.067477	0.427840	0.521115	0.366689	0.319184	0.136121	0.261181	0.132429	0.176954	0.434111	0.160993	0.406211	0.335066	0.088544	0.184103	0.121494	0.110440
99	0.187178	0.184942	0.177259	0.365019	0.159340	0.299391	0.143491	0.418109	0.688043	0.220637	0.434640	0.399902	0.508429	0.252424	0.086430	0.119926	0.284483	0.105445	0.387571	0.639815	0.178400	0.296913	0.077433	0.041790	0.358300	0.166609	0.354436	0.708071	0.245818	0.274271	0.077149	0.059124	0.425501	0.507399	0.439399	0.314707	0.137428	0.256975	0.134392	0.179692	0.441711	0.173739	0.401245	0.383604	0.092701	0.159146	0.104577	0.112403
100	0.214054	0.184650	0.200725	0.345006	0.147825	0.190221	0.143446	0.482895	0.505163	0.154760	0.446733	0.462426	0.505335	0.218899	0.104395	0.116006	0.312376	0.092046	0.402356	0.638994	0.177924	0.296236	0.073156	0.036267	0.357128	0.166429	0.304739	0.683197	0.249374	0.268206	0.086659	0.056514	0.408518	0.505078	0.465571	0.318276	0.138045	0.260930	0.135961	0.187098	0.532341	0.168414	0.382918	0.387805	0.089454	0.116510	0.087087	0.119273
101	0.238961	0.176114	0.240143	0.334268	0.128827	0.145913	0.150043	0.528523	0.443029	0.137795	0.445476	0.635998	0.503092	0.217484	0.138457	0.115263	0.311622	0.095650	0.378386	0.624884	0.176319	0.296350	0.072219	0.028829	0.354978	0.168961	0.292861	0.689044	0.268559	0.239328	0.100355	0.046802	0.387591	0.439234	0.468406	0.369975	0.139819	0.250402	0.137206	0.201046	0.596252	0.164480	0.392379	0.417567	0.090619	0.108365	0.084804	0.121538
