	148_P_T1_sh_R_D_A_01.c3d	148_P_T1_sh_R_D_A_01.c3d	148_P_T1_sh_R_D_A_01.c3d	148_P_T1_sh_R_D_A_01.c3d	148_P_T1_sh_R_D_A_01.c3d	148_P_T1_sh_R_D_A_01.c3d	148_P_T1_sh_R_D_A_01.c3d	148_P_T1_sh_R_D_A_01.c3d	148_P_T1_sh_R_D_A_03.c3d	148_P_T1_sh_R_D_A_03.c3d	148_P_T1_sh_R_D_A_03.c3d	148_P_T1_sh_R_D_A_03.c3d	148_P_T1_sh_R_D_A_03.c3d	148_P_T1_sh_R_D_A_03.c3d	148_P_T1_sh_R_D_A_03.c3d	148_P_T1_sh_R_D_A_03.c3d	148_P_T1_sh_R_D_A_04.c3d	148_P_T1_sh_R_D_A_04.c3d	148_P_T1_sh_R_D_A_04.c3d	148_P_T1_sh_R_D_A_04.c3d	148_P_T1_sh_R_D_A_04.c3d	148_P_T1_sh_R_D_A_04.c3d	148_P_T1_sh_R_D_A_04.c3d	148_P_T1_sh_R_D_A_04.c3d	148_P_T1_sh_R_D_A_05.c3d	148_P_T1_sh_R_D_A_05.c3d	148_P_T1_sh_R_D_A_05.c3d	148_P_T1_sh_R_D_A_05.c3d	148_P_T1_sh_R_D_A_05.c3d	148_P_T1_sh_R_D_A_05.c3d	148_P_T1_sh_R_D_A_05.c3d	148_P_T1_sh_R_D_A_05.c3d	148_P_T1_sh_R_D_A_06.c3d	148_P_T1_sh_R_D_A_06.c3d	148_P_T1_sh_R_D_A_06.c3d	148_P_T1_sh_R_D_A_06.c3d	148_P_T1_sh_R_D_A_06.c3d	148_P_T1_sh_R_D_A_06.c3d	148_P_T1_sh_R_D_A_06.c3d	148_P_T1_sh_R_D_A_06.c3d	148_P_T1_sh_R_D_A_07.c3d	148_P_T1_sh_R_D_A_07.c3d	148_P_T1_sh_R_D_A_07.c3d	148_P_T1_sh_R_D_A_07.c3d	148_P_T1_sh_R_D_A_07.c3d	148_P_T1_sh_R_D_A_07.c3d	148_P_T1_sh_R_D_A_07.c3d	148_P_T1_sh_R_D_A_07.c3d	148_P_T1_sh_R_D_A_08.c3d	148_P_T1_sh_R_D_A_08.c3d	148_P_T1_sh_R_D_A_08.c3d	148_P_T1_sh_R_D_A_08.c3d	148_P_T1_sh_R_D_A_08.c3d	148_P_T1_sh_R_D_A_08.c3d	148_P_T1_sh_R_D_A_08.c3d	148_P_T1_sh_R_D_A_08.c3d	148_P_T1_sh_R_D_A_09.c3d	148_P_T1_sh_R_D_A_09.c3d	148_P_T1_sh_R_D_A_09.c3d	148_P_T1_sh_R_D_A_09.c3d	148_P_T1_sh_R_D_A_09.c3d	148_P_T1_sh_R_D_A_09.c3d	148_P_T1_sh_R_D_A_09.c3d	148_P_T1_sh_R_D_A_09.c3d	148_P_T1_sh_R_D_A_10.c3d	148_P_T1_sh_R_D_A_10.c3d	148_P_T1_sh_R_D_A_10.c3d	148_P_T1_sh_R_D_A_10.c3d	148_P_T1_sh_R_D_A_10.c3d	148_P_T1_sh_R_D_A_10.c3d	148_P_T1_sh_R_D_A_10.c3d	148_P_T1_sh_R_D_A_10.c3d
	Biceps femoris_lat	Semitendinosus_lat	Vastus lateralis_lat	Vastus medialis_lat	Biceps femoris_med	Semitendinosus_med	Vastus lateralis_med	Vastus medialis_med	Biceps femoris_lat	Semitendinosus_lat	Vastus lateralis_lat	Vastus medialis_lat	Biceps femoris_med	Semitendinosus_med	Vastus lateralis_med	Vastus medialis_med	Biceps femoris_lat	Semitendinosus_lat	Vastus lateralis_lat	Vastus medialis_lat	Biceps femoris_med	Semitendinosus_med	Vastus lateralis_med	Vastus medialis_med	Biceps femoris_lat	Semitendinosus_lat	Vastus lateralis_lat	Vastus medialis_lat	Biceps femoris_med	Semitendinosus_med	Vastus lateralis_med	Vastus medialis_med	Biceps femoris_lat	Semitendinosus_lat	Vastus lateralis_lat	Vastus medialis_lat	Biceps femoris_med	Semitendinosus_med	Vastus lateralis_med	Vastus medialis_med	Biceps femoris_lat	Semitendinosus_lat	Vastus lateralis_lat	Vastus medialis_lat	Biceps femoris_med	Semitendinosus_med	Vastus lateralis_med	Vastus medialis_med	Biceps femoris_lat	Semitendinosus_lat	Vastus lateralis_lat	Vastus medialis_lat	Biceps femoris_med	Semitendinosus_med	Vastus lateralis_med	Vastus medialis_med	Biceps femoris_lat	Semitendinosus_lat	Vastus lateralis_lat	Vastus medialis_lat	Biceps femoris_med	Semitendinosus_med	Vastus lateralis_med	Vastus medialis_med	Biceps femoris_lat	Semitendinosus_lat	Vastus lateralis_lat	Vastus medialis_lat	Biceps femoris_med	Semitendinosus_med	Vastus lateralis_med	Vastus medialis_med
	P2D	P2D	P2D	P2D	P2D	P2D	P2D	P2D	P2D	P2D	P2D	P2D	P2D	P2D	P2D	P2D	P2D	P2D	P2D	P2D	P2D	P2D	P2D	P2D	P2D	P2D	P2D	P2D	P2D	P2D	P2D	P2D	P2D	P2D	P2D	P2D	P2D	P2D	P2D	P2D	P2D	P2D	P2D	P2D	P2D	P2D	P2D	P2D	P2D	P2D	P2D	P2D	P2D	P2D	P2D	P2D	P2D	P2D	P2D	P2D	P2D	P2D	P2D	P2D	P2D	P2D	P2D	P2D	P2D	P2D	P2D	P2D
	EMG_lat	EMG_lat	EMG_lat	EMG_lat	EMG_med	EMG_med	EMG_med	EMG_med	EMG_lat	EMG_lat	EMG_lat	EMG_lat	EMG_med	EMG_med	EMG_med	EMG_med	EMG_lat	EMG_lat	EMG_lat	EMG_lat	EMG_med	EMG_med	EMG_med	EMG_med	EMG_lat	EMG_lat	EMG_lat	EMG_lat	EMG_med	EMG_med	EMG_med	EMG_med	EMG_lat	EMG_lat	EMG_lat	EMG_lat	EMG_med	EMG_med	EMG_med	EMG_med	EMG_lat	EMG_lat	EMG_lat	EMG_lat	EMG_med	EMG_med	EMG_med	EMG_med	EMG_lat	EMG_lat	EMG_lat	EMG_lat	EMG_med	EMG_med	EMG_med	EMG_med	EMG_lat	EMG_lat	EMG_lat	EMG_lat	EMG_med	EMG_med	EMG_med	EMG_med	EMG_lat	EMG_lat	EMG_lat	EMG_lat	EMG_med	EMG_med	EMG_med	EMG_med
ITEM	Y	Y	Y	Y	Y	Y	Y	Y	Y	Y	Y	Y	Y	Y	Y	Y	Y	Y	Y	Y	Y	Y	Y	Y	Y	Y	Y	Y	Y	Y	Y	Y	Y	Y	Y	Y	Y	Y	Y	Y	Y	Y	Y	Y	Y	Y	Y	Y	Y	Y	Y	Y	Y	Y	Y	Y	Y	Y	Y	Y	Y	Y	Y	Y	Y	Y	Y	Y	Y	Y	Y	Y
1	0.626352	0.535768	0.121356	0.131152	0.312341	0.244264	0.243040	0.142421	0.796759	0.209241	0.356556	0.183392	0.405405	0.265223	0.289122	0.103345	0.573721	0.254692	0.269152	0.133877	0.463329	0.150180	0.257545	0.096047	0.189754	0.167088	0.255561	0.155338	0.321415	0.190840	0.339951	0.125378	0.504522	0.153581	0.414148	0.185483	0.142456	0.127553	0.233251	0.174867	0.514289	0.140089	0.391653	0.152537	0.456904	0.465897	0.167104	0.062033	0.483942	0.234922	0.309164	0.184784	0.512334	0.183510	0.386865	0.195660	0.166875	0.198093	0.306572	0.160023	0.288990	0.174285	0.280943	0.153222	0.255724	0.287819	0.282238	0.217548	0.237889	0.140478	0.267857	0.113380
2	0.579667	0.550130	0.125298	0.131905	0.321194	0.231895	0.234197	0.160063	0.749542	0.197866	0.373051	0.183304	0.407784	0.262112	0.282183	0.130718	0.505769	0.177286	0.269802	0.142698	0.489123	0.146796	0.325090	0.117475	0.233001	0.172393	0.343992	0.155965	0.325794	0.089479	0.328228	0.131568	0.478204	0.152784	0.391669	0.169671	0.140932	0.131060	0.251526	0.242177	0.382572	0.182384	0.411476	0.181279	0.458918	0.467126	0.165831	0.069509	0.494487	0.231408	0.325624	0.186769	0.332667	0.164452	0.381859	0.188635	0.141451	0.198846	0.303799	0.163996	0.153055	0.153998	0.295394	0.174353	0.268676	0.270722	0.268976	0.204799	0.238493	0.180282	0.271566	0.150393
3	0.519130	0.522210	0.176765	0.154482	0.321905	0.188706	0.200636	0.156010	0.685158	0.196773	0.284772	0.222951	0.379856	0.255052	0.283776	0.131855	0.207808	0.141464	0.268128	0.155451	0.507370	0.118967	0.336639	0.173273	0.199228	0.140917	0.397396	0.218844	0.325260	0.073472	0.316366	0.140049	0.472502	0.154186	0.385648	0.168964	0.137022	0.128409	0.250047	0.260664	0.415460	0.188652	0.510902	0.254828	0.456710	0.453877	0.185774	0.098099	0.495281	0.199400	0.313721	0.208270	0.325926	0.178078	0.467886	0.213451	0.148693	0.187291	0.296658	0.147164	0.127265	0.122608	0.278454	0.230013	0.274046	0.229236	0.275471	0.196408	0.254462	0.263496	0.273161	0.151304
4	0.488706	0.492778	0.277969	0.156499	0.317975	0.088297	0.189245	0.153517	0.617339	0.185190	0.241098	0.232308	0.356879	0.284537	0.282332	0.140021	0.194734	0.095669	0.266572	0.214786	0.513279	0.082482	0.327575	0.188174	0.203269	0.141290	0.409931	0.295049	0.323645	0.111034	0.326789	0.156936	0.468956	0.145290	0.341930	0.120748	0.128294	0.116361	0.256848	0.255057	0.488516	0.206240	0.718651	0.253577	0.455264	0.438909	0.234120	0.174647	0.490795	0.191730	0.310166	0.208247	0.311449	0.200767	0.480683	0.210140	0.185660	0.160722	0.288959	0.169089	0.057892	0.119661	0.271515	0.247362	0.284585	0.156563	0.305598	0.223041	0.254972	0.292111	0.270008	0.148138
5	0.474943	0.477841	0.393240	0.155413	0.257046	0.065422	0.181756	0.159151	0.611441	0.180615	0.233051	0.229677	0.338649	0.290297	0.234267	0.139891	0.251733	0.089267	0.246438	0.213903	0.516391	0.081443	0.309174	0.190104	0.200096	0.112767	0.465491	0.303357	0.297124	0.177751	0.333150	0.159248	0.445992	0.115608	0.267525	0.126255	0.113530	0.107056	0.262851	0.290300	0.490032	0.209377	0.761851	0.245778	0.391359	0.317154	0.236015	0.182719	0.500276	0.195032	0.300718	0.202730	0.214043	0.202184	0.481183	0.195934	0.185913	0.118941	0.272242	0.205041	0.052341	0.119757	0.259921	0.248227	0.264432	0.140231	0.369842	0.234311	0.247305	0.297965	0.252985	0.147526
6	0.448699	0.484310	0.399529	0.156308	0.555568	0.067433	0.156541	0.188136	0.584495	0.179225	0.212197	0.236469	0.184185	0.289454	0.267447	0.138495	0.275994	0.088401	0.275866	0.214904	0.521173	0.082844	0.308006	0.189891	0.253705	0.093935	0.473275	0.306598	0.244079	0.188898	0.229600	0.177478	0.376342	0.092886	0.250409	0.139360	0.052130	0.107543	0.268932	0.324291	0.533539	0.254048	0.768029	0.242236	0.385995	0.335137	0.235206	0.233256	0.497501	0.193286	0.348351	0.203495	0.116685	0.204142	0.479361	0.178386	0.211497	0.120820	0.320242	0.249796	0.049798	0.107419	0.250965	0.247228	0.276314	0.148930	0.391494	0.242574	0.249506	0.295165	0.251989	0.159713
7	0.447014	0.413049	0.420959	0.155870	0.621595	0.061741	0.143793	0.240358	0.216904	0.117993	0.216126	0.240723	0.172307	0.273953	0.390418	0.212718	0.300554	0.085869	0.252167	0.220020	0.521345	0.083453	0.322482	0.195578	0.264586	0.090802	0.494642	0.304682	0.159950	0.191467	0.226102	0.193261	0.322813	0.095090	0.253352	0.140591	0.029080	0.125973	0.301527	0.318227	0.544603	0.334082	0.802488	0.261954	0.236248	0.385170	0.239123	0.275296	0.478849	0.189492	0.384574	0.234464	0.087706	0.192002	0.458056	0.160937	0.211949	0.118141	0.333765	0.277928	0.050847	0.103035	0.249520	0.248510	0.297791	0.146150	0.447165	0.243275	0.239311	0.303002	0.225904	0.213694
8	0.319625	0.408503	0.475829	0.152991	1.153596	0.227611	0.150502	0.240207	0.216877	0.119562	0.231471	0.229431	0.147531	0.182044	0.388336	0.225722	0.312953	0.096382	0.282927	0.214220	0.499670	0.083058	0.355477	0.191868	0.264115	0.102082	0.484139	0.298995	0.132686	0.269766	0.514460	0.371579	0.291979	0.118419	0.256054	0.140121	0.023604	0.145825	0.297234	0.351705	0.559648	0.390008	0.800041	0.288395	0.225500	0.404882	0.244122	0.280049	0.440328	0.177577	0.482684	0.232050	0.085941	0.175244	0.485205	0.157441	0.218328	0.121545	0.337121	0.277142	0.037633	0.093525	0.253388	0.342630	0.318890	0.122316	0.481256	0.251880	0.193060	0.340801	0.191373	0.233648
9	0.290651	0.404171	0.508796	0.165048	1.166595	0.233481	0.159857	0.283562	0.214238	0.108121	0.254856	0.205460	0.111240	0.186662	0.424282	0.269515	0.316474	0.098504	0.288385	0.211588	0.462127	0.082779	0.360805	0.215485	0.260446	0.097658	0.480039	0.294241	0.173183	0.302450	0.624427	0.451268	0.260356	0.125860	0.268430	0.127548	0.023699	0.140237	0.277578	0.377351	0.613161	0.403606	0.776332	0.295037	0.179256	0.487924	0.300387	0.287332	0.268924	0.109131	0.527381	0.210804	0.085455	0.163008	0.537807	0.176630	0.251396	0.106591	0.271786	0.281773	0.039874	0.089252	0.274240	0.400032	0.390934	0.099978	0.459083	0.275561	0.184340	0.352278	0.234785	0.269316
10	0.237979	0.329500	0.518083	0.171282	1.167419	0.237264	0.176221	0.308388	0.195385	0.099504	0.277495	0.182922	0.087201	0.190862	0.580512	0.313519	0.315345	0.097547	0.286660	0.160097	0.434795	0.077145	0.398523	0.223480	0.340853	0.111875	0.462768	0.286529	0.275041	0.306253	0.727697	0.547986	0.201457	0.126997	0.247131	0.125553	0.026015	0.134420	0.298676	0.374941	0.656385	0.400616	0.755429	0.285649	0.180509	0.524439	0.310387	0.402360	0.242091	0.095097	0.539357	0.256594	0.085480	0.162554	0.562927	0.175045	0.251598	0.108391	0.280161	0.283907	0.038324	0.056725	0.278872	0.406896	0.459670	0.088462	0.485076	0.262470	0.181277	0.351778	0.216550	0.341735
11	0.233916	0.293852	0.618512	0.200518	1.165850	0.336085	0.199510	0.311912	0.178739	0.098767	0.307640	0.183020	0.086116	0.162216	0.683524	0.316335	0.265331	0.081300	0.289069	0.161071	0.285374	0.045920	0.388109	0.225461	0.374815	0.110409	0.399453	0.285937	0.276174	0.304876	1.008811	0.572047	0.183905	0.124765	0.242522	0.132298	0.040567	0.143634	0.317023	0.347611	0.654690	0.393413	0.732078	0.282082	0.166792	0.535832	0.311297	0.421434	0.233532	0.086759	0.584895	0.296728	0.073591	0.172713	0.738937	0.170916	0.282042	0.113976	0.379332	0.289959	0.039263	0.048329	0.247049	0.393667	0.457525	0.079284	0.494706	0.243888	0.190122	0.380273	0.186916	0.352074
12	0.229423	0.290460	0.678069	0.174525	1.098200	0.397806	0.222132	0.290173	0.140289	0.094792	0.320095	0.147052	0.098974	0.145325	0.710813	0.308825	0.232647	0.067839	0.264029	0.151173	0.257485	0.060446	0.340440	0.226199	0.493324	0.137943	0.371109	0.247909	0.278607	0.359217	1.046666	0.563961	0.181080	0.123613	0.290481	0.132564	0.047137	0.179471	0.348880	0.333342	0.872169	0.519104	0.722641	0.228954	0.160066	0.551276	0.303289	0.407000	0.214487	0.080683	0.625024	0.300646	0.083028	0.147507	0.791651	0.176709	0.301350	0.112299	0.450673	0.284968	0.038086	0.050331	0.241295	0.380681	0.455369	0.083307	0.496106	0.238464	0.203097	0.394989	0.180074	0.347583
13	0.226872	0.271237	0.640455	0.166646	1.032516	0.408404	0.206904	0.269994	0.085208	0.056997	0.316578	0.125321	0.102396	0.148759	0.685840	0.310430	0.172439	0.073148	0.297086	0.151020	0.211561	0.095945	0.359285	0.194261	0.513536	0.146039	0.525314	0.190012	0.259409	0.356207	1.042980	0.556510	0.179013	0.172022	0.269140	0.129703	0.049649	0.195469	0.355749	0.329235	0.885672	0.603647	0.583797	0.189070	0.170457	0.559156	0.429288	0.414172	0.211109	0.081166	0.635854	0.286307	0.087366	0.124632	0.803200	0.190225	0.289395	0.105423	0.458314	0.245467	0.039204	0.051292	0.241932	0.363091	0.446356	0.084505	0.502683	0.240642	0.172588	0.348317	0.180511	0.347986
14	0.171851	0.195872	0.591724	0.165756	0.852147	0.469048	0.204414	0.230483	0.064823	0.049171	0.285841	0.125111	0.104593	0.125173	0.634625	0.295818	0.133862	0.076404	0.347343	0.175631	0.210435	0.244781	0.404071	0.182732	0.547247	0.147866	0.511953	0.191905	0.254787	0.312303	0.955159	0.498399	0.159403	0.276465	0.248184	0.107877	0.060520	0.248282	0.352569	0.293486	0.885495	0.622574	0.360495	0.203752	0.194356	0.544193	0.554750	0.405196	0.210497	0.074954	0.628691	0.289849	0.091829	0.126951	0.805510	0.203924	0.306278	0.104739	0.429612	0.223234	0.039370	0.051479	0.251564	0.365611	0.445806	0.090977	0.497173	0.229847	0.155620	0.354404	0.240477	0.348551
15	0.142353	0.147699	0.607956	0.164624	0.193560	0.481100	0.214005	0.193108	0.046900	0.042942	0.272271	0.111567	0.103080	0.122763	0.668881	0.282370	0.103405	0.081019	0.413055	0.188210	0.206167	0.346271	0.450261	0.181304	0.533632	0.144111	0.543485	0.177310	0.228850	0.282048	0.865262	0.379354	0.151278	0.315215	0.259178	0.082937	0.063447	0.366283	0.349514	0.250718	0.872632	0.626919	0.334064	0.205581	0.210915	0.475853	0.560369	0.375732	0.191159	0.100712	0.614676	0.310571	0.095237	0.119971	0.807652	0.211166	0.308260	0.118138	0.424087	0.162906	0.041100	0.051549	0.258112	0.367381	0.438789	0.098288	0.459153	0.201709	0.156109	0.349132	0.350714	0.348935
16	0.057792	0.139284	0.620859	0.165615	0.176663	0.488724	0.194164	0.126445	0.097717	0.068062	0.253317	0.152456	0.101806	0.133859	0.662999	0.231467	0.082948	0.078366	0.417484	0.221257	0.194566	0.382970	0.462552	0.170282	0.532837	0.141802	0.594222	0.174093	0.091033	0.279506	0.828267	0.246936	0.185580	0.331502	0.256136	0.099870	0.076650	0.365234	0.341051	0.241717	0.849083	0.604303	0.266772	0.196652	0.211316	0.426045	0.560727	0.369939	0.196192	0.122642	0.584579	0.313811	0.095520	0.139888	0.820843	0.220480	0.353375	0.151407	0.412361	0.143083	0.040359	0.065728	0.264628	0.370738	0.456661	0.128797	0.414745	0.195120	0.166232	0.347719	0.394009	0.344880
17	0.038813	0.113281	0.575768	0.158402	0.168832	0.472951	0.192285	0.101465	0.125208	0.101183	0.280707	0.191292	0.105270	0.179833	0.538564	0.168085	0.119938	0.074113	0.422278	0.239107	0.176197	0.561112	0.441656	0.163901	0.534351	0.134359	0.590068	0.225223	0.076349	0.272839	0.451289	0.119508	0.234936	0.354232	0.252108	0.110092	0.077857	0.377130	0.359087	0.196404	0.845239	0.555061	0.201768	0.159034	0.190803	0.391572	0.535930	0.376992	0.269263	0.123198	0.521996	0.298613	0.095963	0.195285	0.774248	0.215857	0.337063	0.159152	0.404530	0.147911	0.052316	0.083451	0.262706	0.355186	0.445466	0.133076	0.392552	0.182982	0.170630	0.339539	0.395248	0.314502
18	0.036580	0.048187	0.559557	0.137701	0.159396	0.394008	0.179861	0.099321	0.126922	0.105451	0.486671	0.191357	0.109320	0.168819	0.400535	0.169066	0.125221	0.076410	0.420902	0.240675	0.180875	0.580136	0.422078	0.172902	0.541527	0.136473	0.588317	0.259428	0.060874	0.182525	0.233589	0.096393	0.238762	0.357172	0.237529	0.113476	0.082131	0.381619	0.347663	0.132520	0.833685	0.533427	0.200282	0.133113	0.187141	0.275130	0.537148	0.278744	0.323196	0.128560	0.433856	0.302229	0.104755	0.204636	0.765018	0.218866	0.332803	0.160287	0.423804	0.141493	0.085580	0.196677	0.261577	0.236587	0.542716	0.226151	0.323128	0.175444	0.160203	0.302161	0.423391	0.341277
19	0.041524	0.038917	0.544262	0.126007	0.148334	0.369295	0.213405	0.076279	0.133977	0.107118	0.530059	0.261247	0.106242	0.245344	0.349789	0.171918	0.123855	0.072007	0.360259	0.224062	0.140124	0.584943	0.403795	0.154255	0.505346	0.135267	0.589156	0.272493	0.056379	0.179259	0.234237	0.090614	0.293361	0.470010	0.238708	0.114608	0.082161	0.400153	0.318701	0.134770	0.779471	0.530794	0.209996	0.130503	0.184617	0.251224	0.544356	0.199204	0.295010	0.133480	0.412777	0.289580	0.111115	0.239911	0.730535	0.217520	0.314531	0.157425	0.388401	0.122570	0.108469	0.338401	0.205827	0.179111	0.566828	0.234484	0.324499	0.124919	0.153027	0.287513	0.472985	0.388964
20	0.047321	0.037294	0.419204	0.073753	0.135436	0.358629	0.225782	0.070169	0.131416	0.107564	0.638151	0.329820	0.102532	0.252530	0.343917	0.170942	0.121524	0.059991	0.302531	0.201740	0.113712	0.587622	0.362279	0.162351	0.494473	0.129751	0.606429	0.284843	0.040984	0.166984	0.231033	0.079370	0.295624	0.471471	0.258042	0.111690	0.080298	0.418227	0.282705	0.169542	0.720437	0.532333	0.217102	0.131260	0.172853	0.259414	0.537467	0.187797	0.291667	0.137498	0.373234	0.234327	0.103144	0.238577	0.534990	0.191984	0.285517	0.159769	0.271684	0.140322	0.111723	0.365700	0.157927	0.171778	0.472972	0.234478	0.269260	0.105345	0.149937	0.293717	0.521057	0.334042
21	0.050005	0.034786	0.305551	0.055083	0.122307	0.163328	0.221575	0.088947	0.130411	0.108391	0.669426	0.328982	0.099790	0.264165	0.316094	0.111755	0.120037	0.050704	0.138857	0.191303	0.111293	0.587802	0.342672	0.164027	0.408786	0.104041	0.590803	0.274627	0.038064	0.167996	0.215481	0.127506	0.294605	0.478555	0.220807	0.125178	0.078313	0.404270	0.241923	0.204716	0.632426	0.494197	0.231400	0.131591	0.162617	0.306903	0.485656	0.154767	0.312734	0.154568	0.288770	0.205252	0.090229	0.240021	0.457235	0.176265	0.287144	0.164487	0.244899	0.156194	0.133181	0.442993	0.164928	0.172071	0.461112	0.239014	0.200131	0.109773	0.137449	0.256847	0.526901	0.314261
22	0.050640	0.032927	0.298644	0.069592	0.079499	0.185118	0.220829	0.101725	0.104796	0.116535	0.667986	0.318572	0.100471	0.265275	0.203153	0.110007	0.127808	0.096018	0.148799	0.199630	0.111271	0.585984	0.356094	0.150940	0.376770	0.094868	0.444860	0.251271	0.040799	0.162226	0.187877	0.147670	0.299526	0.479322	0.208023	0.208020	0.077033	0.396352	0.235407	0.205011	0.310871	0.331604	0.233952	0.143039	0.128980	0.319485	0.330953	0.148493	0.390663	0.191610	0.189884	0.206483	0.086761	0.239479	0.440241	0.167465	0.249267	0.164045	0.256204	0.158392	0.140367	0.451687	0.186210	0.150365	0.460958	0.247569	0.200954	0.092267	0.109456	0.207247	0.552808	0.312524
23	0.053204	0.034953	0.284730	0.086840	0.058549	0.381336	0.232241	0.108923	0.075229	0.107226	0.675378	0.368980	0.100482	0.291005	0.142688	0.112678	0.079625	0.104325	0.147569	0.206724	0.111647	0.581505	0.356806	0.158149	0.333579	0.119046	0.417039	0.283522	0.037443	0.133796	0.115107	0.154304	0.299926	0.434766	0.225537	0.268635	0.072105	0.374794	0.239149	0.221319	0.172023	0.211856	0.229814	0.149887	0.088071	0.325309	0.306904	0.147936	0.440453	0.203344	0.152950	0.202587	0.081571	0.241969	0.469709	0.180229	0.246427	0.157024	0.256015	0.155293	0.140525	0.451634	0.206728	0.117802	0.457569	0.251756	0.243337	0.078687	0.110324	0.204534	0.614826	0.313222
24	0.057764	0.047736	0.233881	0.102693	0.102900	0.406573	0.213676	0.152136	0.079536	0.104532	0.547593	0.441970	0.099332	0.278857	0.124562	0.106255	0.073309	0.102173	0.237052	0.215628	0.096714	0.535639	0.298297	0.159178	0.327601	0.120202	0.354940	0.430120	0.036434	0.095404	0.166893	0.315368	0.298723	0.395383	0.219236	0.276993	0.080931	0.251663	0.245026	0.292120	0.147512	0.198812	0.238712	0.166977	0.066709	0.322238	0.304628	0.149721	0.489189	0.228630	0.147369	0.202685	0.076557	0.238799	0.465111	0.217376	0.188894	0.114143	0.256994	0.166260	0.142013	0.452319	0.232633	0.109354	0.455117	0.252285	0.251350	0.093450	0.113518	0.149246	0.625685	0.313501
25	0.063550	0.057210	0.160042	0.104279	0.111676	0.445920	0.181862	0.292429	0.070849	0.103317	0.677738	0.685251	0.087110	0.291002	0.103731	0.115913	0.060892	0.128234	0.247611	0.255159	0.090676	0.486728	0.240392	0.160065	0.321628	0.130920	0.234084	0.494775	0.037728	0.089745	0.174821	0.330798	0.283715	0.409482	0.214126	0.290411	0.073888	0.243167	0.219160	0.323667	0.147251	0.198661	0.256823	0.189519	0.063341	0.312210	0.304543	0.176083	0.602288	0.250372	0.136782	0.177986	0.072529	0.215532	0.431276	0.223119	0.141261	0.090197	0.293104	0.229199	0.152243	0.462269	0.238706	0.098358	0.448973	0.250830	0.266230	0.129618	0.107272	0.140921	0.574438	0.313316
26	0.064913	0.059690	0.151187	0.172440	0.120848	0.587999	0.178160	0.558415	0.074460	0.115599	0.740822	0.714840	0.060418	0.242059	0.100404	0.339941	0.063162	0.156556	0.346543	0.272180	0.103735	0.433282	0.226481	0.163516	0.319509	0.150153	0.288913	0.477076	0.042257	0.094246	0.210777	0.337735	0.213983	0.391106	0.214407	0.342843	0.072352	0.211456	0.184457	0.339741	0.145481	0.202341	0.252257	0.195694	0.055468	0.308899	0.301885	0.253458	0.636720	0.251230	0.130026	0.178905	0.072325	0.172663	0.399474	0.224926	0.128781	0.094350	0.290822	0.224545	0.152280	0.470213	0.235864	0.080122	0.440215	0.236910	0.320582	0.162598	0.081950	0.141501	0.546858	0.312080
27	0.063503	0.059491	0.096968	0.239805	0.127797	0.697146	0.488239	0.818191	0.076515	0.114867	0.914346	0.838950	0.070134	0.276291	0.214404	0.391777	0.080347	0.168177	0.459793	0.291640	0.099810	0.205486	0.225743	0.174814	0.304248	0.155531	0.299646	0.475037	0.044584	0.104995	0.337659	0.350848	0.199031	0.383141	0.220275	0.389052	0.067268	0.201033	0.180530	0.356674	0.149993	0.210512	0.270804	0.227685	0.059624	0.307299	0.284657	0.280763	0.595607	0.251715	0.119939	0.184675	0.056391	0.157667	0.328787	0.210502	0.129282	0.085991	0.272025	0.234233	0.144013	0.464037	0.241716	0.085932	0.413130	0.230258	0.328502	0.168532	0.068157	0.120885	0.555375	0.312024
28	0.055414	0.057834	0.097856	0.283943	0.129982	0.690138	0.571543	0.856236	0.089579	0.098003	0.975301	1.071517	0.069315	0.267315	0.339287	0.452264	0.068013	0.178028	0.476483	0.264906	0.082279	0.171155	0.224538	0.165455	0.249270	0.139770	0.346068	0.499062	0.042186	0.133671	0.370327	0.350220	0.121441	0.248685	0.265803	0.399153	0.066667	0.162825	0.167253	0.354675	0.155844	0.212171	0.323975	0.255580	0.059334	0.341088	0.278555	0.288931	0.586986	0.256510	0.116283	0.182509	0.051196	0.092098	0.283742	0.236176	0.119320	0.080145	0.275992	0.279308	0.123579	0.398403	0.248791	0.078672	0.347630	0.180060	0.368589	0.178565	0.067289	0.112358	0.550802	0.268889
29	0.053520	0.062581	0.092345	0.292057	0.138354	0.658262	0.717382	1.007753	0.098210	0.071798	0.962808	1.098821	0.074376	0.266340	0.628263	0.477246	0.072057	0.185741	0.498783	0.310010	0.084693	0.163888	0.226393	0.160122	0.168130	0.148634	0.317727	0.517644	0.037700	0.122865	0.411908	0.442657	0.080474	0.221375	0.275150	0.403359	0.061516	0.078974	0.164526	0.354323	0.157102	0.206722	0.328569	0.264360	0.054351	0.273511	0.257164	0.288428	0.588312	0.280191	0.079849	0.175007	0.058353	0.086017	0.248912	0.369282	0.076562	0.060861	0.299621	0.312749	0.116601	0.313091	0.250186	0.092767	0.113435	0.119011	0.390995	0.240697	0.070033	0.115373	0.506279	0.144597
30	0.055116	0.069436	0.141244	0.302417	0.141811	0.585781	0.820419	1.140275	0.100939	0.060936	0.959083	1.065175	0.093904	0.229784	0.640405	0.541861	0.076158	0.187653	0.476951	0.367169	0.096519	0.195814	0.227052	0.147046	0.110559	0.150614	0.324955	0.526384	0.069009	0.175443	0.396621	0.439688	0.081439	0.207317	0.274604	0.401961	0.059153	0.078694	0.164246	0.383088	0.155775	0.202573	0.331589	0.267564	0.067414	0.296394	0.202036	0.283509	0.589399	0.294233	0.072790	0.202561	0.055191	0.080680	0.240875	0.500806	0.070879	0.068339	0.307131	0.323918	0.106533	0.287122	0.242655	0.101615	0.080616	0.123786	0.391489	0.315185	0.072737	0.094810	0.458988	0.131904
31	0.056755	0.076871	0.167919	0.355086	0.130593	0.587776	0.826906	1.160763	0.097442	0.063724	0.885487	0.939685	0.088071	0.211940	0.650174	0.584109	0.073343	0.176322	0.491084	0.363669	0.097658	0.199896	0.225194	0.153005	0.093781	0.149147	0.331545	0.533814	0.073204	0.239903	0.414174	0.455887	0.060523	0.194657	0.252817	0.374329	0.060376	0.076275	0.142083	0.410895	0.136757	0.193771	0.317165	0.271570	0.070483	0.264736	0.171157	0.314383	0.563721	0.305382	0.093403	0.246202	0.058656	0.079829	0.234018	0.525321	0.065983	0.068351	0.421385	0.485549	0.083494	0.170040	0.233381	0.105474	0.075130	0.121808	0.396190	0.355762	0.070003	0.091505	0.451959	0.125185
32	0.054973	0.081327	0.165961	0.395034	0.133575	0.550700	0.848624	1.098347	0.094662	0.046644	0.696545	0.870172	0.084081	0.179459	0.652674	0.581329	0.071585	0.157424	0.461533	0.420864	0.100522	0.209207	0.180780	0.175210	0.078755	0.158556	0.330695	0.510086	0.086899	0.280366	0.455045	0.501351	0.054829	0.171536	0.227484	0.328275	0.057307	0.051009	0.166125	0.410043	0.123544	0.189123	0.329191	0.271564	0.069846	0.272656	0.187687	0.427590	0.505048	0.286279	0.126068	0.251138	0.062945	0.070590	0.163325	0.518280	0.065750	0.071488	0.549221	0.530587	0.076388	0.173198	0.218646	0.123766	0.073159	0.104226	0.398770	0.372425	0.064793	0.086981	0.422256	0.101206
33	0.049545	0.079639	0.162329	0.406974	0.116188	0.235475	0.811289	0.905643	0.101125	0.054679	0.434426	0.783263	0.084934	0.166869	0.677560	0.531480	0.058452	0.145141	0.332706	0.490303	0.106721	0.199501	0.133539	0.172620	0.090966	0.381689	0.328374	0.387697	0.106118	0.302798	0.420546	0.482465	0.055849	0.173527	0.228570	0.322582	0.041083	0.074899	0.169367	0.464249	0.116054	0.173344	0.336419	0.263066	0.069732	0.287168	0.180024	0.515005	0.489040	0.282103	0.150139	0.253902	0.064576	0.090593	0.168716	0.568645	0.063367	0.069391	0.546366	0.510389	0.076267	0.173764	0.177620	0.355568	0.071545	0.125041	0.395105	0.380153	0.059822	0.096467	0.327916	0.240125
34	0.042493	0.074408	0.173721	0.412506	0.118225	0.178207	0.661461	0.861558	0.100964	0.202435	0.162472	0.413571	0.075411	0.066419	0.650481	0.593581	0.063638	0.110866	0.297226	0.490919	0.111707	0.190625	0.146232	0.172137	0.094994	0.519566	0.312661	0.310458	0.128528	0.300974	0.408754	0.482775	0.068982	0.144620	0.228797	0.335268	0.032739	0.143272	0.260448	0.542358	0.108964	0.153459	0.323303	0.249830	0.069729	0.286625	0.125422	0.495845	0.362029	0.239029	0.210253	0.247091	0.066745	0.095091	0.198563	0.620224	0.067496	0.062690	0.585108	0.530154	0.066127	0.164909	0.200586	0.573697	0.078414	0.282686	0.370974	0.380252	0.057871	0.086338	0.279389	0.327316
35	0.043789	0.086824	0.185071	0.387164	0.127836	0.209238	0.602873	0.743045	0.093001	0.350013	0.152732	0.211550	0.075351	0.057776	0.623519	0.571426	0.069864	0.082106	0.263715	0.475018	0.104953	0.231433	0.137576	0.176260	0.114520	0.589383	0.255833	0.307842	0.146473	0.310761	0.363649	0.426751	0.080815	0.221846	0.249780	0.335947	0.038257	0.156736	0.302733	0.579369	0.103308	0.144310	0.308707	0.244343	0.070039	0.291683	0.126280	0.493046	0.190953	0.220742	0.244987	0.308635	0.068461	0.101874	0.218241	0.620624	0.065531	0.058458	0.588325	0.583682	0.050492	0.126724	0.268988	0.607419	0.077310	0.400394	0.371805	0.380719	0.062514	0.092542	0.313845	0.331991
36	0.052754	0.207839	0.207439	0.350257	0.116504	0.226673	0.361395	0.450256	0.085794	0.352309	0.151336	0.210052	0.069616	0.054605	0.331503	0.657649	0.065639	0.110949	0.247842	0.432606	0.092973	0.329811	0.137583	0.186677	0.134565	0.611722	0.263459	0.428011	0.148322	0.349975	0.376182	0.337603	0.078598	0.270961	0.266544	0.317542	0.046630	0.160252	0.301525	0.572415	0.101154	0.138260	0.302807	0.237444	0.067342	0.251806	0.131948	0.530998	0.113187	0.218296	0.350123	0.380355	0.078896	0.103282	0.308873	0.619733	0.073678	0.059677	0.614651	0.598546	0.044200	0.107045	0.277913	0.612592	0.096054	0.421327	0.374281	0.495596	0.057091	0.094505	0.364424	0.337825
37	0.080846	0.375975	0.248490	0.473728	0.101388	0.233085	0.285957	0.265151	0.127031	0.369992	0.217321	0.219626	0.038500	0.061824	0.333611	0.702122	0.130445	0.303967	0.207359	0.419383	0.133369	0.421089	0.162942	0.266680	0.141947	0.632655	0.454599	0.486900	0.182961	0.441110	0.491831	0.317103	0.080696	0.394875	0.230736	0.386715	0.050452	0.161744	0.316077	0.573634	0.084418	0.130185	0.264383	0.386984	0.067098	0.245173	0.134760	0.569280	0.091969	0.217600	0.407143	0.412567	0.084549	0.102481	0.388228	0.605612	0.080505	0.060384	0.625489	0.574461	0.042933	0.132920	0.271173	0.613790	0.103441	0.449427	0.480995	0.568397	0.059443	0.091174	0.480032	0.372174
38	0.084660	0.446610	0.471525	0.647475	0.145669	0.270828	0.221302	0.292857	0.199996	0.475978	0.242939	0.224398	0.070111	0.061916	0.324161	0.676368	0.214507	0.452508	0.261274	0.426240	0.146402	0.501511	0.314435	0.334329	0.148990	0.634098	0.519435	0.466603	0.216774	0.460739	0.438653	0.207207	0.124312	0.423259	0.193160	0.429249	0.073057	0.187649	0.361987	0.566306	0.084338	0.132048	0.370525	0.713093	0.047901	0.221714	0.136986	0.585509	0.096763	0.187631	0.428962	0.432875	0.083472	0.100658	0.387110	0.525029	0.079977	0.047135	0.619939	0.578889	0.037943	0.158072	0.265902	0.643642	0.103809	0.452453	0.491970	0.587704	0.059674	0.089203	0.482589	0.387313
39	0.161780	0.622488	0.486525	0.674310	0.151774	0.303472	0.193085	0.307530	0.200402	0.491078	0.249362	0.205664	0.120034	0.078518	0.321389	0.675794	0.237787	0.543077	0.279243	0.337138	0.147670	0.505283	0.346176	0.332430	0.175582	0.633748	0.512937	0.457177	0.217556	0.453665	0.412345	0.289163	0.156765	0.480747	0.278908	0.439664	0.077652	0.218487	0.378767	0.554409	0.096630	0.131429	0.656513	0.810659	0.039701	0.229291	0.189895	0.581937	0.085970	0.173054	0.430646	0.438330	0.079832	0.101397	0.388117	0.441888	0.078874	0.044366	0.609242	0.566437	0.033105	0.153734	0.297211	0.711501	0.104249	0.473164	0.481763	0.583720	0.061054	0.089271	0.536695	0.399475
40	0.170795	0.678707	0.629582	0.653945	0.150688	0.292591	0.155354	0.272717	0.207394	0.472138	0.305768	0.235811	0.129433	0.215175	0.262447	0.651976	0.290925	0.612967	0.427483	0.341172	0.143356	0.511134	0.380016	0.344945	0.180384	0.634224	0.550937	0.465280	0.202699	0.448462	0.603560	0.321110	0.159234	0.497704	0.371580	0.489333	0.089008	0.219805	0.412162	0.533417	0.103024	0.123920	0.701242	0.814828	0.039627	0.223475	0.246995	0.526168	0.115299	0.126165	0.460025	0.463505	0.073601	0.103503	0.409379	0.434742	0.078957	0.039425	0.526315	0.532740	0.038099	0.142100	0.364071	0.759310	0.104831	0.475497	0.489940	0.552402	0.060455	0.095485	0.655722	0.422979
41	0.172204	0.700973	0.680691	0.695444	0.143369	0.272994	0.147934	0.268409	0.207177	0.363316	0.420728	0.256543	0.132408	0.434968	0.258171	0.566742	0.310592	0.624612	0.533686	0.382417	0.146522	0.549988	0.438105	0.371043	0.182065	0.641170	0.595808	0.469850	0.191467	0.445228	0.755818	0.330424	0.162799	0.511031	0.381183	0.565222	0.092858	0.220725	0.477591	0.531238	0.107537	0.118792	0.745902	0.833835	0.040072	0.199986	0.238259	0.416935	0.132511	0.099782	0.544935	0.494012	0.070476	0.091307	0.411292	0.420804	0.078109	0.039408	0.526882	0.533903	0.038352	0.139029	0.393672	0.781569	0.106754	0.474872	0.493137	0.541261	0.059166	0.109366	0.707089	0.446681
42	0.182529	0.702590	0.684889	0.783978	0.131750	0.240179	0.129739	0.296742	0.206792	0.364823	0.526920	0.257594	0.231645	0.522018	0.203775	0.555795	0.322196	0.621411	0.613652	0.400564	0.146064	0.594132	0.454024	0.404093	0.166809	0.536479	0.619359	0.471402	0.190923	0.402253	0.755523	0.390164	0.172811	0.515317	0.377620	0.645343	0.094324	0.215247	0.487965	0.470694	0.107453	0.110634	0.833851	0.921509	0.052676	0.203216	0.242095	0.380375	0.130382	0.098647	0.617503	0.583655	0.069546	0.072973	0.401512	0.331007	0.067830	0.038209	0.463966	0.517490	0.040385	0.134161	0.394354	0.772622	0.107128	0.475005	0.513231	0.553927	0.060406	0.107720	0.710069	0.452832
43	0.204713	0.718895	0.683059	0.809096	0.129532	0.245288	0.237571	0.316626	0.198202	0.358289	0.844445	0.310178	0.261499	0.601380	0.181502	0.441701	0.314813	0.567079	0.613592	0.400022	0.140888	0.665710	0.456885	0.408036	0.165813	0.450169	0.629650	0.471558	0.152822	0.270695	0.904807	0.426972	0.180568	0.540374	0.375831	0.662596	0.091810	0.176480	0.553953	0.374423	0.108674	0.099437	0.921813	1.033370	0.056247	0.218229	0.239077	0.372273	0.129869	0.097243	0.617598	0.659726	0.066038	0.059061	0.392635	0.274719	0.062260	0.039857	0.464137	0.502040	0.042446	0.134941	0.390701	0.648062	0.110275	0.473585	0.513232	0.551993	0.061126	0.114036	0.708345	0.399594
44	0.215452	0.762674	0.681189	0.816406	0.115300	0.225720	0.256929	0.292507	0.151841	0.203667	0.906514	0.306497	0.265871	0.615843	0.151116	0.269647	0.259779	0.443621	0.604370	0.358875	0.138955	0.681314	0.455195	0.409516	0.153022	0.348939	0.629844	0.469455	0.087853	0.240351	0.924115	0.432420	0.195469	0.515511	0.374029	0.645403	0.090658	0.192525	0.554041	0.344348	0.126211	0.094777	0.968339	1.077766	0.054367	0.260502	0.331524	0.320758	0.131126	0.095873	0.613004	0.675530	0.058763	0.064801	0.390533	0.288206	0.053107	0.042641	0.511189	0.489524	0.040240	0.138789	0.344504	0.519535	0.104726	0.440532	0.543651	0.551372	0.056561	0.117755	0.710045	0.333478
45	0.213261	0.747890	0.674125	0.815514	0.075286	0.128399	0.313009	0.218342	0.148661	0.144863	0.941483	0.308007	0.268803	0.690103	0.210164	0.266539	0.238114	0.339442	0.700671	0.392084	0.139314	0.661417	0.454702	0.406453	0.133409	0.317066	0.684140	0.341340	0.098631	0.378444	0.924466	0.393852	0.193298	0.500143	0.355569	0.620601	0.088751	0.224528	0.558649	0.372577	0.139259	0.092009	0.985927	1.097086	0.089122	0.317779	0.404718	0.228654	0.130511	0.100826	0.586244	0.641578	0.041660	0.066113	0.289776	0.292726	0.041284	0.042147	0.506208	0.495824	0.037132	0.138371	0.312202	0.510774	0.094549	0.298189	0.649941	0.554095	0.047588	0.156439	0.699732	0.326975
46	0.207022	0.691012	0.654958	0.717455	0.072983	0.142186	0.330286	0.225675	0.141716	0.117015	0.972440	0.296658	0.250940	0.731240	0.276842	0.266549	0.188095	0.153291	0.663988	0.409230	0.135271	0.637323	0.454336	0.403612	0.127139	0.282526	0.593720	0.224123	0.113460	0.419922	0.859085	0.356334	0.193131	0.443696	0.356144	0.586447	0.086643	0.223924	0.563306	0.373270	0.145790	0.088090	0.986842	1.095507	0.129515	0.356379	0.408002	0.170542	0.129751	0.106534	0.528971	0.607678	0.021334	0.140214	0.240190	0.284190	0.028273	0.043977	0.504169	0.496486	0.038290	0.125359	0.314089	0.505387	0.086470	0.262374	0.739133	0.515413	0.044883	0.215465	0.675749	0.323053
47	0.203955	0.656578	0.525491	0.598810	0.074830	0.168842	0.337234	0.250678	0.143894	0.115275	0.953166	0.284109	0.246113	0.712171	0.350127	0.248306	0.135084	0.074926	0.599968	0.365489	0.088545	0.562784	0.438124	0.340645	0.114342	0.276253	0.555055	0.223669	0.132652	0.470779	0.669762	0.349681	0.182378	0.399919	0.364078	0.532095	0.069645	0.207326	0.578463	0.367770	0.153921	0.093688	0.983578	0.982682	0.137696	0.345289	0.400824	0.127027	0.127383	0.106784	0.499807	0.587957	0.023037	0.258386	0.241399	0.249258	0.035325	0.046307	0.490763	0.420825	0.039180	0.103963	0.315430	0.502121	0.061755	0.183685	0.693500	0.387862	0.048821	0.230919	0.721219	0.301265
48	0.147923	0.475217	0.629158	0.594790	0.075553	0.178329	0.341745	0.243251	0.146504	0.108087	0.890830	0.297076	0.244656	0.635347	0.429752	0.234704	0.131478	0.071627	0.505549	0.314244	0.075536	0.519194	0.342572	0.293995	0.076080	0.288061	0.560642	0.213516	0.133768	0.549324	0.663502	0.281121	0.145251	0.345048	0.319891	0.527819	0.069024	0.173678	0.597854	0.351039	0.154143	0.164677	0.873608	0.799360	0.175145	0.371623	0.369382	0.113798	0.120497	0.131471	0.496210	0.583683	0.031032	0.269922	0.208828	0.223586	0.036951	0.061873	0.398596	0.343586	0.046349	0.087889	0.299830	0.431545	0.058851	0.170110	0.663389	0.398569	0.052934	0.242981	0.856656	0.297340
49	0.143302	0.410102	0.555644	0.625217	0.079471	0.160458	0.319174	0.191587	0.131822	0.071467	0.630010	0.240407	0.162655	0.601789	0.458485	0.221834	0.102320	0.069834	0.509515	0.313436	0.060593	0.508932	0.329247	0.309373	0.069354	0.303741	0.540475	0.183419	0.137354	0.562241	0.390194	0.176494	0.139296	0.324320	0.306520	0.559804	0.052843	0.185865	0.583386	0.365195	0.147279	0.230365	0.738208	0.762085	0.187663	0.388008	0.368362	0.111471	0.113291	0.169836	0.505173	0.604944	0.080005	0.341144	0.172764	0.220923	0.038530	0.073956	0.376661	0.380870	0.069190	0.143667	0.255336	0.331151	0.063558	0.119814	0.762381	0.448005	0.080634	0.249548	0.832144	0.280675
50	0.150885	0.375159	0.518329	0.592850	0.082189	0.165260	0.273806	0.217832	0.102180	0.073001	0.463355	0.199012	0.099106	0.527763	0.535437	0.192888	0.100317	0.067890	0.516554	0.299485	0.058418	0.495376	0.281795	0.315239	0.057030	0.265287	0.529967	0.307693	0.140267	0.551801	0.162336	0.152816	0.139824	0.322402	0.625804	0.638326	0.046350	0.191898	0.533606	0.372327	0.156356	0.255127	0.732386	0.765223	0.201582	0.410218	0.445607	0.114978	0.084980	0.165135	0.464271	0.659832	0.119565	0.383964	0.168959	0.194742	0.045309	0.093412	0.406100	0.435221	0.071257	0.174671	0.165585	0.263373	0.073466	0.061803	0.782608	0.445200	0.144445	0.254927	0.748916	0.261106
51	0.151529	0.412250	0.526095	0.479702	0.071798	0.204444	0.218497	0.228428	0.090986	0.090781	0.400515	0.189921	0.088541	0.510702	0.589402	0.210669	0.098513	0.058673	0.391524	0.217985	0.044607	0.444281	0.183244	0.288906	0.054285	0.247947	0.572409	0.354820	0.127281	0.470036	0.158877	0.154065	0.178999	0.392550	0.795949	0.756913	0.048354	0.195370	0.544726	0.352774	0.176365	0.283474	0.654398	0.719206	0.213639	0.426023	0.535600	0.107559	0.084773	0.168582	0.403902	0.626726	0.170656	0.548605	0.176571	0.156063	0.052800	0.094501	0.419620	0.410741	0.087495	0.201884	0.161118	0.238821	0.086940	0.054565	0.778038	0.438056	0.213860	0.257858	0.749497	0.246004
52	0.129026	0.395840	0.525867	0.453699	0.088166	0.259107	0.182262	0.219465	0.080301	0.096749	0.282600	0.165005	0.067749	0.407088	0.604035	0.256517	0.093587	0.056580	0.299894	0.154588	0.041183	0.402038	0.156684	0.226307	0.045422	0.200284	0.623593	0.362666	0.126926	0.492048	0.142719	0.146926	0.178975	0.414858	0.821806	0.796189	0.068166	0.208339	0.449697	0.317496	0.190448	0.289353	0.514591	0.551025	0.261062	0.410646	0.530345	0.106356	0.085536	0.179442	0.349571	0.531792	0.181550	0.554519	0.160858	0.121269	0.127735	0.094745	0.346970	0.358711	0.094905	0.237488	0.155178	0.243296	0.096886	0.053147	0.774535	0.441385	0.231273	0.272584	0.774567	0.270310
53	0.114605	0.314933	0.531748	0.461722	0.119323	0.333962	0.140496	0.170133	0.053310	0.115905	0.192613	0.122034	0.095369	0.337559	0.579859	0.260350	0.086672	0.045659	0.296285	0.155838	0.043347	0.253113	0.131305	0.224131	0.054146	0.278938	0.691869	0.376196	0.093503	0.452541	0.146898	0.147792	0.202704	0.507010	0.996551	0.798714	0.077410	0.189486	0.411588	0.262385	0.195772	0.287991	0.375811	0.441133	0.267551	0.366345	0.454436	0.151690	0.082481	0.187276	0.340804	0.458826	0.183502	0.562579	0.151780	0.088875	0.181549	0.093282	0.294899	0.353655	0.096919	0.263606	0.185553	0.261232	0.095975	0.053686	0.774191	0.471788	0.320245	0.309517	0.775505	0.293107
54	0.111783	0.285602	0.544528	0.481204	0.127172	0.351303	0.122857	0.149539	0.052540	0.114441	0.174672	0.067338	0.118447	0.337046	0.556794	0.269331	0.056053	0.042582	0.274847	0.145111	0.136588	0.229033	0.131022	0.229417	0.101000	0.513905	0.623621	0.404942	0.088329	0.408713	0.235123	0.182016	0.228038	0.520659	1.139489	0.839505	0.077137	0.149554	0.400641	0.203996	0.196522	0.295733	0.396603	0.563378	0.252769	0.323842	0.467542	0.164116	0.083060	0.190042	0.383103	0.441718	0.186924	0.604621	0.141503	0.076339	0.257270	0.125641	0.298951	0.373795	0.098040	0.280197	0.193256	0.265112	0.097727	0.066487	0.780252	0.500342	0.366071	0.318655	0.768393	0.288972
55	0.107539	0.259402	0.561447	0.492037	0.140645	0.364868	0.093083	0.148845	0.072385	0.127272	0.168289	0.053665	0.144812	0.291767	0.503868	0.266668	0.069875	0.306342	0.254802	0.140509	0.300457	0.233267	0.131877	0.240143	0.112151	0.566396	0.601639	0.421500	0.128340	0.393529	0.235824	0.229610	0.233611	0.510638	1.191051	0.907907	0.077440	0.181033	0.384776	0.196495	0.209558	0.315825	0.404446	0.620439	0.250964	0.322573	0.497049	0.185747	0.093736	0.232936	0.518797	0.438237	0.187408	0.584497	0.158548	0.081903	0.259198	0.191158	0.333634	0.379994	0.100754	0.281738	0.194255	0.274273	0.107442	0.077793	0.731074	0.502014	0.380999	0.307510	0.762047	0.288929
56	0.108493	0.253528	0.560061	0.474375	0.183130	0.365089	0.098990	0.122152	0.088470	0.177817	0.145973	0.080457	0.145342	0.237087	0.475168	0.256616	0.084391	0.482021	0.182211	0.133230	0.415721	0.197052	0.131662	0.249206	0.147835	0.609855	0.596628	0.418722	0.133564	0.393544	0.240015	0.234030	0.233019	0.505697	1.197854	0.962877	0.078120	0.186052	0.323688	0.206531	0.241288	0.342297	0.402964	0.633594	0.228195	0.319554	0.653271	0.193177	0.102830	0.244059	0.535867	0.440958	0.186402	0.552236	0.345005	0.088152	0.259081	0.241839	0.334864	0.393591	0.142941	0.287934	0.228584	0.272206	0.109601	0.081010	0.658791	0.533514	0.390877	0.292210	0.763160	0.297333
57	0.106012	0.248402	0.546450	0.461230	0.278065	0.409321	0.087505	0.090411	0.093768	0.202122	0.240576	0.235674	0.233287	0.207588	0.392858	0.256781	0.173972	0.582464	0.161454	0.130418	0.569061	0.211597	0.136836	0.306163	0.147858	0.616303	0.583876	0.420665	0.132468	0.380688	0.254160	0.295093	0.235506	0.499448	1.229977	0.996912	0.073202	0.196444	0.260414	0.210217	0.251908	0.344453	0.398909	0.648390	0.230074	0.315151	0.736832	0.197131	0.147169	0.364175	0.573382	0.468693	0.182144	0.546535	0.463708	0.081722	0.260080	0.257921	0.356055	0.378973	0.202031	0.358381	0.233963	0.267400	0.110077	0.081996	0.802914	0.669126	0.394836	0.324470	0.653117	0.319724
58	0.105262	0.252010	0.516489	0.405063	0.330921	0.397225	0.117091	0.099318	0.132378	0.242249	0.279993	0.273353	0.239146	0.227089	0.284701	0.230937	0.174439	0.598761	0.039864	0.095632	0.961145	0.256510	0.155949	0.323168	0.153285	0.629436	0.571439	0.417068	0.127644	0.254407	0.258358	0.306446	0.241004	0.487703	1.232085	0.984490	0.094179	0.184653	0.252806	0.191229	0.270721	0.319955	0.383537	0.710470	0.214684	0.295846	0.728912	0.229534	0.149335	0.380402	0.571593	0.468864	0.169899	0.494644	0.476725	0.123629	0.259798	0.288171	0.404575	0.308240	0.226602	0.418485	0.236521	0.257920	0.110020	0.089011	0.916451	0.724335	0.402866	0.316514	0.432443	0.329559
59	0.087755	0.250511	0.546925	0.332891	0.325509	0.301114	0.141712	0.116087	0.167962	0.287827	0.299814	0.288878	0.250190	0.250879	0.192238	0.132951	0.206015	0.602962	0.065393	0.106570	0.971881	0.256522	0.147870	0.306154	0.165826	0.654005	0.539358	0.320438	0.129951	0.252840	0.263326	0.308191	0.242979	0.486315	1.113448	0.908450	0.099208	0.179584	0.234189	0.177183	0.271019	0.273230	0.385239	0.737787	0.202224	0.260842	0.660062	0.238152	0.166531	0.375183	0.569793	0.379449	0.117995	0.434855	0.519506	0.130077	0.263516	0.294193	0.385040	0.299808	0.296041	0.470176	0.301190	0.213532	0.109288	0.107291	0.868508	0.678159	0.503381	0.313128	0.400388	0.336512
60	0.053014	0.187008	0.628317	0.334735	0.321727	0.276728	0.141616	0.123971	0.236087	0.300207	0.304853	0.374558	0.243134	0.236142	0.170484	0.131732	0.355249	0.623335	0.098132	0.286479	0.974806	0.240985	0.162085	0.282202	0.172049	0.678313	0.509739	0.279191	0.143267	0.186875	0.231720	0.322170	0.219949	0.432756	0.980104	0.756601	0.098980	0.185601	0.280197	0.176666	0.270629	0.257377	0.403918	0.750494	0.145557	0.249590	0.664197	0.236932	0.256769	0.376980	0.544054	0.259235	0.081078	0.270244	0.563574	0.128618	0.253531	0.305696	0.444161	0.324535	0.346613	0.509211	0.362550	0.184041	0.129810	0.125834	0.964807	0.701357	0.493135	0.326117	0.380592	0.320714
61	0.041509	0.149891	0.643885	0.343958	0.321230	0.252331	0.143855	0.126964	0.436034	0.389124	0.335502	0.429854	0.264747	0.244300	0.131099	0.125656	0.462197	0.665627	0.205862	0.316455	0.978043	0.227645	0.208895	0.270981	0.177968	0.684218	0.452388	0.290804	0.140873	0.127195	0.234656	0.318196	0.205409	0.400667	0.947300	0.649977	0.093289	0.189378	0.390117	0.181969	0.260865	0.240636	0.409535	0.756749	0.115432	0.233915	0.690563	0.230833	0.262865	0.378231	0.533588	0.299039	0.060380	0.271855	0.593363	0.135598	0.208957	0.319152	0.435519	0.309651	0.349974	0.495704	0.367527	0.183487	0.131083	0.130556	1.178180	0.792571	0.469261	0.380918	0.267827	0.296414
62	0.067148	0.150241	0.636374	0.331569	0.308091	0.246958	0.272027	0.172705	0.520858	0.409665	0.371203	0.476397	0.301062	0.237696	0.182389	0.119898	0.507994	0.549588	0.263869	0.336773	0.985478	0.287698	0.232383	0.278945	0.174231	0.639460	0.363520	0.303636	0.211741	0.123728	0.245046	0.313702	0.151576	0.225406	0.810569	0.631138	0.088098	0.194439	0.406954	0.183760	0.245324	0.244476	0.450250	0.752209	0.094021	0.233563	0.689947	0.258218	0.470650	0.374485	0.538328	0.328119	0.050087	0.218154	0.603324	0.140587	0.140791	0.427478	0.430759	0.278910	0.350122	0.486640	0.393011	0.150800	0.122878	0.133692	1.229073	0.874658	0.460644	0.417657	0.179446	0.262313
63	0.086617	0.169126	0.626114	0.305122	0.284603	0.200781	0.400441	0.187282	0.596039	0.436021	0.333846	0.428761	0.355277	0.226627	0.203898	0.127262	0.487177	0.454636	0.385700	0.408353	0.986158	0.310546	0.279580	0.285309	0.154291	0.471486	0.365119	0.328180	0.214595	0.128754	0.225388	0.281195	0.123036	0.168592	0.570786	0.608233	0.094565	0.196419	0.499639	0.210053	0.237162	0.246881	0.421422	0.664125	0.105829	0.217578	0.680601	0.241887	0.526247	0.375668	0.541272	0.328453	0.043754	0.126497	0.600773	0.145148	0.144238	0.484513	0.418829	0.277979	0.349563	0.465991	0.420487	0.147743	0.121922	0.134748	1.224352	0.873138	0.412339	0.432924	0.178577	0.236636
64	0.104855	0.179977	0.608528	0.278293	0.147393	0.109353	0.441704	0.191331	0.646209	0.431240	0.303165	0.407749	0.502764	0.233625	0.235014	0.162711	0.486550	0.419424	0.404409	0.436488	0.973542	0.360056	0.304286	0.351943	0.142187	0.417991	0.332435	0.337683	0.222656	0.133614	0.222854	0.272881	0.093051	0.157853	0.450121	0.548235	0.102176	0.171768	0.570375	0.222118	0.236409	0.227523	0.323786	0.543580	0.115805	0.195646	0.553439	0.233750	0.528226	0.366471	0.455631	0.346008	0.042063	0.120201	0.580983	0.142818	0.143768	0.522942	0.489491	0.271850	0.349468	0.475307	0.425949	0.135394	0.137480	0.132268	1.233942	0.853843	0.371033	0.433832	0.205720	0.252519
65	0.111450	0.182507	0.598992	0.270387	0.131221	0.098918	0.467140	0.271237	0.640090	0.389847	0.265503	0.408796	0.536223	0.217133	0.235071	0.174553	0.480384	0.422251	0.404858	0.434609	0.932273	0.377206	0.311101	0.355419	0.121055	0.353721	0.335611	0.347780	0.222418	0.122409	0.206343	0.256170	0.098501	0.160579	0.434089	0.475987	0.108006	0.164818	0.584950	0.210987	0.217584	0.203513	0.329666	0.479883	0.093104	0.163897	0.393743	0.229934	0.560864	0.351762	0.374570	0.569712	0.041983	0.107693	0.479990	0.134353	0.214112	0.529655	0.504630	0.271138	0.348231	0.478587	0.420529	0.143956	0.175255	0.125873	1.250587	0.872559	0.356440	0.430223	0.271282	0.281944
66	0.111454	0.180038	0.459612	0.232476	0.132515	0.093782	0.480874	0.337255	0.634135	0.380473	0.262886	0.367228	0.532221	0.200272	0.239886	0.170199	0.395242	0.445788	0.407352	0.352429	0.895079	0.374037	0.325464	0.344974	0.125082	0.338229	0.339983	0.368754	0.213029	0.097722	0.138593	0.232002	0.096590	0.163228	0.356239	0.430378	0.108096	0.151163	0.581196	0.190085	0.196216	0.267470	0.377814	0.483134	0.082297	0.146783	0.332879	0.205117	0.557066	0.327026	0.389895	0.598770	0.040549	0.108345	0.410243	0.129993	0.227733	0.516908	0.558456	0.405501	0.322935	0.462797	0.411089	0.146827	0.182738	0.135593	1.242045	0.896206	0.345060	0.415298	0.318139	0.316292
67	0.113128	0.177005	0.422789	0.213616	0.123913	0.087554	0.483137	0.337810	0.503442	0.314499	0.251957	0.302713	0.531191	0.196827	0.246801	0.263991	0.293074	0.310705	0.386630	0.314346	0.728239	0.353078	0.365443	0.300944	0.115968	0.303247	0.340744	0.411558	0.200435	0.083693	0.105029	0.178487	0.081557	0.164798	0.376872	0.406574	0.092190	0.151167	0.579672	0.188097	0.183404	0.412217	0.392903	0.451457	0.078972	0.123525	0.333449	0.187450	0.559040	0.178648	0.365918	0.581992	0.040527	0.115567	0.393410	0.097657	0.227652	0.510502	0.567477	0.427629	0.292268	0.391878	0.412735	0.159052	0.225291	0.151024	1.182111	0.870489	0.339243	0.382314	0.320156	0.296006
68	0.120739	0.177707	0.353750	0.213406	0.108440	0.069513	0.481383	0.333044	0.411915	0.258720	0.226145	0.212713	0.515909	0.184482	0.261322	0.313832	0.149787	0.265825	0.343745	0.299581	0.203319	0.331235	0.362834	0.311061	0.098224	0.245655	0.332223	0.431077	0.098304	0.091138	0.054777	0.173773	0.074013	0.164327	0.387246	0.412978	0.084670	0.150658	0.575068	0.188865	0.176267	0.446406	0.419240	0.350159	0.078497	0.116301	0.280192	0.183047	0.560732	0.171991	0.420760	0.605103	0.037171	0.111777	0.333988	0.104984	0.221143	0.506743	0.521520	0.442875	0.276209	0.357713	0.407448	0.160848	0.239574	0.165841	1.044891	0.777888	0.331247	0.384239	0.315780	0.292630
69	0.130964	0.178752	0.158364	0.211662	0.108777	0.071404	0.322229	0.309913	0.324749	0.211102	0.197471	0.200368	0.489822	0.188686	0.339496	0.314780	0.134317	0.265866	0.224678	0.198418	0.184258	0.338893	0.359777	0.317940	0.091884	0.170742	0.322975	0.433747	0.087944	0.155266	0.081810	0.183560	0.076056	0.157233	0.407987	0.462623	0.081913	0.141867	0.536835	0.187188	0.247978	0.502182	0.396058	0.299040	0.077718	0.113241	0.178204	0.172311	0.546044	0.160507	0.419520	0.661055	0.031856	0.101971	0.258905	0.106074	0.220870	0.495785	0.506575	0.444544	0.146339	0.186664	0.336770	0.159077	0.283360	0.171433	1.016331	0.753235	0.118309	0.382697	0.344396	0.289198
70	0.138611	0.179764	0.114807	0.256365	0.095609	0.070249	0.298392	0.312598	0.126304	0.166201	0.212353	0.198425	0.450562	0.191921	0.342827	0.325876	0.134278	0.267792	0.184064	0.125078	0.173868	0.348033	0.345775	0.325780	0.088872	0.143627	0.324630	0.428295	0.062322	0.205029	0.128918	0.207664	0.076353	0.142619	0.422598	0.508724	0.076620	0.120267	0.446805	0.182899	0.248856	0.546187	0.405883	0.263384	0.079170	0.098118	0.102753	0.088212	0.531145	0.154924	0.411273	0.689121	0.024088	0.086374	0.194648	0.095866	0.217918	0.441153	0.523332	0.442030	0.075708	0.149643	0.288412	0.144444	0.292182	0.164477	0.958602	0.754371	0.096205	0.368042	0.408822	0.354056
71	0.142343	0.169167	0.125586	0.276913	0.074634	0.054195	0.167027	0.305178	0.100828	0.169331	0.234893	0.170237	0.220796	0.182031	0.363440	0.350446	0.128563	0.255992	0.228133	0.150095	0.148296	0.336883	0.323190	0.338425	0.091360	0.138702	0.307246	0.394356	0.057837	0.274577	0.247784	0.212734	0.076778	0.144322	0.469416	0.509483	0.080604	0.104069	0.433261	0.180825	0.257600	0.556543	0.402455	0.270526	0.076049	0.076749	0.100836	0.075840	0.511404	0.156571	0.389192	0.716124	0.021442	0.079069	0.205159	0.096460	0.198922	0.308523	0.519527	0.441842	0.053983	0.146883	0.277822	0.144373	0.300773	0.154971	0.665446	0.700482	0.086743	0.301846	0.459180	0.435403
72	0.144727	0.149199	0.170973	0.377763	0.087322	0.063780	0.131358	0.215988	0.091875	0.172737	0.243102	0.109454	0.111040	0.179546	0.363718	0.364311	0.099208	0.172557	0.328182	0.139645	0.097855	0.308655	0.361306	0.330721	0.093415	0.134127	0.350648	0.328442	0.061858	0.295698	0.264016	0.211039	0.076715	0.138899	0.463918	0.517947	0.109004	0.166631	0.329226	0.148857	0.261599	0.563794	0.385594	0.299569	0.065111	0.102909	0.096188	0.075475	0.316441	0.154992	0.453469	0.737228	0.021293	0.084859	0.206778	0.094582	0.204692	0.212248	0.476197	0.433111	0.053039	0.148024	0.227902	0.171565	0.339275	0.154643	0.373883	0.583778	0.096097	0.239748	0.461196	0.466649
73	0.138869	0.136907	0.375121	0.446647	0.085163	0.068664	0.129256	0.189968	0.100861	0.164775	0.218391	0.131468	0.118839	0.165609	0.375721	0.369854	0.057282	0.083896	0.427799	0.159323	0.103961	0.391311	0.416355	0.324261	0.115569	0.138478	0.384802	0.296425	0.062580	0.297468	0.282228	0.211023	0.072654	0.120771	0.410323	0.502053	0.123601	0.239683	0.180011	0.123892	0.259454	0.566132	0.388096	0.297822	0.079481	0.185876	0.083406	0.072559	0.304829	0.147043	0.510178	0.751207	0.030013	0.090423	0.185351	0.094527	0.148452	0.126601	0.439396	0.430655	0.052932	0.144557	0.181372	0.166960	0.357375	0.156542	0.342471	0.495610	0.096605	0.143458	0.462384	0.468229
74	0.137184	0.135422	0.427944	0.462412	0.084679	0.204745	0.165190	0.187938	0.129401	0.134511	0.205617	0.188980	0.129825	0.163878	0.379458	0.304367	0.044954	0.072404	0.453436	0.173006	0.114037	0.346156	0.426340	0.264745	0.131102	0.135385	0.386303	0.288297	0.069181	0.300025	0.282223	0.206790	0.058241	0.113981	0.402812	0.490912	0.126068	0.238923	0.171177	0.143411	0.255162	0.566256	0.399140	0.273013	0.147924	0.334983	0.066057	0.051244	0.263687	0.135592	0.529634	0.789319	0.037686	0.095859	0.181090	0.093933	0.108648	0.096043	0.310520	0.319984	0.054527	0.104576	0.174389	0.156699	0.389918	0.157028	0.316086	0.485902	0.104545	0.119023	0.451777	0.458693
75	0.154083	0.136908	0.489980	0.545453	0.084104	0.261172	0.192003	0.193582	0.129878	0.115098	0.234065	0.188129	0.136414	0.139320	0.367913	0.248160	0.038071	0.063515	0.502114	0.221914	0.110609	0.376879	0.548116	0.281217	0.138632	0.128269	0.380030	0.256796	0.071784	0.278238	0.293501	0.176076	0.050776	0.111533	0.407771	0.481710	0.217191	0.280905	0.172042	0.203833	0.242998	0.555921	0.373624	0.267112	0.183435	0.344080	0.042470	0.019117	0.231130	0.111201	0.523679	0.689115	0.039352	0.091063	0.228848	0.090493	0.094566	0.084162	0.206725	0.232014	0.056611	0.115160	0.169627	0.166929	0.399209	0.156482	0.224905	0.458063	0.111834	0.122110	0.414368	0.441909
76	0.159490	0.129220	0.626291	0.637158	0.079926	0.294756	0.191449	0.197936	0.150591	0.113036	0.239648	0.192750	0.136392	0.097846	0.256097	0.247086	0.073109	0.065744	0.528519	0.236659	0.113634	0.382913	0.579301	0.278230	0.140472	0.110110	0.374651	0.175318	0.072552	0.241594	0.280309	0.124198	0.041574	0.103995	0.380806	0.474394	0.304431	0.302713	0.189845	0.244202	0.227233	0.481190	0.347132	0.241374	0.246222	0.448871	0.038631	0.015903	0.248260	0.120317	0.596911	0.686781	0.039729	0.080909	0.239137	0.083537	0.093071	0.079783	0.203349	0.177433	0.069236	0.122677	0.187425	0.165702	0.394893	0.156252	0.183943	0.402923	0.112213	0.123117	0.377904	0.411186
77	0.155753	0.117453	0.631554	0.706373	0.080194	0.299561	0.261870	0.182683	0.162826	0.112552	0.216686	0.303293	0.135145	0.076066	0.233130	0.233809	0.085755	0.057710	0.505775	0.219306	0.116765	0.381948	0.566452	0.263660	0.139854	0.099964	0.358169	0.143356	0.069915	0.202343	0.267318	0.105154	0.040587	0.118240	0.375518	0.462849	0.308551	0.301446	0.276991	0.250051	0.224278	0.375629	0.351661	0.225501	0.248020	0.489941	0.048230	0.015630	0.240639	0.121581	0.584141	0.674302	0.038759	0.074778	0.358673	0.079930	0.095422	0.085683	0.199529	0.130720	0.081855	0.129975	0.192562	0.156341	0.416784	0.162942	0.190506	0.326222	0.112450	0.118830	0.369603	0.398126
78	0.147292	0.101551	0.635657	0.719860	0.062720	0.306438	0.269669	0.147258	0.167244	0.130968	0.210157	0.324669	0.121750	0.181142	0.160596	0.166901	0.102194	0.065865	0.468004	0.221006	0.117173	0.382444	0.566643	0.229485	0.136872	0.102138	0.318088	0.118529	0.067022	0.115915	0.264098	0.102291	0.056429	0.145320	0.384553	0.462214	0.314068	0.318981	0.302566	0.250025	0.185247	0.349147	0.362280	0.223032	0.254932	0.536217	0.110821	0.023483	0.226163	0.108939	0.568837	0.639931	0.040621	0.094661	0.385696	0.089106	0.092075	0.084113	0.186630	0.140247	0.085134	0.133077	0.188306	0.156498	0.466272	0.151917	0.190457	0.289512	0.112430	0.106571	0.368518	0.378889
79	0.136787	0.078239	0.632939	0.694618	0.042953	0.308997	0.279966	0.143441	0.170524	0.155172	0.222923	0.310782	0.118262	0.218982	0.159935	0.112777	0.120954	0.092777	0.371206	0.285464	0.109483	0.377002	0.568533	0.224360	0.131615	0.192881	0.277712	0.102982	0.062910	0.153853	0.296507	0.086992	0.176547	0.171641	0.401634	0.403498	0.317346	0.317699	0.336412	0.259236	0.119453	0.243074	0.345311	0.248104	0.254265	0.566515	0.117697	0.075895	0.206902	0.108987	0.603288	0.598717	0.064286	0.163104	0.388926	0.099827	0.076029	0.068491	0.143102	0.135059	0.085691	0.133040	0.184753	0.155061	0.460842	0.138316	0.238170	0.314582	0.112514	0.107230	0.366371	0.376823
80	0.120799	0.072756	0.630327	0.678811	0.045219	0.290860	0.278591	0.215826	0.138476	0.151068	0.251584	0.272647	0.111209	0.271057	0.120191	0.089626	0.129228	0.106457	0.324597	0.326972	0.106762	0.373835	0.572992	0.202508	0.134678	0.219882	0.322314	0.102462	0.057426	0.152211	0.355535	0.066827	0.225206	0.181112	0.358827	0.414417	0.319930	0.316910	0.407537	0.274186	0.124687	0.162074	0.335181	0.253153	0.251847	0.585310	0.119303	0.130936	0.208867	0.108307	0.660295	0.546863	0.106796	0.193943	0.379445	0.087887	0.053602	0.053893	0.135060	0.133082	0.086458	0.132917	0.191610	0.150299	0.451672	0.126260	0.248654	0.312995	0.112333	0.106859	0.334805	0.324029
81	0.105959	0.082920	0.613135	0.629190	0.044899	0.236270	0.248532	0.242025	0.125086	0.165313	0.213405	0.306281	0.098659	0.276158	0.083297	0.094718	0.130003	0.108875	0.260193	0.303887	0.106898	0.374130	0.571923	0.184682	0.177425	0.326081	0.340694	0.260440	0.055044	0.157613	0.362475	0.062303	0.275305	0.183812	0.385407	0.467823	0.312206	0.292892	0.410865	0.291049	0.139665	0.116462	0.313256	0.245374	0.249688	0.574118	0.154015	0.134098	0.210850	0.097368	0.642336	0.498708	0.141666	0.206027	0.380997	0.088847	0.044692	0.050189	0.190579	0.132666	0.092579	0.132057	0.175040	0.126272	0.448670	0.126383	0.277892	0.284025	0.109617	0.103538	0.274060	0.202566
82	0.099191	0.167156	0.508571	0.590866	0.061858	0.197271	0.241532	0.239509	0.111152	0.193131	0.195258	0.352280	0.093190	0.326800	0.097672	0.079442	0.115893	0.102199	0.167101	0.298464	0.097988	0.330572	0.522467	0.207942	0.176991	0.365554	0.331405	0.321300	0.054336	0.170376	0.358977	0.064559	0.304035	0.204352	0.403942	0.527872	0.303735	0.230428	0.407108	0.326575	0.158748	0.072395	0.296280	0.219852	0.225807	0.507420	0.221324	0.141067	0.177302	0.099235	0.600877	0.487820	0.148048	0.214824	0.389058	0.089463	0.049971	0.051392	0.216529	0.133259	0.098031	0.128209	0.161624	0.096310	0.425523	0.128711	0.299990	0.246924	0.101416	0.096812	0.272533	0.113034
83	0.091727	0.214741	0.474599	0.586100	0.083819	0.399879	0.221481	0.236784	0.122711	0.198044	0.244043	0.305365	0.098251	0.335573	0.084428	0.063050	0.114486	0.101409	0.174801	0.295302	0.089041	0.239084	0.471913	0.231114	0.163901	0.387253	0.351817	0.325238	0.052149	0.191802	0.353549	0.122546	0.333498	0.233634	0.476203	0.576707	0.301183	0.230593	0.382894	0.333216	0.188152	0.047003	0.302376	0.226953	0.196104	0.494201	0.258248	0.146978	0.178690	0.099159	0.562226	0.425949	0.148622	0.249899	0.374011	0.091182	0.053574	0.054075	0.278676	0.204575	0.112828	0.120862	0.163285	0.099829	0.396285	0.136299	0.320195	0.245177	0.079578	0.084539	0.276292	0.126740
84	0.060499	0.254242	0.390881	0.505424	0.128022	0.539098	0.200903	0.257541	0.143814	0.182113	0.264860	0.300117	0.100465	0.345861	0.090652	0.077053	0.106455	0.101390	0.157681	0.292368	0.067126	0.213888	0.427408	0.217419	0.159107	0.398678	0.354414	0.321276	0.046411	0.199291	0.332605	0.139492	0.357570	0.243533	0.587099	0.548189	0.250453	0.188387	0.399364	0.297717	0.224153	0.067759	0.321317	0.239465	0.112084	0.402422	0.289600	0.147904	0.178760	0.099145	0.557948	0.237146	0.151247	0.317292	0.355571	0.092507	0.057367	0.054763	0.288370	0.223759	0.108935	0.114931	0.173141	0.120497	0.406564	0.149315	0.362637	0.259512	0.052914	0.071699	0.282827	0.141919
85	0.100549	0.276481	0.128952	0.387410	0.134555	0.537115	0.211238	0.256612	0.147741	0.163778	0.256194	0.302204	0.107397	0.320835	0.085890	0.101294	0.083960	0.085878	0.296848	0.239168	0.090051	0.121554	0.261174	0.191152	0.157796	0.401790	0.475935	0.325577	0.039429	0.173843	0.318061	0.133363	0.360652	0.242436	0.578547	0.562024	0.120644	0.141862	0.473823	0.313474	0.229387	0.092761	0.339781	0.257192	0.095943	0.365183	0.297535	0.151637	0.171220	0.094639	0.494237	0.220333	0.162259	0.321049	0.317192	0.087266	0.055814	0.045796	0.297535	0.223326	0.104675	0.132189	0.159393	0.137456	0.397633	0.155909	0.477347	0.269385	0.038310	0.068582	0.290430	0.147812
86	0.129917	0.338530	0.110211	0.251347	0.134718	0.541005	0.269879	0.223481	0.235529	0.173546	0.288185	0.316928	0.106911	0.409478	0.130840	0.126730	0.072262	0.079896	0.362162	0.146885	0.122473	0.112607	0.164761	0.189085	0.158654	0.406127	0.615076	0.365197	0.068083	0.166608	0.246967	0.147314	0.397382	0.235282	0.561356	0.594151	0.108207	0.141756	0.449184	0.374008	0.312001	0.096669	0.467426	0.297029	0.080781	0.315343	0.285797	0.153522	0.132244	0.070618	0.409625	0.214371	0.173430	0.323639	0.168604	0.082572	0.056287	0.043308	0.299273	0.236284	0.098806	0.149283	0.125576	0.145028	0.398347	0.160494	0.491327	0.263647	0.046371	0.144083	0.329315	0.170259
87	0.136229	0.340948	0.078689	0.177918	0.134814	0.540304	0.270941	0.202094	0.320616	0.196921	0.307270	0.305244	0.103331	0.375143	0.154646	0.163277	0.068955	0.079745	0.439957	0.130206	0.123979	0.116448	0.127482	0.191356	0.167538	0.471849	0.617850	0.404280	0.203811	0.260691	0.217356	0.164234	0.433874	0.219783	0.564462	0.586966	0.089500	0.089340	0.493681	0.391841	0.372565	0.099580	0.574365	0.376350	0.071991	0.226144	0.292266	0.143462	0.128578	0.062321	0.395870	0.206417	0.190756	0.309633	0.150605	0.098043	0.050083	0.042893	0.306106	0.238076	0.094733	0.148261	0.127339	0.145874	0.397340	0.145689	0.483422	0.259568	0.084293	0.183524	0.370486	0.186614
88	0.199093	0.348921	0.076888	0.170410	0.138070	0.541779	0.267815	0.190222	0.338209	0.179574	0.321849	0.247929	0.126076	0.370447	0.159765	0.169627	0.068535	0.099291	0.507021	0.094975	0.130592	0.115848	0.129104	0.191538	0.176548	0.734772	0.617896	0.443047	0.295733	0.312991	0.220269	0.165698	0.491285	0.201120	0.536074	0.571662	0.079553	0.085582	0.581270	0.386905	0.378695	0.099644	0.573582	0.385975	0.065406	0.162725	0.305278	0.114638	0.127579	0.061290	0.393522	0.173069	0.195807	0.284213	0.153603	0.161966	0.049450	0.045960	0.333263	0.234150	0.093778	0.303483	0.125885	0.163164	0.287753	0.133874	0.487347	0.258876	0.110068	0.272806	0.381421	0.199628
89	0.325304	0.364693	0.077186	0.167841	0.157459	0.480545	0.258848	0.189173	0.485901	0.251969	0.290225	0.208598	0.134118	0.329121	0.147324	0.198569	0.051150	0.099560	0.505039	0.083754	0.188497	0.105270	0.113527	0.195109	0.202821	0.814879	0.586682	0.449743	0.419157	0.377943	0.219118	0.132597	0.502234	0.187588	0.611225	0.568094	0.063756	0.084934	0.547117	0.392150	0.374889	0.100347	0.724152	0.427955	0.064752	0.126640	0.306844	0.121369	0.135146	0.069350	0.285541	0.165653	0.182258	0.264398	0.159227	0.167742	0.050493	0.069672	0.312148	0.226525	0.094475	0.462776	0.121379	0.187267	0.268825	0.128504	0.475901	0.237741	0.111160	0.282872	0.363060	0.210201
90	0.398903	0.386646	0.073482	0.153873	0.154033	0.394693	0.245951	0.157862	0.487037	0.266886	0.296582	0.193689	0.130195	0.321913	0.149054	0.209813	0.046193	0.108382	0.499114	0.095981	0.235030	0.111792	0.093969	0.194576	0.188471	0.945267	0.552098	0.415402	0.502702	0.402227	0.203135	0.110481	0.498440	0.182898	0.621133	0.514820	0.055550	0.068295	0.542992	0.409028	0.372809	0.100667	0.852698	0.462030	0.064383	0.116887	0.303862	0.122262	0.136033	0.059929	0.207594	0.270707	0.184907	0.256285	0.162291	0.166889	0.061410	0.075941	0.284928	0.234669	0.138272	0.574621	0.142442	0.204245	0.285271	0.126082	0.454932	0.220353	0.145100	0.282746	0.336559	0.206039
91	0.486278	0.398310	0.073191	0.129082	0.195162	0.293841	0.204965	0.139663	0.485520	0.269779	0.294846	0.208350	0.131417	0.370502	0.163708	0.203474	0.072661	0.150589	0.447606	0.102874	0.265014	0.110535	0.110692	0.196254	0.180033	0.971377	0.540582	0.421622	0.507365	0.406276	0.229349	0.182276	0.471613	0.154735	0.637771	0.441178	0.074823	0.077814	0.554585	0.397721	0.363393	0.104562	0.877737	0.456723	0.059800	0.113600	0.267947	0.122637	0.142138	0.061067	0.290665	0.421542	0.179622	0.261257	0.158394	0.167007	0.067141	0.078074	0.319438	0.206365	0.138883	0.593577	0.162962	0.215992	0.304769	0.125064	0.447628	0.242138	0.180023	0.287346	0.324299	0.207233
92	0.515586	0.380448	0.070682	0.097816	0.200549	0.285875	0.151852	0.184592	0.451597	0.274746	0.248379	0.192840	0.135524	0.398043	0.217912	0.196594	0.120217	0.213445	0.420662	0.154166	0.273275	0.107554	0.114414	0.167658	0.175600	0.979692	0.543625	0.446234	0.506706	0.407004	0.282290	0.238040	0.466113	0.103158	0.630431	0.325686	0.082617	0.083312	0.559975	0.394351	0.355005	0.106440	0.879576	0.459712	0.050658	0.088460	0.248947	0.124671	0.205778	0.065970	0.313321	0.456398	0.185456	0.195749	0.159346	0.190016	0.071543	0.078269	0.354618	0.171643	0.150900	0.596302	0.167081	0.218445	0.368304	0.125325	0.438141	0.248776	0.183312	0.288626	0.314508	0.217482
93	0.536123	0.412082	0.040009	0.071716	0.204556	0.296871	0.094128	0.200426	0.480480	0.260018	0.260138	0.167817	0.130569	0.284163	0.205207	0.185735	0.126359	0.221925	0.378317	0.201118	0.285426	0.102200	0.114276	0.113582	0.172810	0.977374	0.552402	0.452767	0.482268	0.365138	0.299325	0.229008	0.455034	0.078013	0.632932	0.342996	0.082464	0.071866	0.550354	0.395067	0.375276	0.113343	0.874548	0.462496	0.035887	0.061577	0.228947	0.122802	0.209159	0.080403	0.418190	0.456873	0.186591	0.120307	0.179327	0.244344	0.077927	0.078729	0.354123	0.188423	0.147019	0.600270	0.167682	0.213351	0.413437	0.131233	0.429706	0.260768	0.209771	0.288010	0.308647	0.218493
94	0.556188	0.505728	0.030046	0.052417	0.205802	0.304447	0.109846	0.209678	0.599420	0.251153	0.267299	0.167906	0.125952	0.293864	0.192997	0.158378	0.156457	0.219215	0.286434	0.238581	0.291864	0.113641	0.124322	0.098418	0.180510	0.975598	0.421220	0.454192	0.418502	0.305696	0.316426	0.245602	0.465600	0.093275	0.622831	0.336983	0.083525	0.067257	0.482980	0.352592	0.571411	0.117674	0.863764	0.463144	0.028825	0.056456	0.233526	0.117963	0.212540	0.082488	0.465285	0.456625	0.193991	0.113579	0.194554	0.262650	0.075483	0.080959	0.360043	0.174189	0.148966	0.600342	0.200742	0.213196	0.417027	0.115904	0.428333	0.235775	0.226123	0.288527	0.304445	0.227877
95	0.563691	0.556186	0.029121	0.056285	0.190964	0.278708	0.118669	0.216409	0.694975	0.282748	0.398088	0.171204	0.118084	0.339849	0.189230	0.154020	0.171414	0.235723	0.296008	0.314135	0.292442	0.183168	0.131394	0.099133	0.194384	0.978162	0.240884	0.426369	0.355596	0.249986	0.308000	0.288603	0.457711	0.098693	0.630317	0.309521	0.090319	0.068066	0.461864	0.275114	0.702909	0.111236	0.881222	0.453667	0.039855	0.042450	0.226555	0.124392	0.277080	0.114471	0.572116	0.468563	0.181805	0.109264	0.215537	0.262891	0.075396	0.083432	0.408788	0.160611	0.151485	0.593908	0.237605	0.223580	0.441607	0.117504	0.330064	0.242391	0.255483	0.292651	0.299219	0.247810
96	0.566422	0.561671	0.055128	0.053866	0.161303	0.219025	0.139352	0.262217	0.708963	0.262941	0.387856	0.143202	0.107373	0.340961	0.190460	0.121962	0.243323	0.247516	0.423235	0.316175	0.324722	0.293413	0.136596	0.097873	0.197726	0.948076	0.274007	0.403469	0.115390	0.137236	0.311355	0.298574	0.423352	0.099545	0.628041	0.282915	0.097368	0.070537	0.400500	0.242603	0.814999	0.206382	0.835700	0.407566	0.041048	0.031293	0.201769	0.114578	0.549229	0.174912	0.591285	0.508367	0.167416	0.109664	0.202920	0.244352	0.076752	0.083932	0.400734	0.166604	0.152740	0.591113	0.263164	0.256270	0.426777	0.108858	0.211545	0.241572	0.265423	0.264290	0.253719	0.242373
97	0.555303	0.554707	0.078080	0.058262	0.138483	0.182862	0.159228	0.311393	0.724694	0.264155	0.416032	0.123160	0.105658	0.339592	0.192041	0.129866	0.243403	0.247420	0.426204	0.316273	0.368472	0.309118	0.137709	0.100748	0.198247	0.742186	0.275888	0.398847	0.113747	0.120857	0.314217	0.290259	0.332113	0.095112	0.670311	0.287106	0.099638	0.072301	0.212166	0.240330	1.062110	0.232764	0.804312	0.398424	0.042370	0.024910	0.194954	0.100212	0.674853	0.188159	0.661216	0.595221	0.153330	0.110893	0.201185	0.212382	0.076621	0.066044	0.416146	0.170917	0.159398	0.580325	0.262628	0.284738	0.427935	0.109107	0.260723	0.248598	0.261561	0.236534	0.182989	0.231864
98	0.496826	0.545887	0.112864	0.067826	0.104956	0.176724	0.186329	0.326406	0.728122	0.249754	0.426143	0.124152	0.102093	0.277221	0.180916	0.135785	0.220705	0.233834	0.400392	0.302977	0.387885	0.369948	0.139005	0.102350	0.155150	0.639551	0.309689	0.396430	0.111104	0.117694	0.280158	0.264415	0.314588	0.101213	0.692796	0.337122	0.098816	0.074278	0.151526	0.220740	1.096665	0.234142	0.773606	0.409761	0.069594	0.043317	0.148538	0.095139	0.730703	0.245458	0.732701	0.645100	0.125105	0.110646	0.197151	0.212855	0.067846	0.058222	0.416728	0.180250	0.166590	0.476910	0.277200	0.280685	0.431273	0.107802	0.373739	0.234390	0.263910	0.126546	0.179614	0.219739
99	0.455456	0.577933	0.145496	0.093228	0.095864	0.184910	0.182901	0.300756	0.688127	0.243697	0.407073	0.134183	0.090534	0.221266	0.120881	0.142480	0.233905	0.227333	0.397231	0.283056	0.435795	0.404579	0.137546	0.110662	0.137711	0.376299	0.421034	0.379236	0.104458	0.113968	0.300089	0.257389	0.358198	0.102373	0.690059	0.413389	0.094661	0.075131	0.148040	0.169652	1.098002	0.236250	0.600306	0.350258	0.175578	0.057818	0.140483	0.082810	0.956221	0.264694	0.731484	0.661700	0.111859	0.093287	0.185809	0.212225	0.057021	0.055468	0.387179	0.184696	0.162504	0.390516	0.311104	0.269638	0.430268	0.106823	0.406707	0.230712	0.264546	0.094741	0.200173	0.212293
100	0.351915	0.612161	0.186411	0.140611	0.092018	0.148262	0.180437	0.280083	0.569097	0.238768	0.400858	0.136895	0.083879	0.218292	0.257234	0.202974	0.220516	0.224092	0.374963	0.328426	0.521665	0.408030	0.138571	0.160622	0.142449	0.273490	0.421477	0.355836	0.096928	0.101988	0.288147	0.262295	0.439408	0.103644	0.653639	0.419575	0.080304	0.072520	0.120052	0.137164	1.102054	0.237728	0.476325	0.329701	0.279324	0.060068	0.134112	0.080470	0.959804	0.267008	0.725613	0.594470	0.111424	0.061010	0.205205	0.210164	0.062116	0.070671	0.312928	0.186371	0.137976	0.179573	0.301355	0.278701	0.423735	0.110012	0.417548	0.229385	0.248679	0.103328	0.180315	0.215101
101	0.322934	0.634879	0.266662	0.173660	0.090827	0.151359	0.172085	0.272329	0.339888	0.145021	0.317316	0.147552	0.073579	0.198635	0.312213	0.213087	0.213963	0.211518	0.378007	0.271721	0.533850	0.408976	0.128609	0.179678	0.154375	0.214745	0.424981	0.326065	0.098386	0.082275	0.338465	0.254257	0.456899	0.133197	0.723548	0.440251	0.068888	0.074987	0.089116	0.116917	1.108320	0.238318	0.470132	0.322454	0.322773	0.075722	0.158238	0.092728	0.954671	0.265632	0.713821	0.609647	0.099197	0.040582	0.209173	0.174130	0.061779	0.096196	0.297542	0.181833	0.127173	0.156442	0.296703	0.289803	0.434646	0.119375	0.458049	0.213747	0.223938	0.169280	0.217144	0.226291
