	149_P_T1_sh_R_D_A_01.c3d	149_P_T1_sh_R_D_A_01.c3d	149_P_T1_sh_R_D_A_01.c3d	149_P_T1_sh_R_D_A_01.c3d	149_P_T1_sh_R_D_A_01.c3d	149_P_T1_sh_R_D_A_01.c3d	149_P_T1_sh_R_D_A_01.c3d	149_P_T1_sh_R_D_A_01.c3d	149_P_T1_sh_R_D_A_02.c3d	149_P_T1_sh_R_D_A_02.c3d	149_P_T1_sh_R_D_A_02.c3d	149_P_T1_sh_R_D_A_02.c3d	149_P_T1_sh_R_D_A_02.c3d	149_P_T1_sh_R_D_A_02.c3d	149_P_T1_sh_R_D_A_02.c3d	149_P_T1_sh_R_D_A_02.c3d	149_P_T1_sh_R_D_A_03.c3d	149_P_T1_sh_R_D_A_03.c3d	149_P_T1_sh_R_D_A_03.c3d	149_P_T1_sh_R_D_A_03.c3d	149_P_T1_sh_R_D_A_03.c3d	149_P_T1_sh_R_D_A_03.c3d	149_P_T1_sh_R_D_A_03.c3d	149_P_T1_sh_R_D_A_03.c3d	149_P_T1_sh_R_D_A_04.c3d	149_P_T1_sh_R_D_A_04.c3d	149_P_T1_sh_R_D_A_04.c3d	149_P_T1_sh_R_D_A_04.c3d	149_P_T1_sh_R_D_A_04.c3d	149_P_T1_sh_R_D_A_04.c3d	149_P_T1_sh_R_D_A_04.c3d	149_P_T1_sh_R_D_A_04.c3d	149_P_T1_sh_R_D_A_06.c3d	149_P_T1_sh_R_D_A_06.c3d	149_P_T1_sh_R_D_A_06.c3d	149_P_T1_sh_R_D_A_06.c3d	149_P_T1_sh_R_D_A_06.c3d	149_P_T1_sh_R_D_A_06.c3d	149_P_T1_sh_R_D_A_06.c3d	149_P_T1_sh_R_D_A_06.c3d	149_P_T1_sh_R_D_A_07.c3d	149_P_T1_sh_R_D_A_07.c3d	149_P_T1_sh_R_D_A_07.c3d	149_P_T1_sh_R_D_A_07.c3d	149_P_T1_sh_R_D_A_07.c3d	149_P_T1_sh_R_D_A_07.c3d	149_P_T1_sh_R_D_A_07.c3d	149_P_T1_sh_R_D_A_07.c3d	149_P_T1_sh_R_D_A_08.c3d	149_P_T1_sh_R_D_A_08.c3d	149_P_T1_sh_R_D_A_08.c3d	149_P_T1_sh_R_D_A_08.c3d	149_P_T1_sh_R_D_A_08.c3d	149_P_T1_sh_R_D_A_08.c3d	149_P_T1_sh_R_D_A_08.c3d	149_P_T1_sh_R_D_A_08.c3d	149_P_T1_sh_R_D_A_10.c3d	149_P_T1_sh_R_D_A_10.c3d	149_P_T1_sh_R_D_A_10.c3d	149_P_T1_sh_R_D_A_10.c3d	149_P_T1_sh_R_D_A_10.c3d	149_P_T1_sh_R_D_A_10.c3d	149_P_T1_sh_R_D_A_10.c3d	149_P_T1_sh_R_D_A_10.c3d
	Biceps femoris_lat	Semitendinosus_lat	Vastus lateralis_lat	Vastus medialis_lat	Biceps femoris_med	Semitendinosus_med	Vastus lateralis_med	Vastus medialis_med	Biceps femoris_lat	Semitendinosus_lat	Vastus lateralis_lat	Vastus medialis_lat	Biceps femoris_med	Semitendinosus_med	Vastus lateralis_med	Vastus medialis_med	Biceps femoris_lat	Semitendinosus_lat	Vastus lateralis_lat	Vastus medialis_lat	Biceps femoris_med	Semitendinosus_med	Vastus lateralis_med	Vastus medialis_med	Biceps femoris_lat	Semitendinosus_lat	Vastus lateralis_lat	Vastus medialis_lat	Biceps femoris_med	Semitendinosus_med	Vastus lateralis_med	Vastus medialis_med	Biceps femoris_lat	Semitendinosus_lat	Vastus lateralis_lat	Vastus medialis_lat	Biceps femoris_med	Semitendinosus_med	Vastus lateralis_med	Vastus medialis_med	Biceps femoris_lat	Semitendinosus_lat	Vastus lateralis_lat	Vastus medialis_lat	Biceps femoris_med	Semitendinosus_med	Vastus lateralis_med	Vastus medialis_med	Biceps femoris_lat	Semitendinosus_lat	Vastus lateralis_lat	Vastus medialis_lat	Biceps femoris_med	Semitendinosus_med	Vastus lateralis_med	Vastus medialis_med	Biceps femoris_lat	Semitendinosus_lat	Vastus lateralis_lat	Vastus medialis_lat	Biceps femoris_med	Semitendinosus_med	Vastus lateralis_med	Vastus medialis_med
	P2D	P2D	P2D	P2D	P2D	P2D	P2D	P2D	P2D	P2D	P2D	P2D	P2D	P2D	P2D	P2D	P2D	P2D	P2D	P2D	P2D	P2D	P2D	P2D	P2D	P2D	P2D	P2D	P2D	P2D	P2D	P2D	P2D	P2D	P2D	P2D	P2D	P2D	P2D	P2D	P2D	P2D	P2D	P2D	P2D	P2D	P2D	P2D	P2D	P2D	P2D	P2D	P2D	P2D	P2D	P2D	P2D	P2D	P2D	P2D	P2D	P2D	P2D	P2D
	EMG_lat	EMG_lat	EMG_lat	EMG_lat	EMG_med	EMG_med	EMG_med	EMG_med	EMG_lat	EMG_lat	EMG_lat	EMG_lat	EMG_med	EMG_med	EMG_med	EMG_med	EMG_lat	EMG_lat	EMG_lat	EMG_lat	EMG_med	EMG_med	EMG_med	EMG_med	EMG_lat	EMG_lat	EMG_lat	EMG_lat	EMG_med	EMG_med	EMG_med	EMG_med	EMG_lat	EMG_lat	EMG_lat	EMG_lat	EMG_med	EMG_med	EMG_med	EMG_med	EMG_lat	EMG_lat	EMG_lat	EMG_lat	EMG_med	EMG_med	EMG_med	EMG_med	EMG_lat	EMG_lat	EMG_lat	EMG_lat	EMG_med	EMG_med	EMG_med	EMG_med	EMG_lat	EMG_lat	EMG_lat	EMG_lat	EMG_med	EMG_med	EMG_med	EMG_med
ITEM	Y	Y	Y	Y	Y	Y	Y	Y	Y	Y	Y	Y	Y	Y	Y	Y	Y	Y	Y	Y	Y	Y	Y	Y	Y	Y	Y	Y	Y	Y	Y	Y	Y	Y	Y	Y	Y	Y	Y	Y	Y	Y	Y	Y	Y	Y	Y	Y	Y	Y	Y	Y	Y	Y	Y	Y	Y	Y	Y	Y	Y	Y	Y	Y
1	0.267038	0.299117	0.166884	0.216835	0.112572	0.188860	0.171688	0.083427	0.180730	0.267484	0.128747	0.110847	0.598774	0.853277	0.059971	0.042673	0.223323	0.443451	0.176949	0.245683	0.396298	0.711489	0.075549	0.127255	0.683163	0.579174	0.103931	0.200028	0.436038	0.377647	0.181090	0.101484	0.474122	0.238777	0.070528	0.071554	0.300125	0.472901	0.059398	0.049147	0.432874	0.357603	0.094927	0.200513	0.651491	0.807405	0.061923	0.030281	0.198674	0.299904	0.093544	0.115529	0.185753	0.369188	0.200037	0.246513	0.080142	0.115202	0.143566	0.172358	0.248492	0.273783	0.162354	0.087638
2	0.227994	0.232343	0.168832	0.223044	0.110612	0.173198	0.165552	0.082675	0.179296	0.253204	0.137206	0.198458	0.559650	0.824342	0.051729	0.042776	0.261070	0.394491	0.173093	0.283995	0.282837	0.671503	0.077261	0.126112	0.651492	0.576945	0.113845	0.232581	0.438776	0.371370	0.171343	0.111704	0.477678	0.252762	0.087235	0.084158	0.340238	0.453202	0.054061	0.060240	0.278050	0.326374	0.095635	0.199433	0.562944	0.744890	0.063282	0.025921	0.171778	0.253836	0.092993	0.120792	0.154466	0.148485	0.221628	0.277822	0.099477	0.115016	0.168561	0.190711	0.244818	0.272489	0.175869	0.090642
3	0.207140	0.215635	0.171438	0.223909	0.106168	0.171822	0.127393	0.086652	0.175290	0.248970	0.137883	0.207765	0.557191	0.762363	0.044803	0.042859	0.258296	0.389710	0.177772	0.279048	0.268253	0.620895	0.079967	0.115142	0.514392	0.574455	0.112498	0.220048	0.456766	0.393836	0.166994	0.119846	0.499315	0.269135	0.118202	0.101170	0.378861	0.439694	0.085788	0.062167	0.261045	0.315858	0.104381	0.178030	0.482335	0.736203	0.074802	0.026631	0.098241	0.151794	0.105132	0.128015	0.162904	0.155109	0.292704	0.277213	0.114063	0.134796	0.175277	0.191404	0.182561	0.219510	0.227334	0.099831
4	0.152384	0.177776	0.193248	0.198597	0.096235	0.181210	0.093095	0.091630	0.161986	0.267030	0.136171	0.239254	0.554125	0.727661	0.070031	0.033774	0.251402	0.304551	0.175089	0.272489	0.240520	0.539074	0.081786	0.092671	0.483785	0.560888	0.097169	0.199520	0.464510	0.431897	0.169712	0.119689	0.521991	0.285411	0.117093	0.108514	0.664005	0.343628	0.096180	0.062941	0.259917	0.257340	0.098240	0.179054	0.328586	0.730114	0.080122	0.028039	0.075117	0.132743	0.099522	0.153023	0.158030	0.182762	0.315111	0.278966	0.117961	0.141511	0.162114	0.194087	0.156455	0.157577	0.245358	0.108556
5	0.124363	0.164421	0.186953	0.203820	0.098815	0.183434	0.093311	0.089187	0.191852	0.300881	0.135597	0.260364	0.501935	0.750837	0.085747	0.034070	0.229948	0.268637	0.150970	0.251896	0.210913	0.525293	0.080407	0.079763	0.480601	0.545738	0.106022	0.199898	0.499053	0.433250	0.160702	0.116591	0.479567	0.258525	0.161858	0.139922	0.662356	0.399773	0.105711	0.062094	0.185342	0.241636	0.098269	0.158370	0.280324	0.675794	0.094298	0.029353	0.061385	0.092360	0.087465	0.158846	0.145899	0.156188	0.311256	0.281826	0.112424	0.140139	0.150488	0.191151	0.179852	0.350415	0.245592	0.126761
6	0.133746	0.444146	0.193237	0.211710	0.094732	0.159945	0.097598	0.099791	0.287541	0.456438	0.141872	0.265918	0.355015	0.541225	0.112976	0.064052	0.210427	0.230997	0.123615	0.236287	0.192130	0.512513	0.074877	0.073381	0.442600	0.375523	0.124878	0.178860	0.500986	0.514095	0.139426	0.109039	0.414461	0.264263	0.210897	0.194232	0.648752	0.395825	0.143647	0.061867	0.148276	0.204336	0.085674	0.137236	0.259247	0.693601	0.133714	0.033627	0.053268	0.078181	0.069642	0.202359	0.132871	0.155782	0.308620	0.281158	0.108127	0.140574	0.151305	0.175313	0.194399	0.487277	0.254659	0.131766
7	0.140994	0.601482	0.201624	0.210327	0.091075	0.154688	0.101298	0.102425	0.321085	0.479820	0.164731	0.281117	0.351405	0.499991	0.144875	0.113544	0.184384	0.210430	0.135578	0.255480	0.252924	0.413333	0.067918	0.073852	0.298680	0.367971	0.123122	0.174899	0.484377	0.675465	0.121877	0.107806	0.331343	0.299001	0.207901	0.207401	0.643071	0.390663	0.155368	0.056228	0.117987	0.133988	0.140836	0.153078	0.294860	0.671440	0.160200	0.035451	0.055294	0.073301	0.079077	0.204175	0.134719	0.157409	0.280194	0.209951	0.102934	0.138520	0.151473	0.170075	0.200487	0.494897	0.249452	0.130731
8	0.159001	0.619672	0.181813	0.185458	0.093976	0.150826	0.102477	0.102105	0.340991	0.491677	0.166479	0.282670	0.302675	0.351594	0.193829	0.132677	0.221493	0.199592	0.136285	0.249796	0.273986	0.374578	0.066870	0.072124	0.300037	0.438695	0.119110	0.150055	0.480803	0.772524	0.119723	0.110584	0.341494	0.303108	0.207456	0.208150	0.643639	0.388209	0.155853	0.053222	0.113863	0.129959	0.162609	0.202056	0.339247	0.664501	0.163200	0.037271	0.055350	0.074022	0.095553	0.196031	0.133178	0.164586	0.268672	0.186566	0.103843	0.132862	0.151851	0.167216	0.214376	0.632600	0.244034	0.140426
9	0.242093	0.660664	0.185860	0.218277	0.090430	0.138250	0.107154	0.100144	0.356838	0.630341	0.170452	0.234766	0.186746	0.271184	0.226512	0.136958	0.216839	0.221265	0.159378	0.251778	0.390100	0.379471	0.066811	0.067370	0.346009	0.466545	0.108444	0.137533	0.483939	0.777539	0.133543	0.112271	0.330797	0.297952	0.193274	0.214478	0.622670	0.394366	0.167233	0.042868	0.112678	0.130298	0.164360	0.182865	0.372004	0.741024	0.185446	0.039365	0.052977	0.074026	0.127303	0.198720	0.124610	0.168529	0.262024	0.103805	0.104880	0.127093	0.159126	0.215010	0.205639	0.699659	0.244058	0.140939
10	0.265516	0.689480	0.225397	0.262521	0.088268	0.139283	0.102492	0.091263	0.400936	0.668014	0.182202	0.238367	0.153001	0.252953	0.297112	0.145944	0.354566	0.287411	0.289357	0.317407	0.463341	0.381401	0.057357	0.075779	0.350987	0.500523	0.138476	0.187913	0.463602	0.792055	0.180232	0.124498	0.274133	0.257577	0.259568	0.264897	0.605961	0.408474	0.166378	0.029552	0.112249	0.118453	0.163458	0.173476	0.393660	0.753713	0.226348	0.053318	0.043824	0.079052	0.123166	0.211512	0.118951	0.168050	0.182617	0.118303	0.098336	0.123977	0.156295	0.236754	0.203235	0.730475	0.240908	0.135625
11	0.292085	0.840709	0.232659	0.267219	0.084306	0.139214	0.115731	0.087927	0.396560	0.659584	0.182938	0.217020	0.158091	0.140175	0.320085	0.160380	0.374097	0.246699	0.303239	0.313164	0.460385	0.377629	0.054091	0.075038	0.333600	0.507882	0.247708	0.335078	0.400942	0.851763	0.324197	0.128193	0.239656	0.257249	0.319753	0.302975	0.557610	0.395718	0.156596	0.029567	0.110451	0.097331	0.190158	0.202580	0.387980	0.725209	0.247716	0.065573	0.048441	0.081078	0.153580	0.210390	0.083352	0.128368	0.111864	0.130255	0.070046	0.114294	0.141791	0.228134	0.206716	0.735281	0.206096	0.113474
12	0.292884	0.880382	0.222892	0.273270	0.082832	0.140387	0.130148	0.092341	0.382569	0.647894	0.179962	0.186561	0.148617	0.153215	0.317330	0.168731	0.379200	0.243477	0.391623	0.351927	0.475030	0.389698	0.065759	0.076192	0.319238	0.507399	0.284846	0.379141	0.468358	0.917941	0.366085	0.128175	0.248062	0.228071	0.290293	0.271622	0.166034	0.364023	0.172866	0.100808	0.109205	0.072431	0.206427	0.213173	0.380866	0.664508	0.253759	0.067010	0.053340	0.065076	0.174626	0.209472	0.066136	0.093558	0.113045	0.124234	0.068827	0.100381	0.144956	0.237849	0.203112	0.730316	0.166094	0.123378
13	0.288489	0.876538	0.237498	0.290353	0.080795	0.139275	0.132349	0.095421	0.315987	0.553636	0.180200	0.193733	0.093562	0.167994	0.332679	0.215339	0.377475	0.228682	0.479647	0.423297	0.523153	0.394488	0.083675	0.074444	0.271957	0.464716	0.312797	0.411345	0.486957	0.950379	0.363501	0.116971	0.209560	0.189398	0.288206	0.259069	0.191934	0.244966	0.218120	0.139703	0.090274	0.089215	0.204450	0.213400	0.379992	0.635143	0.256653	0.129389	0.059814	0.063426	0.181795	0.167333	0.066861	0.089088	0.133264	0.184865	0.076341	0.098953	0.177622	0.266793	0.195169	0.704515	0.182743	0.108069
14	0.286520	0.702010	0.245660	0.295497	0.080844	0.147921	0.194983	0.102538	0.273433	0.519058	0.179704	0.194195	0.087646	0.155853	0.381779	0.268239	0.387935	0.267472	0.479632	0.429290	0.528294	0.513853	0.084959	0.074037	0.210741	0.329787	0.371077	0.440483	0.516194	0.978766	0.375843	0.102330	0.138020	0.159264	0.342751	0.276218	0.203643	0.215517	0.217270	0.218176	0.062386	0.102194	0.185125	0.209218	0.373892	0.588856	0.340057	0.242616	0.063755	0.063589	0.181014	0.161618	0.064392	0.084370	0.209709	0.203886	0.079611	0.102055	0.205858	0.291571	0.180129	0.579124	0.172146	0.096524
15	0.282101	0.656256	0.248683	0.294312	0.072140	0.126478	0.389773	0.102659	0.241163	0.510063	0.246948	0.205735	0.113609	0.162463	0.371419	0.291637	0.373864	0.288790	0.480596	0.426108	0.548115	0.544393	0.082793	0.078401	0.158650	0.315778	0.384041	0.446264	0.504679	0.971843	0.395880	0.105154	0.106055	0.209615	0.378920	0.285604	0.286938	0.286617	0.245782	0.224876	0.060085	0.108758	0.150864	0.155331	0.350604	0.503515	0.467015	0.336034	0.065188	0.062653	0.177719	0.157902	0.069883	0.071537	0.217474	0.219418	0.090345	0.118103	0.221366	0.299318	0.173987	0.561840	0.170871	0.114945
16	0.249802	0.614954	0.247721	0.283788	0.067251	0.102156	0.516581	0.123931	0.236960	0.351042	0.259253	0.204784	0.114245	0.159955	0.319394	0.287867	0.359933	0.283100	0.475532	0.404314	0.581763	0.552718	0.106255	0.078755	0.105773	0.216202	0.382862	0.443434	0.489719	0.964506	0.406185	0.119164	0.108160	0.244195	0.368877	0.252732	0.289856	0.282327	0.267721	0.225568	0.056610	0.109325	0.153167	0.148458	0.340257	0.487165	0.559446	0.361812	0.073093	0.063436	0.268559	0.192025	0.081856	0.096425	0.275864	0.244655	0.092009	0.111425	0.271158	0.298809	0.145210	0.477119	0.176577	0.142396
17	0.172102	0.613722	0.239640	0.243177	0.086509	0.113603	0.535504	0.124875	0.129500	0.252081	0.251021	0.191173	0.107189	0.178624	0.287330	0.288221	0.229598	0.201058	0.402432	0.335378	0.561015	0.544652	0.265598	0.083505	0.103526	0.195883	0.351016	0.376245	0.474299	0.954607	0.406856	0.124770	0.120529	0.281862	0.297629	0.193508	0.288979	0.266977	0.262695	0.231954	0.049577	0.111062	0.149538	0.150808	0.318834	0.439172	0.597632	0.366041	0.078774	0.053580	0.351569	0.212060	0.077589	0.139382	0.319743	0.251655	0.094724	0.113243	0.294404	0.294903	0.128775	0.328294	0.201500	0.146302
18	0.134119	0.500425	0.300109	0.217711	0.101053	0.132798	0.562007	0.121919	0.130179	0.244596	0.253118	0.172563	0.109372	0.190953	0.369132	0.374144	0.171823	0.197874	0.393124	0.332945	0.553918	0.528554	0.528302	0.088758	0.092265	0.172815	0.310589	0.269024	0.472099	0.873666	0.406907	0.125453	0.102626	0.278088	0.275943	0.174846	0.281336	0.243223	0.264908	0.239093	0.048512	0.109141	0.117847	0.114059	0.298369	0.431056	0.600888	0.413340	0.076786	0.044210	0.372502	0.197102	0.076569	0.237801	0.325759	0.257711	0.096583	0.112581	0.354061	0.276484	0.119564	0.189611	0.205725	0.146207
19	0.085036	0.253668	0.384726	0.211724	0.111230	0.144173	0.624677	0.134924	0.128861	0.251314	0.251221	0.172398	0.131004	0.330147	0.415027	0.455378	0.158720	0.197500	0.323645	0.295450	0.554621	0.518345	0.615323	0.136892	0.076390	0.142112	0.310247	0.251589	0.451211	0.753244	0.408701	0.127988	0.081981	0.269930	0.295631	0.177846	0.278885	0.240095	0.264816	0.241976	0.055020	0.117596	0.058819	0.072315	0.270733	0.378148	0.675797	0.460100	0.075317	0.046591	0.365608	0.216259	0.085867	0.263772	0.335565	0.269519	0.106612	0.102243	0.399223	0.286375	0.134433	0.134768	0.221318	0.150712
20	0.084645	0.189910	0.386621	0.173179	0.119091	0.152640	0.656040	0.166720	0.129932	0.355337	0.246721	0.165632	0.128618	0.330997	0.370014	0.456868	0.159271	0.254978	0.134239	0.171743	0.438600	0.517960	0.620957	0.150682	0.073613	0.135207	0.255180	0.149042	0.421369	0.709241	0.413987	0.121312	0.077171	0.280801	0.269653	0.154872	0.269642	0.240840	0.257848	0.216596	0.051078	0.149924	0.069181	0.071067	0.165144	0.186474	0.751014	0.491037	0.070931	0.055655	0.390775	0.217637	0.081528	0.270430	0.363020	0.303475	0.110157	0.105860	0.402297	0.285348	0.134290	0.127990	0.239253	0.160976
21	0.086244	0.189320	0.422121	0.150975	0.122092	0.150892	0.671453	0.192919	0.128479	0.380754	0.228717	0.132523	0.110682	0.337383	0.359476	0.494929	0.136444	0.236384	0.107088	0.106971	0.410906	0.517058	0.685218	0.147386	0.072278	0.131593	0.237826	0.095847	0.411770	0.696296	0.417636	0.108970	0.074309	0.278867	0.187683	0.130950	0.253953	0.279711	0.244272	0.190859	0.081540	0.159949	0.099613	0.084758	0.161909	0.170913	0.795404	0.507685	0.068732	0.074726	0.446481	0.241130	0.081296	0.272643	0.341144	0.333731	0.117085	0.108825	0.431573	0.281179	0.133372	0.123526	0.226050	0.156238
22	0.083267	0.217318	0.471401	0.144084	0.140816	0.167398	0.674621	0.211007	0.117021	0.394427	0.153037	0.107578	0.108281	0.337353	0.367094	0.526166	0.113905	0.262911	0.200127	0.140444	0.410847	0.513017	0.787193	0.154087	0.060914	0.118920	0.242575	0.092452	0.411761	0.602835	0.361933	0.101625	0.070196	0.220142	0.153758	0.116854	0.238640	0.370877	0.232074	0.104826	0.103966	0.184756	0.201367	0.123605	0.184203	0.196984	0.810789	0.520020	0.068232	0.082706	0.494823	0.291382	0.077483	0.276945	0.327500	0.346544	0.123111	0.108519	0.481100	0.254070	0.125350	0.109473	0.226999	0.172909
23	0.085539	0.210488	0.475127	0.148323	0.147770	0.180746	0.674758	0.222136	0.134262	0.448789	0.200281	0.162184	0.115303	0.330937	0.368536	0.538234	0.102672	0.261986	0.232092	0.157600	0.384762	0.480269	0.826050	0.155761	0.057378	0.110272	0.242109	0.092369	0.345679	0.471570	0.265094	0.101463	0.056221	0.191661	0.157008	0.101680	0.125409	0.368946	0.199463	0.100958	0.117757	0.215552	0.242417	0.141050	0.196937	0.208187	0.813423	0.521508	0.066147	0.101629	0.460211	0.291779	0.069157	0.289931	0.308985	0.359978	0.129937	0.097548	0.513307	0.235891	0.109418	0.081365	0.225884	0.239644
24	0.087890	0.225968	0.478352	0.312524	0.148262	0.184094	0.675896	0.227411	0.183319	0.498063	0.244958	0.235859	0.111925	0.307552	0.311169	0.505776	0.105049	0.292384	0.241843	0.152323	0.356015	0.464501	0.830110	0.159246	0.057843	0.109074	0.219658	0.091317	0.280948	0.374072	0.256476	0.102007	0.046910	0.169231	0.169592	0.112106	0.122423	0.375334	0.180205	0.110698	0.122963	0.256938	0.256186	0.138022	0.203058	0.213094	0.809877	0.502977	0.051394	0.103000	0.407573	0.264338	0.069116	0.269526	0.291629	0.414044	0.132078	0.082348	0.508192	0.237601	0.101012	0.064748	0.222850	0.302428
25	0.087835	0.237344	0.465277	0.375871	0.148090	0.180283	0.669056	0.255371	0.206917	0.515577	0.240544	0.238268	0.086255	0.132434	0.210088	0.398617	0.102323	0.299171	0.280027	0.156950	0.363796	0.332688	0.832579	0.167887	0.057473	0.106478	0.178044	0.089345	0.227690	0.279449	0.245216	0.111840	0.052620	0.166549	0.150410	0.168517	0.128461	0.481477	0.175656	0.098220	0.125079	0.259696	0.314225	0.135922	0.208070	0.217126	0.766533	0.455782	0.054544	0.106651	0.384315	0.281125	0.079474	0.259007	0.298800	0.434333	0.130994	0.093166	0.491822	0.249524	0.102644	0.065445	0.205031	0.314866
26	0.086675	0.240575	0.392675	0.376587	0.147502	0.176018	0.599211	0.315269	0.209204	0.519017	0.244034	0.237778	0.105745	0.137030	0.196742	0.348954	0.100558	0.299771	0.298136	0.192137	0.314156	0.241490	0.835024	0.174643	0.056308	0.104869	0.177802	0.094741	0.153229	0.153603	0.207507	0.141970	0.052938	0.159533	0.131125	0.170658	0.139971	0.507061	0.172321	0.098566	0.123963	0.257712	0.320814	0.137028	0.216070	0.223543	0.695296	0.403354	0.053134	0.106761	0.392456	0.299359	0.085705	0.223499	0.295769	0.430316	0.130398	0.147972	0.465182	0.224515	0.100088	0.070473	0.201627	0.377185
27	0.085768	0.241454	0.352220	0.416273	0.151497	0.179593	0.491282	0.451418	0.211757	0.462878	0.320899	0.314473	0.124737	0.208978	0.181624	0.293156	0.096493	0.256798	0.339773	0.214588	0.289383	0.181262	0.829625	0.173850	0.069519	0.121558	0.216741	0.199611	0.147776	0.166292	0.185595	0.163768	0.053357	0.113760	0.153401	0.183141	0.145453	0.511934	0.168091	0.113778	0.123601	0.232498	0.337040	0.142291	0.219146	0.227541	0.630857	0.395163	0.051325	0.100367	0.377501	0.312699	0.089419	0.215869	0.277914	0.396701	0.127481	0.165609	0.405644	0.163774	0.075682	0.078417	0.205174	0.399054
28	0.079278	0.241408	0.365099	0.473651	0.149184	0.171705	0.463876	0.494087	0.208960	0.426880	0.389314	0.346797	0.215151	0.274246	0.165064	0.302717	0.095183	0.245776	0.356246	0.295044	0.286125	0.185305	0.768130	0.171354	0.082296	0.107789	0.225791	0.221169	0.131356	0.183836	0.181840	0.157544	0.051785	0.108632	0.157596	0.214517	0.146424	0.510582	0.144602	0.119338	0.109624	0.222756	0.387387	0.149636	0.204863	0.226995	0.621333	0.395522	0.047203	0.086900	0.313367	0.310129	0.091918	0.214855	0.312907	0.416937	0.121847	0.163582	0.379541	0.171875	0.064809	0.081813	0.175395	0.395564
29	0.071190	0.233958	0.286953	0.494218	0.138336	0.159650	0.446400	0.505111	0.213400	0.409845	0.403926	0.356639	0.272138	0.287066	0.218920	0.420155	0.079402	0.175720	0.340007	0.315809	0.263131	0.329398	0.626516	0.171316	0.104368	0.120301	0.278631	0.267710	0.120026	0.190694	0.186184	0.157363	0.049001	0.118375	0.156712	0.377848	0.137415	0.491064	0.109542	0.120159	0.082515	0.192094	0.364785	0.136715	0.175285	0.224284	0.604346	0.340737	0.046509	0.081677	0.232322	0.265645	0.095313	0.229349	0.384445	0.468259	0.106955	0.156611	0.373160	0.183366	0.071345	0.093024	0.171689	0.441236
30	0.083440	0.191745	0.230133	0.512564	0.125457	0.152713	0.365802	0.575826	0.210520	0.347372	0.450306	0.419812	0.361964	0.402118	0.214565	0.413445	0.078210	0.172138	0.366099	0.362732	0.260626	0.504101	0.600777	0.205810	0.110223	0.121182	0.284229	0.281221	0.113133	0.192318	0.188121	0.156574	0.050128	0.122802	0.138752	0.399200	0.134871	0.421503	0.114153	0.131614	0.062512	0.174388	0.409810	0.193461	0.170411	0.224250	0.501135	0.284198	0.040373	0.065392	0.214592	0.241665	0.110066	0.223175	0.435259	0.523730	0.102021	0.160201	0.296397	0.171055	0.066165	0.090804	0.203238	0.543749
31	0.098498	0.203061	0.236277	0.502405	0.116098	0.142333	0.309514	0.619511	0.186583	0.240734	0.510369	0.532961	0.421055	0.446491	0.195289	0.423312	0.073372	0.115535	0.419845	0.414813	0.272537	0.581073	0.594915	0.225804	0.113923	0.121409	0.292503	0.308081	0.111276	0.192100	0.181179	0.164483	0.059447	0.128716	0.125762	0.417554	0.144484	0.465183	0.088647	0.155559	0.047884	0.081881	0.479197	0.263719	0.168843	0.207676	0.374139	0.235272	0.039683	0.063185	0.202096	0.275649	0.124486	0.220248	0.436290	0.491169	0.079359	0.167587	0.192818	0.169215	0.073992	0.094780	0.196234	0.607480
32	0.102197	0.159121	0.237454	0.421630	0.113388	0.143698	0.271605	0.617400	0.206759	0.273428	0.552596	0.554729	0.424560	0.442486	0.203479	0.442874	0.105017	0.127186	0.405239	0.444604	0.285395	0.667895	0.486254	0.227534	0.116278	0.123588	0.366399	0.347820	0.111537	0.190520	0.155291	0.183428	0.059121	0.159290	0.142243	0.492205	0.126023	0.454165	0.096475	0.185135	0.080017	0.118350	0.458631	0.281135	0.153779	0.172042	0.261056	0.195330	0.030801	0.057415	0.202577	0.287387	0.123831	0.185160	0.509766	0.510849	0.065851	0.178463	0.103828	0.169085	0.077450	0.095411	0.181516	0.611508
33	0.097733	0.134689	0.284533	0.491882	0.091962	0.140427	0.253432	0.620592	0.241300	0.313486	0.560217	0.557802	0.418428	0.407864	0.198604	0.513487	0.142263	0.182738	0.403148	0.435825	0.360982	0.747401	0.322793	0.252969	0.136266	0.148958	0.365378	0.334754	0.110215	0.189740	0.132180	0.220996	0.075819	0.180849	0.142043	0.552438	0.112486	0.338443	0.138401	0.192048	0.093919	0.144721	0.458342	0.408709	0.131051	0.132035	0.222232	0.214601	0.028176	0.058167	0.186548	0.256654	0.116351	0.160535	0.630407	0.526516	0.057549	0.178097	0.070984	0.159636	0.074488	0.100052	0.189648	0.601336
34	0.115891	0.138966	0.454852	0.585263	0.073184	0.138790	0.281934	0.637455	0.244709	0.326181	0.529264	0.526559	0.386174	0.362476	0.260927	0.503136	0.154791	0.210181	0.364216	0.422672	0.353274	0.751798	0.268847	0.288054	0.152788	0.151389	0.332017	0.306474	0.102601	0.194767	0.130958	0.230939	0.082420	0.184210	0.149262	0.574932	0.099069	0.304295	0.141360	0.233956	0.094329	0.146334	0.464813	0.448797	0.121107	0.113793	0.225385	0.309083	0.041183	0.087138	0.164311	0.261064	0.106419	0.159887	0.665362	0.528731	0.058479	0.159139	0.078344	0.161939	0.078044	0.104623	0.193485	0.578934
35	0.136810	0.151555	0.517749	0.628157	0.074833	0.138845	0.359917	0.649716	0.245557	0.326710	0.475563	0.494543	0.348592	0.359432	0.230499	0.427105	0.150855	0.207214	0.362045	0.386037	0.334412	0.768005	0.263891	0.301980	0.143913	0.144704	0.296220	0.311099	0.097173	0.201995	0.125789	0.229929	0.081819	0.178976	0.143214	0.506761	0.095316	0.299119	0.178427	0.281197	0.094787	0.148810	0.422385	0.453303	0.114703	0.145185	0.231694	0.414129	0.042565	0.095721	0.158545	0.244839	0.113273	0.173916	0.642405	0.510213	0.056559	0.116610	0.107756	0.162644	0.086452	0.127683	0.188766	0.569303
36	0.150248	0.173201	0.514034	0.610176	0.089172	0.149795	0.403717	0.642848	0.245794	0.330979	0.466445	0.484924	0.281065	0.253904	0.245116	0.472378	0.146637	0.201834	0.341604	0.345196	0.316715	0.774941	0.255287	0.298922	0.127730	0.132816	0.291961	0.338327	0.113081	0.217310	0.119945	0.229536	0.082303	0.163641	0.140941	0.456099	0.147249	0.307473	0.202255	0.315602	0.104212	0.151549	0.413178	0.459281	0.108248	0.176629	0.232747	0.464055	0.046978	0.113191	0.144316	0.238867	0.115093	0.172590	0.600350	0.435154	0.058725	0.204690	0.120296	0.156063	0.087363	0.131381	0.212452	0.587988
37	0.165015	0.189843	0.588549	0.684593	0.114833	0.200911	0.402776	0.622702	0.240448	0.332100	0.401800	0.439662	0.159810	0.163062	0.304355	0.532120	0.146682	0.202346	0.298559	0.303214	0.303521	0.775255	0.255106	0.318011	0.127377	0.134376	0.301521	0.325453	0.131846	0.221298	0.112892	0.218587	0.072682	0.159437	0.139628	0.449948	0.217613	0.326367	0.203636	0.333086	0.106829	0.149824	0.361694	0.451496	0.105711	0.200003	0.224688	0.468487	0.044602	0.131136	0.121231	0.237812	0.110176	0.166502	0.567509	0.368912	0.062084	0.276112	0.141586	0.135551	0.086975	0.136092	0.232288	0.584899
38	0.154533	0.182959	0.675767	0.738725	0.132819	0.236735	0.427551	0.544469	0.228025	0.317136	0.294373	0.255043	0.139352	0.172394	0.315603	0.531045	0.149037	0.200699	0.201076	0.245554	0.298539	0.775286	0.258394	0.349433	0.123855	0.134596	0.248314	0.289685	0.140659	0.216288	0.106509	0.204773	0.070047	0.198328	0.148334	0.387006	0.228609	0.322701	0.267769	0.493862	0.106859	0.147733	0.239172	0.427898	0.112306	0.219541	0.183832	0.495403	0.044608	0.139192	0.111626	0.199546	0.101828	0.152912	0.542557	0.353073	0.056674	0.325392	0.148892	0.164358	0.106635	0.150812	0.216429	0.503990
39	0.172423	0.197780	0.678476	0.753920	0.130012	0.249381	0.447954	0.501486	0.183300	0.248662	0.196228	0.236995	0.171434	0.241146	0.318461	0.461227	0.140201	0.192754	0.165791	0.164677	0.296428	0.765455	0.258938	0.353914	0.115398	0.119477	0.181023	0.289432	0.138772	0.199339	0.081847	0.220371	0.089968	0.222909	0.240694	0.323215	0.237290	0.239192	0.348352	0.585629	0.089803	0.120641	0.195062	0.412188	0.113048	0.224254	0.152343	0.557652	0.044842	0.156298	0.077268	0.149568	0.097653	0.148256	0.491441	0.274234	0.056668	0.386403	0.147252	0.182617	0.114816	0.147777	0.195515	0.404835
40	0.193336	0.216442	0.672238	0.721088	0.130476	0.249442	0.467180	0.516199	0.124783	0.171821	0.171251	0.243973	0.195279	0.332278	0.275683	0.449698	0.100887	0.141694	0.145237	0.192622	0.282930	0.695300	0.218913	0.345450	0.057664	0.068484	0.332283	0.366312	0.135624	0.185164	0.078662	0.220247	0.095627	0.324670	0.259733	0.306524	0.278888	0.251298	0.354938	0.587825	0.068156	0.071922	0.196370	0.335640	0.112518	0.223769	0.141624	0.625293	0.045920	0.181800	0.099774	0.150786	0.097307	0.148667	0.309171	0.210540	0.057239	0.380407	0.147743	0.192980	0.112255	0.141899	0.196611	0.304278
41	0.194688	0.218015	0.625161	0.665885	0.142540	0.245843	0.463160	0.470102	0.106160	0.160637	0.171306	0.240351	0.221290	0.336872	0.269594	0.424422	0.071831	0.084765	0.196570	0.231369	0.278793	0.582209	0.171770	0.323039	0.041529	0.053924	0.415977	0.445120	0.134940	0.176165	0.073885	0.220846	0.091748	0.326416	0.262804	0.299788	0.326495	0.298257	0.372159	0.623781	0.069547	0.064326	0.160172	0.259596	0.108935	0.221247	0.150220	0.665092	0.042473	0.176562	0.275125	0.209851	0.097063	0.151152	0.155339	0.208378	0.058761	0.377865	0.149656	0.208350	0.110769	0.144334	0.212453	0.291441
42	0.180661	0.205595	0.501500	0.549578	0.161058	0.252148	0.449394	0.399748	0.105267	0.161554	0.176212	0.240304	0.242228	0.340728	0.290086	0.387777	0.069753	0.085335	0.278203	0.347740	0.260431	0.541036	0.159880	0.328039	0.066361	0.081329	0.432998	0.418509	0.150638	0.173854	0.103801	0.218475	0.092257	0.370768	0.275535	0.303615	0.328082	0.302983	0.376926	0.612743	0.067961	0.059861	0.157895	0.282675	0.101936	0.221992	0.153916	0.674047	0.041147	0.174083	0.355259	0.227532	0.087670	0.136624	0.159449	0.197899	0.067158	0.389383	0.161816	0.291307	0.109407	0.144463	0.203858	0.355786
43	0.165170	0.190654	0.475750	0.522308	0.175010	0.273027	0.445341	0.388081	0.098719	0.152489	0.180634	0.252249	0.243614	0.393215	0.281571	0.282684	0.076998	0.102629	0.284500	0.406123	0.229659	0.361469	0.160991	0.334776	0.078277	0.118451	0.458683	0.402514	0.165241	0.178548	0.108429	0.215178	0.094144	0.421061	0.286382	0.306072	0.332074	0.305113	0.359463	0.590027	0.055267	0.061525	0.152018	0.284153	0.099111	0.222360	0.158538	0.673520	0.053514	0.168036	0.368388	0.235285	0.088721	0.148957	0.276630	0.184740	0.080920	0.392758	0.140502	0.296616	0.099971	0.123009	0.207106	0.413747
44	0.153514	0.176112	0.439105	0.463335	0.179298	0.293600	0.447473	0.384161	0.075149	0.145580	0.177967	0.276097	0.238436	0.391970	0.257625	0.314447	0.080654	0.103037	0.304826	0.405624	0.092853	0.260895	0.147413	0.316692	0.077626	0.209681	0.473404	0.409945	0.168779	0.180518	0.127493	0.213499	0.096462	0.439880	0.303964	0.297447	0.305927	0.285406	0.359360	0.573823	0.047361	0.062270	0.133035	0.281828	0.096951	0.221391	0.158883	0.653660	0.077120	0.187593	0.374961	0.234056	0.095132	0.184417	0.314981	0.162870	0.081463	0.394642	0.153564	0.314038	0.098910	0.113307	0.251226	0.406806
45	0.142701	0.158464	0.268492	0.297425	0.181018	0.288732	0.434275	0.349979	0.063977	0.272452	0.167494	0.272359	0.216810	0.362559	0.276419	0.315060	0.075452	0.101728	0.344257	0.421584	0.075157	0.255233	0.131823	0.296670	0.077962	0.247309	0.471456	0.410593	0.167399	0.167539	0.155625	0.194920	0.087762	0.450632	0.257586	0.262793	0.264058	0.236699	0.391182	0.571738	0.063625	0.101873	0.156325	0.265531	0.087472	0.221871	0.177356	0.611316	0.080406	0.195404	0.389416	0.258746	0.086401	0.191600	0.310588	0.173136	0.077226	0.370815	0.144821	0.318541	0.099069	0.111058	0.309246	0.521500
46	0.129055	0.147438	0.086713	0.185429	0.180191	0.298937	0.378224	0.315370	0.060216	0.309738	0.156252	0.206707	0.190338	0.269832	0.287505	0.299894	0.066990	0.098948	0.383820	0.445284	0.074966	0.223634	0.134922	0.294276	0.079808	0.305013	0.425166	0.370447	0.166906	0.150822	0.175588	0.199494	0.057442	0.406942	0.254326	0.206746	0.258282	0.209807	0.356449	0.431087	0.086683	0.130789	0.292084	0.258092	0.091586	0.195208	0.204501	0.542698	0.083180	0.189773	0.400740	0.261503	0.090292	0.194381	0.316424	0.193480	0.077313	0.379197	0.166983	0.318481	0.090046	0.083160	0.324172	0.594085
47	0.076538	0.091081	0.144505	0.323618	0.174793	0.303955	0.313876	0.308395	0.063806	0.364195	0.370280	0.394380	0.162222	0.257167	0.334190	0.280900	0.071752	0.096292	0.387708	0.450255	0.070611	0.223592	0.133273	0.289119	0.108662	0.314265	0.312159	0.283517	0.163282	0.141554	0.181655	0.201751	0.059200	0.423270	0.255211	0.208100	0.232200	0.200194	0.286930	0.325315	0.088250	0.141047	0.294169	0.271587	0.092190	0.174761	0.271310	0.559620	0.090924	0.178871	0.408868	0.280260	0.089315	0.250873	0.316554	0.201538	0.076468	0.282841	0.226101	0.323437	0.062542	0.089944	0.323552	0.614645
48	0.052418	0.067078	0.231896	0.396953	0.161998	0.280875	0.322212	0.312730	0.054312	0.352517	0.487858	0.602619	0.091291	0.253046	0.432338	0.243794	0.079390	0.118336	0.365198	0.432442	0.068461	0.223648	0.119152	0.279542	0.112808	0.318349	0.291847	0.233362	0.147586	0.172493	0.232874	0.238570	0.065096	0.468048	0.243756	0.213347	0.179498	0.188434	0.280798	0.296156	0.086797	0.141982	0.349138	0.260250	0.077964	0.141888	0.318140	0.591530	0.089499	0.182444	0.367290	0.277306	0.091982	0.247937	0.343819	0.197258	0.076441	0.263859	0.269172	0.407728	0.074449	0.115788	0.323222	0.619301
49	0.061239	0.069486	0.241442	0.395574	0.144013	0.247794	0.319603	0.327322	0.071607	0.374762	0.493140	0.615204	0.068132	0.098261	0.426562	0.277808	0.079853	0.114674	0.376879	0.353733	0.077307	0.245478	0.169910	0.347687	0.097889	0.311131	0.273677	0.239606	0.134938	0.180561	0.278646	0.329952	0.076530	0.408190	0.256006	0.216163	0.098148	0.106055	0.249963	0.208996	0.104102	0.160179	0.377461	0.229106	0.076904	0.114662	0.323654	0.565487	0.096527	0.187224	0.340841	0.291398	0.093406	0.244678	0.399073	0.214148	0.078897	0.263512	0.292358	0.450447	0.089829	0.130756	0.318823	0.616854
50	0.076766	0.074717	0.243870	0.391142	0.142856	0.231454	0.291984	0.346132	0.077637	0.383735	0.558136	0.647986	0.067458	0.081294	0.599026	0.323463	0.073221	0.123545	0.421598	0.263165	0.092677	0.265338	0.280882	0.491307	0.097897	0.297654	0.240928	0.257346	0.127060	0.197275	0.310207	0.535114	0.077661	0.415878	0.271573	0.218541	0.096814	0.100938	0.240462	0.192148	0.154107	0.207208	0.379954	0.250389	0.080773	0.126420	0.372127	0.488602	0.099335	0.205241	0.325897	0.305173	0.097334	0.258469	0.341177	0.240111	0.097489	0.274662	0.299391	0.423695	0.095937	0.132518	0.325240	0.604283
51	0.079533	0.086480	0.249093	0.405707	0.157902	0.232817	0.272233	0.392425	0.083585	0.382171	0.659484	0.673496	0.131073	0.145163	0.660469	0.345112	0.080612	0.132230	0.415875	0.260098	0.112352	0.270014	0.368578	0.604520	0.100132	0.223937	0.230375	0.245725	0.119283	0.229588	0.329006	0.617175	0.086282	0.398690	0.264346	0.228115	0.078502	0.090459	0.241264	0.199279	0.172054	0.218026	0.380998	0.241574	0.087077	0.159864	0.428114	0.415079	0.095873	0.195314	0.323042	0.317409	0.085094	0.236268	0.291772	0.225754	0.132923	0.370236	0.296607	0.389432	0.096121	0.155741	0.366628	0.563787
52	0.079547	0.175848	0.256787	0.403773	0.164962	0.239987	0.279265	0.411529	0.098777	0.325960	0.700764	0.687245	0.165403	0.183337	0.675874	0.376812	0.103294	0.139324	0.419429	0.216990	0.132506	0.271351	0.396487	0.613659	0.112643	0.182007	0.236385	0.236261	0.117279	0.230056	0.338352	0.623642	0.082084	0.361896	0.215438	0.209650	0.077603	0.089134	0.217972	0.197505	0.169760	0.212759	0.384780	0.234653	0.118181	0.175467	0.462750	0.394331	0.111238	0.197633	0.307548	0.299657	0.076398	0.229836	0.293912	0.203085	0.138921	0.394313	0.295696	0.386231	0.102651	0.211999	0.367070	0.542912
53	0.084593	0.184041	0.279024	0.414476	0.154892	0.238591	0.281811	0.424519	0.101049	0.338381	0.711680	0.724897	0.163211	0.182931	0.677186	0.382197	0.102255	0.155855	0.421685	0.161316	0.140306	0.277168	0.400785	0.608376	0.101541	0.149242	0.267788	0.215518	0.106464	0.242611	0.358910	0.663585	0.090713	0.357879	0.217455	0.175456	0.086889	0.085745	0.138399	0.138325	0.163946	0.187446	0.316326	0.232968	0.118662	0.176209	0.484616	0.406528	0.119729	0.198022	0.298843	0.297021	0.069774	0.309752	0.335357	0.195745	0.140785	0.384707	0.280489	0.375768	0.101302	0.227808	0.301535	0.461169
54	0.086676	0.180062	0.291241	0.455381	0.138170	0.277380	0.281119	0.428110	0.099700	0.295485	0.641712	0.673372	0.168380	0.190057	0.607249	0.383134	0.099739	0.163151	0.424927	0.105012	0.134386	0.275851	0.432743	0.616986	0.075984	0.132592	0.279196	0.219746	0.083923	0.252110	0.377401	0.705592	0.093631	0.250573	0.235319	0.181134	0.084796	0.084149	0.113052	0.119264	0.159517	0.183063	0.309084	0.278102	0.119027	0.174735	0.487431	0.403175	0.119158	0.193786	0.279577	0.280180	0.074849	0.327433	0.367877	0.205866	0.139229	0.325864	0.279978	0.372406	0.189762	0.351358	0.254814	0.339972
55	0.084162	0.178627	0.236179	0.415972	0.132045	0.265328	0.289978	0.446582	0.113346	0.310874	0.567465	0.480671	0.169473	0.198244	0.605645	0.384013	0.096709	0.152007	0.430146	0.091931	0.137966	0.270294	0.448389	0.641141	0.083855	0.128441	0.267951	0.221306	0.061309	0.249651	0.397469	0.738549	0.084835	0.251820	0.247079	0.182669	0.092911	0.095586	0.139843	0.167884	0.162568	0.183334	0.328049	0.312216	0.119443	0.170773	0.481025	0.402490	0.117750	0.200456	0.236797	0.250176	0.114295	0.348977	0.360440	0.212479	0.141981	0.329513	0.249704	0.370153	0.224040	0.370037	0.265172	0.276644
56	0.076935	0.218918	0.233370	0.429769	0.129308	0.298838	0.290611	0.450005	0.108243	0.290941	0.583119	0.455296	0.171268	0.198757	0.453504	0.298193	0.096927	0.169309	0.385446	0.088583	0.154991	0.246404	0.451393	0.644339	0.085977	0.123201	0.264949	0.205239	0.060676	0.253863	0.406375	0.757366	0.087063	0.179353	0.228443	0.160455	0.117113	0.174382	0.273607	0.243338	0.159331	0.189894	0.295867	0.305177	0.122638	0.168160	0.466698	0.403293	0.112125	0.213892	0.206235	0.247008	0.130475	0.368673	0.287926	0.201746	0.149126	0.337180	0.313986	0.332410	0.220657	0.389797	0.270892	0.258273
57	0.065629	0.271226	0.249039	0.444097	0.138328	0.300641	0.292104	0.469676	0.099976	0.281752	0.533046	0.426234	0.140848	0.165611	0.301532	0.257585	0.096515	0.154952	0.303962	0.114154	0.156234	0.219401	0.464484	0.642120	0.086748	0.145298	0.319508	0.237054	0.064146	0.252781	0.404482	0.757132	0.093525	0.183584	0.264126	0.168992	0.142309	0.245556	0.317975	0.294012	0.115460	0.143992	0.294979	0.277428	0.115034	0.168653	0.455638	0.386970	0.109669	0.203080	0.228920	0.242792	0.125344	0.355756	0.278457	0.178350	0.154153	0.392249	0.335725	0.214015	0.214186	0.384112	0.287644	0.261945
58	0.053947	0.313858	0.343088	0.508192	0.145491	0.300468	0.314153	0.509247	0.102916	0.279969	0.394555	0.400107	0.088697	0.108605	0.278272	0.215433	0.086342	0.151276	0.296835	0.102655	0.159079	0.214075	0.482275	0.644190	0.089382	0.159972	0.328355	0.261282	0.064092	0.254194	0.413848	0.760689	0.103305	0.155420	0.281026	0.156609	0.165743	0.324846	0.327763	0.296778	0.083581	0.136290	0.295304	0.268336	0.111692	0.158795	0.414684	0.318274	0.114206	0.241137	0.223531	0.226983	0.129301	0.364758	0.304822	0.221204	0.152578	0.398306	0.324374	0.170200	0.209437	0.381040	0.294880	0.238848
59	0.056922	0.315071	0.370812	0.532235	0.145207	0.339789	0.309179	0.557927	0.085938	0.275087	0.301728	0.362768	0.097374	0.135987	0.232195	0.189611	0.064639	0.149300	0.257961	0.120259	0.163166	0.215916	0.487682	0.640708	0.092070	0.179287	0.299105	0.278752	0.061681	0.226529	0.412100	0.757236	0.102694	0.138964	0.276495	0.140329	0.224075	0.517141	0.326836	0.293702	0.077578	0.136734	0.295016	0.266125	0.108450	0.154877	0.393761	0.249151	0.122605	0.270802	0.231123	0.225290	0.132655	0.378937	0.324824	0.237691	0.122516	0.353335	0.317431	0.179010	0.210663	0.377446	0.262586	0.205231
60	0.054157	0.273687	0.382968	0.541132	0.144898	0.375323	0.343142	0.576784	0.081598	0.187886	0.283618	0.284758	0.089510	0.128937	0.231070	0.205967	0.078506	0.139847	0.289931	0.214862	0.158974	0.187589	0.467330	0.620839	0.095136	0.177230	0.295171	0.263484	0.060740	0.203955	0.379390	0.744936	0.098633	0.144012	0.272116	0.169567	0.340222	0.555852	0.327724	0.300456	0.073955	0.139204	0.278799	0.263343	0.102718	0.154472	0.383990	0.239952	0.121043	0.297525	0.287996	0.230350	0.136321	0.323100	0.288348	0.237242	0.087367	0.250835	0.318314	0.175950	0.209265	0.354140	0.206976	0.197037
61	0.051337	0.277324	0.413697	0.537526	0.142813	0.374950	0.393353	0.560535	0.080101	0.162732	0.293119	0.233308	0.076048	0.111005	0.177563	0.179896	0.100005	0.134772	0.324765	0.225034	0.149516	0.164499	0.403030	0.527306	0.096361	0.185049	0.295145	0.254889	0.059467	0.203448	0.371502	0.654676	0.096793	0.152360	0.368463	0.237004	0.356105	0.558475	0.384336	0.340663	0.071049	0.142156	0.277092	0.240633	0.103792	0.141786	0.323854	0.232401	0.123191	0.297616	0.406918	0.270955	0.135322	0.285688	0.244901	0.227637	0.083654	0.242069	0.338613	0.171335	0.208431	0.333166	0.200170	0.197173
62	0.052577	0.277792	0.427307	0.477840	0.133981	0.372272	0.411727	0.515303	0.064408	0.115136	0.283846	0.289426	0.069685	0.111242	0.172093	0.203028	0.104950	0.134859	0.326665	0.227796	0.133349	0.153590	0.340068	0.440275	0.094404	0.202748	0.324777	0.327278	0.053976	0.165099	0.367361	0.522667	0.094916	0.131051	0.419961	0.246393	0.358027	0.558633	0.447855	0.363135	0.061850	0.142658	0.232242	0.163861	0.096159	0.142134	0.250631	0.195196	0.127926	0.295423	0.397698	0.275842	0.110400	0.226181	0.238153	0.220582	0.092265	0.248945	0.393490	0.189760	0.197300	0.271860	0.205853	0.179903
63	0.051805	0.273549	0.419848	0.414515	0.113147	0.368308	0.401927	0.474734	0.072804	0.112902	0.493999	0.398096	0.064135	0.108073	0.173138	0.220642	0.106534	0.109326	0.328648	0.262565	0.113923	0.144402	0.323783	0.432243	0.092596	0.204173	0.344788	0.436728	0.052578	0.146207	0.378156	0.495214	0.118982	0.154872	0.408770	0.238509	0.361615	0.563569	0.441178	0.337972	0.058153	0.127163	0.202091	0.207627	0.084274	0.184796	0.210984	0.124476	0.129253	0.283039	0.434132	0.269025	0.077538	0.184319	0.296126	0.240436	0.101835	0.316787	0.432286	0.197735	0.047196	0.166400	0.188302	0.114081
64	0.056320	0.212141	0.408572	0.406037	0.100669	0.364618	0.414712	0.445793	0.087903	0.117004	0.537413	0.384781	0.060924	0.106339	0.169425	0.208167	0.108656	0.120959	0.329056	0.305531	0.105113	0.133447	0.323617	0.435165	0.095529	0.220863	0.347343	0.452303	0.052233	0.143695	0.371617	0.466088	0.126882	0.156647	0.446176	0.256402	0.385810	0.557517	0.363545	0.295484	0.066704	0.154201	0.189844	0.220785	0.164311	0.319812	0.209722	0.089529	0.124300	0.278216	0.561791	0.367514	0.075181	0.185137	0.301583	0.236140	0.096142	0.365232	0.416581	0.181436	0.050829	0.089688	0.185218	0.101492
65	0.066572	0.184440	0.410798	0.353524	0.099156	0.334484	0.456484	0.440709	0.092743	0.128872	0.607844	0.361141	0.034956	0.067846	0.202296	0.242504	0.108831	0.123998	0.367998	0.382760	0.104422	0.133322	0.280370	0.407433	0.078140	0.195182	0.361377	0.449496	0.041743	0.113608	0.345849	0.405483	0.122360	0.168827	0.469146	0.295190	0.390050	0.555585	0.338109	0.258404	0.078145	0.284895	0.185909	0.227485	0.186211	0.411521	0.209010	0.144536	0.127483	0.246489	0.593322	0.409365	0.068487	0.159059	0.351072	0.209173	0.088695	0.346902	0.376672	0.194821	0.059868	0.059296	0.174665	0.085158
66	0.068768	0.079345	0.336240	0.279961	0.100501	0.308675	0.463497	0.434117	0.108714	0.144609	0.731346	0.412168	0.028307	0.051183	0.263813	0.261682	0.104467	0.123467	0.430224	0.425094	0.090054	0.126749	0.261500	0.363011	0.071550	0.209677	0.425272	0.513182	0.042342	0.102659	0.335152	0.339062	0.121556	0.169676	0.474983	0.295870	0.391071	0.500416	0.345267	0.280671	0.076662	0.310551	0.175372	0.227623	0.252298	0.498201	0.209689	0.196359	0.135863	0.220428	0.596516	0.425104	0.055622	0.100812	0.386817	0.188644	0.093513	0.319317	0.440459	0.231846	0.060209	0.060740	0.136983	0.073581
67	0.079617	0.095651	0.336497	0.236851	0.108761	0.279080	0.459719	0.428762	0.130560	0.165294	0.790946	0.526094	0.030528	0.049495	0.338655	0.266049	0.121025	0.120844	0.393269	0.398456	0.065528	0.116540	0.255563	0.360625	0.067973	0.206666	0.406362	0.523791	0.042127	0.103264	0.331360	0.258532	0.122173	0.161373	0.430528	0.234695	0.363314	0.301950	0.352037	0.298906	0.075626	0.323648	0.209387	0.243904	0.337573	0.535208	0.209389	0.203322	0.137345	0.177778	0.571359	0.427539	0.058373	0.096882	0.401836	0.194152	0.102940	0.359566	0.455830	0.231562	0.058450	0.062971	0.119904	0.070458
68	0.100509	0.112436	0.296242	0.238687	0.120936	0.265164	0.460588	0.412997	0.150640	0.185710	0.801189	0.565154	0.036356	0.046925	0.515550	0.297575	0.110279	0.110741	0.349078	0.387811	0.061419	0.095880	0.230128	0.360096	0.059593	0.176608	0.406732	0.514507	0.041845	0.115032	0.328506	0.233381	0.127352	0.161791	0.336616	0.211798	0.293106	0.260576	0.347535	0.293729	0.088639	0.325771	0.276670	0.318163	0.404705	0.756362	0.195936	0.218506	0.130160	0.166366	0.503118	0.424158	0.070753	0.114275	0.400533	0.205281	0.134443	0.389893	0.468691	0.234773	0.055406	0.069584	0.121919	0.058494
69	0.106140	0.126143	0.230232	0.179557	0.134765	0.248397	0.452821	0.370665	0.164492	0.200333	0.798185	0.553131	0.044861	0.152823	0.584005	0.324907	0.099706	0.106038	0.370489	0.394156	0.054778	0.081812	0.209821	0.350732	0.066764	0.172591	0.356875	0.423629	0.048438	0.220077	0.318752	0.220890	0.122216	0.134631	0.323915	0.225471	0.294638	0.256832	0.266495	0.243540	0.120988	0.335601	0.279669	0.332506	0.488981	0.809631	0.192109	0.234733	0.128988	0.167459	0.507960	0.403397	0.071772	0.116202	0.398597	0.221147	0.146760	0.399029	0.507216	0.256675	0.055590	0.077383	0.133275	0.069355
70	0.105847	0.127124	0.217078	0.176217	0.137942	0.224706	0.456684	0.286350	0.176871	0.227352	0.680973	0.471098	0.067690	0.177249	0.584490	0.330852	0.098001	0.107870	0.363526	0.386395	0.049126	0.071198	0.204946	0.310014	0.072015	0.157019	0.307241	0.336529	0.050352	0.311426	0.303104	0.223714	0.078355	0.141544	0.294258	0.270858	0.300951	0.271996	0.159985	0.203747	0.149851	0.355616	0.267446	0.306538	0.509885	0.826924	0.190949	0.234793	0.129162	0.182793	0.459635	0.391123	0.076263	0.106752	0.367130	0.218929	0.142512	0.399043	0.494852	0.258313	0.075848	0.111323	0.133077	0.066138
71	0.105255	0.137551	0.221383	0.176058	0.153781	0.161715	0.425766	0.210919	0.175091	0.234228	0.630853	0.478322	0.078405	0.182226	0.574886	0.316545	0.096693	0.112436	0.362141	0.361405	0.048780	0.076979	0.268880	0.235067	0.072598	0.138649	0.311422	0.328432	0.050812	0.320997	0.338656	0.261246	0.080873	0.134841	0.305673	0.309580	0.309870	0.254114	0.167947	0.203990	0.153206	0.359865	0.277360	0.297875	0.524740	0.831274	0.193588	0.234635	0.130865	0.189149	0.269814	0.287340	0.074988	0.118078	0.352488	0.214937	0.147739	0.392606	0.448155	0.246675	0.084098	0.138578	0.121922	0.066715
72	0.106320	0.153853	0.218618	0.185561	0.153016	0.176451	0.350216	0.195384	0.172750	0.254153	0.604635	0.479977	0.080076	0.202674	0.541253	0.284765	0.100801	0.123536	0.416153	0.289203	0.055643	0.118065	0.348868	0.212571	0.077096	0.094256	0.263960	0.252781	0.055949	0.351113	0.409376	0.328814	0.101571	0.164826	0.392939	0.352751	0.290136	0.216696	0.209039	0.221473	0.153921	0.267830	0.281803	0.321127	0.526297	0.829139	0.202524	0.236173	0.115651	0.182367	0.185202	0.237647	0.077667	0.150345	0.303564	0.218475	0.159389	0.346698	0.430519	0.314721	0.097914	0.140975	0.122155	0.097929
73	0.105944	0.181824	0.202334	0.196305	0.148041	0.176042	0.291062	0.192136	0.163888	0.248906	0.471925	0.482118	0.079653	0.228665	0.512982	0.277117	0.109398	0.128966	0.400384	0.225922	0.088472	0.120306	0.405436	0.255855	0.092076	0.101870	0.202366	0.156423	0.056735	0.403649	0.436690	0.344907	0.122280	0.170252	0.390527	0.369763	0.294785	0.183125	0.219634	0.237715	0.154042	0.230145	0.286051	0.329926	0.525055	0.823301	0.199695	0.237031	0.073527	0.156822	0.175687	0.213286	0.078231	0.165627	0.207856	0.218447	0.167731	0.352119	0.414135	0.357677	0.111813	0.207476	0.111295	0.144694
74	0.099979	0.188816	0.250222	0.183746	0.146860	0.176090	0.284202	0.188427	0.163037	0.240802	0.359490	0.427112	0.080570	0.240539	0.358680	0.230781	0.169431	0.246773	0.375299	0.203786	0.101384	0.120018	0.407425	0.268161	0.098946	0.116909	0.194062	0.179824	0.059872	0.415330	0.431241	0.337922	0.129390	0.183253	0.450553	0.383401	0.358042	0.179618	0.199932	0.211547	0.153736	0.191287	0.275366	0.334425	0.521314	0.805821	0.143895	0.235958	0.059043	0.153399	0.175871	0.239324	0.073469	0.169430	0.150205	0.208246	0.162673	0.354277	0.344508	0.348387	0.143574	0.273680	0.119252	0.147757
75	0.086465	0.182783	0.253573	0.214742	0.148578	0.176049	0.271480	0.188056	0.167526	0.314011	0.322548	0.365523	0.086191	0.207542	0.228805	0.175910	0.228575	0.340044	0.395932	0.223227	0.109716	0.120956	0.408425	0.257475	0.099724	0.122375	0.182336	0.174153	0.070022	0.428776	0.420683	0.338001	0.136768	0.221672	0.518598	0.402202	0.357358	0.221704	0.201382	0.191391	0.152665	0.185834	0.210339	0.276469	0.499248	0.761235	0.104948	0.231018	0.074975	0.154289	0.147047	0.255790	0.051666	0.154519	0.139543	0.176236	0.158446	0.312380	0.286053	0.419715	0.177916	0.331001	0.117142	0.150381
76	0.063677	0.190311	0.259848	0.247783	0.150558	0.176114	0.197758	0.174270	0.187625	0.423090	0.324578	0.356613	0.083851	0.181944	0.229007	0.175101	0.283200	0.341845	0.392014	0.217660	0.114391	0.121565	0.432379	0.260505	0.094160	0.117559	0.163221	0.176317	0.084642	0.450672	0.434276	0.339307	0.144032	0.221581	0.512449	0.384778	0.339183	0.229244	0.211107	0.188884	0.133015	0.165358	0.143759	0.244532	0.494675	0.709096	0.105455	0.183189	0.075074	0.158735	0.125818	0.257459	0.049072	0.151138	0.128812	0.150853	0.146181	0.294315	0.296724	0.469872	0.292081	0.544531	0.111153	0.162028
77	0.062423	0.242789	0.261298	0.250221	0.149279	0.188245	0.155321	0.138464	0.205692	0.444071	0.324563	0.356362	0.085713	0.183359	0.207887	0.188382	0.301468	0.441892	0.395312	0.188249	0.120687	0.119625	0.459523	0.273433	0.093015	0.113549	0.173555	0.181269	0.086986	0.457595	0.466573	0.339949	0.152716	0.228471	0.481587	0.355749	0.331558	0.246741	0.248377	0.236909	0.106273	0.137849	0.129413	0.232085	0.443809	0.668544	0.107077	0.140784	0.102675	0.182939	0.147620	0.262930	0.043706	0.147871	0.132095	0.124345	0.116860	0.264899	0.254746	0.477445	0.308764	0.564243	0.107187	0.161816
78	0.089086	0.331083	0.267718	0.256140	0.144018	0.193257	0.222897	0.117990	0.209721	0.441391	0.329047	0.344992	0.088300	0.176981	0.218264	0.192437	0.357104	0.511697	0.395015	0.217196	0.128989	0.124340	0.457642	0.286559	0.094514	0.109747	0.143859	0.181153	0.094886	0.460364	0.477369	0.340740	0.142727	0.236849	0.388019	0.278010	0.351190	0.233292	0.264871	0.250105	0.161440	0.134636	0.154858	0.271234	0.408348	0.587973	0.109355	0.134048	0.105296	0.192944	0.165858	0.300516	0.043523	0.144447	0.150562	0.120125	0.114596	0.262918	0.186785	0.487095	0.306858	0.561028	0.084742	0.166394
79	0.100486	0.343872	0.374559	0.329218	0.131794	0.196558	0.260352	0.115149	0.209726	0.429035	0.295363	0.351910	0.090885	0.140233	0.217674	0.189073	0.437311	0.634094	0.327094	0.230437	0.139046	0.131243	0.454001	0.288470	0.085851	0.106866	0.130891	0.168114	0.110093	0.484156	0.470698	0.338844	0.121461	0.228630	0.368796	0.262085	0.336443	0.225780	0.280867	0.243141	0.231881	0.195359	0.174621	0.248401	0.282919	0.289872	0.108739	0.090671	0.119527	0.198080	0.213371	0.308793	0.039243	0.115672	0.126834	0.086745	0.115393	0.259155	0.278887	0.592374	0.303459	0.554465	0.113862	0.176082
80	0.111084	0.332055	0.404119	0.346774	0.103257	0.213682	0.254648	0.121642	0.220593	0.453415	0.309818	0.342253	0.089749	0.131402	0.192682	0.188557	0.485089	0.642987	0.238756	0.225599	0.142889	0.134128	0.451096	0.288035	0.075493	0.101026	0.144604	0.124819	0.118281	0.505227	0.475128	0.341608	0.106098	0.224526	0.338461	0.226833	0.353235	0.218348	0.258776	0.217907	0.238139	0.204036	0.173022	0.234070	0.189037	0.183761	0.117351	0.048578	0.149474	0.226479	0.253063	0.344547	0.042063	0.117419	0.165272	0.065152	0.090728	0.223298	0.352585	0.608889	0.300167	0.555556	0.201437	0.199243
81	0.159624	0.382022	0.376855	0.339833	0.099403	0.210179	0.255121	0.126430	0.251855	0.496329	0.319584	0.238374	0.082628	0.128599	0.159046	0.166405	0.465732	0.615354	0.238985	0.239553	0.153364	0.137513	0.438044	0.286346	0.063105	0.087279	0.146605	0.102393	0.119352	0.465985	0.488495	0.341311	0.097320	0.208791	0.188953	0.197082	0.351896	0.211461	0.287499	0.245781	0.253199	0.207965	0.172558	0.214406	0.127710	0.105340	0.118315	0.048474	0.168629	0.257451	0.311371	0.353204	0.037676	0.092141	0.222304	0.073100	0.068529	0.175678	0.355991	0.567153	0.295123	0.553994	0.206030	0.173982
82	0.171780	0.489890	0.366437	0.328632	0.094084	0.175464	0.283399	0.126236	0.281622	0.488769	0.353971	0.257485	0.073127	0.134446	0.176875	0.131644	0.439356	0.564388	0.210983	0.235669	0.157955	0.125383	0.390978	0.266732	0.061147	0.083086	0.152357	0.098757	0.120082	0.452531	0.479409	0.325072	0.065170	0.203914	0.171468	0.188724	0.271241	0.210965	0.310865	0.265592	0.289957	0.229848	0.166454	0.204941	0.071151	0.083245	0.123237	0.052462	0.168522	0.268201	0.375523	0.316780	0.041492	0.091648	0.254594	0.070661	0.072737	0.133699	0.357131	0.565674	0.285518	0.528031	0.220500	0.182910
83	0.198957	0.512821	0.363807	0.285711	0.093486	0.152607	0.307823	0.109646	0.262795	0.381160	0.355232	0.268831	0.061938	0.123755	0.213692	0.163741	0.413634	0.605643	0.167805	0.249426	0.152811	0.097113	0.318810	0.213827	0.059758	0.087929	0.200133	0.098798	0.127507	0.476143	0.432398	0.262923	0.054043	0.213517	0.241586	0.306058	0.287596	0.159931	0.316413	0.262793	0.303517	0.324344	0.161799	0.194354	0.059833	0.083140	0.158609	0.057819	0.171107	0.262902	0.438782	0.374947	0.052278	0.097786	0.264502	0.080575	0.097587	0.128665	0.348829	0.540192	0.271952	0.522153	0.293717	0.225147
84	0.200360	0.510754	0.363438	0.272477	0.096331	0.148431	0.312869	0.097377	0.239204	0.331991	0.352742	0.271308	0.056164	0.113908	0.325284	0.183735	0.415094	0.583358	0.154110	0.253049	0.139356	0.098846	0.276230	0.168070	0.049054	0.091779	0.184201	0.143913	0.132628	0.435256	0.371710	0.184439	0.030227	0.182080	0.289413	0.313995	0.313178	0.139326	0.315607	0.258314	0.312021	0.363766	0.244728	0.242083	0.068708	0.092175	0.188342	0.064699	0.157397	0.252478	0.491031	0.470425	0.054958	0.105440	0.310715	0.090060	0.107209	0.130095	0.336727	0.481522	0.199144	0.341581	0.336387	0.233730
85	0.202726	0.464290	0.397037	0.315196	0.111341	0.156417	0.313426	0.099125	0.231066	0.346211	0.347081	0.318743	0.063737	0.109729	0.331650	0.188301	0.372621	0.525627	0.157042	0.235702	0.137086	0.123500	0.274254	0.158129	0.054212	0.106472	0.180955	0.146367	0.138810	0.406811	0.342051	0.167001	0.089806	0.212182	0.289791	0.317814	0.326966	0.120773	0.284159	0.214312	0.298733	0.354818	0.307050	0.238641	0.084787	0.102173	0.192049	0.064600	0.162366	0.288729	0.522849	0.476590	0.055933	0.110244	0.316901	0.112900	0.109272	0.089301	0.365312	0.451364	0.111894	0.201030	0.343190	0.227186
86	0.201427	0.427080	0.409970	0.307572	0.114737	0.161621	0.324217	0.106358	0.247037	0.365095	0.359646	0.348120	0.069407	0.111215	0.382483	0.189933	0.281440	0.359476	0.153974	0.223463	0.132678	0.136682	0.252179	0.157746	0.047698	0.103590	0.176105	0.162552	0.137233	0.402781	0.339382	0.171988	0.129708	0.224362	0.288979	0.364156	0.331414	0.185478	0.270179	0.209763	0.244328	0.340577	0.320390	0.261898	0.095756	0.121826	0.194696	0.068242	0.177635	0.293604	0.511570	0.461154	0.056193	0.098977	0.318451	0.131102	0.112109	0.088500	0.403936	0.460694	0.140778	0.212816	0.366877	0.228187
87	0.221750	0.432146	0.305913	0.254081	0.111132	0.188861	0.343972	0.107651	0.243675	0.357996	0.324467	0.330007	0.069199	0.107336	0.403663	0.186079	0.152136	0.329019	0.162163	0.273093	0.131617	0.143928	0.196681	0.144652	0.054644	0.098866	0.171773	0.174997	0.129808	0.387361	0.329447	0.169669	0.131379	0.219617	0.290217	0.395008	0.375924	0.190417	0.249649	0.209104	0.226227	0.325894	0.338306	0.278304	0.098187	0.128243	0.202237	0.088913	0.184839	0.283547	0.509042	0.431980	0.060785	0.097943	0.309326	0.138520	0.116782	0.104946	0.433157	0.393786	0.200848	0.213347	0.411890	0.336544
88	0.213596	0.445396	0.346757	0.262881	0.110566	0.200802	0.348960	0.101486	0.235317	0.382639	0.308295	0.333510	0.070662	0.095280	0.403941	0.187435	0.152320	0.336135	0.158895	0.269053	0.123533	0.149912	0.141025	0.111217	0.060287	0.102361	0.188259	0.176286	0.123296	0.365906	0.286848	0.150927	0.132311	0.228968	0.335903	0.405741	0.374835	0.209040	0.241818	0.203162	0.233987	0.326581	0.339732	0.286568	0.096742	0.125151	0.213831	0.101826	0.174895	0.260376	0.481105	0.404622	0.068107	0.094167	0.266898	0.181015	0.114448	0.119604	0.392546	0.343525	0.215277	0.208392	0.396106	0.348317
89	0.185351	0.333625	0.384335	0.273064	0.110790	0.190615	0.319517	0.100730	0.183857	0.400365	0.294873	0.308377	0.064774	0.091889	0.398086	0.161321	0.146560	0.337019	0.151791	0.265467	0.117572	0.155197	0.137807	0.081811	0.068348	0.091993	0.162082	0.178969	0.135553	0.369023	0.231633	0.124991	0.143562	0.248052	0.324029	0.342510	0.418761	0.222199	0.187688	0.166518	0.180269	0.329679	0.344151	0.290741	0.096418	0.118316	0.233652	0.104300	0.168849	0.247576	0.432545	0.401765	0.087407	0.112563	0.250297	0.221077	0.118452	0.119750	0.392245	0.389652	0.217158	0.203787	0.388629	0.358601
90	0.166091	0.244465	0.381700	0.275513	0.110739	0.187060	0.278960	0.098519	0.183040	0.402335	0.279181	0.293591	0.066280	0.097467	0.342607	0.142906	0.125503	0.269434	0.144347	0.251156	0.115181	0.168901	0.131463	0.079326	0.074407	0.100202	0.118071	0.130701	0.138983	0.356475	0.201488	0.102879	0.145965	0.243060	0.351601	0.302127	0.417103	0.225098	0.152814	0.148416	0.156914	0.310972	0.400521	0.326271	0.099075	0.111245	0.233676	0.106568	0.167882	0.249234	0.365873	0.346198	0.105542	0.131570	0.248291	0.224438	0.127711	0.128082	0.392850	0.377573	0.240528	0.202418	0.399554	0.374002
91	0.146955	0.200853	0.392249	0.278113	0.115656	0.154391	0.279473	0.092294	0.181943	0.408092	0.277493	0.297820	0.060551	0.092587	0.337928	0.170282	0.072355	0.145389	0.169264	0.245613	0.140825	0.183343	0.131184	0.077659	0.099014	0.115105	0.124544	0.127108	0.128574	0.298075	0.203419	0.096901	0.139277	0.223721	0.347716	0.313764	0.397778	0.223137	0.147260	0.146850	0.161880	0.201127	0.417447	0.334080	0.098848	0.112996	0.232842	0.110979	0.173955	0.240335	0.278130	0.208209	0.122211	0.134488	0.198258	0.222378	0.113402	0.127848	0.407371	0.389941	0.276011	0.197230	0.384552	0.384821
92	0.146306	0.213313	0.413969	0.272217	0.119958	0.155230	0.269003	0.088423	0.179446	0.390860	0.332390	0.318545	0.050478	0.073323	0.319411	0.201056	0.070906	0.135649	0.187270	0.245992	0.210247	0.233781	0.126678	0.072965	0.097690	0.099315	0.123365	0.122668	0.123996	0.257809	0.169001	0.090221	0.093615	0.191930	0.363565	0.287233	0.384952	0.222431	0.146644	0.143774	0.134709	0.206793	0.383255	0.315393	0.094553	0.127702	0.234414	0.115272	0.173186	0.186282	0.332624	0.319480	0.124813	0.130320	0.159254	0.215405	0.100034	0.121103	0.425538	0.442547	0.285106	0.216693	0.340278	0.368033
93	0.137083	0.243060	0.369874	0.203975	0.113475	0.176308	0.235398	0.091108	0.156122	0.365439	0.371386	0.356351	0.060091	0.064735	0.313681	0.201773	0.069493	0.176237	0.204876	0.230182	0.223982	0.277964	0.116529	0.068753	0.095316	0.099732	0.118895	0.088208	0.123218	0.251639	0.146747	0.090770	0.090419	0.185893	0.374533	0.268739	0.373772	0.209721	0.170723	0.144761	0.137017	0.195321	0.379043	0.290364	0.094689	0.135418	0.225256	0.118253	0.164436	0.176227	0.513793	0.369340	0.124149	0.127398	0.150802	0.201280	0.107705	0.112377	0.470503	0.453241	0.280278	0.210376	0.333352	0.377433
94	0.108101	0.241825	0.353189	0.190793	0.100033	0.178701	0.200731	0.088545	0.153633	0.349140	0.420328	0.368742	0.079409	0.081553	0.301142	0.204392	0.081878	0.207062	0.218892	0.196232	0.238886	0.289783	0.116132	0.065504	0.090618	0.098474	0.147093	0.116406	0.118387	0.170622	0.149225	0.094943	0.087905	0.168530	0.402308	0.361146	0.326074	0.157896	0.201204	0.135666	0.152223	0.186250	0.354927	0.295033	0.093411	0.133674	0.196929	0.121349	0.165613	0.182057	0.515191	0.371529	0.127670	0.121815	0.149617	0.198279	0.111482	0.113026	0.436832	0.470217	0.274047	0.179563	0.332729	0.380910
95	0.060143	0.212895	0.350010	0.127176	0.097587	0.202625	0.193741	0.088062	0.142677	0.283505	0.412007	0.376737	0.083942	0.110922	0.302274	0.216166	0.084580	0.213618	0.223107	0.178365	0.271371	0.386945	0.120872	0.046153	0.084628	0.098983	0.163304	0.137547	0.111321	0.158274	0.133620	0.094770	0.088073	0.107795	0.437737	0.364744	0.281402	0.154749	0.198426	0.159077	0.138731	0.197427	0.371481	0.292524	0.081061	0.135520	0.178983	0.125077	0.180017	0.202170	0.620481	0.403840	0.128457	0.126167	0.156218	0.166522	0.102888	0.136003	0.424728	0.483347	0.235088	0.175535	0.271903	0.335659
96	0.047943	0.187583	0.261535	0.110670	0.079987	0.213347	0.202239	0.093996	0.134586	0.180789	0.381243	0.377495	0.090292	0.120040	0.284544	0.211391	0.097010	0.204459	0.227631	0.182669	0.322831	0.406858	0.122220	0.024846	0.081555	0.100338	0.181334	0.137708	0.106519	0.177431	0.109778	0.086468	0.128346	0.178602	0.381374	0.378308	0.215597	0.123800	0.221433	0.159738	0.133453	0.198891	0.448130	0.310210	0.063696	0.128638	0.178235	0.127108	0.184816	0.209204	0.703353	0.476719	0.126052	0.118568	0.197930	0.128728	0.098927	0.124509	0.485086	0.470838	0.212248	0.178408	0.222812	0.253213
97	0.057696	0.172082	0.263069	0.084379	0.068159	0.223978	0.196907	0.094441	0.135113	0.173898	0.379538	0.418843	0.101250	0.118687	0.283675	0.197335	0.137130	0.242501	0.263127	0.213511	0.326589	0.466607	0.119719	0.024081	0.043489	0.066815	0.217053	0.168927	0.105003	0.165990	0.107100	0.070291	0.136373	0.189617	0.374434	0.451698	0.100883	0.105137	0.221976	0.113893	0.148357	0.167083	0.494804	0.297541	0.047654	0.113661	0.172973	0.122726	0.227735	0.247555	0.707738	0.497381	0.109240	0.090449	0.200771	0.112613	0.103034	0.122416	0.467396	0.441933	0.205489	0.174160	0.216364	0.244958
98	0.056689	0.173216	0.265487	0.093759	0.076404	0.229139	0.158362	0.090518	0.134693	0.162953	0.401924	0.456844	0.101234	0.119180	0.252698	0.150296	0.200080	0.324746	0.249701	0.223752	0.326694	0.517484	0.132248	0.022933	0.041679	0.062789	0.224114	0.180769	0.106552	0.150807	0.108083	0.062938	0.144401	0.188245	0.369499	0.474416	0.111255	0.109810	0.228191	0.116382	0.134548	0.176364	0.478180	0.254134	0.042896	0.109654	0.167257	0.113627	0.248423	0.276305	0.714918	0.512835	0.092612	0.079870	0.201382	0.112437	0.098498	0.120007	0.515407	0.445226	0.202200	0.172514	0.193406	0.208399
99	0.058590	0.154871	0.246616	0.088167	0.078334	0.236069	0.135707	0.090067	0.159906	0.160163	0.397176	0.463539	0.102416	0.127706	0.225240	0.149008	0.293591	0.513554	0.237018	0.223848	0.325904	0.522619	0.143229	0.031828	0.060246	0.076983	0.250500	0.188865	0.110731	0.150662	0.113946	0.067592	0.143313	0.181396	0.345217	0.485995	0.093565	0.143062	0.218772	0.131194	0.138638	0.210526	0.464186	0.251943	0.042159	0.112141	0.151141	0.105422	0.246063	0.277434	0.671374	0.427441	0.083916	0.092345	0.201698	0.107971	0.103646	0.161601	0.574692	0.440695	0.164128	0.226410	0.158052	0.156515
100	0.067916	0.137126	0.311568	0.126876	0.079808	0.281763	0.138049	0.085028	0.163461	0.168909	0.470228	0.402380	0.083438	0.119197	0.204939	0.156701	0.358292	0.677922	0.221801	0.219458	0.326662	0.559297	0.146596	0.038574	0.061216	0.069549	0.267319	0.197516	0.109509	0.146409	0.171126	0.142676	0.145596	0.232886	0.359979	0.438290	0.137081	0.173177	0.216121	0.146142	0.165781	0.219413	0.517593	0.236550	0.042760	0.113753	0.131670	0.104640	0.236766	0.267462	0.544973	0.387129	0.099082	0.124673	0.207845	0.109538	0.111325	0.170362	0.572305	0.403346	0.224474	0.238496	0.133016	0.155278
101	0.070558	0.121877	0.341087	0.140946	0.079788	0.285793	0.151702	0.086438	0.188245	0.223610	0.508465	0.379083	0.080359	0.099811	0.193618	0.175785	0.487720	0.728284	0.199314	0.198624	0.337213	0.556314	0.146921	0.042112	0.068325	0.077865	0.235596	0.170470	0.077499	0.141500	0.200508	0.165251	0.148017	0.245427	0.331932	0.514108	0.188425	0.224823	0.194258	0.145195	0.162946	0.319887	0.565076	0.251486	0.044951	0.121249	0.138021	0.102091	0.215378	0.254565	0.530636	0.396268	0.094554	0.153706	0.213628	0.117226	0.105965	0.171083	0.616518	0.349972	0.239856	0.231232	0.121578	0.144059
