	152_P_T1_sh_R_D_A_01.c3d	152_P_T1_sh_R_D_A_01.c3d	152_P_T1_sh_R_D_A_01.c3d	152_P_T1_sh_R_D_A_01.c3d	152_P_T1_sh_R_D_A_01.c3d	152_P_T1_sh_R_D_A_01.c3d	152_P_T1_sh_R_D_A_01.c3d	152_P_T1_sh_R_D_A_01.c3d	152_P_T1_sh_R_D_A_02.c3d	152_P_T1_sh_R_D_A_02.c3d	152_P_T1_sh_R_D_A_02.c3d	152_P_T1_sh_R_D_A_02.c3d	152_P_T1_sh_R_D_A_02.c3d	152_P_T1_sh_R_D_A_02.c3d	152_P_T1_sh_R_D_A_02.c3d	152_P_T1_sh_R_D_A_02.c3d	152_P_T1_sh_R_D_A_03.c3d	152_P_T1_sh_R_D_A_03.c3d	152_P_T1_sh_R_D_A_03.c3d	152_P_T1_sh_R_D_A_03.c3d	152_P_T1_sh_R_D_A_03.c3d	152_P_T1_sh_R_D_A_03.c3d	152_P_T1_sh_R_D_A_03.c3d	152_P_T1_sh_R_D_A_03.c3d	152_P_T1_sh_R_D_A_04.c3d	152_P_T1_sh_R_D_A_04.c3d	152_P_T1_sh_R_D_A_04.c3d	152_P_T1_sh_R_D_A_04.c3d	152_P_T1_sh_R_D_A_04.c3d	152_P_T1_sh_R_D_A_04.c3d	152_P_T1_sh_R_D_A_04.c3d	152_P_T1_sh_R_D_A_04.c3d	152_P_T1_sh_R_D_A_05.c3d	152_P_T1_sh_R_D_A_05.c3d	152_P_T1_sh_R_D_A_05.c3d	152_P_T1_sh_R_D_A_05.c3d	152_P_T1_sh_R_D_A_05.c3d	152_P_T1_sh_R_D_A_05.c3d	152_P_T1_sh_R_D_A_05.c3d	152_P_T1_sh_R_D_A_05.c3d	152_P_T1_sh_R_D_A_06.c3d	152_P_T1_sh_R_D_A_06.c3d	152_P_T1_sh_R_D_A_06.c3d	152_P_T1_sh_R_D_A_06.c3d	152_P_T1_sh_R_D_A_06.c3d	152_P_T1_sh_R_D_A_06.c3d	152_P_T1_sh_R_D_A_06.c3d	152_P_T1_sh_R_D_A_06.c3d	152_P_T1_sh_R_D_A_07.c3d	152_P_T1_sh_R_D_A_07.c3d	152_P_T1_sh_R_D_A_07.c3d	152_P_T1_sh_R_D_A_07.c3d	152_P_T1_sh_R_D_A_07.c3d	152_P_T1_sh_R_D_A_07.c3d	152_P_T1_sh_R_D_A_07.c3d	152_P_T1_sh_R_D_A_07.c3d	152_P_T1_sh_R_D_A_08.c3d	152_P_T1_sh_R_D_A_08.c3d	152_P_T1_sh_R_D_A_08.c3d	152_P_T1_sh_R_D_A_08.c3d	152_P_T1_sh_R_D_A_08.c3d	152_P_T1_sh_R_D_A_08.c3d	152_P_T1_sh_R_D_A_08.c3d	152_P_T1_sh_R_D_A_08.c3d	152_P_T1_sh_R_D_A_10.c3d	152_P_T1_sh_R_D_A_10.c3d	152_P_T1_sh_R_D_A_10.c3d	152_P_T1_sh_R_D_A_10.c3d	152_P_T1_sh_R_D_A_10.c3d	152_P_T1_sh_R_D_A_10.c3d	152_P_T1_sh_R_D_A_10.c3d	152_P_T1_sh_R_D_A_10.c3d
	Biceps femoris_lat	Semitendinosus_lat	Vastus lateralis_lat	Vastus medialis_lat	Biceps femoris_med	Semitendinosus_med	Vastus lateralis_med	Vastus medialis_med	Biceps femoris_lat	Semitendinosus_lat	Vastus lateralis_lat	Vastus medialis_lat	Biceps femoris_med	Semitendinosus_med	Vastus lateralis_med	Vastus medialis_med	Biceps femoris_lat	Semitendinosus_lat	Vastus lateralis_lat	Vastus medialis_lat	Biceps femoris_med	Semitendinosus_med	Vastus lateralis_med	Vastus medialis_med	Biceps femoris_lat	Semitendinosus_lat	Vastus lateralis_lat	Vastus medialis_lat	Biceps femoris_med	Semitendinosus_med	Vastus lateralis_med	Vastus medialis_med	Biceps femoris_lat	Semitendinosus_lat	Vastus lateralis_lat	Vastus medialis_lat	Biceps femoris_med	Semitendinosus_med	Vastus lateralis_med	Vastus medialis_med	Biceps femoris_lat	Semitendinosus_lat	Vastus lateralis_lat	Vastus medialis_lat	Biceps femoris_med	Semitendinosus_med	Vastus lateralis_med	Vastus medialis_med	Biceps femoris_lat	Semitendinosus_lat	Vastus lateralis_lat	Vastus medialis_lat	Biceps femoris_med	Semitendinosus_med	Vastus lateralis_med	Vastus medialis_med	Biceps femoris_lat	Semitendinosus_lat	Vastus lateralis_lat	Vastus medialis_lat	Biceps femoris_med	Semitendinosus_med	Vastus lateralis_med	Vastus medialis_med	Biceps femoris_lat	Semitendinosus_lat	Vastus lateralis_lat	Vastus medialis_lat	Biceps femoris_med	Semitendinosus_med	Vastus lateralis_med	Vastus medialis_med
	P2D	P2D	P2D	P2D	P2D	P2D	P2D	P2D	P2D	P2D	P2D	P2D	P2D	P2D	P2D	P2D	P2D	P2D	P2D	P2D	P2D	P2D	P2D	P2D	P2D	P2D	P2D	P2D	P2D	P2D	P2D	P2D	P2D	P2D	P2D	P2D	P2D	P2D	P2D	P2D	P2D	P2D	P2D	P2D	P2D	P2D	P2D	P2D	P2D	P2D	P2D	P2D	P2D	P2D	P2D	P2D	P2D	P2D	P2D	P2D	P2D	P2D	P2D	P2D	P2D	P2D	P2D	P2D	P2D	P2D	P2D	P2D
	EMG_lat	EMG_lat	EMG_lat	EMG_lat	EMG_med	EMG_med	EMG_med	EMG_med	EMG_lat	EMG_lat	EMG_lat	EMG_lat	EMG_med	EMG_med	EMG_med	EMG_med	EMG_lat	EMG_lat	EMG_lat	EMG_lat	EMG_med	EMG_med	EMG_med	EMG_med	EMG_lat	EMG_lat	EMG_lat	EMG_lat	EMG_med	EMG_med	EMG_med	EMG_med	EMG_lat	EMG_lat	EMG_lat	EMG_lat	EMG_med	EMG_med	EMG_med	EMG_med	EMG_lat	EMG_lat	EMG_lat	EMG_lat	EMG_med	EMG_med	EMG_med	EMG_med	EMG_lat	EMG_lat	EMG_lat	EMG_lat	EMG_med	EMG_med	EMG_med	EMG_med	EMG_lat	EMG_lat	EMG_lat	EMG_lat	EMG_med	EMG_med	EMG_med	EMG_med	EMG_lat	EMG_lat	EMG_lat	EMG_lat	EMG_med	EMG_med	EMG_med	EMG_med
ITEM	Y	Y	Y	Y	Y	Y	Y	Y	Y	Y	Y	Y	Y	Y	Y	Y	Y	Y	Y	Y	Y	Y	Y	Y	Y	Y	Y	Y	Y	Y	Y	Y	Y	Y	Y	Y	Y	Y	Y	Y	Y	Y	Y	Y	Y	Y	Y	Y	Y	Y	Y	Y	Y	Y	Y	Y	Y	Y	Y	Y	Y	Y	Y	Y	Y	Y	Y	Y	Y	Y	Y	Y
1	0.082910	0.120466	0.245469	0.098699	0.571988	0.519650	0.286472	0.335700	0.249582	0.284527	0.238120	0.308142	0.507300	0.505408	0.319566	0.382028	0.370330	0.312948	0.225360	0.326603	0.307226	0.209656	0.181130	0.526860	0.170679	0.097362	0.274687	0.218836	0.849960	0.527252	0.329055	0.223316	0.475045	0.583965	0.214339	0.144446	0.212715	0.217775	0.611616	0.485119	0.684071	0.696657	0.257022	0.326301	0.226965	0.182574	0.252840	0.324913	0.205079	0.222154	0.275082	0.198877	0.925746	0.697280	0.268539	0.322556	0.276872	0.407771	0.227798	0.158486	0.271973	0.269302	0.435749	0.228528	0.120588	0.082633	0.219793	0.183418	0.418706	0.385015	0.540624	0.038161
2	0.090026	0.112598	0.246055	0.125233	0.520206	0.467211	0.256285	0.337350	0.255339	0.282096	0.239627	0.314944	0.517736	0.512208	0.335916	0.374475	0.427924	0.325108	0.238851	0.320898	0.269304	0.164642	0.273546	0.524188	0.152638	0.106129	0.269721	0.217822	0.826197	0.486972	0.328817	0.240631	0.469337	0.582395	0.204610	0.139106	0.226768	0.204894	0.610539	0.487212	0.691470	0.699716	0.252176	0.325172	0.306385	0.286920	0.246415	0.358504	0.230011	0.228739	0.257252	0.195150	0.926795	0.696302	0.269298	0.339617	0.346697	0.461766	0.237869	0.162482	0.259010	0.268222	0.436977	0.206245	0.133945	0.087811	0.219181	0.182905	0.468902	0.437438	0.524967	0.045549
3	0.103222	0.096845	0.259064	0.338887	0.438153	0.424622	0.232541	0.330232	0.263627	0.309949	0.247301	0.321052	0.490366	0.491078	0.370391	0.354217	0.445885	0.328010	0.238841	0.330646	0.232609	0.142992	0.296932	0.569261	0.171577	0.132048	0.264301	0.219463	0.716548	0.391034	0.318825	0.235580	0.445501	0.579669	0.188400	0.140684	0.242523	0.209453	0.611565	0.488190	0.695188	0.701439	0.243908	0.325250	0.316623	0.297744	0.246423	0.359791	0.230827	0.228360	0.242646	0.194728	0.934366	0.696227	0.294573	0.355408	0.358116	0.471161	0.252907	0.170795	0.265267	0.269889	0.436606	0.213425	0.139425	0.107238	0.225282	0.185706	0.478407	0.438828	0.529271	0.115438
4	0.099243	0.091942	0.251725	0.370531	0.400978	0.350643	0.232015	0.307604	0.278827	0.331750	0.332374	0.320495	0.497972	0.492785	0.371015	0.354525	0.458947	0.344034	0.191244	0.292551	0.198283	0.140451	0.298748	0.676764	0.189832	0.185454	0.247031	0.221548	0.611610	0.340080	0.315854	0.252602	0.455566	0.579671	0.153668	0.135614	0.238517	0.207769	0.613393	0.488886	0.695240	0.698765	0.243357	0.325278	0.378382	0.358064	0.245973	0.369022	0.227104	0.214726	0.246677	0.193996	0.943508	0.699155	0.311934	0.362370	0.375000	0.498907	0.267064	0.171989	0.252979	0.240517	0.434196	0.237931	0.226639	0.195204	0.241575	0.195569	0.458344	0.401749	0.554952	0.372656
5	0.109776	0.121134	0.252995	0.376092	0.312858	0.303319	0.232599	0.302121	0.280388	0.336583	0.368285	0.307325	0.492445	0.485337	0.384564	0.347742	0.523941	0.388490	0.206649	0.223324	0.193344	0.143025	0.311317	0.772638	0.215982	0.240646	0.262731	0.225199	0.580030	0.320523	0.318224	0.257131	0.462831	0.592209	0.144772	0.112087	0.238952	0.208828	0.600134	0.434617	0.690706	0.674604	0.244020	0.326164	0.377421	0.359834	0.237681	0.373733	0.227573	0.196569	0.260671	0.195033	0.946079	0.711904	0.316222	0.362698	0.381067	0.511133	0.273807	0.181013	0.260509	0.226140	0.420209	0.264643	0.355890	0.365233	0.234006	0.206634	0.455536	0.411060	0.515302	0.437392
6	0.178502	0.228587	0.252062	0.382472	0.306211	0.308988	0.225877	0.356614	0.279782	0.333515	0.367846	0.293059	0.485653	0.488352	0.392825	0.336146	0.530192	0.434371	0.233234	0.200334	0.180368	0.154097	0.322625	0.780311	0.299589	0.303846	0.265693	0.218994	0.551091	0.292636	0.297849	0.253242	0.463626	0.599819	0.148411	0.109247	0.229655	0.185236	0.542860	0.346720	0.676809	0.628477	0.225002	0.267424	0.374529	0.371146	0.219228	0.376865	0.244173	0.205066	0.252531	0.194654	0.943784	0.710265	0.315384	0.363603	0.378350	0.518382	0.281076	0.184225	0.254479	0.226151	0.398486	0.270311	0.391312	0.399650	0.212223	0.210166	0.451497	0.409091	0.485636	0.476955
7	0.269263	0.306030	0.282338	0.412200	0.308809	0.312757	0.169760	0.428317	0.271387	0.328563	0.367084	0.300431	0.490081	0.497051	0.403508	0.331943	0.488205	0.426239	0.269878	0.176294	0.188713	0.198854	0.349616	0.789486	0.344051	0.315076	0.258144	0.221956	0.378791	0.245789	0.256752	0.269784	0.463225	0.601713	0.158452	0.091250	0.232771	0.194280	0.491092	0.341537	0.643744	0.571059	0.212932	0.229730	0.373766	0.370151	0.208277	0.302297	0.260303	0.234461	0.249162	0.185263	0.897771	0.657110	0.306830	0.366736	0.377399	0.519751	0.276198	0.182530	0.205101	0.224439	0.405337	0.273498	0.391444	0.400417	0.228322	0.211912	0.452557	0.407469	0.488538	0.546951
8	0.276544	0.310733	0.297582	0.433166	0.331382	0.326541	0.097985	0.418853	0.249288	0.307259	0.363634	0.379226	0.528085	0.522119	0.438434	0.326556	0.411523	0.352131	0.265848	0.136931	0.179009	0.200066	0.384192	0.784231	0.347892	0.332682	0.255859	0.268921	0.286331	0.239453	0.209910	0.267867	0.456176	0.582056	0.156179	0.088749	0.211403	0.181789	0.526051	0.472658	0.605637	0.569883	0.198957	0.218098	0.389852	0.399245	0.239736	0.285586	0.279727	0.259922	0.244573	0.220344	0.640007	0.437687	0.306434	0.365753	0.379739	0.520206	0.263750	0.178753	0.169962	0.194891	0.396323	0.263469	0.392047	0.406599	0.240770	0.207973	0.411714	0.382329	0.486803	0.578483
9	0.281983	0.340181	0.288429	0.450934	0.348190	0.333342	0.093579	0.403481	0.237216	0.273323	0.417782	0.479453	0.502054	0.510151	0.467886	0.321076	0.380621	0.361592	0.230019	0.135248	0.215144	0.230797	0.389711	0.753903	0.411987	0.390289	0.269232	0.303041	0.228956	0.214263	0.209812	0.265270	0.385663	0.488457	0.183109	0.134811	0.213511	0.221289	0.632654	0.661927	0.503448	0.491161	0.184945	0.191518	0.394357	0.414226	0.241567	0.279689	0.300953	0.274457	0.251733	0.308842	0.578989	0.348907	0.300298	0.353145	0.388525	0.525499	0.253436	0.190302	0.195959	0.192810	0.286294	0.255057	0.394901	0.406839	0.250321	0.203343	0.390955	0.379027	0.488055	0.592354
10	0.320790	0.388647	0.298847	0.468798	0.348391	0.325970	0.122888	0.439033	0.235905	0.280501	0.461698	0.493445	0.489878	0.513246	0.483052	0.200298	0.448993	0.448030	0.225110	0.186484	0.231051	0.237385	0.390481	0.750807	0.483853	0.471339	0.283257	0.277633	0.169927	0.223552	0.220161	0.268624	0.308100	0.391148	0.173659	0.171114	0.206231	0.235887	0.621372	0.665842	0.460844	0.417703	0.182144	0.182187	0.382694	0.411793	0.260950	0.257478	0.310276	0.290223	0.263460	0.313213	0.470129	0.268015	0.275149	0.286761	0.397817	0.527239	0.243998	0.220411	0.224786	0.182050	0.255399	0.302007	0.404449	0.439613	0.249379	0.201389	0.318148	0.369829	0.469523	0.597315
11	0.329332	0.409534	0.286843	0.473488	0.396318	0.328222	0.210849	0.467779	0.225135	0.257738	0.444625	0.483537	0.440405	0.419756	0.476482	0.201819	0.401867	0.425575	0.218883	0.260198	0.318160	0.346321	0.389456	0.772079	0.517426	0.496068	0.295131	0.279076	0.181665	0.239016	0.209241	0.287488	0.286990	0.314633	0.154031	0.187663	0.235358	0.273887	0.563935	0.677086	0.308714	0.244827	0.152846	0.170120	0.310949	0.356392	0.268729	0.186642	0.307309	0.310124	0.272082	0.323177	0.363053	0.262211	0.257355	0.265786	0.398286	0.542832	0.247328	0.222594	0.225785	0.186772	0.249858	0.351225	0.407935	0.453354	0.246744	0.171528	0.303486	0.343634	0.370484	0.598459
12	0.376603	0.476461	0.261555	0.476989	0.364001	0.271811	0.229749	0.468736	0.218850	0.268311	0.438357	0.506320	0.446295	0.381731	0.463667	0.233334	0.367215	0.405588	0.267484	0.273834	0.396283	0.443074	0.354998	0.776153	0.529530	0.507275	0.297249	0.265833	0.189917	0.253790	0.207325	0.276280	0.239996	0.214682	0.186415	0.189931	0.239254	0.283202	0.541332	0.737059	0.235473	0.183427	0.145288	0.165367	0.311373	0.353789	0.264557	0.168228	0.329872	0.338911	0.278124	0.332701	0.361214	0.275698	0.243369	0.255691	0.393107	0.533339	0.252181	0.246931	0.241060	0.180339	0.252257	0.368626	0.458116	0.543307	0.257415	0.161986	0.288494	0.325493	0.364336	0.598935
13	0.422599	0.514234	0.277442	0.423134	0.383445	0.274988	0.230038	0.449685	0.241199	0.285439	0.447813	0.515725	0.503772	0.409076	0.427434	0.235028	0.339701	0.344714	0.237569	0.285617	0.422581	0.526765	0.347386	0.753994	0.530797	0.506239	0.266752	0.248848	0.240725	0.342795	0.270315	0.264774	0.239646	0.208406	0.226979	0.200719	0.225069	0.296640	0.545022	0.791689	0.211531	0.173934	0.139385	0.155903	0.304198	0.344968	0.265705	0.159597	0.349371	0.344051	0.270430	0.321552	0.360816	0.281597	0.247138	0.250460	0.401744	0.517895	0.250690	0.255304	0.247803	0.182428	0.252461	0.371708	0.533895	0.574291	0.270586	0.170439	0.167254	0.235432	0.358849	0.598233
14	0.442465	0.532887	0.307956	0.318113	0.376768	0.275042	0.267966	0.500429	0.257034	0.295091	0.505384	0.518317	0.494504	0.411107	0.425093	0.233076	0.348813	0.355143	0.226671	0.288465	0.474151	0.594159	0.349305	0.671178	0.539339	0.520971	0.274650	0.251284	0.301028	0.408906	0.316243	0.281245	0.261140	0.215802	0.257632	0.211455	0.196295	0.281206	0.550360	0.804474	0.168267	0.163740	0.112945	0.148395	0.297711	0.331716	0.275769	0.160116	0.357709	0.348869	0.264165	0.324129	0.351021	0.282023	0.287594	0.235839	0.362763	0.436327	0.248921	0.238322	0.276618	0.204521	0.258865	0.388271	0.545351	0.585725	0.268987	0.175599	0.136545	0.232044	0.339831	0.590060
15	0.449702	0.532733	0.306789	0.313676	0.383180	0.281513	0.316790	0.561015	0.263807	0.314800	0.505471	0.517283	0.546788	0.454395	0.398716	0.229911	0.332385	0.387508	0.266223	0.293744	0.485747	0.608986	0.338744	0.529746	0.544640	0.536771	0.280691	0.261448	0.304972	0.411503	0.310253	0.296378	0.255327	0.205089	0.261938	0.214143	0.200632	0.287910	0.553231	0.805571	0.149786	0.160959	0.106999	0.148965	0.304302	0.345861	0.280064	0.153853	0.359740	0.349526	0.258634	0.329598	0.331897	0.283053	0.281096	0.270224	0.329650	0.420020	0.237406	0.236328	0.283641	0.219130	0.273381	0.410989	0.545508	0.590907	0.269543	0.177795	0.134115	0.227870	0.292248	0.506015
16	0.446560	0.514322	0.305679	0.339286	0.423024	0.309677	0.329135	0.599230	0.275332	0.319186	0.467087	0.511591	0.539132	0.475483	0.376861	0.227900	0.279336	0.320565	0.270919	0.317011	0.485692	0.608752	0.321162	0.519745	0.541967	0.522479	0.279229	0.263390	0.315239	0.405470	0.320438	0.287102	0.274587	0.216618	0.286119	0.214207	0.201903	0.291462	0.553130	0.812766	0.142604	0.158941	0.119789	0.154436	0.353962	0.373945	0.270140	0.151244	0.363184	0.349119	0.253259	0.330703	0.308515	0.225517	0.275556	0.302859	0.334371	0.422678	0.216943	0.238082	0.282761	0.223338	0.292262	0.415909	0.538770	0.585343	0.258108	0.172508	0.151050	0.161427	0.277497	0.496005
17	0.401120	0.470189	0.299675	0.346515	0.454754	0.332255	0.331557	0.606015	0.275158	0.320346	0.460110	0.511265	0.553045	0.502860	0.373890	0.227887	0.190962	0.263174	0.268579	0.243041	0.480276	0.594172	0.296343	0.457047	0.541789	0.506791	0.261550	0.262253	0.312917	0.391534	0.330849	0.294342	0.295333	0.246881	0.317073	0.211031	0.199649	0.285501	0.550080	0.824635	0.205387	0.231161	0.123484	0.169980	0.344934	0.364945	0.237080	0.150344	0.366742	0.350709	0.248060	0.338978	0.310055	0.229104	0.275201	0.304750	0.322244	0.398088	0.195595	0.237527	0.276770	0.221977	0.295644	0.395035	0.497134	0.553704	0.256847	0.164866	0.161456	0.141795	0.289161	0.502918
18	0.381390	0.452531	0.290641	0.315862	0.458173	0.338861	0.331071	0.604640	0.275245	0.312997	0.461008	0.516585	0.573163	0.554319	0.380275	0.235861	0.192924	0.263177	0.251562	0.219967	0.478690	0.587519	0.244913	0.437739	0.516199	0.506838	0.258229	0.272404	0.315979	0.392679	0.329246	0.273069	0.317329	0.284363	0.321325	0.210942	0.194991	0.278978	0.550844	0.826058	0.279442	0.314545	0.128349	0.202224	0.326883	0.334664	0.210966	0.138564	0.358768	0.349757	0.239446	0.356713	0.305135	0.228520	0.271700	0.313031	0.319960	0.387726	0.188940	0.230398	0.260592	0.207509	0.296250	0.374377	0.416635	0.459426	0.261491	0.170064	0.152014	0.134625	0.304844	0.431637
19	0.380486	0.452724	0.298973	0.303831	0.473020	0.348540	0.332219	0.556453	0.274149	0.299637	0.470335	0.499118	0.583273	0.567932	0.373020	0.238786	0.196514	0.269264	0.197979	0.216531	0.495265	0.608172	0.224483	0.417408	0.500283	0.525593	0.261750	0.272863	0.316680	0.389384	0.324429	0.261565	0.324275	0.288826	0.324406	0.212168	0.195357	0.273209	0.541731	0.807785	0.289086	0.332858	0.123088	0.209291	0.329712	0.327693	0.192883	0.138501	0.345241	0.343027	0.244562	0.374846	0.303227	0.228082	0.271151	0.362065	0.323263	0.384146	0.150601	0.245090	0.272714	0.206562	0.286903	0.368287	0.403806	0.465299	0.249283	0.170546	0.184755	0.133589	0.314123	0.414437
20	0.365676	0.419931	0.295642	0.283732	0.471233	0.351072	0.333684	0.520705	0.260486	0.298288	0.475182	0.406212	0.547338	0.538533	0.337537	0.241091	0.221178	0.263531	0.284501	0.240249	0.516098	0.677458	0.219253	0.328016	0.515904	0.560547	0.265613	0.239877	0.319330	0.372798	0.324040	0.261837	0.329376	0.283801	0.332447	0.212198	0.184669	0.244134	0.426336	0.650270	0.382594	0.451778	0.122344	0.212422	0.346334	0.366364	0.123030	0.175606	0.335744	0.326436	0.294853	0.385931	0.280248	0.208568	0.283767	0.368194	0.332292	0.390499	0.116402	0.268562	0.308225	0.194331	0.254056	0.368517	0.412171	0.471214	0.213526	0.167296	0.238635	0.130514	0.290413	0.431247
21	0.374803	0.416779	0.286770	0.262994	0.451279	0.335661	0.334482	0.521265	0.262945	0.294869	0.435457	0.341916	0.542044	0.532776	0.297982	0.238510	0.221983	0.203253	0.277324	0.316681	0.528314	0.700058	0.211876	0.242777	0.494413	0.548163	0.254642	0.201235	0.326018	0.367891	0.313080	0.255417	0.346912	0.300600	0.334296	0.213911	0.197674	0.241540	0.281452	0.568414	0.402899	0.479133	0.122658	0.215632	0.350713	0.357456	0.111006	0.221133	0.359044	0.343247	0.329120	0.372340	0.283295	0.237643	0.282265	0.362452	0.337551	0.393817	0.124239	0.275953	0.349332	0.203304	0.212978	0.380112	0.415293	0.472545	0.200091	0.167351	0.269921	0.167712	0.225317	0.434045
22	0.371027	0.350095	0.291126	0.259738	0.451005	0.334265	0.334469	0.514103	0.241960	0.275617	0.431828	0.334922	0.540079	0.525424	0.267730	0.233546	0.227198	0.183041	0.323317	0.299914	0.508085	0.728337	0.158871	0.220728	0.436616	0.487481	0.242350	0.197016	0.324820	0.369801	0.301253	0.239363	0.371727	0.331845	0.325229	0.205462	0.169985	0.208455	0.237166	0.558767	0.411863	0.483090	0.119375	0.195725	0.341848	0.342527	0.129941	0.269127	0.403240	0.405165	0.319435	0.297341	0.284492	0.300471	0.278566	0.365026	0.333794	0.404618	0.195427	0.251614	0.358279	0.241883	0.193796	0.387189	0.411265	0.474717	0.192620	0.168392	0.271674	0.192009	0.202002	0.439128
23	0.316677	0.311490	0.272679	0.252138	0.443087	0.322161	0.311458	0.469174	0.250905	0.275314	0.433674	0.272425	0.524591	0.507803	0.267738	0.206161	0.266096	0.199968	0.379246	0.290347	0.500554	0.697047	0.081972	0.269283	0.406863	0.464678	0.238286	0.181690	0.311901	0.373432	0.300032	0.237353	0.377265	0.333408	0.316372	0.167678	0.146136	0.188329	0.226302	0.486292	0.423799	0.486741	0.117099	0.214021	0.310315	0.325754	0.182955	0.294035	0.410642	0.426508	0.297214	0.302051	0.228412	0.309850	0.277882	0.390532	0.345146	0.433796	0.258761	0.241934	0.338109	0.269574	0.196206	0.354968	0.400812	0.444528	0.217656	0.169404	0.269268	0.193284	0.202664	0.440952
24	0.278629	0.270063	0.208737	0.251420	0.376366	0.295268	0.262106	0.445809	0.239904	0.268722	0.464746	0.234808	0.506712	0.489502	0.250808	0.149900	0.278239	0.232161	0.378997	0.305448	0.462140	0.619450	0.127265	0.537792	0.422387	0.462646	0.223062	0.179470	0.311064	0.366525	0.275226	0.242003	0.373603	0.333670	0.323230	0.155027	0.143546	0.176999	0.192876	0.376522	0.421728	0.488995	0.117110	0.222169	0.309009	0.324996	0.177838	0.332819	0.462390	0.463131	0.282836	0.287193	0.259857	0.319782	0.275359	0.390971	0.358404	0.430125	0.265024	0.263359	0.341153	0.314389	0.197777	0.299605	0.394131	0.414883	0.229819	0.166063	0.269911	0.198445	0.230150	0.452349
25	0.262397	0.256055	0.196236	0.250786	0.381691	0.322472	0.253956	0.443401	0.189100	0.237501	0.429885	0.202415	0.440957	0.457022	0.242721	0.137863	0.292566	0.269441	0.409627	0.333149	0.447337	0.599556	0.212390	0.652985	0.427864	0.465462	0.219989	0.179262	0.258293	0.252738	0.188249	0.227159	0.370984	0.334953	0.317804	0.194776	0.139508	0.173960	0.165183	0.293554	0.421846	0.499992	0.127554	0.237430	0.286951	0.289852	0.183442	0.401395	0.498726	0.510444	0.276474	0.273980	0.308046	0.340075	0.233701	0.398583	0.350760	0.417233	0.276603	0.254599	0.354085	0.389422	0.193720	0.271778	0.300239	0.292816	0.214103	0.130598	0.271278	0.203331	0.271419	0.470542
26	0.248445	0.252944	0.196339	0.229996	0.394304	0.353061	0.252438	0.428698	0.173448	0.189521	0.385227	0.190036	0.420326	0.464256	0.233526	0.142780	0.336253	0.360033	0.391697	0.302166	0.471951	0.624047	0.231172	0.668455	0.441339	0.451795	0.203742	0.175266	0.250486	0.226405	0.164785	0.170910	0.371221	0.334851	0.294972	0.208718	0.135224	0.198764	0.138904	0.283051	0.439027	0.520298	0.149784	0.253156	0.262989	0.287455	0.222875	0.436293	0.492341	0.521567	0.277224	0.273146	0.303653	0.345156	0.203216	0.384734	0.314521	0.383479	0.343722	0.244539	0.355580	0.392487	0.197861	0.270167	0.188960	0.269863	0.199546	0.119444	0.289167	0.232715	0.273349	0.434465
27	0.246960	0.245987	0.195883	0.175092	0.400960	0.369315	0.196879	0.352426	0.127632	0.126421	0.370434	0.192289	0.348991	0.498806	0.216985	0.147021	0.346195	0.441211	0.374011	0.268026	0.478328	0.628758	0.236992	0.779609	0.468934	0.459378	0.193173	0.156455	0.258150	0.278495	0.142072	0.150051	0.362797	0.328600	0.266721	0.190783	0.133242	0.191118	0.131941	0.266157	0.467268	0.525487	0.151802	0.252359	0.261789	0.285241	0.255502	0.439466	0.476893	0.516407	0.284686	0.266830	0.309214	0.394318	0.230449	0.351077	0.289667	0.366272	0.395223	0.244708	0.360055	0.395134	0.191246	0.292083	0.155234	0.239384	0.209620	0.108920	0.288281	0.262263	0.285668	0.405916
28	0.240734	0.234777	0.183547	0.187267	0.399783	0.394509	0.121385	0.255937	0.108610	0.101184	0.373977	0.194659	0.347664	0.510598	0.217019	0.149770	0.411476	0.554499	0.368027	0.236102	0.482557	0.628839	0.309340	0.836665	0.509161	0.511262	0.192443	0.150283	0.247705	0.281179	0.091132	0.137712	0.345448	0.320049	0.258485	0.189010	0.235861	0.209141	0.138013	0.214263	0.471811	0.531299	0.150326	0.251439	0.263244	0.285525	0.264733	0.448179	0.461091	0.512633	0.289434	0.261812	0.443998	0.476196	0.293154	0.366192	0.280939	0.351554	0.409955	0.243797	0.382220	0.451392	0.185233	0.329900	0.154150	0.235156	0.214785	0.110131	0.284548	0.272733	0.290143	0.356386
29	0.259164	0.258703	0.181497	0.177119	0.348449	0.368890	0.105382	0.170727	0.126880	0.103539	0.373673	0.193600	0.339718	0.596421	0.193791	0.151169	0.404266	0.563891	0.287654	0.249340	0.465802	0.617318	0.367507	0.839363	0.502782	0.510240	0.188518	0.139704	0.238595	0.283062	0.115797	0.126125	0.335796	0.316845	0.251878	0.196172	0.294670	0.243133	0.160126	0.192851	0.488547	0.556391	0.143744	0.242460	0.256340	0.257096	0.264666	0.453289	0.456652	0.512771	0.289326	0.261411	0.506508	0.572643	0.358652	0.366633	0.322544	0.361581	0.411717	0.236855	0.388683	0.458399	0.165921	0.320439	0.168977	0.242810	0.212518	0.110100	0.292009	0.297789	0.296956	0.355121
30	0.296477	0.326812	0.199661	0.150785	0.311780	0.354404	0.109906	0.158997	0.159253	0.133853	0.371316	0.183446	0.314690	0.575630	0.152029	0.171818	0.383499	0.561358	0.302931	0.248604	0.427268	0.529830	0.372763	0.841981	0.510569	0.494522	0.176151	0.117932	0.236044	0.283924	0.188578	0.125659	0.312858	0.307205	0.236080	0.205960	0.315831	0.259717	0.165098	0.225444	0.471391	0.561314	0.138222	0.221315	0.245436	0.225140	0.264902	0.450367	0.451872	0.511036	0.293760	0.299732	0.527762	0.605861	0.400830	0.324028	0.361559	0.402956	0.408588	0.236406	0.411874	0.472221	0.158754	0.335114	0.172864	0.242194	0.188196	0.097730	0.267114	0.293557	0.296229	0.326117
31	0.282031	0.336054	0.203755	0.159842	0.295162	0.342712	0.113235	0.159012	0.159747	0.138167	0.355916	0.182701	0.301939	0.565797	0.144078	0.169957	0.375050	0.549244	0.268732	0.201001	0.421069	0.487904	0.373654	0.863658	0.525297	0.508269	0.157378	0.112105	0.229867	0.285059	0.193541	0.121439	0.268400	0.274402	0.233905	0.219826	0.315495	0.258848	0.165524	0.214605	0.468383	0.569721	0.137657	0.202937	0.191876	0.221404	0.264931	0.432411	0.448918	0.506662	0.292968	0.323975	0.536682	0.618518	0.399433	0.327142	0.369567	0.417134	0.410452	0.239299	0.423036	0.479610	0.157623	0.374152	0.167936	0.235491	0.193144	0.075397	0.219457	0.292173	0.295328	0.279382
32	0.298698	0.393195	0.195292	0.179885	0.268615	0.327399	0.123984	0.153898	0.154558	0.132888	0.324011	0.190576	0.286301	0.560639	0.131102	0.198338	0.385315	0.577995	0.277308	0.233039	0.299193	0.228295	0.375392	0.873676	0.517662	0.467661	0.145864	0.134692	0.215491	0.286562	0.209353	0.143248	0.231321	0.234987	0.234459	0.237014	0.320051	0.264008	0.166019	0.214114	0.476698	0.582322	0.138029	0.207030	0.194400	0.239279	0.246146	0.395129	0.450584	0.505139	0.294094	0.305775	0.538325	0.616699	0.406229	0.341990	0.396155	0.448557	0.417583	0.234471	0.416898	0.479889	0.170186	0.402189	0.171797	0.206319	0.209781	0.071164	0.184552	0.265995	0.285939	0.266969
33	0.293921	0.396511	0.209623	0.225819	0.265995	0.325442	0.120079	0.138386	0.153606	0.132959	0.285101	0.182040	0.281623	0.559232	0.114877	0.246261	0.346700	0.511538	0.263460	0.237480	0.307564	0.225095	0.380412	0.870899	0.513963	0.458842	0.143375	0.163867	0.213558	0.284568	0.227046	0.182011	0.227292	0.226786	0.224446	0.240918	0.316398	0.253049	0.166119	0.220749	0.435306	0.538700	0.188706	0.200275	0.202290	0.244095	0.232528	0.386201	0.457229	0.513486	0.250231	0.301565	0.521022	0.586498	0.416667	0.339360	0.421741	0.453077	0.420753	0.210038	0.392195	0.479893	0.185563	0.419636	0.145006	0.197349	0.212058	0.083211	0.185551	0.245799	0.279824	0.256378
34	0.277000	0.374844	0.221983	0.238830	0.265151	0.333021	0.124432	0.129433	0.141912	0.118541	0.281022	0.184852	0.281227	0.559959	0.114203	0.263868	0.312577	0.454607	0.300796	0.259500	0.311925	0.216422	0.379709	0.775539	0.517925	0.481872	0.138804	0.166747	0.213837	0.256330	0.237981	0.196459	0.215123	0.227994	0.254641	0.255275	0.326291	0.253872	0.176995	0.221923	0.440178	0.548418	0.313609	0.202908	0.200456	0.219251	0.245797	0.350694	0.433369	0.497245	0.208143	0.293040	0.517384	0.562222	0.440251	0.316516	0.418028	0.449956	0.415568	0.204690	0.355247	0.475387	0.191761	0.411133	0.145380	0.178120	0.211356	0.094100	0.236128	0.313453	0.280396	0.258875
35	0.275772	0.373911	0.228275	0.245164	0.255430	0.347671	0.135110	0.131211	0.141144	0.112540	0.245145	0.204336	0.279778	0.558377	0.105886	0.264812	0.258223	0.362934	0.312243	0.226601	0.333128	0.238831	0.403648	0.644257	0.506108	0.478384	0.114742	0.175992	0.212787	0.231908	0.253552	0.244530	0.197971	0.189187	0.300578	0.267368	0.328646	0.240081	0.207513	0.220375	0.429421	0.542651	0.386955	0.199152	0.191464	0.239561	0.273870	0.318184	0.375108	0.439164	0.201254	0.291598	0.515342	0.558553	0.455245	0.305781	0.409967	0.431228	0.380049	0.208533	0.338081	0.456936	0.183973	0.404351	0.146727	0.179780	0.199831	0.099188	0.270025	0.379147	0.293868	0.360207
36	0.275465	0.379590	0.228646	0.255212	0.252195	0.348768	0.151317	0.130342	0.145482	0.116552	0.217175	0.213933	0.249756	0.558334	0.103526	0.267574	0.306331	0.389365	0.305038	0.224080	0.309904	0.199192	0.409375	0.632914	0.480819	0.468208	0.115453	0.189282	0.194499	0.211663	0.266596	0.254804	0.190845	0.191280	0.307562	0.268239	0.337596	0.236610	0.237216	0.221154	0.432659	0.540016	0.391863	0.172573	0.219794	0.240731	0.330807	0.316250	0.360852	0.403453	0.197626	0.272228	0.489735	0.544521	0.454901	0.296267	0.396394	0.395385	0.348626	0.194037	0.343180	0.437934	0.169606	0.409809	0.146709	0.181986	0.179322	0.107919	0.289957	0.403847	0.323357	0.393380
37	0.294452	0.382770	0.228353	0.313252	0.250702	0.336971	0.154692	0.128763	0.145863	0.118701	0.214197	0.236025	0.230058	0.562283	0.102215	0.267600	0.371460	0.412839	0.301373	0.219915	0.304419	0.151573	0.410640	0.525057	0.486312	0.475311	0.121920	0.192581	0.167264	0.211254	0.277974	0.297615	0.203323	0.199273	0.309188	0.272599	0.338558	0.214944	0.250331	0.229696	0.429189	0.532752	0.401923	0.174071	0.273637	0.268062	0.370765	0.299631	0.306090	0.362488	0.217120	0.271404	0.489494	0.548590	0.449814	0.312364	0.391880	0.394212	0.344452	0.160939	0.340092	0.409389	0.166619	0.435287	0.149839	0.188842	0.171563	0.121293	0.294554	0.437592	0.329927	0.389349
38	0.304777	0.386418	0.228162	0.311289	0.209645	0.303288	0.155892	0.124464	0.145973	0.117172	0.211317	0.242853	0.232792	0.553249	0.093740	0.268322	0.365227	0.396634	0.285405	0.199686	0.297980	0.179557	0.378584	0.370676	0.495578	0.512996	0.112567	0.215259	0.126468	0.128316	0.325812	0.302700	0.201726	0.196995	0.322941	0.252170	0.346333	0.210421	0.251149	0.263802	0.423433	0.504976	0.438883	0.142616	0.289499	0.267748	0.391727	0.315635	0.209196	0.252759	0.231536	0.278675	0.494710	0.518774	0.451376	0.346432	0.386059	0.373011	0.323990	0.138242	0.315306	0.340399	0.167229	0.440033	0.138506	0.161799	0.178373	0.122321	0.301090	0.438267	0.319049	0.375681
39	0.341531	0.430907	0.209101	0.307137	0.158834	0.243557	0.151726	0.101620	0.145839	0.118745	0.204087	0.248668	0.221643	0.484339	0.073950	0.264827	0.431913	0.424548	0.277050	0.153560	0.298227	0.182528	0.348420	0.411405	0.487388	0.533216	0.132277	0.251625	0.114766	0.102637	0.346093	0.303110	0.217109	0.202116	0.337614	0.224219	0.351922	0.209206	0.256937	0.423399	0.396564	0.491864	0.481249	0.136023	0.301284	0.273234	0.520936	0.318689	0.181614	0.207659	0.231421	0.293510	0.408369	0.483407	0.415884	0.347366	0.401069	0.389974	0.242708	0.145959	0.312301	0.332278	0.162641	0.448022	0.136915	0.150968	0.175953	0.125636	0.309938	0.461871	0.304772	0.414375
40	0.335764	0.448460	0.174481	0.316922	0.148800	0.206855	0.144903	0.097762	0.143845	0.121283	0.210899	0.266123	0.218824	0.441350	0.074428	0.286559	0.458671	0.476612	0.275841	0.164933	0.290352	0.203425	0.414522	0.416445	0.442475	0.497933	0.147799	0.254366	0.097355	0.092133	0.343378	0.312632	0.240033	0.211014	0.342592	0.221769	0.297133	0.196009	0.260573	0.457878	0.396248	0.493380	0.495596	0.137599	0.335030	0.284883	0.583984	0.306382	0.184532	0.205255	0.219628	0.294614	0.299939	0.334191	0.368210	0.352826	0.408907	0.395585	0.167303	0.159071	0.285311	0.320446	0.162156	0.436905	0.139810	0.150572	0.161231	0.136317	0.316372	0.495574	0.278538	0.470927
41	0.310568	0.416822	0.162867	0.313080	0.128345	0.161303	0.150050	0.172125	0.123985	0.115920	0.208003	0.263163	0.205782	0.299843	0.076365	0.294897	0.482625	0.485149	0.263358	0.207313	0.271249	0.209903	0.421371	0.422496	0.465000	0.540448	0.164102	0.268663	0.111938	0.101754	0.316575	0.350456	0.256491	0.216940	0.337806	0.218736	0.258304	0.149517	0.260224	0.460108	0.387940	0.474923	0.496129	0.138432	0.330975	0.266378	0.594492	0.313933	0.187383	0.205799	0.220136	0.305160	0.257139	0.268724	0.305607	0.379693	0.391923	0.383509	0.141211	0.159357	0.240790	0.214216	0.152580	0.390279	0.142196	0.144075	0.155973	0.135856	0.319826	0.500226	0.269194	0.500756
42	0.299040	0.412294	0.180116	0.311383	0.143613	0.160433	0.208529	0.254582	0.162896	0.143486	0.211584	0.256182	0.209324	0.253545	0.083700	0.299566	0.451073	0.476940	0.256591	0.232387	0.288184	0.224974	0.464511	0.395913	0.464066	0.536859	0.164997	0.306161	0.118729	0.107187	0.311978	0.361590	0.266898	0.222947	0.337246	0.211776	0.280619	0.164990	0.257298	0.488906	0.367408	0.429628	0.496315	0.147598	0.338167	0.265171	0.588024	0.318384	0.187888	0.205402	0.225607	0.318385	0.237264	0.235246	0.289646	0.368140	0.342879	0.349990	0.135545	0.168404	0.230823	0.188919	0.147197	0.386945	0.139903	0.142940	0.162336	0.148686	0.321926	0.497299	0.280854	0.508464
43	0.269814	0.366986	0.172350	0.289938	0.165678	0.162312	0.251051	0.263562	0.196438	0.190764	0.210783	0.253799	0.218888	0.256504	0.104299	0.315573	0.405898	0.440739	0.268373	0.277168	0.361926	0.263787	0.633538	0.396870	0.427544	0.494713	0.164574	0.317883	0.117898	0.106888	0.337474	0.369363	0.266803	0.222423	0.325995	0.200934	0.277836	0.165028	0.268093	0.499240	0.361685	0.411652	0.496410	0.154299	0.346208	0.278823	0.585011	0.327885	0.198973	0.212450	0.223469	0.283693	0.216796	0.210566	0.281822	0.366148	0.306267	0.296262	0.159236	0.235042	0.202602	0.171772	0.145173	0.374358	0.156350	0.179028	0.164128	0.155911	0.321965	0.494927	0.304152	0.545394
44	0.283807	0.369880	0.217840	0.290266	0.168821	0.176689	0.266696	0.283207	0.198320	0.203539	0.233182	0.320890	0.219705	0.256274	0.125510	0.299002	0.386243	0.427050	0.265856	0.283059	0.364848	0.322941	0.697733	0.403192	0.414138	0.484826	0.165719	0.307581	0.124708	0.103244	0.338954	0.352780	0.265989	0.218419	0.305930	0.197635	0.278088	0.162948	0.302756	0.488673	0.296105	0.279386	0.496766	0.150378	0.351858	0.269411	0.578431	0.270966	0.216919	0.226711	0.225591	0.219812	0.218909	0.208545	0.261127	0.377239	0.301093	0.278375	0.169260	0.255261	0.182790	0.150456	0.144047	0.340124	0.163211	0.233113	0.147992	0.154085	0.319363	0.494654	0.307996	0.550983
45	0.280033	0.370412	0.329398	0.290941	0.206246	0.202916	0.267672	0.298730	0.243659	0.264847	0.264521	0.342748	0.232370	0.260833	0.157079	0.261550	0.404297	0.424664	0.262112	0.385319	0.345617	0.332854	0.667947	0.371310	0.397343	0.474645	0.165378	0.285446	0.149544	0.114024	0.330825	0.361503	0.259680	0.207894	0.298903	0.179426	0.272148	0.165394	0.327313	0.485024	0.277088	0.258290	0.492486	0.156844	0.354424	0.265707	0.552280	0.258495	0.214594	0.222164	0.230142	0.222648	0.216370	0.207199	0.232276	0.382863	0.277418	0.268378	0.165148	0.245830	0.185426	0.166781	0.130203	0.350444	0.162137	0.242055	0.137829	0.153731	0.282089	0.452417	0.326026	0.577468
46	0.279694	0.372158	0.410673	0.305391	0.230904	0.218476	0.283615	0.309132	0.253353	0.276715	0.260273	0.347150	0.236160	0.270509	0.213174	0.253718	0.487136	0.491546	0.321872	0.610095	0.433881	0.495587	0.649069	0.368910	0.366170	0.433185	0.168386	0.284773	0.156626	0.119558	0.358616	0.341413	0.262377	0.209034	0.298952	0.163950	0.261764	0.166482	0.322362	0.486594	0.266908	0.222255	0.446190	0.151460	0.303244	0.239156	0.503352	0.258393	0.206573	0.211398	0.259256	0.209743	0.200802	0.195196	0.394418	0.379546	0.268621	0.301650	0.157792	0.263387	0.188994	0.177444	0.106518	0.373284	0.177587	0.259162	0.174430	0.156204	0.266051	0.404383	0.313740	0.594549
47	0.271929	0.373906	0.426765	0.277527	0.235725	0.212509	0.306428	0.328764	0.252783	0.291694	0.263702	0.361589	0.252678	0.313480	0.252152	0.262453	0.601092	0.536129	0.332007	0.627473	0.503022	0.627780	0.648623	0.343312	0.374079	0.440965	0.170699	0.281603	0.160331	0.137776	0.459802	0.326485	0.265855	0.201172	0.296120	0.202052	0.252348	0.166609	0.350621	0.502995	0.253466	0.214024	0.360005	0.152222	0.344110	0.280726	0.493444	0.264217	0.226243	0.252431	0.255431	0.213287	0.192356	0.186806	0.553564	0.372800	0.274718	0.321294	0.158320	0.278039	0.212755	0.216022	0.093000	0.373021	0.186968	0.293403	0.212166	0.150395	0.257095	0.374194	0.252138	0.578208
48	0.250450	0.369843	0.515144	0.245022	0.250006	0.239335	0.308757	0.329552	0.253111	0.290824	0.252939	0.425285	0.260057	0.324731	0.257252	0.262310	0.588794	0.520026	0.335217	0.730587	0.512548	0.636287	0.661502	0.336637	0.392002	0.470955	0.193741	0.280876	0.165290	0.144557	0.499043	0.316185	0.259692	0.188057	0.262845	0.212142	0.248836	0.167219	0.419740	0.507505	0.230378	0.213380	0.337829	0.162103	0.444160	0.340635	0.408242	0.232850	0.243335	0.257408	0.246000	0.234072	0.224755	0.184641	0.582221	0.364222	0.281144	0.347409	0.167081	0.276803	0.205966	0.220070	0.100971	0.371246	0.186619	0.294217	0.220531	0.151173	0.228592	0.319263	0.269173	0.621876
49	0.226533	0.354942	0.555112	0.351470	0.255662	0.235229	0.303992	0.330370	0.270989	0.291145	0.282616	0.452623	0.257003	0.314358	0.275346	0.285010	0.587920	0.518928	0.334486	0.764235	0.518411	0.640580	0.655891	0.284794	0.385416	0.481503	0.206098	0.283567	0.173791	0.163306	0.479326	0.344321	0.247614	0.180068	0.264318	0.216177	0.250355	0.174207	0.425214	0.552029	0.229627	0.213845	0.341672	0.155024	0.454415	0.343372	0.256044	0.236831	0.266849	0.263488	0.244031	0.257801	0.210908	0.160881	0.585151	0.321600	0.277511	0.346296	0.178685	0.275681	0.194762	0.236758	0.103819	0.380063	0.185188	0.291510	0.215013	0.140952	0.197203	0.295631	0.336939	0.667055
50	0.154606	0.251143	0.570653	0.363252	0.258133	0.231550	0.312597	0.350396	0.276163	0.299217	0.284979	0.476601	0.288699	0.320744	0.314771	0.281744	0.584784	0.519309	0.355910	0.772032	0.521914	0.639043	0.620359	0.272872	0.342657	0.441804	0.218746	0.269006	0.184020	0.193455	0.460646	0.368284	0.230444	0.164489	0.289852	0.223360	0.224806	0.167046	0.425126	0.545626	0.226512	0.215485	0.329924	0.162070	0.491246	0.349798	0.195333	0.232448	0.274565	0.252827	0.235949	0.290070	0.262503	0.214953	0.668137	0.300583	0.287829	0.362917	0.201751	0.272410	0.192159	0.237028	0.102167	0.354791	0.178261	0.285767	0.225514	0.137732	0.202867	0.253618	0.346095	0.647725
51	0.139059	0.222184	0.573200	0.372081	0.260264	0.239641	0.313706	0.378702	0.280863	0.307095	0.287517	0.531102	0.378448	0.398737	0.344164	0.283062	0.578942	0.507423	0.395026	0.848156	0.535879	0.644581	0.673175	0.204012	0.292020	0.387850	0.226505	0.235856	0.186593	0.192190	0.470403	0.363973	0.226498	0.161997	0.290446	0.224044	0.236207	0.214878	0.430569	0.480784	0.217384	0.216239	0.285881	0.166794	0.565999	0.426982	0.193081	0.224371	0.272014	0.242442	0.234486	0.282130	0.291007	0.252239	0.703685	0.290518	0.277732	0.356578	0.200801	0.281387	0.191089	0.248405	0.116640	0.347923	0.183997	0.296035	0.237418	0.137859	0.200109	0.152987	0.345999	0.612476
52	0.125602	0.143299	0.584847	0.373420	0.249375	0.240464	0.315014	0.378842	0.279618	0.319823	0.365775	0.568637	0.404924	0.445611	0.346452	0.260227	0.435102	0.360140	0.395469	0.754028	0.539214	0.641010	0.723305	0.188928	0.279384	0.365642	0.209138	0.234944	0.175049	0.188488	0.474997	0.353214	0.224846	0.161895	0.267951	0.221848	0.252740	0.226763	0.421190	0.566401	0.204772	0.216742	0.247622	0.167996	0.554898	0.411562	0.196316	0.196219	0.270586	0.242283	0.238121	0.268546	0.282503	0.249825	0.706863	0.361651	0.240103	0.330735	0.201673	0.287661	0.189451	0.250384	0.127356	0.355681	0.208943	0.346838	0.238359	0.134610	0.198558	0.140503	0.349423	0.586718
53	0.113661	0.138123	0.607915	0.373388	0.260495	0.265027	0.334324	0.373667	0.272105	0.321128	0.435434	0.587100	0.448118	0.515533	0.355050	0.249423	0.293120	0.189612	0.314233	0.668520	0.491947	0.630223	0.610148	0.180133	0.237113	0.298038	0.196371	0.244740	0.171869	0.182832	0.473844	0.390190	0.205254	0.156462	0.259152	0.220014	0.239409	0.226598	0.419808	0.588531	0.186598	0.205409	0.243571	0.170969	0.547513	0.403275	0.191454	0.180136	0.279408	0.250690	0.236531	0.279095	0.300079	0.290582	0.719203	0.450220	0.234384	0.326891	0.210197	0.311888	0.184589	0.250266	0.138878	0.367580	0.215801	0.368967	0.237930	0.125889	0.195539	0.151119	0.351145	0.583110
54	0.097587	0.131474	0.610247	0.363218	0.418500	0.473801	0.348480	0.337695	0.255536	0.301261	0.451151	0.589083	0.495331	0.613298	0.355075	0.238845	0.175767	0.116002	0.314711	0.582115	0.531735	0.622044	0.504340	0.220582	0.202007	0.296132	0.212600	0.200080	0.328720	0.355341	0.463800	0.405543	0.189100	0.170026	0.260178	0.220103	0.289787	0.251877	0.434201	0.568808	0.168587	0.188422	0.267244	0.189676	0.546641	0.397305	0.144760	0.174779	0.295892	0.252995	0.230536	0.284359	0.315892	0.320000	0.728705	0.452588	0.234069	0.326302	0.253503	0.341744	0.181981	0.253134	0.139017	0.365381	0.214394	0.415810	0.233957	0.122834	0.201936	0.174442	0.334963	0.554064
55	0.094423	0.131500	0.570280	0.362068	0.534393	0.647830	0.326302	0.293406	0.273078	0.278905	0.451136	0.570168	0.495154	0.621753	0.351473	0.213704	0.326723	0.173477	0.282273	0.482183	0.541430	0.619033	0.534351	0.230579	0.200940	0.303144	0.227671	0.180657	0.555532	0.586489	0.451368	0.404661	0.171805	0.171145	0.260746	0.230097	0.337242	0.285412	0.448723	0.572730	0.144142	0.145774	0.285251	0.190334	0.547045	0.397253	0.142816	0.175711	0.311532	0.264151	0.224407	0.278865	0.340920	0.350937	0.729793	0.478385	0.236011	0.327597	0.322374	0.332644	0.176103	0.251271	0.144977	0.471068	0.200270	0.408950	0.230260	0.104231	0.205532	0.178286	0.330953	0.552057
56	0.102501	0.121915	0.534977	0.348857	0.553204	0.687699	0.359592	0.290616	0.284513	0.261144	0.428690	0.539103	0.493915	0.619943	0.356939	0.227162	0.333844	0.232385	0.231392	0.422162	0.516396	0.590234	0.552618	0.243487	0.226518	0.362852	0.233063	0.207866	0.600829	0.662391	0.448540	0.400074	0.190124	0.198407	0.264043	0.257553	0.339769	0.298484	0.431651	0.587144	0.145228	0.145428	0.290367	0.201941	0.534252	0.384132	0.139739	0.164502	0.312780	0.260590	0.228900	0.302823	0.340187	0.351068	0.758519	0.482190	0.241038	0.331446	0.338567	0.301470	0.157227	0.233826	0.161288	0.512345	0.190643	0.396429	0.229284	0.093011	0.242409	0.200108	0.313598	0.518615
57	0.114767	0.109750	0.529456	0.336461	0.743798	0.916937	0.379429	0.267459	0.273871	0.231453	0.416994	0.537343	0.487041	0.618459	0.355184	0.237500	0.405647	0.394291	0.193198	0.320838	0.389116	0.332256	0.553123	0.249613	0.228076	0.379518	0.255745	0.239426	0.762763	0.887704	0.442886	0.388394	0.193682	0.201258	0.264778	0.263045	0.338378	0.297816	0.430928	0.586412	0.151504	0.149194	0.295015	0.231847	0.467695	0.335293	0.134969	0.129692	0.309106	0.250185	0.246673	0.342065	0.340618	0.350120	0.731422	0.481120	0.241022	0.325513	0.332719	0.296290	0.145854	0.232224	0.164157	0.523876	0.189976	0.380733	0.230521	0.099533	0.305641	0.259295	0.296679	0.415354
58	0.120327	0.115934	0.476514	0.348668	0.764247	0.940500	0.382886	0.254780	0.280860	0.239090	0.414461	0.514996	0.485635	0.614646	0.331111	0.225251	0.493278	0.482042	0.115102	0.208717	0.375528	0.300182	0.540051	0.248849	0.233668	0.390950	0.264365	0.241190	0.776335	0.899150	0.368913	0.383529	0.199610	0.209500	0.267494	0.258823	0.340767	0.297742	0.453079	0.584763	0.140098	0.142866	0.309801	0.234012	0.393388	0.294177	0.206057	0.120409	0.309989	0.241620	0.339321	0.347538	0.333593	0.353299	0.630104	0.482590	0.219630	0.288198	0.381915	0.292413	0.148241	0.226603	0.173830	0.539279	0.186489	0.373257	0.222693	0.102275	0.304757	0.262448	0.293565	0.393252
59	0.120021	0.113907	0.400135	0.304827	0.759779	0.941564	0.430963	0.241830	0.300056	0.244202	0.411681	0.502995	0.477202	0.593942	0.306903	0.206461	0.512050	0.517392	0.109663	0.136399	0.369507	0.286223	0.533061	0.238312	0.277029	0.415235	0.262344	0.260503	0.778105	0.900703	0.231304	0.376053	0.195776	0.200536	0.268863	0.258818	0.347607	0.303567	0.410480	0.569762	0.133547	0.140631	0.319651	0.244175	0.385739	0.295019	0.241845	0.109962	0.315289	0.239800	0.374715	0.367901	0.306749	0.358846	0.588453	0.480003	0.251527	0.279688	0.468154	0.274678	0.192327	0.242393	0.220820	0.521015	0.215675	0.384691	0.190466	0.110541	0.308346	0.262125	0.267464	0.312632
60	0.188665	0.192375	0.363184	0.203988	0.756500	0.934437	0.486680	0.225729	0.314860	0.248904	0.409220	0.438810	0.470691	0.583833	0.312739	0.217484	0.528986	0.545796	0.077655	0.082285	0.362887	0.279476	0.529043	0.243365	0.251991	0.385302	0.245529	0.265658	0.782470	0.903112	0.214227	0.355006	0.192695	0.200856	0.289314	0.248892	0.344778	0.301711	0.372062	0.558722	0.134016	0.129535	0.320817	0.239568	0.233337	0.196824	0.232031	0.119129	0.299577	0.183525	0.385118	0.424947	0.297079	0.357382	0.583634	0.481926	0.314799	0.344975	0.490638	0.265142	0.183682	0.222700	0.276380	0.518861	0.258798	0.411944	0.154863	0.117333	0.332775	0.302759	0.178334	0.212279
61	0.227051	0.231461	0.353152	0.215122	0.753579	0.932194	0.512983	0.226039	0.313560	0.247995	0.396638	0.432583	0.470498	0.583858	0.327265	0.226343	0.489835	0.545182	0.031453	0.080417	0.348339	0.258227	0.531136	0.248226	0.249842	0.359222	0.255592	0.259976	0.783952	0.897733	0.206625	0.308498	0.183947	0.203342	0.301429	0.197054	0.343992	0.298128	0.426239	0.491668	0.136522	0.133132	0.335343	0.235319	0.179302	0.175383	0.247463	0.112784	0.286777	0.182809	0.392161	0.450973	0.266082	0.330844	0.506876	0.588047	0.319280	0.336359	0.492746	0.263383	0.198925	0.223430	0.306673	0.518679	0.266085	0.418723	0.182065	0.112777	0.338192	0.340115	0.153943	0.188138
62	0.276795	0.300733	0.354582	0.202139	0.751263	0.932457	0.513585	0.244618	0.335097	0.241274	0.400245	0.375567	0.453802	0.581979	0.309358	0.239373	0.448271	0.563837	0.025464	0.070718	0.352170	0.287395	0.477142	0.263500	0.257646	0.361693	0.289587	0.260015	0.784399	0.896525	0.180925	0.303619	0.175025	0.197500	0.290958	0.191532	0.329703	0.283049	0.448238	0.471555	0.137020	0.130586	0.323348	0.233850	0.207100	0.280821	0.255046	0.130891	0.267637	0.175817	0.530818	0.452909	0.224675	0.286389	0.458493	0.669373	0.325846	0.352656	0.527102	0.264124	0.212424	0.208914	0.312470	0.509394	0.265860	0.419621	0.188632	0.109582	0.331710	0.360588	0.167083	0.174660
63	0.342257	0.344229	0.306551	0.201972	0.751147	0.933047	0.528291	0.251669	0.348964	0.244370	0.371484	0.359721	0.392663	0.551598	0.280544	0.240386	0.440715	0.510615	0.029873	0.069802	0.351602	0.288014	0.451480	0.274493	0.275926	0.361875	0.314582	0.259292	0.783927	0.896618	0.141338	0.301754	0.165387	0.200405	0.284197	0.174225	0.299225	0.247700	0.443644	0.400628	0.137336	0.126968	0.291305	0.248358	0.207109	0.289786	0.253769	0.138323	0.244991	0.169258	0.687180	0.435893	0.231588	0.271485	0.486613	0.654415	0.381798	0.449546	0.558600	0.265972	0.212829	0.203483	0.313629	0.505453	0.266085	0.419780	0.197725	0.113856	0.329857	0.363180	0.186825	0.173867
64	0.373738	0.371764	0.275929	0.198499	0.751524	0.930644	0.546052	0.222253	0.345080	0.220066	0.267749	0.361461	0.372998	0.520881	0.285784	0.250214	0.280129	0.351809	0.042185	0.067157	0.301009	0.289096	0.455487	0.245395	0.291163	0.361842	0.326390	0.256419	0.782820	0.897005	0.138197	0.258452	0.170164	0.199974	0.285373	0.165445	0.297368	0.246083	0.440615	0.399742	0.143828	0.123604	0.270160	0.252409	0.200676	0.288711	0.255994	0.153336	0.243875	0.166420	0.720780	0.434821	0.233406	0.236398	0.535246	0.599566	0.392786	0.464509	0.568192	0.251585	0.226994	0.211677	0.309246	0.504424	0.257669	0.405131	0.284553	0.116763	0.328613	0.360474	0.202660	0.159638
65	0.371084	0.371982	0.270294	0.186563	0.751871	0.930416	0.549181	0.222743	0.339682	0.210694	0.201701	0.381197	0.334156	0.466324	0.289042	0.249599	0.231676	0.340469	0.044352	0.103040	0.303233	0.346213	0.426793	0.246042	0.289895	0.357041	0.327466	0.234448	0.772291	0.885514	0.115383	0.165404	0.185362	0.204668	0.282101	0.169905	0.268998	0.234124	0.437981	0.502712	0.135736	0.122903	0.267974	0.282551	0.200943	0.289312	0.258756	0.153277	0.242681	0.162228	0.722760	0.436401	0.226108	0.210109	0.593276	0.644139	0.393903	0.467790	0.581311	0.247759	0.228050	0.215190	0.304123	0.494983	0.236168	0.358412	0.367329	0.120961	0.337287	0.351022	0.213009	0.136349
66	0.376154	0.373920	0.241105	0.190750	0.736831	0.912948	0.535075	0.245046	0.329581	0.210531	0.220410	0.472291	0.226830	0.274509	0.287083	0.241872	0.194528	0.278325	0.099533	0.241644	0.307191	0.340162	0.386807	0.237819	0.295729	0.348489	0.315664	0.233815	0.651728	0.774124	0.135421	0.259240	0.185799	0.206929	0.281975	0.174439	0.177261	0.179324	0.442902	0.519586	0.116395	0.120965	0.249304	0.289878	0.233913	0.291711	0.259654	0.153236	0.231339	0.146749	0.724276	0.430583	0.189275	0.132378	0.605508	0.634664	0.393812	0.468246	0.616040	0.214414	0.259423	0.275568	0.299739	0.471522	0.232076	0.329721	0.399561	0.123646	0.343282	0.349913	0.229297	0.123352
67	0.372475	0.370426	0.152655	0.189769	0.638885	0.801639	0.527944	0.254652	0.308870	0.204834	0.242722	0.499970	0.215373	0.252551	0.286642	0.259095	0.123305	0.234765	0.133128	0.273741	0.319059	0.342509	0.385503	0.241766	0.296707	0.338794	0.311107	0.254148	0.551499	0.655443	0.211028	0.430954	0.176275	0.216766	0.285983	0.175783	0.113662	0.123232	0.438944	0.519535	0.122682	0.130887	0.227574	0.282035	0.221723	0.288874	0.231284	0.151514	0.211469	0.142841	0.725121	0.418466	0.202884	0.164500	0.590323	0.706716	0.394429	0.468143	0.623291	0.193384	0.285035	0.304889	0.294730	0.466324	0.232679	0.289986	0.403950	0.126234	0.317763	0.336091	0.247935	0.119611
68	0.369517	0.368901	0.139291	0.176283	0.570007	0.691815	0.508112	0.259813	0.279912	0.198357	0.243300	0.558530	0.248869	0.296152	0.271397	0.256026	0.129838	0.162190	0.137054	0.281101	0.333232	0.348465	0.387383	0.375151	0.277211	0.273901	0.333696	0.254382	0.382458	0.392505	0.228080	0.464243	0.174007	0.205245	0.288722	0.174109	0.110695	0.117401	0.449310	0.517586	0.127923	0.138298	0.231149	0.279294	0.265671	0.319986	0.165367	0.138226	0.209403	0.131735	0.732811	0.438539	0.265726	0.235226	0.617654	0.773161	0.393419	0.465461	0.606466	0.186055	0.284751	0.304828	0.288042	0.367203	0.240626	0.297643	0.450340	0.128011	0.243896	0.287025	0.242777	0.115367
69	0.387047	0.383611	0.148708	0.158684	0.507368	0.615737	0.466483	0.266688	0.281340	0.187551	0.269630	0.677772	0.254161	0.310180	0.265977	0.248200	0.156828	0.137865	0.184330	0.327160	0.330843	0.348393	0.393246	0.404659	0.277446	0.245957	0.337119	0.224175	0.213183	0.179187	0.254266	0.472783	0.214690	0.216434	0.286216	0.135226	0.111486	0.128781	0.454375	0.604505	0.117556	0.131083	0.232544	0.250741	0.269532	0.318856	0.151709	0.135600	0.227695	0.143955	0.766112	0.453028	0.302139	0.266506	0.657130	0.800693	0.387052	0.464144	0.601700	0.161907	0.287418	0.305518	0.282224	0.290902	0.261216	0.317062	0.509981	0.128723	0.236061	0.285136	0.250064	0.110101
70	0.391741	0.388047	0.177979	0.168131	0.180999	0.228259	0.453774	0.272945	0.292678	0.169154	0.281427	0.743510	0.262962	0.323029	0.261960	0.248111	0.158366	0.155172	0.222714	0.359501	0.355886	0.364132	0.394156	0.468236	0.354304	0.250059	0.333261	0.266976	0.210466	0.152613	0.257051	0.575352	0.214971	0.218796	0.286070	0.102969	0.093894	0.130834	0.412786	0.632390	0.106240	0.121798	0.213297	0.234484	0.259859	0.310805	0.133947	0.153214	0.248813	0.157020	0.798360	0.460552	0.303227	0.260460	0.666092	0.821045	0.384394	0.462784	0.597076	0.168810	0.302797	0.314912	0.287155	0.273569	0.291438	0.342852	0.521706	0.127578	0.242373	0.282394	0.260454	0.108169
71	0.363010	0.343104	0.184378	0.231307	0.151173	0.197064	0.448127	0.293259	0.327761	0.195327	0.287892	0.767698	0.285493	0.339806	0.253481	0.248738	0.160385	0.164708	0.243433	0.377766	0.356548	0.369780	0.380190	0.530967	0.352610	0.202697	0.336309	0.271722	0.203196	0.148008	0.278350	0.663516	0.223024	0.209762	0.295597	0.094664	0.130499	0.149770	0.415833	0.630928	0.100573	0.119115	0.195898	0.229432	0.245252	0.274461	0.097297	0.159762	0.260730	0.160894	0.781314	0.461711	0.303258	0.263850	0.668386	0.842063	0.386730	0.458558	0.551502	0.223799	0.303274	0.317823	0.293488	0.185949	0.286026	0.346823	0.525044	0.119125	0.232187	0.234458	0.266990	0.065720
72	0.360284	0.323683	0.181258	0.245559	0.151314	0.180295	0.376828	0.317068	0.361079	0.240239	0.282312	0.769061	0.321744	0.396371	0.241502	0.238095	0.185825	0.173740	0.253172	0.335502	0.336302	0.351455	0.353321	0.531792	0.347510	0.193715	0.335417	0.259833	0.266412	0.211528	0.324407	0.716772	0.223234	0.215565	0.323144	0.094570	0.171346	0.168118	0.398820	0.630759	0.098580	0.117900	0.189560	0.219095	0.263779	0.220360	0.120551	0.157490	0.254538	0.159032	0.757493	0.462403	0.305804	0.264753	0.687192	0.810113	0.349478	0.421580	0.490281	0.233159	0.277553	0.302815	0.279114	0.121435	0.255453	0.306378	0.525994	0.107949	0.207989	0.169636	0.274137	0.020261
73	0.516554	0.400943	0.184620	0.268816	0.154504	0.178120	0.290712	0.331124	0.458911	0.326372	0.279427	0.769336	0.327072	0.416516	0.204614	0.240668	0.189338	0.175595	0.231396	0.305762	0.333353	0.344949	0.350629	0.561679	0.339444	0.187128	0.323509	0.285479	0.336301	0.263057	0.343622	0.730133	0.222892	0.221704	0.327951	0.103107	0.172396	0.168553	0.356715	0.650212	0.096217	0.114321	0.171714	0.218676	0.311366	0.309838	0.166439	0.155325	0.245071	0.153800	0.746817	0.460205	0.313442	0.263435	0.692541	0.721193	0.303761	0.372525	0.480837	0.238507	0.262892	0.291064	0.234214	0.115680	0.213740	0.249193	0.524861	0.113218	0.206063	0.099079	0.268772	0.013036
74	0.589761	0.439545	0.172389	0.298617	0.150465	0.169179	0.269960	0.331261	0.493873	0.356240	0.269658	0.750150	0.347897	0.427727	0.172469	0.282887	0.183771	0.174713	0.289675	0.280763	0.322785	0.339230	0.346922	0.593837	0.334941	0.176340	0.307268	0.289583	0.344353	0.272498	0.354279	0.730312	0.224802	0.223237	0.295557	0.105920	0.169856	0.157410	0.353996	0.721649	0.090310	0.114134	0.139896	0.218337	0.322118	0.324909	0.179569	0.164442	0.245424	0.146105	0.747534	0.430960	0.334072	0.270349	0.676181	0.711132	0.301435	0.359480	0.473637	0.240321	0.250169	0.287588	0.185809	0.146374	0.211153	0.245155	0.512308	0.124111	0.209088	0.092566	0.256446	0.010464
75	0.681020	0.523563	0.170303	0.307808	0.152380	0.169792	0.300892	0.310809	0.499853	0.371101	0.260670	0.721370	0.360102	0.411664	0.156084	0.295777	0.153378	0.157241	0.378612	0.337485	0.239756	0.215014	0.338295	0.586643	0.342247	0.170801	0.266517	0.293976	0.352217	0.287324	0.363608	0.731102	0.229971	0.243543	0.277406	0.104489	0.171926	0.155232	0.366404	0.806319	0.142721	0.132763	0.145134	0.195192	0.324850	0.330024	0.180790	0.215264	0.237951	0.136679	0.670908	0.472062	0.324780	0.272434	0.642027	0.704983	0.273935	0.308175	0.431884	0.264458	0.235978	0.282307	0.182655	0.150920	0.228708	0.246851	0.512086	0.129015	0.212338	0.091125	0.234759	0.009290
76	0.778899	0.604246	0.186088	0.319000	0.162998	0.186456	0.295502	0.301501	0.601049	0.482534	0.258524	0.699803	0.356285	0.394701	0.147211	0.294850	0.193613	0.195400	0.373047	0.269382	0.229117	0.188018	0.335084	0.617902	0.357403	0.194491	0.264518	0.294192	0.352001	0.290498	0.363759	0.743123	0.232926	0.254937	0.264980	0.147503	0.174738	0.155359	0.397363	0.803100	0.209396	0.168105	0.169127	0.184271	0.374632	0.371832	0.220885	0.228392	0.237625	0.135610	0.500787	0.488024	0.324627	0.273054	0.571513	0.651408	0.185116	0.129783	0.389476	0.297016	0.249024	0.283189	0.206811	0.150428	0.286800	0.268650	0.493168	0.131483	0.205398	0.088821	0.226643	0.108736
77	0.816863	0.634924	0.187014	0.322513	0.173611	0.196543	0.272097	0.305282	0.603967	0.486851	0.245195	0.669222	0.353374	0.394875	0.113392	0.295035	0.193488	0.190282	0.452509	0.245828	0.218906	0.167631	0.333507	0.625703	0.390987	0.232866	0.287671	0.297159	0.349656	0.289317	0.360219	0.742374	0.231443	0.256304	0.238114	0.183641	0.173658	0.150509	0.372694	0.769916	0.237279	0.201825	0.208084	0.245599	0.376877	0.381615	0.236782	0.230692	0.237908	0.135616	0.445099	0.489865	0.317937	0.268229	0.555258	0.643323	0.174882	0.089995	0.427838	0.333222	0.249406	0.265513	0.221577	0.154903	0.292676	0.275451	0.438066	0.129653	0.201526	0.083874	0.232116	0.176527
78	0.891696	0.689946	0.185585	0.322940	0.232138	0.252261	0.269005	0.313218	0.626105	0.510064	0.205607	0.613492	0.361409	0.401485	0.110529	0.306652	0.239618	0.239680	0.456176	0.250003	0.194361	0.155935	0.339153	0.582974	0.386102	0.235438	0.290083	0.399877	0.342541	0.288959	0.321390	0.671430	0.224376	0.257190	0.221874	0.190895	0.175838	0.152524	0.347487	0.852307	0.385773	0.307659	0.243250	0.299168	0.435508	0.461101	0.235968	0.235468	0.237336	0.135773	0.448483	0.490029	0.310412	0.259595	0.555337	0.589654	0.175063	0.071239	0.488824	0.340219	0.251369	0.259795	0.223754	0.158000	0.295891	0.279488	0.380087	0.133607	0.205004	0.079890	0.231315	0.178351
79	0.910962	0.703277	0.181343	0.321526	0.259911	0.286372	0.288947	0.289788	0.647798	0.539317	0.199377	0.601655	0.367283	0.397651	0.109106	0.344189	0.254106	0.263737	0.462766	0.279474	0.185069	0.152048	0.337620	0.548472	0.383047	0.239417	0.305361	0.491037	0.328293	0.283049	0.295053	0.604711	0.212738	0.251728	0.237559	0.184050	0.225370	0.179586	0.344327	0.883722	0.466938	0.375703	0.248543	0.303309	0.451399	0.480226	0.238229	0.228488	0.242015	0.138688	0.448124	0.501121	0.266211	0.210281	0.495920	0.530514	0.173885	0.069172	0.462868	0.383689	0.232667	0.205232	0.232699	0.158603	0.303590	0.282784	0.361735	0.141734	0.203986	0.077091	0.230874	0.178759
80	1.057878	0.840220	0.162459	0.317028	0.386403	0.375593	0.309390	0.300562	0.733575	0.675652	0.186509	0.490301	0.360912	0.380471	0.110048	0.349699	0.276533	0.280869	0.506527	0.369537	0.147399	0.121639	0.337931	0.518579	0.384925	0.243564	0.297483	0.490394	0.326467	0.282462	0.279034	0.599793	0.214314	0.246047	0.242982	0.182259	0.248387	0.181049	0.309544	0.872440	0.481677	0.376927	0.231855	0.345281	0.454712	0.486369	0.238379	0.213221	0.246300	0.143160	0.450774	0.520418	0.220228	0.142887	0.385787	0.515989	0.175308	0.069688	0.428046	0.450861	0.197537	0.139158	0.243121	0.152694	0.301916	0.279900	0.351351	0.141846	0.197366	0.074656	0.244478	0.188888
81	1.082354	0.873549	0.136888	0.283402	0.421216	0.416708	0.310995	0.312058	0.837576	0.739874	0.145185	0.331524	0.381990	0.379029	0.093619	0.431953	0.291900	0.284168	0.480636	0.341134	0.125550	0.085934	0.297769	0.442616	0.388802	0.244202	0.277752	0.506946	0.324723	0.283288	0.263611	0.555387	0.212950	0.226372	0.234777	0.192236	0.260259	0.177524	0.299282	0.815475	0.485951	0.377115	0.224877	0.359886	0.455483	0.485357	0.241455	0.201988	0.271223	0.170722	0.466199	0.528027	0.305108	0.156088	0.340860	0.490457	0.180771	0.087661	0.425526	0.469160	0.200308	0.137448	0.249412	0.151787	0.312570	0.270960	0.274969	0.158356	0.181101	0.071728	0.245341	0.256730
82	1.088252	0.881170	0.133224	0.226936	0.423733	0.416565	0.313306	0.406629	0.823044	0.733570	0.114743	0.215745	0.384368	0.377671	0.117274	0.588911	0.276686	0.268868	0.491643	0.329884	0.129845	0.086309	0.223610	0.427198	0.328297	0.232431	0.278760	0.518360	0.320002	0.281806	0.257499	0.420851	0.189726	0.221087	0.243870	0.217452	0.296116	0.204748	0.301732	0.827555	0.495545	0.377511	0.241910	0.369683	0.418068	0.445420	0.225752	0.194442	0.385272	0.256996	0.444854	0.521034	0.323275	0.184557	0.360444	0.514495	0.245734	0.137899	0.460922	0.469094	0.213948	0.146735	0.245214	0.156314	0.295652	0.227825	0.192884	0.244081	0.146768	0.073188	0.236472	0.318995
83	1.063536	0.865131	0.107219	0.217142	0.415861	0.403504	0.313354	0.430286	0.805362	0.724630	0.088914	0.129465	0.387971	0.378478	0.210677	0.666311	0.312665	0.281640	0.519545	0.325931	0.142186	0.099931	0.214277	0.400103	0.283774	0.231225	0.308895	0.533883	0.299330	0.253823	0.205142	0.310922	0.132392	0.184525	0.252627	0.240256	0.320447	0.233782	0.284446	0.835090	0.504077	0.379206	0.246726	0.380139	0.410757	0.418280	0.198480	0.187843	0.473962	0.332683	0.379219	0.498254	0.431453	0.244444	0.337533	0.491187	0.317296	0.178164	0.489267	0.456985	0.210149	0.172386	0.238299	0.153720	0.273263	0.184117	0.188601	0.289052	0.146810	0.077560	0.228338	0.319162
84	0.956146	0.799464	0.097036	0.171304	0.411472	0.396871	0.314110	0.416522	0.772321	0.701297	0.073645	0.118296	0.369048	0.325262	0.246436	0.680942	0.370180	0.310467	0.563628	0.374380	0.148822	0.106882	0.252007	0.357313	0.278529	0.239252	0.337871	0.551793	0.183434	0.186179	0.138402	0.252976	0.125529	0.184784	0.251578	0.247172	0.329427	0.268404	0.275712	0.832141	0.507456	0.382665	0.246883	0.381891	0.403412	0.404852	0.193526	0.137593	0.482256	0.349622	0.339539	0.484959	0.488401	0.290308	0.299834	0.496585	0.338853	0.197386	0.494391	0.435974	0.218966	0.170831	0.235665	0.149394	0.303215	0.193228	0.184724	0.294700	0.137856	0.078729	0.222789	0.319373
85	0.946158	0.789098	0.097255	0.133391	0.411863	0.395408	0.321500	0.426607	0.712303	0.671327	0.059266	0.119355	0.363787	0.295148	0.252266	0.737429	0.393859	0.302777	0.601342	0.460920	0.151203	0.106686	0.262675	0.357025	0.285524	0.239311	0.342036	0.548495	0.113607	0.155637	0.115472	0.244163	0.115931	0.180098	0.221896	0.247009	0.351338	0.316862	0.247071	0.795503	0.508450	0.386038	0.248706	0.383824	0.364284	0.381368	0.164264	0.084069	0.519101	0.371100	0.333289	0.473482	0.475911	0.291714	0.275091	0.565076	0.349786	0.205101	0.495495	0.433028	0.218238	0.168087	0.235726	0.154600	0.339882	0.213518	0.181128	0.329925	0.153985	0.076931	0.217570	0.319575
86	0.803877	0.685102	0.088531	0.105537	0.420140	0.394601	0.320992	0.469394	0.703761	0.663349	0.051121	0.119710	0.356049	0.283196	0.266031	0.786828	0.395309	0.300736	0.582424	0.435893	0.149502	0.108476	0.269606	0.309022	0.294974	0.240419	0.324036	0.547778	0.088245	0.142710	0.072399	0.245693	0.114272	0.169983	0.192493	0.253024	0.354280	0.319730	0.230526	0.712094	0.508482	0.386896	0.247966	0.384133	0.392143	0.381069	0.108349	0.064730	0.523562	0.373991	0.334026	0.425392	0.483443	0.291638	0.287965	0.671170	0.389357	0.231651	0.493715	0.431187	0.215868	0.169107	0.238458	0.153458	0.346351	0.237253	0.180456	0.348316	0.194570	0.071938	0.210553	0.319733
87	0.793381	0.675527	0.067066	0.072242	0.443115	0.401569	0.307463	0.508992	0.671316	0.635529	0.059635	0.124330	0.395855	0.311276	0.301033	0.837680	0.387503	0.296688	0.543297	0.449683	0.143593	0.103687	0.287467	0.280879	0.346581	0.258370	0.322823	0.545655	0.109220	0.239795	0.078759	0.223401	0.115525	0.168965	0.182262	0.268884	0.353356	0.321800	0.179855	0.599397	0.509133	0.390077	0.245019	0.383075	0.337899	0.338127	0.103798	0.045219	0.540446	0.388994	0.327873	0.411667	0.492003	0.300629	0.290076	0.722247	0.416300	0.264712	0.486472	0.429777	0.215444	0.173448	0.238364	0.125693	0.355446	0.259757	0.183353	0.353712	0.181303	0.068716	0.205832	0.298119
88	0.703200	0.618316	0.063095	0.095633	0.452270	0.406605	0.271138	0.509386	0.629465	0.612758	0.111125	0.124835	0.463298	0.378752	0.312564	0.863491	0.401982	0.313047	0.523040	0.464330	0.134085	0.093178	0.299672	0.263126	0.408394	0.297090	0.312896	0.545142	0.135829	0.285015	0.080508	0.198358	0.107877	0.154987	0.182687	0.270348	0.355858	0.322155	0.144378	0.557868	0.501871	0.382269	0.240784	0.384538	0.326960	0.351750	0.095494	0.042441	0.558163	0.405724	0.324910	0.353805	0.494146	0.306392	0.281896	0.722977	0.423806	0.273204	0.480022	0.406713	0.214070	0.173587	0.231413	0.117225	0.364764	0.304079	0.190958	0.354649	0.182276	0.069088	0.178733	0.266795
89	0.699223	0.606083	0.063135	0.104792	0.450685	0.400420	0.248403	0.517787	0.629318	0.613387	0.123513	0.140118	0.538413	0.463978	0.321769	0.868911	0.408450	0.304968	0.588746	0.470584	0.128573	0.084728	0.288548	0.253996	0.457562	0.286994	0.287833	0.544098	0.137659	0.305106	0.081921	0.198968	0.089613	0.098697	0.182817	0.265370	0.356064	0.323531	0.139374	0.491655	0.489364	0.370839	0.221616	0.380127	0.323658	0.351254	0.104795	0.047875	0.562857	0.414184	0.323544	0.319216	0.494318	0.304803	0.274203	0.721578	0.556231	0.380483	0.479320	0.393875	0.199730	0.170871	0.208598	0.116992	0.345094	0.298315	0.195425	0.350250	0.201978	0.068822	0.150103	0.265900
90	0.540095	0.483375	0.063751	0.133324	0.443305	0.393292	0.249096	0.534401	0.597054	0.588416	0.123525	0.147184	0.557085	0.500278	0.325834	0.864200	0.368847	0.273731	0.630312	0.462107	0.141251	0.086171	0.285195	0.247899	0.677068	0.362583	0.284614	0.484962	0.161613	0.318734	0.082077	0.200029	0.088667	0.081582	0.186784	0.234127	0.351331	0.319549	0.113746	0.331105	0.465184	0.356194	0.178256	0.281227	0.317945	0.346464	0.121173	0.050125	0.591448	0.455542	0.304628	0.317022	0.493175	0.299499	0.287238	0.688834	0.588632	0.401199	0.419874	0.356254	0.185873	0.167161	0.189617	0.110304	0.348469	0.299863	0.194023	0.349719	0.202705	0.067424	0.146062	0.265708
91	0.415389	0.345541	0.063854	0.148783	0.435215	0.373150	0.246533	0.533915	0.575009	0.530977	0.123298	0.141725	0.540333	0.486316	0.326665	0.844991	0.309492	0.235846	0.592963	0.488526	0.145344	0.087115	0.284384	0.245945	0.689906	0.400222	0.263914	0.368468	0.202083	0.336926	0.092647	0.286308	0.086785	0.072789	0.194365	0.221309	0.320633	0.313094	0.101844	0.277526	0.284447	0.204916	0.156905	0.269200	0.332312	0.344520	0.116194	0.079586	0.632208	0.494411	0.287883	0.315666	0.494363	0.298446	0.293117	0.661670	0.592682	0.407799	0.324622	0.348295	0.180419	0.159845	0.188564	0.103153	0.344871	0.298367	0.190149	0.346692	0.206863	0.066195	0.101438	0.258274
92	0.383256	0.305680	0.062472	0.148475	0.447830	0.401013	0.216038	0.538940	0.335969	0.321332	0.138291	0.144321	0.528650	0.482688	0.326241	0.839656	0.302462	0.217031	0.730618	0.526012	0.157131	0.096023	0.269642	0.250048	0.699336	0.397930	0.238450	0.350459	0.233994	0.340492	0.204683	0.372149	0.086910	0.070110	0.193246	0.219444	0.319064	0.313963	0.104222	0.273867	0.264229	0.188599	0.167099	0.224416	0.338509	0.345790	0.121498	0.104272	0.688756	0.541935	0.284523	0.298945	0.449893	0.287792	0.294065	0.644557	0.600438	0.419497	0.310146	0.264570	0.166142	0.159637	0.180000	0.099617	0.342118	0.299979	0.185739	0.343031	0.207198	0.065342	0.069946	0.183774
93	0.378378	0.312266	0.066237	0.148774	0.367948	0.368896	0.195486	0.548124	0.251919	0.283906	0.154204	0.143162	0.518669	0.514127	0.325954	0.808167	0.279930	0.190834	0.749285	0.620664	0.217848	0.133232	0.264626	0.251677	0.704206	0.405954	0.233500	0.326896	0.259267	0.341285	0.246020	0.389008	0.089164	0.078970	0.168723	0.222532	0.309318	0.311593	0.088227	0.275556	0.241784	0.181499	0.169114	0.177189	0.343900	0.353672	0.121582	0.116695	0.696239	0.551901	0.278451	0.266935	0.430603	0.261281	0.272910	0.611112	0.600588	0.431266	0.304609	0.143946	0.162131	0.160140	0.167618	0.099882	0.351284	0.303168	0.181557	0.342291	0.218409	0.059071	0.065624	0.030445
94	0.380209	0.338137	0.072543	0.148603	0.392385	0.432836	0.201662	0.534323	0.256025	0.284882	0.157694	0.142056	0.515799	0.521530	0.317328	0.713268	0.272757	0.176401	0.736139	0.695269	0.238241	0.195693	0.223012	0.195898	0.703322	0.408246	0.225032	0.269755	0.263419	0.342502	0.248470	0.435146	0.107384	0.091480	0.162636	0.222127	0.260262	0.277742	0.078414	0.292757	0.231284	0.183447	0.156585	0.159882	0.390738	0.406165	0.128754	0.127143	0.699506	0.554920	0.241732	0.216422	0.356459	0.210491	0.272475	0.593992	0.605195	0.430264	0.278713	0.111542	0.160132	0.161497	0.157147	0.094414	0.335325	0.304619	0.166147	0.326669	0.218695	0.047383	0.061623	0.028307
95	0.404308	0.345259	0.080950	0.148885	0.395070	0.441751	0.196881	0.464694	0.247889	0.283615	0.160539	0.139551	0.513808	0.514750	0.266491	0.636086	0.274358	0.148090	0.781894	0.689491	0.253234	0.219811	0.184596	0.176647	0.714035	0.416382	0.176575	0.201983	0.265703	0.341121	0.263917	0.429034	0.131751	0.106999	0.156201	0.204555	0.226487	0.230725	0.138152	0.461763	0.232142	0.182693	0.130507	0.120056	0.394145	0.439776	0.134010	0.131577	0.639832	0.522693	0.158533	0.158604	0.231311	0.147984	0.273512	0.593393	0.582720	0.426967	0.197994	0.108919	0.143144	0.155779	0.156629	0.074165	0.332756	0.308846	0.139635	0.256830	0.253293	0.037097	0.048233	0.025960
96	0.410842	0.343327	0.074952	0.147485	0.412705	0.456966	0.192801	0.453258	0.243780	0.271343	0.162094	0.138123	0.530259	0.522451	0.227927	0.624686	0.319708	0.143027	0.690957	0.705168	0.254655	0.220229	0.178951	0.177465	0.727019	0.428656	0.110346	0.137353	0.276483	0.337554	0.274397	0.423175	0.136458	0.103728	0.139856	0.174166	0.215555	0.188382	0.169443	0.506553	0.219804	0.176132	0.145313	0.112345	0.380769	0.433778	0.149331	0.132561	0.560040	0.470366	0.130786	0.129458	0.198951	0.119202	0.274940	0.552257	0.551613	0.415698	0.137018	0.107751	0.114551	0.119599	0.156768	0.072119	0.343477	0.321705	0.120588	0.228167	0.241577	0.028277	0.033505	0.023460
97	0.441033	0.353017	0.065617	0.144620	0.418664	0.467250	0.175726	0.453140	0.241257	0.268784	0.162188	0.138138	0.547213	0.528137	0.219453	0.546760	0.353831	0.153634	0.637977	0.768433	0.251918	0.218753	0.150769	0.173267	0.724947	0.428681	0.101738	0.119011	0.278763	0.335728	0.276065	0.422967	0.139246	0.132870	0.134128	0.150166	0.201268	0.146490	0.176149	0.520542	0.216380	0.167959	0.165018	0.102046	0.368970	0.403071	0.157780	0.134121	0.538629	0.452188	0.108585	0.125385	0.202284	0.158206	0.258264	0.409833	0.534012	0.409330	0.112194	0.105499	0.105379	0.127791	0.147796	0.065127	0.297903	0.306602	0.115165	0.208514	0.206859	0.020867	0.026605	0.020893
98	0.519672	0.416468	0.063357	0.135970	0.430713	0.483453	0.164819	0.428181	0.202123	0.235861	0.161407	0.146525	0.545210	0.526135	0.208009	0.439022	0.431648	0.131037	0.610429	0.803040	0.249887	0.221022	0.098589	0.233838	0.720975	0.428444	0.157917	0.189509	0.270736	0.286607	0.269385	0.423635	0.138095	0.144908	0.132318	0.148252	0.200534	0.145604	0.177415	0.546509	0.225613	0.191897	0.173259	0.103168	0.349304	0.364623	0.155290	0.130646	0.502784	0.434425	0.077794	0.125218	0.208188	0.272954	0.234622	0.238376	0.529455	0.407468	0.103176	0.101095	0.107316	0.132933	0.114763	0.044721	0.275068	0.295266	0.114229	0.139405	0.201133	0.014788	0.020590	0.018324
99	0.497864	0.405015	0.063132	0.119283	0.446255	0.512744	0.164003	0.368813	0.175220	0.187879	0.151662	0.170351	0.506691	0.509002	0.156189	0.315822	0.440583	0.147808	0.491075	0.707599	0.252183	0.221500	0.090101	0.286375	0.693247	0.415356	0.200085	0.246064	0.266711	0.250630	0.268972	0.422214	0.171812	0.182703	0.128571	0.147194	0.247114	0.161775	0.188016	0.564276	0.225105	0.191349	0.175065	0.104013	0.349633	0.358748	0.142595	0.129258	0.495386	0.431897	0.074032	0.123716	0.234258	0.337338	0.221884	0.228143	0.491424	0.409526	0.101841	0.098399	0.134968	0.180725	0.081606	0.039498	0.260743	0.263996	0.111326	0.084803	0.188833	0.009983	0.018760	0.015823
100	0.448955	0.374793	0.062683	0.103603	0.434557	0.514784	0.154586	0.325476	0.168460	0.167028	0.134063	0.169979	0.437969	0.462486	0.131631	0.230913	0.456181	0.163613	0.460946	0.626388	0.249970	0.226937	0.092952	0.287425	0.636809	0.368242	0.210055	0.255063	0.261128	0.188966	0.278936	0.416725	0.225166	0.184963	0.128964	0.113058	0.252488	0.161064	0.203509	0.576483	0.188672	0.173673	0.169495	0.103776	0.347743	0.363392	0.121974	0.118704	0.477947	0.418872	0.076771	0.119243	0.234070	0.345822	0.217484	0.163538	0.483626	0.402749	0.101754	0.096071	0.155038	0.201973	0.074825	0.040236	0.245082	0.235075	0.102389	0.051490	0.161689	0.006557	0.014832	0.013474
101	0.439865	0.371777	0.061431	0.052975	0.440947	0.517784	0.140395	0.321566	0.118554	0.089297	0.145398	0.173668	0.337581	0.376225	0.105644	0.202164	0.466789	0.187461	0.472465	0.618428	0.252532	0.228991	0.087523	0.298408	0.596154	0.357131	0.211182	0.302227	0.258666	0.172666	0.295258	0.416352	0.237873	0.204415	0.128814	0.086172	0.248798	0.153819	0.211166	0.579327	0.152823	0.162965	0.155880	0.080123	0.329276	0.366026	0.109241	0.108606	0.455809	0.403985	0.076950	0.112146	0.299814	0.423485	0.194617	0.144346	0.463787	0.407244	0.101905	0.094457	0.172165	0.203040	0.074530	0.042231	0.203534	0.182768	0.066451	0.040580	0.159642	0.005108	0.012154	0.011381
