	154_P_T2_sh_L_ND_A_01.c3d	154_P_T2_sh_L_ND_A_01.c3d	154_P_T2_sh_L_ND_A_01.c3d	154_P_T2_sh_L_ND_A_01.c3d	154_P_T2_sh_L_ND_A_01.c3d	154_P_T2_sh_L_ND_A_01.c3d	154_P_T2_sh_L_ND_A_01.c3d	154_P_T2_sh_L_ND_A_01.c3d	154_P_T2_sh_L_ND_A_02.c3d	154_P_T2_sh_L_ND_A_02.c3d	154_P_T2_sh_L_ND_A_02.c3d	154_P_T2_sh_L_ND_A_02.c3d	154_P_T2_sh_L_ND_A_02.c3d	154_P_T2_sh_L_ND_A_02.c3d	154_P_T2_sh_L_ND_A_02.c3d	154_P_T2_sh_L_ND_A_02.c3d	154_P_T2_sh_L_ND_A_03.c3d	154_P_T2_sh_L_ND_A_03.c3d	154_P_T2_sh_L_ND_A_03.c3d	154_P_T2_sh_L_ND_A_03.c3d	154_P_T2_sh_L_ND_A_03.c3d	154_P_T2_sh_L_ND_A_03.c3d	154_P_T2_sh_L_ND_A_03.c3d	154_P_T2_sh_L_ND_A_03.c3d	154_P_T2_sh_L_ND_A_04.c3d	154_P_T2_sh_L_ND_A_04.c3d	154_P_T2_sh_L_ND_A_04.c3d	154_P_T2_sh_L_ND_A_04.c3d	154_P_T2_sh_L_ND_A_04.c3d	154_P_T2_sh_L_ND_A_04.c3d	154_P_T2_sh_L_ND_A_04.c3d	154_P_T2_sh_L_ND_A_04.c3d	154_P_T2_sh_L_ND_A_05.c3d	154_P_T2_sh_L_ND_A_05.c3d	154_P_T2_sh_L_ND_A_05.c3d	154_P_T2_sh_L_ND_A_05.c3d	154_P_T2_sh_L_ND_A_05.c3d	154_P_T2_sh_L_ND_A_05.c3d	154_P_T2_sh_L_ND_A_05.c3d	154_P_T2_sh_L_ND_A_05.c3d	154_P_T2_sh_L_ND_A_06.c3d	154_P_T2_sh_L_ND_A_06.c3d	154_P_T2_sh_L_ND_A_06.c3d	154_P_T2_sh_L_ND_A_06.c3d	154_P_T2_sh_L_ND_A_06.c3d	154_P_T2_sh_L_ND_A_06.c3d	154_P_T2_sh_L_ND_A_06.c3d	154_P_T2_sh_L_ND_A_06.c3d	154_P_T2_sh_L_ND_A_07.c3d	154_P_T2_sh_L_ND_A_07.c3d	154_P_T2_sh_L_ND_A_07.c3d	154_P_T2_sh_L_ND_A_07.c3d	154_P_T2_sh_L_ND_A_07.c3d	154_P_T2_sh_L_ND_A_07.c3d	154_P_T2_sh_L_ND_A_07.c3d	154_P_T2_sh_L_ND_A_07.c3d	154_P_T2_sh_L_ND_A_10.c3d	154_P_T2_sh_L_ND_A_10.c3d	154_P_T2_sh_L_ND_A_10.c3d	154_P_T2_sh_L_ND_A_10.c3d	154_P_T2_sh_L_ND_A_10.c3d	154_P_T2_sh_L_ND_A_10.c3d	154_P_T2_sh_L_ND_A_10.c3d	154_P_T2_sh_L_ND_A_10.c3d
	Biceps femoris_lat	Semitendinosus_lat	Vastus lateralis_lat	Vastus medialis_lat	Biceps femoris_med	Semitendinosus_med	Vastus lateralis_med	Vastus medialis_med	Biceps femoris_lat	Semitendinosus_lat	Vastus lateralis_lat	Vastus medialis_lat	Biceps femoris_med	Semitendinosus_med	Vastus lateralis_med	Vastus medialis_med	Biceps femoris_lat	Semitendinosus_lat	Vastus lateralis_lat	Vastus medialis_lat	Biceps femoris_med	Semitendinosus_med	Vastus lateralis_med	Vastus medialis_med	Biceps femoris_lat	Semitendinosus_lat	Vastus lateralis_lat	Vastus medialis_lat	Biceps femoris_med	Semitendinosus_med	Vastus lateralis_med	Vastus medialis_med	Biceps femoris_lat	Semitendinosus_lat	Vastus lateralis_lat	Vastus medialis_lat	Biceps femoris_med	Semitendinosus_med	Vastus lateralis_med	Vastus medialis_med	Biceps femoris_lat	Semitendinosus_lat	Vastus lateralis_lat	Vastus medialis_lat	Biceps femoris_med	Semitendinosus_med	Vastus lateralis_med	Vastus medialis_med	Biceps femoris_lat	Semitendinosus_lat	Vastus lateralis_lat	Vastus medialis_lat	Biceps femoris_med	Semitendinosus_med	Vastus lateralis_med	Vastus medialis_med	Biceps femoris_lat	Semitendinosus_lat	Vastus lateralis_lat	Vastus medialis_lat	Biceps femoris_med	Semitendinosus_med	Vastus lateralis_med	Vastus medialis_med
	P2D	P2D	P2D	P2D	P2D	P2D	P2D	P2D	P2D	P2D	P2D	P2D	P2D	P2D	P2D	P2D	P2D	P2D	P2D	P2D	P2D	P2D	P2D	P2D	P2D	P2D	P2D	P2D	P2D	P2D	P2D	P2D	P2D	P2D	P2D	P2D	P2D	P2D	P2D	P2D	P2D	P2D	P2D	P2D	P2D	P2D	P2D	P2D	P2D	P2D	P2D	P2D	P2D	P2D	P2D	P2D	P2D	P2D	P2D	P2D	P2D	P2D	P2D	P2D
	EMG_lat	EMG_lat	EMG_lat	EMG_lat	EMG_med	EMG_med	EMG_med	EMG_med	EMG_lat	EMG_lat	EMG_lat	EMG_lat	EMG_med	EMG_med	EMG_med	EMG_med	EMG_lat	EMG_lat	EMG_lat	EMG_lat	EMG_med	EMG_med	EMG_med	EMG_med	EMG_lat	EMG_lat	EMG_lat	EMG_lat	EMG_med	EMG_med	EMG_med	EMG_med	EMG_lat	EMG_lat	EMG_lat	EMG_lat	EMG_med	EMG_med	EMG_med	EMG_med	EMG_lat	EMG_lat	EMG_lat	EMG_lat	EMG_med	EMG_med	EMG_med	EMG_med	EMG_lat	EMG_lat	EMG_lat	EMG_lat	EMG_med	EMG_med	EMG_med	EMG_med	EMG_lat	EMG_lat	EMG_lat	EMG_lat	EMG_med	EMG_med	EMG_med	EMG_med
ITEM	Y	Y	Y	Y	Y	Y	Y	Y	Y	Y	Y	Y	Y	Y	Y	Y	Y	Y	Y	Y	Y	Y	Y	Y	Y	Y	Y	Y	Y	Y	Y	Y	Y	Y	Y	Y	Y	Y	Y	Y	Y	Y	Y	Y	Y	Y	Y	Y	Y	Y	Y	Y	Y	Y	Y	Y	Y	Y	Y	Y	Y	Y	Y	Y
1	0.268302	0.186230	0.386552	0.645432	0.152889	0.190763	0.448039	0.482245	0.557573	0.252158	0.639272	0.332835	0.112276	0.113440	0.521008	0.490300	1.133064	0.414693	0.338501	0.814174	0.103377	0.105862	0.417347	0.640478	0.403738	0.218311	0.881942	0.362920	0.424724	0.152929	0.504568	0.664601	0.383977	0.151453	0.308081	0.440080	0.168887	0.139974	0.403060	0.758264	0.516669	0.339061	0.559069	0.596766	0.296162	0.149934	0.381297	0.452931	0.159555	0.198406	0.518619	0.885785	0.067096	0.181769	0.691266	0.783517	0.579988	0.378710	0.429518	0.818187	0.101410	0.074666	0.575132	0.282003
2	0.271218	0.189155	0.343955	0.650838	0.153070	0.183805	0.445971	0.370138	0.559163	0.250212	0.625460	0.333986	0.140147	0.114468	0.473247	0.404113	1.131525	0.412570	0.335594	0.853910	0.075699	0.096359	0.416875	0.630714	0.379410	0.212667	0.846790	0.333653	0.467081	0.178956	0.508668	0.685737	0.379923	0.137971	0.293142	0.451929	0.129908	0.149357	0.375998	0.705254	0.522277	0.334622	0.536354	0.600556	0.330655	0.162362	0.367812	0.455301	0.159520	0.186194	0.528252	0.791479	0.064246	0.168934	0.668748	0.776181	0.504548	0.288964	0.425699	0.814593	0.106255	0.077231	0.527387	0.282726
3	0.270472	0.181481	0.322790	0.616672	0.172618	0.097208	0.439139	0.286231	0.559044	0.250938	0.629154	0.313860	0.163419	0.114669	0.486700	0.361204	1.128037	0.406080	0.303039	0.862373	0.078951	0.099565	0.445778	0.648593	0.395461	0.214755	0.839670	0.330386	0.579423	0.214100	0.506653	0.689322	0.340331	0.120690	0.283947	0.447988	0.104881	0.151299	0.378519	0.710297	0.524993	0.375562	0.574061	0.615352	0.336742	0.163188	0.364588	0.485537	0.160019	0.162436	0.559299	0.646474	0.065387	0.167789	0.628894	0.768742	0.430570	0.198003	0.427324	0.816972	0.126481	0.081944	0.502191	0.285247
4	0.271545	0.178636	0.438679	0.541270	0.169148	0.093985	0.437215	0.241119	0.557877	0.252490	0.628391	0.311780	0.166220	0.114939	0.503333	0.356889	1.135087	0.408453	0.237835	0.864515	0.082666	0.102980	0.499758	0.590796	0.434893	0.216795	0.844713	0.330025	0.594544	0.218537	0.515088	0.689187	0.354235	0.131655	0.282830	0.420251	0.102789	0.155896	0.356828	0.679010	0.522501	0.425274	0.644915	0.584233	0.373753	0.180905	0.378731	0.510583	0.155262	0.157730	0.612133	0.594643	0.063997	0.167422	0.623068	0.762729	0.431232	0.195380	0.431536	0.804833	0.143734	0.082893	0.508539	0.295290
5	0.281007	0.177372	0.478435	0.544600	0.149365	0.088747	0.422394	0.226933	0.518519	0.238147	0.623780	0.315477	0.213407	0.123371	0.453522	0.363462	1.146966	0.412542	0.228571	0.849656	0.084436	0.103905	0.540561	0.510996	0.445154	0.199917	0.841471	0.329700	0.603089	0.221948	0.489032	0.689005	0.355942	0.132054	0.290821	0.439115	0.100287	0.152137	0.346376	0.619905	0.519233	0.448742	0.674360	0.592991	0.439591	0.202682	0.413310	0.509817	0.153374	0.159796	0.638676	0.591960	0.064719	0.170874	0.647557	0.768058	0.432838	0.179645	0.434009	0.771543	0.151347	0.082914	0.473468	0.319168
6	0.288357	0.177070	0.468187	0.661577	0.135097	0.086317	0.418843	0.281641	0.476481	0.227725	0.615029	0.324531	0.266158	0.127331	0.396379	0.348109	1.144105	0.412315	0.216159	0.843910	0.083600	0.101017	0.570694	0.517795	0.439885	0.188819	0.827667	0.344695	0.617153	0.233442	0.496739	0.691450	0.353598	0.147899	0.293740	0.454902	0.107156	0.148004	0.322613	0.616649	0.519211	0.445165	0.671856	0.602939	0.445944	0.205742	0.438979	0.508032	0.150340	0.162435	0.647168	0.542581	0.070862	0.167866	0.719284	0.688262	0.445360	0.177764	0.426368	0.700320	0.154194	0.084171	0.387371	0.348638
7	0.284206	0.183473	0.464809	0.713654	0.137660	0.084304	0.443456	0.285893	0.450942	0.222660	0.600138	0.325074	0.268601	0.134673	0.378440	0.326734	1.135809	0.413070	0.211581	0.794341	0.077987	0.093303	0.593060	0.574398	0.439008	0.184182	0.823927	0.369202	0.629339	0.239070	0.503801	0.681959	0.353265	0.180593	0.295793	0.458553	0.111464	0.143851	0.316965	0.618693	0.520404	0.439606	0.651541	0.609944	0.450161	0.211328	0.455037	0.512878	0.140989	0.153962	0.654105	0.437716	0.070583	0.163699	0.746682	0.650963	0.444571	0.181802	0.423566	0.662399	0.154476	0.086968	0.345581	0.362546
8	0.294588	0.166273	0.464395	0.714943	0.155077	0.094321	0.486297	0.295253	0.488634	0.242603	0.557577	0.292258	0.268996	0.155224	0.381406	0.331710	1.131743	0.408913	0.210508	0.700216	0.081712	0.098641	0.583724	0.610124	0.439248	0.183139	0.826367	0.376107	0.633284	0.239814	0.486566	0.625699	0.443599	0.219465	0.293388	0.482425	0.114351	0.140680	0.304294	0.615924	0.534970	0.437299	0.651942	0.611381	0.458448	0.223149	0.459322	0.497451	0.136952	0.137609	0.636320	0.314573	0.071013	0.159585	0.739541	0.657936	0.442173	0.193617	0.455204	0.630090	0.156495	0.092835	0.359225	0.359268
9	0.323189	0.155122	0.495131	0.684167	0.263353	0.205844	0.460864	0.296542	0.544789	0.257153	0.550751	0.238694	0.269101	0.166379	0.408203	0.336948	1.084504	0.391507	0.204004	0.566205	0.088612	0.127003	0.571658	0.623278	0.433609	0.173687	0.807222	0.375915	0.650862	0.267785	0.458735	0.556389	0.461498	0.226999	0.293543	0.500914	0.110946	0.173411	0.225127	0.612694	0.551809	0.433570	0.664182	0.644497	0.462496	0.235286	0.534976	0.483954	0.139839	0.128847	0.641744	0.225333	0.071205	0.135165	0.738294	0.677373	0.469301	0.194204	0.498108	0.623023	0.255734	0.128355	0.387685	0.370514
10	0.339324	0.163774	0.576876	0.622718	0.287387	0.220917	0.335249	0.288580	0.565556	0.260472	0.554821	0.240907	0.270964	0.165971	0.444641	0.342881	1.084014	0.391344	0.182042	0.529998	0.095499	0.174800	0.579089	0.625567	0.405785	0.150055	0.740542	0.365231	0.674540	0.301147	0.444990	0.547136	0.455463	0.228998	0.285360	0.493980	0.191419	0.269035	0.188421	0.567756	0.520327	0.431272	0.670203	0.679556	0.466956	0.245325	0.651422	0.510292	0.141994	0.131018	0.706274	0.190311	0.067944	0.132725	0.724988	0.688501	0.473771	0.200674	0.461550	0.616358	0.332432	0.147968	0.411951	0.379263
11	0.349046	0.186511	0.584639	0.650168	0.298235	0.236521	0.319732	0.290644	0.563570	0.257827	0.543123	0.252608	0.270796	0.175904	0.467249	0.362563	1.088669	0.388413	0.181594	0.534825	0.116916	0.203357	0.586530	0.625451	0.380999	0.137543	0.655847	0.364667	0.669804	0.303399	0.447387	0.576635	0.440484	0.225006	0.288210	0.496263	0.201970	0.270844	0.188529	0.511787	0.543572	0.444366	0.652362	0.647786	0.474883	0.251085	0.711457	0.548772	0.146872	0.132917	0.752103	0.186610	0.068690	0.125246	0.725428	0.587645	0.539371	0.221122	0.409824	0.562891	0.335148	0.147529	0.436163	0.377433
12	0.353186	0.179685	0.594168	0.722218	0.294227	0.233007	0.324104	0.278281	0.560200	0.262813	0.499749	0.312008	0.271175	0.216116	0.467088	0.358533	1.097647	0.387813	0.198950	0.538931	0.133438	0.204635	0.596359	0.623859	0.450828	0.162609	0.620199	0.359926	0.650648	0.300196	0.472565	0.572976	0.430170	0.218692	0.311077	0.503875	0.205944	0.284081	0.187284	0.473315	0.525706	0.456038	0.632697	0.548168	0.487714	0.255488	0.728408	0.560222	0.169899	0.140889	0.769023	0.241604	0.069816	0.149983	0.727854	0.496550	0.537905	0.222025	0.391766	0.444029	0.339689	0.149108	0.449922	0.390086
13	0.324875	0.158100	0.592038	0.793557	0.293065	0.232699	0.324232	0.275526	0.641801	0.303641	0.431928	0.419622	0.272963	0.259659	0.524224	0.356422	0.966543	0.342094	0.195134	0.540717	0.149488	0.203895	0.618590	0.613239	0.645741	0.228421	0.598228	0.370987	0.613334	0.293808	0.502321	0.556715	0.429511	0.216446	0.348413	0.501199	0.214226	0.307601	0.198784	0.443216	0.537157	0.468590	0.630158	0.486428	0.499216	0.258023	0.722308	0.555106	0.233870	0.157084	0.772822	0.263240	0.071907	0.222660	0.666737	0.448747	0.507190	0.218747	0.416100	0.296541	0.344389	0.151688	0.455257	0.409432
14	0.331487	0.154441	0.589242	0.816447	0.291780	0.237428	0.321675	0.264574	0.715244	0.353135	0.327410	0.471901	0.273022	0.270034	0.559934	0.363520	0.455293	0.196646	0.213649	0.540086	0.153656	0.212130	0.625963	0.586446	0.653723	0.231951	0.572686	0.389159	0.592763	0.289484	0.503169	0.562017	0.411819	0.216860	0.366410	0.496189	0.225104	0.317270	0.196470	0.431425	0.550246	0.477350	0.660859	0.486666	0.519043	0.260969	0.758319	0.525245	0.263275	0.159529	0.769615	0.263329	0.070149	0.258221	0.601825	0.454240	0.495807	0.225557	0.440617	0.278048	0.343806	0.151537	0.454350	0.417890
15	0.333516	0.157063	0.548829	0.820042	0.300098	0.237880	0.320947	0.247003	0.716266	0.389373	0.307693	0.467333	0.271667	0.267977	0.564256	0.394468	0.441892	0.188586	0.274791	0.535061	0.163278	0.225531	0.625473	0.584527	0.668850	0.240734	0.567599	0.402505	0.594060	0.288980	0.476836	0.586213	0.409000	0.214927	0.367996	0.503122	0.226911	0.315857	0.189575	0.443951	0.546096	0.469165	0.710903	0.495272	0.521981	0.260482	0.808546	0.495153	0.256621	0.143254	0.727524	0.266063	0.074389	0.308599	0.597803	0.455521	0.479561	0.224828	0.485672	0.300499	0.341291	0.150524	0.450117	0.418754
16	0.331453	0.155935	0.450862	0.813003	0.295286	0.238272	0.311210	0.210314	0.711998	0.392027	0.303092	0.465896	0.273268	0.267386	0.553490	0.442732	0.440811	0.173753	0.326925	0.496515	0.163052	0.229669	0.629044	0.566619	0.665492	0.234410	0.568545	0.415717	0.591013	0.287837	0.468349	0.608588	0.407171	0.214979	0.373882	0.491678	0.223290	0.309354	0.176200	0.407811	0.534541	0.425528	0.773220	0.504384	0.509164	0.255869	0.817838	0.478656	0.256421	0.138501	0.698494	0.260366	0.075846	0.311309	0.595222	0.452129	0.473216	0.221912	0.520064	0.416778	0.339948	0.150984	0.445661	0.430236
17	0.329717	0.159609	0.428695	0.787009	0.296446	0.238553	0.217110	0.237726	0.708316	0.392040	0.294685	0.480311	0.273220	0.271029	0.537144	0.468422	0.441612	0.146962	0.328581	0.415310	0.220529	0.232707	0.629181	0.522636	0.654273	0.234967	0.573047	0.408402	0.585141	0.288305	0.493153	0.601791	0.397006	0.213169	0.377464	0.474392	0.234286	0.311768	0.174278	0.343888	0.524770	0.402216	0.820399	0.521137	0.490804	0.253221	0.823628	0.467662	0.256660	0.135943	0.702078	0.254340	0.078166	0.318464	0.593793	0.436606	0.430831	0.214015	0.522197	0.589433	0.338775	0.145884	0.453644	0.451180
18	0.322387	0.163904	0.442866	0.700575	0.247457	0.184203	0.149587	0.230459	0.704727	0.389566	0.314899	0.523559	0.282522	0.271879	0.534440	0.471210	0.481097	0.156364	0.325412	0.314070	0.265432	0.234513	0.606016	0.490279	0.651708	0.242182	0.612658	0.384901	0.568590	0.284686	0.546166	0.574582	0.365077	0.200934	0.370742	0.451666	0.233392	0.312765	0.218794	0.283461	0.522451	0.397538	0.824281	0.526634	0.478424	0.254999	0.830923	0.466005	0.257417	0.135954	0.720673	0.258000	0.078524	0.316128	0.521746	0.421682	0.416361	0.214661	0.507053	0.638839	0.336702	0.144844	0.528767	0.469726
19	0.314047	0.158166	0.462228	0.739498	0.150099	0.139203	0.201433	0.228754	0.697181	0.387806	0.321708	0.561538	0.272460	0.272655	0.527691	0.461389	0.513644	0.169290	0.340346	0.279049	0.272429	0.245291	0.602023	0.482493	0.655088	0.241245	0.637470	0.380636	0.524277	0.267783	0.588388	0.560916	0.351459	0.196419	0.370171	0.423640	0.231220	0.315293	0.227905	0.267130	0.529206	0.367801	0.789271	0.498727	0.461524	0.250152	0.831096	0.457305	0.259487	0.147183	0.729769	0.269969	0.084785	0.318609	0.476270	0.439830	0.423405	0.214501	0.502474	0.630841	0.338166	0.147825	0.643923	0.470836
20	0.340610	0.194487	0.491709	0.808589	0.141541	0.094304	0.245750	0.230751	0.696658	0.391634	0.322107	0.591740	0.275944	0.281261	0.496500	0.471867	0.501454	0.164944	0.373503	0.267020	0.276381	0.281642	0.604837	0.464250	0.639836	0.232915	0.616102	0.384036	0.399525	0.247860	0.615085	0.568200	0.352357	0.198362	0.369444	0.393307	0.234411	0.318174	0.219043	0.287582	0.563429	0.320900	0.730048	0.503532	0.436730	0.241737	0.829343	0.462456	0.260388	0.154286	0.706612	0.279334	0.087223	0.321910	0.446437	0.452996	0.421659	0.213635	0.508649	0.627189	0.338408	0.148172	0.714422	0.441687
21	0.339758	0.210137	0.568760	0.810331	0.115052	0.080758	0.351866	0.241763	0.698443	0.395684	0.312295	0.620444	0.276167	0.286679	0.488212	0.502420	0.503759	0.158831	0.402322	0.258411	0.278453	0.357020	0.588054	0.432248	0.627299	0.241444	0.620542	0.383562	0.386251	0.252607	0.612652	0.579068	0.355570	0.181114	0.386799	0.377499	0.239195	0.318562	0.219264	0.315948	0.530842	0.282371	0.693430	0.519148	0.430734	0.240662	0.827207	0.439350	0.260759	0.155985	0.653932	0.290573	0.086540	0.321151	0.440469	0.435972	0.418031	0.197511	0.522709	0.630685	0.337855	0.147053	0.725823	0.416732
22	0.317703	0.198889	0.620881	0.822025	0.108545	0.084129	0.387225	0.304447	0.665356	0.384228	0.316608	0.633396	0.233082	0.286978	0.498543	0.520666	0.482134	0.154529	0.400974	0.263746	0.279781	0.387624	0.540377	0.422470	0.644019	0.261734	0.640496	0.383497	0.372380	0.255565	0.611507	0.576743	0.341495	0.145952	0.425169	0.379882	0.218406	0.249683	0.221816	0.325224	0.520263	0.275463	0.696143	0.543920	0.410200	0.231048	0.820483	0.405428	0.259460	0.154228	0.627407	0.335599	0.088224	0.318477	0.457792	0.350741	0.401985	0.176055	0.548249	0.642704	0.331604	0.145203	0.714254	0.419885
23	0.312003	0.182409	0.689122	0.797838	0.111939	0.079911	0.392282	0.388225	0.615617	0.371313	0.296939	0.632245	0.184983	0.287069	0.498697	0.527542	0.483920	0.154533	0.408354	0.261492	0.279374	0.388849	0.496080	0.421162	0.653956	0.268206	0.670340	0.380402	0.348407	0.251351	0.600114	0.565786	0.203832	0.086073	0.457999	0.332513	0.168600	0.224198	0.215282	0.335879	0.521361	0.278768	0.729020	0.538995	0.333717	0.211095	0.805684	0.403969	0.257820	0.151993	0.622612	0.381387	0.088323	0.324124	0.486933	0.329778	0.411125	0.171960	0.609597	0.664428	0.325197	0.144664	0.720392	0.422791
24	0.285194	0.176467	0.689336	0.708222	0.085271	0.096211	0.389591	0.430862	0.582058	0.368507	0.306802	0.631212	0.190760	0.284070	0.498750	0.526264	0.512769	0.169098	0.467083	0.269192	0.279934	0.404375	0.462790	0.389220	0.654572	0.268430	0.670131	0.368295	0.329889	0.250675	0.584521	0.566013	0.193164	0.080691	0.498919	0.302797	0.164125	0.219096	0.217808	0.323131	0.517445	0.280946	0.758585	0.524912	0.321215	0.208104	0.790119	0.406459	0.257569	0.151302	0.619589	0.428837	0.086238	0.328024	0.431870	0.342115	0.418928	0.157332	0.717174	0.690273	0.322122	0.144815	0.754944	0.421706
25	0.290893	0.181245	0.718592	0.617998	0.078305	0.104053	0.397978	0.454249	0.582189	0.369004	0.343716	0.625772	0.195364	0.272320	0.495528	0.505896	0.527417	0.196387	0.530666	0.275580	0.281144	0.422635	0.434123	0.302009	0.662533	0.270649	0.667105	0.372398	0.326049	0.250444	0.574953	0.557266	0.192209	0.073768	0.528934	0.326669	0.161763	0.182240	0.214830	0.297205	0.449608	0.272425	0.752097	0.485459	0.316672	0.203514	0.776468	0.407520	0.254455	0.150923	0.619397	0.478249	0.084172	0.278458	0.362391	0.336149	0.395768	0.165336	0.796701	0.697710	0.321043	0.144408	0.773148	0.400542
26	0.295557	0.193988	0.820457	0.571683	0.070649	0.102729	0.416397	0.448572	0.571635	0.368136	0.400422	0.611851	0.196394	0.265244	0.472338	0.507774	0.578074	0.215133	0.549177	0.279698	0.280618	0.430448	0.431623	0.212234	0.666256	0.271466	0.667813	0.419338	0.276981	0.211313	0.580802	0.505659	0.190418	0.080017	0.518243	0.311644	0.137026	0.118406	0.220626	0.305208	0.438488	0.276519	0.760899	0.422597	0.305376	0.190855	0.776909	0.403107	0.245667	0.147268	0.599693	0.492549	0.085899	0.262831	0.357602	0.309919	0.386011	0.169739	0.839212	0.696805	0.321046	0.143319	0.773574	0.405660
27	0.297790	0.197999	0.880260	0.562868	0.072889	0.105215	0.425075	0.509244	0.496536	0.332425	0.427177	0.563736	0.193256	0.267366	0.439606	0.499974	0.563426	0.213920	0.567935	0.326029	0.278339	0.426114	0.460396	0.172486	0.682675	0.273835	0.663171	0.432005	0.211445	0.163261	0.598305	0.440281	0.183743	0.084901	0.582479	0.321690	0.132493	0.115187	0.230881	0.291823	0.434681	0.266791	0.826099	0.407560	0.299534	0.176261	0.749968	0.396868	0.242453	0.145171	0.514350	0.494937	0.083016	0.174958	0.362629	0.302994	0.302337	0.150220	0.863275	0.697952	0.318370	0.137832	0.774578	0.407765
28	0.297410	0.201762	0.920891	0.572707	0.082729	0.119027	0.405643	0.580849	0.277094	0.253808	0.413684	0.552668	0.196540	0.259463	0.418660	0.488751	0.551282	0.213982	0.672263	0.458124	0.276628	0.410293	0.485499	0.175757	0.698280	0.274456	0.624826	0.417098	0.202643	0.156980	0.634859	0.395906	0.171269	0.084724	0.664820	0.347267	0.125668	0.114499	0.235335	0.261032	0.415930	0.239123	0.914408	0.419456	0.295194	0.162499	0.670700	0.359225	0.236729	0.142644	0.436804	0.493800	0.080759	0.157633	0.414438	0.302867	0.261584	0.141692	0.864226	0.718714	0.226875	0.099832	0.791528	0.415345
29	0.287753	0.198498	0.960921	0.571707	0.108854	0.213626	0.402323	0.584009	0.172702	0.158989	0.424137	0.540810	0.200276	0.223000	0.387734	0.496452	0.534428	0.214235	0.769519	0.662874	0.269099	0.395826	0.481831	0.197634	0.622667	0.249344	0.565716	0.413916	0.197346	0.152611	0.670585	0.401737	0.163075	0.083755	0.704647	0.341191	0.116142	0.105990	0.244707	0.256119	0.401576	0.210154	0.974048	0.438626	0.285758	0.154320	0.614153	0.295237	0.217949	0.127756	0.397686	0.472203	0.078253	0.151797	0.507350	0.299432	0.279722	0.137427	0.862930	0.735751	0.120822	0.073958	0.808715	0.422349
30	0.279893	0.195523	0.979963	0.551590	0.114496	0.254868	0.331866	0.575310	0.166103	0.136122	0.476194	0.551230	0.199158	0.174531	0.278172	0.508355	0.530722	0.214365	0.791049	0.795978	0.262329	0.396224	0.453101	0.208135	0.475402	0.215387	0.527154	0.442902	0.189718	0.150132	0.660267	0.407488	0.160747	0.083265	0.728556	0.403411	0.095715	0.102490	0.273181	0.257987	0.384978	0.186741	0.988440	0.440795	0.264840	0.146563	0.590142	0.243645	0.135109	0.104391	0.412998	0.474644	0.079757	0.160881	0.543858	0.298514	0.298638	0.122761	0.854912	0.739228	0.116318	0.074380	0.803315	0.421466
31	0.282607	0.197201	0.987131	0.425747	0.115287	0.289814	0.257481	0.563945	0.169649	0.139054	0.589353	0.578786	0.198875	0.161102	0.215611	0.507227	0.530846	0.214336	0.773242	0.816281	0.254201	0.400339	0.412745	0.208374	0.502623	0.237150	0.535263	0.445788	0.167030	0.148549	0.645560	0.395394	0.164138	0.082813	0.740186	0.446350	0.090906	0.099177	0.282396	0.257906	0.382380	0.179129	0.955812	0.435628	0.243717	0.141565	0.588344	0.221034	0.071757	0.093939	0.425647	0.506944	0.072530	0.159696	0.526906	0.287267	0.366374	0.125788	0.848365	0.746076	0.097386	0.069709	0.796234	0.415894
32	0.206491	0.156541	0.962698	0.394270	0.111918	0.336556	0.236747	0.511084	0.174138	0.145500	0.691237	0.556784	0.195536	0.160745	0.220838	0.476870	0.532974	0.214140	0.750832	0.822050	0.252149	0.396868	0.397033	0.209265	0.501801	0.240103	0.575474	0.429948	0.125859	0.145067	0.644903	0.375360	0.178737	0.102128	0.741623	0.443034	0.086021	0.100085	0.289454	0.248449	0.386343	0.181515	0.892699	0.426408	0.197968	0.135138	0.549036	0.210592	0.072990	0.093552	0.420389	0.572136	0.066398	0.154068	0.515166	0.243254	0.399731	0.125844	0.840532	0.735631	0.077841	0.061372	0.797133	0.417715
33	0.195076	0.148324	0.887399	0.437945	0.107026	0.352199	0.242091	0.463941	0.174767	0.148346	0.760825	0.517413	0.189132	0.160682	0.232115	0.429900	0.533878	0.214765	0.758090	0.853233	0.244401	0.390410	0.396844	0.212911	0.498245	0.242430	0.613691	0.404060	0.122421	0.149275	0.655961	0.347823	0.184631	0.122229	0.745095	0.465329	0.068803	0.097446	0.290320	0.201671	0.452042	0.208940	0.840682	0.409084	0.182078	0.134650	0.455761	0.215657	0.074929	0.095054	0.397537	0.611343	0.065981	0.152501	0.518586	0.240075	0.451832	0.138156	0.836048	0.623504	0.074462	0.057811	0.797370	0.428223
34	0.186359	0.143454	0.822564	0.394214	0.106526	0.356111	0.232397	0.432247	0.158152	0.138343	0.772586	0.475976	0.181589	0.155193	0.233206	0.411400	0.507670	0.209881	0.796037	0.895355	0.243502	0.400377	0.380206	0.214743	0.498189	0.242757	0.613821	0.396746	0.113695	0.151956	0.657573	0.345171	0.179712	0.121489	0.743875	0.544027	0.059894	0.141002	0.287120	0.178516	0.489643	0.225913	0.852962	0.394122	0.181728	0.131214	0.396002	0.208684	0.074023	0.096866	0.375021	0.625981	0.064009	0.149895	0.530122	0.217872	0.470211	0.156509	0.835582	0.538072	0.072593	0.057959	0.799322	0.427405
35	0.183250	0.144610	0.798718	0.366193	0.108969	0.387410	0.231358	0.425116	0.138969	0.130917	0.776413	0.443448	0.150933	0.153967	0.235109	0.436567	0.467909	0.194634	0.846238	0.911820	0.205751	0.411257	0.356744	0.217231	0.482607	0.235900	0.589583	0.396445	0.115336	0.153112	0.622953	0.344979	0.189113	0.118991	0.735451	0.607142	0.061981	0.228432	0.294251	0.155701	0.664060	0.263311	0.875235	0.405644	0.161895	0.114081	0.377252	0.201107	0.070721	0.091909	0.337077	0.627908	0.060134	0.142368	0.512345	0.200069	0.485048	0.163457	0.835810	0.557062	0.072190	0.063739	0.796799	0.418339
36	0.173433	0.145587	0.829890	0.367808	0.113955	0.402978	0.231890	0.381738	0.125864	0.135665	0.788960	0.442073	0.144055	0.149307	0.236476	0.453320	0.460604	0.194026	0.876291	0.913845	0.130935	0.412832	0.348666	0.234899	0.479276	0.236888	0.574582	0.393623	0.113124	0.149676	0.571649	0.335101	0.188252	0.128371	0.719741	0.629108	0.060300	0.238615	0.302248	0.148706	0.638588	0.250060	0.878217	0.408575	0.134999	0.089055	0.368167	0.198526	0.064816	0.073362	0.308055	0.624291	0.057912	0.119964	0.494779	0.190313	0.725365	0.267124	0.838480	0.622982	0.073139	0.080759	0.782469	0.400436
37	0.149184	0.130982	0.818435	0.374178	0.126788	0.441444	0.277515	0.211403	0.116161	0.128887	0.795422	0.454897	0.115275	0.149810	0.239071	0.440038	0.423974	0.199851	0.869442	0.914423	0.112891	0.420204	0.344677	0.252622	0.480467	0.245324	0.572327	0.394741	0.111499	0.141145	0.533897	0.317816	0.195229	0.143925	0.708793	0.623908	0.066524	0.254835	0.298308	0.138196	0.632704	0.240219	0.878024	0.378837	0.124084	0.077578	0.360903	0.209719	0.096729	0.064220	0.292553	0.622664	0.058275	0.118348	0.518313	0.193054	0.804980	0.332420	0.841212	0.692284	0.069638	0.091028	0.733788	0.380811
38	0.129685	0.116386	0.723681	0.404911	0.120424	0.431455	0.358691	0.162670	0.104124	0.116621	0.791669	0.460054	0.111566	0.154842	0.205106	0.402200	0.434605	0.233020	0.873489	0.914225	0.104187	0.429945	0.339532	0.263904	0.464861	0.236728	0.556336	0.394828	0.103175	0.129790	0.532288	0.308783	0.210530	0.150700	0.702916	0.623011	0.068245	0.259340	0.292620	0.112692	0.632989	0.239415	0.872626	0.310667	0.123000	0.078297	0.358485	0.227119	0.105121	0.061472	0.289695	0.626351	0.054451	0.122474	0.570947	0.199691	0.806445	0.342216	0.837492	0.756951	0.064022	0.092316	0.638112	0.381194
39	0.141705	0.123022	0.671639	0.421788	0.105177	0.398254	0.377123	0.179190	0.118894	0.109250	0.785833	0.464599	0.106513	0.150582	0.178979	0.359098	0.490873	0.265349	0.895587	0.914371	0.096363	0.395516	0.335844	0.269174	0.463916	0.230799	0.531608	0.393213	0.096960	0.121404	0.556924	0.315412	0.277195	0.151776	0.682580	0.613101	0.072386	0.258972	0.285984	0.091735	0.629655	0.237351	0.845834	0.314892	0.119951	0.078307	0.364966	0.259684	0.126880	0.080923	0.288746	0.610404	0.049268	0.122244	0.587009	0.216624	0.812164	0.352191	0.826400	0.801158	0.065238	0.092164	0.570916	0.386161
40	0.168188	0.127496	0.614665	0.410044	0.115374	0.368750	0.388387	0.257317	0.117171	0.107003	0.767973	0.468147	0.107052	0.209762	0.178315	0.344299	0.515286	0.271399	0.885601	0.917282	0.088633	0.374025	0.334589	0.266987	0.468372	0.238108	0.513820	0.382259	0.093539	0.110306	0.571336	0.318688	0.278582	0.150266	0.669190	0.601564	0.101117	0.261341	0.273104	0.091543	0.627740	0.243887	0.812244	0.364284	0.116586	0.075633	0.384319	0.303582	0.140964	0.109142	0.281335	0.585081	0.046566	0.120653	0.575416	0.284924	0.871028	0.371367	0.797701	0.787521	0.055767	0.091909	0.561632	0.392676
41	0.177827	0.130945	0.552676	0.411546	0.123728	0.360888	0.402175	0.266212	0.111918	0.133288	0.743821	0.455670	0.095157	0.301575	0.180163	0.343430	0.516406	0.256534	0.850233	0.920041	0.087837	0.372970	0.336322	0.267498	0.478152	0.239168	0.528733	0.377436	0.110958	0.108304	0.581508	0.315308	0.279239	0.146211	0.656623	0.600108	0.151751	0.268048	0.269219	0.092617	0.636889	0.251664	0.811123	0.401296	0.112451	0.071801	0.388992	0.338899	0.142507	0.138177	0.274589	0.553499	0.044440	0.111775	0.529282	0.344137	0.894797	0.370852	0.739448	0.772735	0.056859	0.091227	0.560156	0.390782
42	0.189064	0.189593	0.516376	0.413612	0.126130	0.324961	0.400076	0.289813	0.116322	0.208859	0.755121	0.407683	0.091468	0.357177	0.177474	0.334720	0.479711	0.280286	0.833511	0.929889	0.086094	0.364294	0.338198	0.269213	0.508198	0.244620	0.563454	0.362222	0.116894	0.108323	0.584695	0.315151	0.280120	0.144853	0.557904	0.587548	0.212356	0.275044	0.230692	0.088085	0.636053	0.249842	0.804429	0.422661	0.110848	0.068914	0.381386	0.341033	0.141747	0.160986	0.280963	0.514420	0.042008	0.090028	0.472641	0.388200	0.894952	0.375999	0.711322	0.771598	0.065005	0.094517	0.547698	0.379273
43	0.209463	0.190125	0.508876	0.392539	0.127317	0.323289	0.457654	0.302314	0.117510	0.250996	0.774756	0.372731	0.087552	0.375356	0.171797	0.343098	0.516028	0.324726	0.828557	0.927139	0.083994	0.361740	0.339906	0.268367	0.504354	0.251699	0.603730	0.316063	0.124670	0.111727	0.576983	0.315932	0.287842	0.146269	0.445201	0.583180	0.237458	0.275830	0.167621	0.110858	0.622116	0.243155	0.739127	0.423613	0.111153	0.068739	0.379733	0.330103	0.143109	0.178236	0.276873	0.513671	0.035832	0.080692	0.487640	0.390398	0.896250	0.382484	0.689182	0.775613	0.070147	0.096199	0.506707	0.359827
44	0.210110	0.245600	0.534438	0.325518	0.131421	0.281039	0.468607	0.337387	0.127830	0.289052	0.773539	0.367022	0.086105	0.374796	0.194013	0.356102	0.518916	0.326894	0.761062	0.888187	0.080786	0.360176	0.326631	0.267498	0.483537	0.259269	0.635432	0.322016	0.126803	0.116361	0.558483	0.316597	0.304619	0.148176	0.391228	0.577313	0.245528	0.273989	0.180112	0.135278	0.651129	0.252759	0.625137	0.418172	0.112435	0.069673	0.388662	0.330330	0.151504	0.200781	0.275707	0.528028	0.035024	0.066220	0.528894	0.391658	0.891938	0.382351	0.689333	0.765549	0.070330	0.095510	0.483089	0.356565
45	0.212019	0.308330	0.537695	0.296311	0.131872	0.266977	0.452402	0.399886	0.144957	0.327724	0.738040	0.314959	0.081065	0.379348	0.229785	0.363134	0.555395	0.331882	0.650808	0.765882	0.077294	0.356448	0.283887	0.261354	0.464090	0.259771	0.649680	0.347680	0.126652	0.141060	0.513028	0.313693	0.338101	0.150295	0.347101	0.510671	0.325728	0.276921	0.238317	0.140747	0.663274	0.254814	0.525624	0.415577	0.113514	0.070345	0.381014	0.335344	0.157441	0.206740	0.276705	0.543920	0.037195	0.080706	0.538470	0.389351	0.890063	0.385619	0.686544	0.748791	0.069557	0.096124	0.474405	0.339939
46	0.217378	0.314015	0.510171	0.314019	0.120246	0.216865	0.452248	0.419290	0.143050	0.351857	0.701513	0.283793	0.080227	0.392074	0.230742	0.356093	0.606631	0.337892	0.624759	0.611096	0.078075	0.357321	0.226217	0.255164	0.456233	0.255863	0.681301	0.356483	0.126989	0.173763	0.456670	0.285104	0.384930	0.151609	0.313449	0.494606	0.408036	0.293144	0.247522	0.135527	0.664528	0.256377	0.477541	0.411505	0.109545	0.067493	0.349325	0.373383	0.159988	0.207372	0.262103	0.558035	0.042890	0.087771	0.521561	0.412417	0.919761	0.396380	0.679724	0.740997	0.069457	0.104028	0.450031	0.340568
47	0.219890	0.380588	0.467740	0.407008	0.104665	0.148012	0.479138	0.481617	0.140359	0.365685	0.631807	0.302066	0.083477	0.399245	0.243995	0.340795	0.608438	0.340807	0.653106	0.558288	0.080001	0.361613	0.184258	0.251220	0.425227	0.240987	0.715093	0.306031	0.127193	0.178036	0.452073	0.277369	0.403782	0.145786	0.313224	0.508827	0.410384	0.250296	0.252680	0.142321	0.693706	0.260933	0.488729	0.410607	0.109403	0.069664	0.322545	0.437781	0.161723	0.208724	0.228203	0.564949	0.047335	0.088368	0.506234	0.425708	0.968008	0.414681	0.679666	0.733083	0.069286	0.109122	0.387521	0.320282
48	0.262037	0.417485	0.395160	0.450477	0.101658	0.144067	0.437414	0.717721	0.145636	0.369744	0.600397	0.336689	0.084258	0.400985	0.254185	0.341409	0.612917	0.345399	0.672433	0.552298	0.077063	0.361412	0.185549	0.261107	0.384905	0.216557	0.703243	0.290608	0.136525	0.211966	0.456456	0.251660	0.406267	0.136712	0.315851	0.480001	0.419523	0.237686	0.322173	0.199478	0.698548	0.262292	0.560064	0.410482	0.114792	0.082882	0.311773	0.473406	0.159071	0.209711	0.209005	0.545501	0.050491	0.087910	0.520404	0.424206	1.024009	0.446816	0.725030	0.709919	0.068497	0.109152	0.320004	0.307572
49	0.273554	0.429229	0.360711	0.474881	0.093279	0.144021	0.520707	0.890582	0.163324	0.409899	0.625681	0.349329	0.084265	0.401099	0.245939	0.379092	0.612791	0.345248	0.663541	0.503735	0.073135	0.357163	0.190929	0.285092	0.360059	0.203634	0.664772	0.300565	0.159825	0.320079	0.453630	0.213537	0.448237	0.179436	0.348489	0.376153	0.423406	0.231143	0.414804	0.216005	0.674728	0.263635	0.624965	0.410305	0.117459	0.098976	0.312333	0.478349	0.161505	0.221223	0.220646	0.472686	0.049122	0.090714	0.527504	0.414401	1.027452	0.456177	0.804983	0.690679	0.068260	0.111563	0.302125	0.311352
50	0.279328	0.432731	0.351880	0.450117	0.077518	0.116082	0.559057	0.892695	0.181720	0.416523	0.663165	0.317020	0.084754	0.400853	0.237281	0.438152	0.616596	0.344687	0.632133	0.419308	0.073975	0.358128	0.191236	0.301582	0.352061	0.197634	0.624815	0.306032	0.181347	0.418295	0.427599	0.210217	0.516765	0.225051	0.412459	0.288514	0.422789	0.218445	0.470743	0.220174	0.657691	0.257999	0.633265	0.410637	0.117139	0.111833	0.319791	0.483020	0.168362	0.245211	0.226587	0.429978	0.050609	0.088126	0.507129	0.452002	1.028237	0.461978	0.839373	0.689049	0.081551	0.117470	0.299362	0.322616
51	0.275045	0.427897	0.339990	0.436817	0.067018	0.085571	0.565041	0.918574	0.188769	0.417164	0.699996	0.305282	0.085907	0.400212	0.236478	0.458329	0.617697	0.346537	0.569087	0.375224	0.079536	0.371170	0.192000	0.307031	0.351197	0.196953	0.602219	0.303583	0.183932	0.436525	0.390324	0.215377	0.508890	0.219471	0.439338	0.250718	0.422722	0.217597	0.482299	0.243342	0.474467	0.211176	0.610861	0.409276	0.130381	0.122215	0.333391	0.499025	0.175850	0.263263	0.237019	0.422924	0.059830	0.094288	0.499723	0.487431	1.066596	0.475096	0.851465	0.678757	0.117508	0.126811	0.294985	0.320314
52	0.260914	0.426668	0.336191	0.452286	0.063255	0.092034	0.545570	0.944792	0.188249	0.422136	0.730434	0.321335	0.086031	0.400454	0.233708	0.438310	0.619939	0.349226	0.501364	0.392036	0.083823	0.379915	0.190110	0.305514	0.352322	0.198596	0.582416	0.318037	0.183803	0.436071	0.367766	0.210874	0.498860	0.213553	0.416461	0.245954	0.419431	0.215839	0.488122	0.272240	0.419191	0.211736	0.607788	0.406369	0.145857	0.124004	0.336963	0.514716	0.181097	0.278713	0.240469	0.427850	0.070877	0.110742	0.513646	0.468972	0.969898	0.447031	0.866085	0.628160	0.151750	0.140755	0.299214	0.324063
53	0.259607	0.421590	0.347311	0.530762	0.077393	0.114324	0.506713	0.951311	0.184600	0.448788	0.747463	0.317730	0.085432	0.401041	0.232954	0.416619	0.624203	0.348527	0.477722	0.471403	0.083230	0.374531	0.211134	0.302918	0.386182	0.197459	0.597827	0.327286	0.186575	0.444918	0.349747	0.209242	0.495320	0.211450	0.394212	0.254386	0.411467	0.228140	0.520636	0.283350	0.422776	0.226317	0.611897	0.404862	0.151128	0.124458	0.322547	0.530993	0.179503	0.292118	0.223876	0.441847	0.079404	0.123533	0.492146	0.438068	0.861880	0.393171	0.869374	0.555855	0.228138	0.166031	0.295018	0.342700
54	0.233035	0.400341	0.343674	0.634090	0.076756	0.112864	0.510418	0.933143	0.237219	0.459470	0.750978	0.310826	0.093441	0.400585	0.239149	0.407579	0.621081	0.334624	0.474655	0.565121	0.080428	0.371089	0.243675	0.313084	0.487208	0.193680	0.630183	0.323309	0.197086	0.477875	0.348613	0.213271	0.484045	0.256085	0.381219	0.271672	0.390686	0.227997	0.550178	0.283035	0.544263	0.280132	0.646312	0.404106	0.146231	0.121062	0.309091	0.544233	0.161147	0.314229	0.245623	0.443081	0.083716	0.127365	0.479010	0.409170	0.857709	0.381373	0.866768	0.453550	0.312903	0.190645	0.316528	0.346458
55	0.212027	0.398035	0.324043	0.672979	0.076625	0.111645	0.505839	0.920486	0.305554	0.492409	0.746851	0.315052	0.105638	0.402710	0.269190	0.406012	0.586746	0.308461	0.444479	0.597965	0.080621	0.365595	0.257397	0.397605	0.607706	0.195332	0.648291	0.323789	0.204998	0.500228	0.355847	0.208249	0.491364	0.302953	0.379441	0.274971	0.365640	0.224588	0.586334	0.282700	0.572072	0.286030	0.736912	0.394686	0.140009	0.117425	0.307779	0.553378	0.159001	0.326262	0.309123	0.425830	0.085284	0.130196	0.456236	0.407882	0.857641	0.376169	0.853046	0.320395	0.375619	0.203495	0.332079	0.348958
56	0.210478	0.350107	0.281753	0.663775	0.073432	0.105241	0.471293	0.917719	0.312452	0.476912	0.736475	0.326341	0.114919	0.405256	0.282603	0.406383	0.538024	0.294163	0.435825	0.587795	0.076444	0.345184	0.274938	0.485980	0.650465	0.178864	0.639572	0.350881	0.205050	0.505294	0.348298	0.202314	0.503382	0.317637	0.399988	0.289506	0.363262	0.223307	0.612682	0.318472	0.594540	0.283089	0.852329	0.364830	0.140493	0.121834	0.307919	0.551931	0.139827	0.333113	0.346612	0.424770	0.086090	0.129603	0.412372	0.435049	0.805173	0.358602	0.804242	0.261132	0.391051	0.200702	0.307441	0.351125
57	0.202683	0.312345	0.279176	0.659717	0.075827	0.105301	0.445420	0.809725	0.320782	0.450082	0.711412	0.354554	0.118084	0.370491	0.282942	0.407813	0.512375	0.292022	0.430862	0.600408	0.071920	0.322257	0.294269	0.523967	0.711783	0.220597	0.627850	0.368853	0.200846	0.506212	0.346163	0.353778	0.526630	0.322415	0.416775	0.303287	0.346223	0.222343	0.601704	0.414888	0.592140	0.273993	0.948184	0.321082	0.167819	0.136390	0.303139	0.536715	0.139389	0.394433	0.369498	0.486077	0.085579	0.125209	0.393632	0.476266	0.760623	0.352267	0.735569	0.259471	0.424050	0.213696	0.265708	0.361194
58	0.198717	0.307077	0.282716	0.650599	0.083097	0.109654	0.380637	0.528868	0.362608	0.439700	0.692787	0.374220	0.118032	0.297069	0.282742	0.408800	0.507055	0.267314	0.435458	0.589030	0.069694	0.300696	0.303662	0.550603	0.952600	0.352604	0.612391	0.371424	0.187541	0.504709	0.332640	0.472375	0.581509	0.323224	0.412446	0.337305	0.170053	0.189446	0.589841	0.500070	0.587775	0.275316	1.026507	0.323069	0.185563	0.140213	0.281502	0.515495	0.151825	0.441532	0.368853	0.576698	0.083660	0.116196	0.404753	0.493417	0.798043	0.372489	0.691178	0.295706	0.428919	0.220847	0.253537	0.370337
59	0.191492	0.189323	0.332626	0.609885	0.087614	0.110547	0.252278	0.423081	0.404023	0.411507	0.672743	0.427563	0.115911	0.237036	0.287689	0.418420	0.431388	0.190970	0.451349	0.576396	0.069630	0.298380	0.306147	0.560199	0.984410	0.385780	0.577148	0.367377	0.185458	0.504569	0.330301	0.501637	0.573873	0.323931	0.414221	0.502013	0.148974	0.186022	0.593036	0.554527	0.600798	0.276704	1.077671	0.372592	0.262601	0.152407	0.269982	0.490753	0.194413	0.437277	0.364896	0.605172	0.081202	0.115063	0.412694	0.482552	0.837569	0.380459	0.680668	0.379891	0.441880	0.242735	0.254149	0.375838
60	0.126043	0.161386	0.351415	0.632825	0.089173	0.110937	0.196478	0.403583	0.419429	0.390418	0.612064	0.495610	0.116969	0.212893	0.301844	0.416809	0.420780	0.176792	0.458900	0.569198	0.071192	0.293014	0.307010	0.560248	0.981579	0.378190	0.532607	0.352570	0.188767	0.503958	0.330913	0.509158	0.546943	0.328792	0.441916	0.564384	0.141064	0.175963	0.591116	0.552716	0.581841	0.278848	1.095945	0.402159	0.325177	0.161081	0.265336	0.491411	0.279272	0.451177	0.365169	0.597281	0.086013	0.114644	0.401931	0.477607	0.856920	0.387321	0.679103	0.428561	0.603712	0.301228	0.246701	0.385453
61	0.113222	0.128562	0.362986	0.636757	0.088890	0.104289	0.190592	0.285278	0.428180	0.372938	0.570804	0.497949	0.117120	0.212037	0.287172	0.410718	0.399514	0.173848	0.457897	0.566411	0.069524	0.269980	0.301224	0.569473	0.993329	0.373715	0.498584	0.330033	0.206836	0.503003	0.327115	0.510174	0.528066	0.337161	0.483543	0.556579	0.110806	0.167933	0.559826	0.543861	0.566612	0.281322	1.095357	0.392590	0.364737	0.163433	0.269450	0.494814	0.371777	0.466548	0.364747	0.623614	0.093047	0.114269	0.386591	0.476606	0.858133	0.385356	0.677492	0.429540	0.673151	0.320790	0.224602	0.393901
62	0.111194	0.129342	0.387400	0.640615	0.078765	0.082508	0.185360	0.242882	0.426624	0.372723	0.572428	0.507307	0.140794	0.200189	0.261606	0.408202	0.293802	0.175334	0.438118	0.576405	0.067038	0.250856	0.297956	0.594916	1.014979	0.373831	0.476302	0.302783	0.213674	0.495155	0.310687	0.521019	0.521925	0.347273	0.514328	0.558119	0.118622	0.166955	0.520834	0.574800	0.566639	0.286443	1.094030	0.380143	0.384855	0.163214	0.282096	0.494879	0.377146	0.466238	0.368487	0.669220	0.092810	0.110951	0.352799	0.456372	0.836933	0.377836	0.676281	0.418013	0.682046	0.323721	0.209826	0.397786
63	0.086809	0.133369	0.385494	0.644642	0.067031	0.067243	0.177622	0.244247	0.426507	0.338157	0.553131	0.490940	0.139934	0.176580	0.261502	0.420313	0.295899	0.192088	0.397787	0.590329	0.067156	0.249443	0.299129	0.615520	1.019450	0.382579	0.420580	0.284938	0.214641	0.485551	0.301499	0.555307	0.528844	0.357382	0.512388	0.582728	0.121142	0.169615	0.495578	0.639188	0.537059	0.287629	1.082630	0.381993	0.390496	0.178168	0.286842	0.492603	0.381443	0.466473	0.372552	0.677184	0.090691	0.106523	0.296265	0.407757	0.786227	0.372935	0.670263	0.406629	0.684524	0.324871	0.212216	0.398412
64	0.086582	0.162773	0.417499	0.626592	0.063910	0.089078	0.175974	0.251747	0.431569	0.310333	0.493557	0.497244	0.153625	0.161862	0.255793	0.488309	0.320905	0.192002	0.397477	0.591314	0.064956	0.248304	0.299426	0.623645	1.044202	0.444336	0.359129	0.300873	0.213964	0.484271	0.358316	0.558526	0.479673	0.381163	0.482920	0.610187	0.137419	0.169740	0.497564	0.684465	0.574493	0.292153	1.066722	0.394891	0.533013	0.253610	0.287548	0.478449	0.384392	0.467982	0.397252	0.664625	0.082470	0.092568	0.255517	0.391620	0.711900	0.351223	0.618420	0.405186	0.685506	0.324990	0.217210	0.408803
65	0.132468	0.199693	0.526653	0.542720	0.065481	0.090152	0.166365	0.241099	0.445859	0.317238	0.420718	0.493132	0.167534	0.159197	0.251424	0.546172	0.343635	0.193669	0.466167	0.592229	0.060628	0.240904	0.307310	0.619714	1.083868	0.485297	0.359520	0.337438	0.207097	0.461702	0.417832	0.560278	0.430602	0.431216	0.439802	0.638129	0.138285	0.156916	0.477460	0.688171	0.576096	0.278826	1.077232	0.398979	0.682733	0.300935	0.287159	0.459375	0.388252	0.467364	0.421355	0.675750	0.073335	0.084190	0.245714	0.413599	0.651584	0.326566	0.509578	0.412370	0.686638	0.322647	0.225777	0.449370
66	0.365974	0.260491	0.602107	0.421962	0.063532	0.091109	0.160405	0.237443	0.451247	0.318469	0.368254	0.475826	0.174434	0.159549	0.263064	0.554666	0.362198	0.196357	0.470178	0.587444	0.061905	0.237627	0.316341	0.625244	1.090393	0.488180	0.364909	0.334898	0.189241	0.386097	0.427735	0.585005	0.432977	0.442600	0.427421	0.654792	0.129541	0.132345	0.449540	0.687767	0.602046	0.281537	1.104483	0.397101	0.708005	0.302740	0.293039	0.466692	0.476877	0.468307	0.421112	0.686836	0.069419	0.080880	0.239585	0.408013	0.641746	0.319058	0.456120	0.416694	0.688071	0.321587	0.244958	0.480381
67	0.563246	0.301272	0.649822	0.391544	0.065020	0.125853	0.201562	0.241416	0.455902	0.288493	0.314426	0.472525	0.227553	0.170422	0.291040	0.516333	0.378933	0.194307	0.501217	0.583195	0.062249	0.237455	0.319729	0.628217	1.090261	0.489888	0.367256	0.377513	0.178844	0.288001	0.429284	0.620487	0.453424	0.481589	0.438544	0.660840	0.148615	0.129202	0.415206	0.687492	0.654329	0.292276	1.116282	0.394985	0.707548	0.298406	0.304400	0.492422	0.554005	0.463094	0.437848	0.688042	0.071755	0.124575	0.242704	0.425272	0.585239	0.289598	0.463263	0.427639	0.688929	0.321270	0.269230	0.495982
68	0.614496	0.308095	0.691652	0.405815	0.101038	0.180463	0.221566	0.248670	0.455027	0.262395	0.293636	0.472906	0.278958	0.178142	0.327165	0.505354	0.386208	0.187775	0.577764	0.596603	0.062220	0.235910	0.324005	0.620934	1.112112	0.497589	0.368683	0.467979	0.195254	0.271754	0.446736	0.638560	0.460069	0.620032	0.452159	0.657494	0.148820	0.129468	0.364684	0.681864	0.662078	0.293720	1.119743	0.378581	0.708972	0.293826	0.296905	0.514356	0.559731	0.454692	0.578606	0.699643	0.079210	0.129650	0.245535	0.420779	0.578846	0.288171	0.453670	0.458501	0.689922	0.320399	0.286279	0.500362
69	0.898708	0.385998	0.708327	0.425006	0.114827	0.200688	0.258040	0.320065	0.433473	0.196725	0.287410	0.468395	0.281238	0.176961	0.346664	0.552730	0.374442	0.178909	0.633482	0.612539	0.058513	0.212967	0.333947	0.616111	1.183226	0.513199	0.363920	0.521752	0.218495	0.276407	0.449883	0.645513	0.472124	0.784308	0.500842	0.652274	0.146677	0.132628	0.333998	0.642286	0.665569	0.288257	1.121010	0.366928	0.709517	0.289398	0.289736	0.512549	0.561914	0.446896	0.735371	0.694911	0.092484	0.133752	0.227507	0.409465	0.592691	0.281227	0.430678	0.476045	0.687904	0.317934	0.286192	0.480461
70	1.009528	0.415000	0.696344	0.419322	0.120036	0.201212	0.402408	0.362478	0.438315	0.172148	0.285440	0.473060	0.282146	0.172185	0.347529	0.646909	0.412243	0.178985	0.653901	0.540761	0.052075	0.171004	0.344222	0.624757	1.184562	0.516715	0.330202	0.531998	0.314487	0.272979	0.449772	0.643935	0.504049	0.979470	0.527500	0.651003	0.149575	0.135242	0.353021	0.565033	0.612191	0.243744	1.107681	0.367521	0.707708	0.288287	0.349352	0.497944	0.565081	0.438397	0.758496	0.686044	0.106735	0.181865	0.207966	0.388031	0.616380	0.282815	0.424722	0.491231	0.682450	0.314200	0.282277	0.466464
71	1.012362	0.409006	0.691491	0.401613	0.126557	0.204830	0.545960	0.373865	0.442735	0.159783	0.337951	0.486735	0.278998	0.155023	0.339219	0.755779	0.477489	0.185691	0.650193	0.495421	0.049160	0.140782	0.343172	0.650351	1.144783	0.516343	0.294642	0.532237	0.339607	0.217803	0.446492	0.641098	0.529325	1.032465	0.517405	0.652800	0.154473	0.135753	0.362932	0.517027	0.564288	0.222835	1.062035	0.371216	0.706938	0.287617	0.440119	0.478392	0.565966	0.421281	0.770514	0.687797	0.108033	0.213990	0.181895	0.363996	0.639706	0.288452	0.454884	0.502461	0.674524	0.307324	0.289527	0.470670
72	1.013546	0.405270	0.695414	0.314196	0.207238	0.237803	0.617279	0.427034	0.428912	0.158851	0.428263	0.483201	0.274669	0.135504	0.315732	0.813543	0.482324	0.186494	0.642836	0.567141	0.049758	0.141108	0.322357	0.664628	1.078101	0.512556	0.290791	0.539769	0.336667	0.167404	0.446964	0.639408	0.538345	1.137748	0.520788	0.658878	0.155360	0.107437	0.349831	0.499865	0.540140	0.216809	0.976723	0.379184	0.711931	0.288012	0.499649	0.463350	0.565799	0.414973	0.798819	0.709845	0.105276	0.216832	0.172136	0.371636	0.636621	0.288157	0.499638	0.502254	0.650338	0.293443	0.291783	0.485905
73	1.013676	0.403383	0.705277	0.277870	0.258483	0.260338	0.622019	0.449713	0.354184	0.135583	0.461058	0.454715	0.271297	0.124077	0.309466	0.823208	0.481759	0.187573	0.639277	0.633109	0.049354	0.132402	0.307205	0.641251	1.050155	0.511349	0.344456	0.552170	0.335998	0.151308	0.465663	0.634318	0.514363	1.159616	0.525733	0.614727	0.151444	0.091958	0.310388	0.513830	0.535772	0.215104	0.880406	0.396502	0.722143	0.288707	0.516656	0.459741	0.565439	0.398598	0.801822	0.721390	0.097462	0.222831	0.161033	0.407722	0.630904	0.285496	0.516453	0.519390	0.614209	0.275838	0.264587	0.497246
74	1.013989	0.401460	0.721445	0.265891	0.298151	0.265505	0.638927	0.450770	0.342685	0.134660	0.495873	0.407552	0.269588	0.122706	0.311151	0.825850	0.481613	0.193647	0.634693	0.671829	0.046558	0.091884	0.294765	0.579426	0.979537	0.481221	0.371724	0.650437	0.336105	0.149475	0.475456	0.546753	0.521620	1.162917	0.512041	0.487376	0.145858	0.090839	0.261268	0.494929	0.531500	0.212812	0.777451	0.393339	0.723235	0.287501	0.517274	0.476911	0.562631	0.320798	0.800441	0.673773	0.097973	0.227185	0.159800	0.460003	0.605516	0.265532	0.510643	0.534523	0.580212	0.264097	0.242093	0.505395
75	1.015551	0.397794	0.750046	0.254275	0.338875	0.278240	0.644310	0.453926	0.328301	0.129432	0.545763	0.427468	0.268485	0.121649	0.312287	0.825638	0.472072	0.196960	0.622128	0.686175	0.047710	0.064963	0.294510	0.537485	0.744384	0.395015	0.372327	0.712346	0.336735	0.151723	0.474808	0.459045	0.527683	1.161932	0.486369	0.450203	0.142916	0.083792	0.252946	0.429260	0.523128	0.212150	0.684590	0.343938	0.718123	0.281759	0.517447	0.508976	0.559709	0.259333	0.814292	0.599235	0.112127	0.255437	0.152116	0.474315	0.532758	0.227408	0.505187	0.480689	0.575111	0.264692	0.243894	0.521016
76	1.022049	0.387190	0.733619	0.255515	0.398296	0.291348	0.649044	0.458847	0.328742	0.122412	0.572691	0.416116	0.272101	0.118881	0.314698	0.817438	0.468121	0.201233	0.630002	0.685211	0.048302	0.057624	0.309420	0.510836	0.725977	0.379576	0.379898	0.715946	0.336319	0.153456	0.485646	0.432364	0.529475	1.158852	0.449104	0.508823	0.135587	0.083734	0.246214	0.311026	0.516137	0.216893	0.644483	0.299864	0.715699	0.282495	0.520347	0.533709	0.543834	0.259706	0.830332	0.592588	0.134815	0.289722	0.230174	0.472040	0.502973	0.207454	0.499789	0.425965	0.552323	0.254182	0.252001	0.520007
77	1.012500	0.368244	0.673086	0.260118	0.406775	0.258562	0.670313	0.467690	0.328309	0.126122	0.576585	0.486304	0.273547	0.118166	0.301870	0.810039	0.461591	0.204521	0.637057	0.687728	0.047982	0.078566	0.314646	0.499935	0.740188	0.383468	0.384139	0.732192	0.328641	0.152451	0.501479	0.424946	0.521468	1.154763	0.426713	0.532371	0.124903	0.087443	0.241560	0.251514	0.507634	0.207973	0.647537	0.310297	0.693708	0.278344	0.541197	0.554337	0.508329	0.211296	0.845596	0.596776	0.153989	0.299126	0.292014	0.455502	0.485148	0.201515	0.498528	0.412363	0.551135	0.250065	0.280315	0.516012
78	0.944505	0.349865	0.624516	0.268721	0.432548	0.238995	0.670574	0.439223	0.315636	0.124368	0.615423	0.497083	0.272934	0.114658	0.296204	0.812045	0.460288	0.195445	0.644446	0.679350	0.046512	0.109867	0.310862	0.500258	0.719357	0.382215	0.384493	0.783744	0.317607	0.151606	0.510829	0.429108	0.527951	1.150395	0.450240	0.509577	0.126580	0.095919	0.238225	0.251596	0.512229	0.205168	0.630122	0.320245	0.667028	0.275070	0.574318	0.560187	0.456252	0.167894	0.853739	0.541339	0.161749	0.303560	0.300169	0.442378	0.481756	0.200753	0.506138	0.413173	0.532151	0.221822	0.295928	0.517186
79	0.851852	0.324203	0.574207	0.312275	0.431952	0.234084	0.620366	0.389526	0.288136	0.104703	0.720463	0.522633	0.259561	0.097275	0.296284	0.814764	0.450292	0.167750	0.680574	0.655405	0.047013	0.112391	0.310345	0.495404	0.694165	0.382448	0.385159	0.825449	0.314172	0.152435	0.522269	0.412320	0.520532	1.129672	0.474816	0.479263	0.107331	0.101928	0.225116	0.250030	0.517920	0.193828	0.622382	0.312849	0.645203	0.276026	0.602753	0.559499	0.459388	0.168115	0.857131	0.473048	0.161760	0.291017	0.324390	0.423243	0.453397	0.183195	0.513375	0.410011	0.315582	0.133424	0.297766	0.516787
80	0.833805	0.321862	0.561099	0.303537	0.430869	0.232203	0.523057	0.379946	0.271355	0.084523	0.840972	0.527208	0.259705	0.092695	0.295023	0.812707	0.434882	0.160039	0.696147	0.664974	0.046861	0.133757	0.312904	0.467657	0.693217	0.368511	0.384234	0.845890	0.314460	0.152765	0.521606	0.370865	0.520344	1.109216	0.475008	0.468872	0.098279	0.108242	0.237044	0.246770	0.471456	0.188682	0.605822	0.305623	0.633007	0.277390	0.610758	0.566543	0.458662	0.169570	0.858062	0.467564	0.164121	0.287392	0.371484	0.420050	0.398071	0.141000	0.514869	0.411290	0.176792	0.088818	0.297127	0.516087
81	0.410061	0.210907	0.629539	0.277710	0.416468	0.213910	0.385840	0.327283	0.279521	0.085793	0.941203	0.564996	0.251497	0.092737	0.289029	0.776930	0.423334	0.156981	0.651302	0.668393	0.046562	0.173853	0.315293	0.441342	0.662122	0.294354	0.394390	0.851049	0.314553	0.152748	0.475622	0.373036	0.520853	1.107198	0.467716	0.501169	0.098591	0.112574	0.237769	0.239944	0.451091	0.179279	0.527602	0.316978	0.630073	0.271568	0.598836	0.570350	0.465614	0.169049	0.847030	0.482368	0.193368	0.289533	0.416095	0.440153	0.397633	0.135273	0.531745	0.409625	0.144524	0.078047	0.294089	0.514473
82	0.303676	0.187891	0.726824	0.260820	0.374365	0.204141	0.387814	0.232793	0.276384	0.093467	1.006950	0.595764	0.245594	0.096465	0.291785	0.738502	0.389405	0.151062	0.632599	0.669726	0.047174	0.178568	0.314668	0.427068	0.630965	0.258886	0.455537	0.843854	0.313673	0.152933	0.428967	0.368421	0.516975	1.081886	0.456462	0.530600	0.101146	0.117194	0.220716	0.234651	0.427653	0.171275	0.405724	0.331319	0.538426	0.210384	0.591655	0.565760	0.485785	0.172880	0.837003	0.480044	0.230872	0.281172	0.425827	0.419149	0.397050	0.135210	0.558055	0.405341	0.134506	0.073359	0.294624	0.517064
83	0.340443	0.195114	0.758272	0.279232	0.360057	0.213160	0.393194	0.192033	0.245905	0.097131	1.022200	0.598044	0.244526	0.100367	0.307787	0.716718	0.376709	0.150772	0.614982	0.672341	0.053264	0.185943	0.303170	0.426482	0.642574	0.267028	0.579161	0.849052	0.313159	0.150538	0.422165	0.322513	0.522088	0.996877	0.439420	0.537216	0.119809	0.121110	0.188336	0.228214	0.380878	0.157365	0.306794	0.333691	0.307550	0.118949	0.594307	0.537973	0.402527	0.148663	0.833525	0.474746	0.248271	0.244319	0.427275	0.419179	0.369918	0.129244	0.595064	0.402177	0.130097	0.070262	0.300484	0.520741
84	0.354551	0.205989	0.740435	0.290145	0.330167	0.210145	0.367086	0.187087	0.195663	0.093025	1.023326	0.631361	0.177417	0.079728	0.308147	0.714964	0.363447	0.150815	0.556588	0.656777	0.052394	0.188085	0.289370	0.410498	0.645897	0.266502	0.659551	0.830809	0.307451	0.147430	0.418606	0.261686	0.503494	0.811098	0.376525	0.538412	0.128014	0.117212	0.173742	0.216969	0.429649	0.159590	0.262500	0.331521	0.207507	0.097863	0.607214	0.497275	0.316069	0.130937	0.819960	0.464798	0.249978	0.239531	0.435178	0.437080	0.337954	0.119712	0.607592	0.371628	0.128703	0.072072	0.302286	0.525058
85	0.354386	0.209619	0.714644	0.303609	0.231987	0.191072	0.360652	0.177259	0.180562	0.094911	1.017290	0.641267	0.112751	0.063756	0.283638	0.704053	0.374294	0.157159	0.538514	0.627131	0.056431	0.196196	0.290667	0.384620	0.583904	0.245975	0.683748	0.784565	0.298922	0.148305	0.399062	0.225547	0.523673	0.654744	0.345898	0.537447	0.133024	0.115357	0.154819	0.148515	0.443701	0.158929	0.247067	0.328542	0.206205	0.096614	0.619100	0.472571	0.323250	0.137041	0.707923	0.455011	0.253563	0.233237	0.435848	0.431007	0.285272	0.107329	0.614897	0.341769	0.140495	0.084082	0.294708	0.543285
86	0.361771	0.219313	0.720088	0.413149	0.209843	0.209764	0.291728	0.152632	0.199413	0.091853	1.000074	0.623247	0.114554	0.063049	0.267806	0.657967	0.427955	0.173523	0.540633	0.633892	0.071784	0.226727	0.287559	0.380356	0.440842	0.215548	0.686255	0.747404	0.270612	0.136823	0.397271	0.213811	0.467912	0.476113	0.343703	0.520088	0.142645	0.121979	0.162829	0.146000	0.452178	0.186201	0.242204	0.329397	0.203066	0.095973	0.626214	0.450340	0.360254	0.147618	0.565487	0.529184	0.257317	0.232831	0.436217	0.386095	0.257439	0.101944	0.618945	0.353533	0.177416	0.103835	0.282445	0.566818
87	0.352805	0.224040	0.735765	0.553269	0.116983	0.321663	0.270426	0.181359	0.262669	0.103314	1.054334	0.621962	0.112422	0.059423	0.267659	0.556104	0.396266	0.174124	0.546761	0.649276	0.080373	0.249226	0.288195	0.380781	0.412392	0.205160	0.681826	0.740787	0.141904	0.096870	0.395431	0.213208	0.421661	0.247182	0.344135	0.505883	0.209426	0.146083	0.170790	0.158424	0.443074	0.189568	0.229406	0.326479	0.197353	0.096765	0.625481	0.432111	0.378270	0.155514	0.556741	0.659120	0.257381	0.212861	0.436474	0.340079	0.191484	0.080722	0.600193	0.357487	0.215816	0.121135	0.273490	0.577836
88	0.345779	0.220557	0.747286	0.582900	0.108568	0.337052	0.289668	0.176061	0.441438	0.127268	1.104254	0.604833	0.112905	0.058690	0.273928	0.398856	0.395370	0.172595	0.541138	0.597174	0.079886	0.258564	0.301736	0.374755	0.411047	0.202412	0.664080	0.745445	0.076228	0.079430	0.395361	0.220179	0.405464	0.167949	0.351033	0.505538	0.208915	0.148456	0.172738	0.148861	0.477093	0.203384	0.230656	0.310953	0.193460	0.097493	0.594886	0.426308	0.396868	0.168916	0.525895	0.709498	0.258081	0.169796	0.417717	0.346319	0.200088	0.103102	0.576311	0.358260	0.259751	0.134744	0.273521	0.579336
89	0.346408	0.214901	0.736614	0.590907	0.117284	0.343608	0.287842	0.175403	0.459992	0.155242	1.098523	0.571714	0.113089	0.058348	0.279133	0.294269	0.400555	0.173412	0.535534	0.505159	0.081153	0.308627	0.306550	0.338821	0.433681	0.221011	0.643630	0.744896	0.073852	0.077682	0.368121	0.239007	0.397158	0.148886	0.382888	0.508837	0.227696	0.147937	0.175066	0.152225	0.483132	0.205581	0.241956	0.283197	0.192369	0.097795	0.531044	0.427697	0.397939	0.172863	0.477204	0.695371	0.329992	0.146514	0.369674	0.353992	0.200910	0.131727	0.604443	0.342042	0.311598	0.137024	0.275069	0.573929
90	0.356589	0.188036	0.736282	0.615153	0.117973	0.345592	0.274990	0.170834	0.482162	0.169802	1.089923	0.561614	0.112527	0.057026	0.279379	0.278429	0.513673	0.204968	0.537207	0.424263	0.081119	0.320956	0.301474	0.320504	0.435943	0.227892	0.612124	0.714394	0.072302	0.077177	0.316259	0.268753	0.392658	0.142564	0.415470	0.489870	0.242520	0.142652	0.177095	0.172756	0.481338	0.205796	0.259532	0.257638	0.178428	0.095830	0.471006	0.441604	0.399913	0.173808	0.501758	0.678370	0.330475	0.129479	0.354267	0.348721	0.213856	0.143779	0.649430	0.292029	0.322841	0.144046	0.270786	0.559352
91	0.379853	0.211066	0.748000	0.672089	0.115823	0.346197	0.267891	0.160008	0.491778	0.173163	1.094954	0.493844	0.117589	0.058716	0.277678	0.275560	0.535465	0.201992	0.537734	0.387655	0.081582	0.321686	0.301399	0.292835	0.437746	0.232320	0.609607	0.612026	0.071288	0.075288	0.311787	0.279797	0.389933	0.142125	0.411659	0.437942	0.253800	0.141803	0.196312	0.214263	0.474346	0.211017	0.275952	0.251520	0.123153	0.092335	0.447652	0.453906	0.406145	0.172949	0.525994	0.677933	0.355146	0.136022	0.355180	0.347325	0.220668	0.146827	0.645777	0.278669	0.380460	0.166385	0.270170	0.554778
92	0.355195	0.209670	0.793459	0.723334	0.110619	0.322770	0.214571	0.184537	0.514752	0.175413	1.088558	0.466117	0.134748	0.064913	0.275139	0.273863	0.536500	0.205493	0.529259	0.380679	0.083352	0.327475	0.299107	0.289397	0.438976	0.232734	0.624642	0.569873	0.067857	0.070642	0.325531	0.280469	0.376220	0.138213	0.400721	0.408086	0.280198	0.137491	0.219371	0.289359	0.462332	0.199005	0.279647	0.251100	0.108583	0.091810	0.451365	0.438343	0.409939	0.165816	0.505278	0.683502	0.371404	0.145815	0.309001	0.342131	0.245464	0.157166	0.639752	0.275460	0.448692	0.193198	0.269804	0.567882
93	0.339675	0.194895	0.786656	0.728573	0.105084	0.337268	0.188418	0.191652	0.518945	0.188081	1.042511	0.467335	0.151919	0.071370	0.267083	0.276101	0.544061	0.210210	0.524417	0.375622	0.084499	0.340184	0.283140	0.303277	0.431162	0.224611	0.633655	0.599391	0.065454	0.066232	0.331088	0.281473	0.405438	0.138696	0.430067	0.453186	0.322457	0.159362	0.217752	0.299607	0.463078	0.199269	0.268740	0.226480	0.105958	0.086947	0.458575	0.398154	0.412069	0.160786	0.481186	0.689223	0.354253	0.132377	0.240621	0.299882	0.510315	0.219989	0.640433	0.270310	0.485258	0.203854	0.269454	0.573508
94	0.316592	0.204262	0.706538	0.734528	0.104341	0.335792	0.183136	0.202196	0.524285	0.191531	0.950032	0.463075	0.160289	0.073512	0.267708	0.284058	0.555838	0.212035	0.526486	0.371944	0.084104	0.345045	0.254152	0.300531	0.424850	0.221378	0.643825	0.589894	0.067628	0.065724	0.340666	0.290868	0.405652	0.140875	0.508902	0.522662	0.337570	0.166846	0.217389	0.320097	0.454603	0.197325	0.261853	0.202753	0.101254	0.081296	0.456408	0.364117	0.402083	0.161867	0.454544	0.728728	0.343535	0.131090	0.200377	0.282268	0.561329	0.238600	0.637372	0.268482	0.524222	0.206073	0.282028	0.565879
95	0.318516	0.240667	0.668167	0.728990	0.112497	0.340195	0.188848	0.191676	0.523969	0.199071	0.844281	0.429743	0.162956	0.073225	0.279508	0.282281	0.599159	0.225339	0.484657	0.377119	0.087152	0.344274	0.238476	0.298902	0.434961	0.223583	0.655442	0.515136	0.071848	0.064859	0.353181	0.305646	0.443639	0.185029	0.607568	0.507868	0.336299	0.159464	0.221545	0.333049	0.450177	0.196989	0.260744	0.207947	0.093668	0.075442	0.430511	0.342166	0.406806	0.168796	0.445630	0.782121	0.311312	0.125322	0.243661	0.281252	0.578302	0.243196	0.631439	0.265643	0.535260	0.204212	0.293150	0.557741
96	0.374021	0.265751	0.677144	0.723526	0.109922	0.330611	0.194698	0.181682	0.519034	0.196102	0.743865	0.370257	0.185103	0.081839	0.281675	0.268551	0.598283	0.227181	0.424636	0.367925	0.090561	0.337646	0.242834	0.301707	0.428666	0.221753	0.664908	0.453672	0.070378	0.062784	0.346295	0.313258	0.510860	0.228570	0.707834	0.462950	0.329432	0.156107	0.231511	0.333804	0.436938	0.197711	0.260651	0.208106	0.088781	0.069601	0.384401	0.325088	0.403735	0.175600	0.467029	0.807057	0.312541	0.126619	0.280376	0.256033	0.614591	0.253721	0.631969	0.258163	0.536015	0.204517	0.279027	0.551008
97	0.398428	0.267049	0.683075	0.710423	0.106589	0.274067	0.167539	0.164451	0.524211	0.191607	0.704322	0.390918	0.185893	0.087616	0.288951	0.238958	0.597192	0.227558	0.419921	0.351194	0.095231	0.336930	0.241324	0.302604	0.421063	0.217351	0.670671	0.420194	0.072426	0.064103	0.335064	0.311159	0.492601	0.231156	0.791497	0.459481	0.323141	0.155705	0.257788	0.333979	0.437327	0.198221	0.253804	0.180793	0.084849	0.058137	0.334626	0.322107	0.401793	0.178822	0.510107	0.808865	0.312710	0.129271	0.309706	0.215486	0.621089	0.254199	0.616854	0.252312	0.538205	0.207691	0.267955	0.540699
98	0.419818	0.266397	0.634371	0.639322	0.086273	0.269707	0.155835	0.164990	0.529031	0.210323	0.700822	0.438752	0.188851	0.090875	0.299530	0.213948	0.601518	0.229676	0.423279	0.350519	0.101354	0.341071	0.233592	0.302903	0.388491	0.198923	0.662690	0.418751	0.114435	0.074956	0.332491	0.305412	0.469465	0.225250	0.803688	0.476174	0.323127	0.154562	0.305073	0.336450	0.434952	0.198380	0.255137	0.150923	0.102014	0.052527	0.294848	0.309854	0.390897	0.177752	0.534428	0.795334	0.311010	0.131106	0.317088	0.221763	0.622159	0.254204	0.587700	0.249641	0.545067	0.216723	0.266872	0.531489
99	0.490582	0.327382	0.592257	0.538308	0.087272	0.268422	0.176599	0.177791	0.537002	0.219753	0.701736	0.431759	0.232811	0.095534	0.296249	0.196222	0.605334	0.230884	0.423504	0.347221	0.104583	0.334295	0.227952	0.299710	0.334777	0.171471	0.605115	0.441977	0.126381	0.080770	0.330351	0.298981	0.458651	0.223072	0.811814	0.483228	0.287414	0.138158	0.302416	0.329845	0.411629	0.192132	0.264257	0.140415	0.138482	0.056653	0.284024	0.306744	0.355285	0.171928	0.538698	0.778947	0.309624	0.132416	0.317169	0.246391	0.623226	0.254453	0.538008	0.247533	0.554970	0.223352	0.267502	0.527776
100	0.495615	0.330207	0.599645	0.528949	0.081646	0.261723	0.171363	0.181163	0.582377	0.220292	0.687452	0.475103	0.248186	0.099000	0.281599	0.195761	0.605372	0.230810	0.410207	0.352241	0.107493	0.335331	0.225623	0.303891	0.307415	0.157536	0.483398	0.456563	0.127138	0.079173	0.334654	0.289308	0.410376	0.217020	0.871597	0.488618	0.281188	0.131016	0.316046	0.341714	0.324016	0.177241	0.274186	0.140297	0.175109	0.065260	0.284726	0.308305	0.333648	0.170349	0.546231	0.777088	0.311058	0.134282	0.323001	0.249321	0.622432	0.256975	0.503453	0.250603	0.570636	0.230591	0.270976	0.527814
101	0.490414	0.327383	0.644629	0.515370	0.077609	0.261740	0.200985	0.177061	0.602872	0.220720	0.595034	0.513856	0.264862	0.099763	0.260513	0.202400	0.602521	0.227943	0.343028	0.334404	0.107094	0.332211	0.225211	0.306592	0.302059	0.152870	0.380646	0.466997	0.126008	0.074803	0.345067	0.288303	0.411903	0.216610	0.895201	0.497039	0.277879	0.130484	0.324080	0.361682	0.286065	0.172212	0.276116	0.139225	0.187770	0.073344	0.290491	0.308524	0.331254	0.168082	0.557004	0.780729	0.250884	0.115022	0.324254	0.242941	0.627324	0.260803	0.498175	0.243100	0.592396	0.238019	0.271780	0.521946
