	154_P_T3_sh_L_ND_A_01.c3d	154_P_T3_sh_L_ND_A_01.c3d	154_P_T3_sh_L_ND_A_01.c3d	154_P_T3_sh_L_ND_A_01.c3d	154_P_T3_sh_L_ND_A_01.c3d	154_P_T3_sh_L_ND_A_01.c3d	154_P_T3_sh_L_ND_A_01.c3d	154_P_T3_sh_L_ND_A_01.c3d	154_P_T3_sh_L_ND_A_02.c3d	154_P_T3_sh_L_ND_A_02.c3d	154_P_T3_sh_L_ND_A_02.c3d	154_P_T3_sh_L_ND_A_02.c3d	154_P_T3_sh_L_ND_A_02.c3d	154_P_T3_sh_L_ND_A_02.c3d	154_P_T3_sh_L_ND_A_02.c3d	154_P_T3_sh_L_ND_A_02.c3d	154_P_T3_sh_L_ND_A_03.c3d	154_P_T3_sh_L_ND_A_03.c3d	154_P_T3_sh_L_ND_A_03.c3d	154_P_T3_sh_L_ND_A_03.c3d	154_P_T3_sh_L_ND_A_03.c3d	154_P_T3_sh_L_ND_A_03.c3d	154_P_T3_sh_L_ND_A_03.c3d	154_P_T3_sh_L_ND_A_03.c3d	154_P_T3_sh_L_ND_A_04.c3d	154_P_T3_sh_L_ND_A_04.c3d	154_P_T3_sh_L_ND_A_04.c3d	154_P_T3_sh_L_ND_A_04.c3d	154_P_T3_sh_L_ND_A_04.c3d	154_P_T3_sh_L_ND_A_04.c3d	154_P_T3_sh_L_ND_A_04.c3d	154_P_T3_sh_L_ND_A_04.c3d	154_P_T3_sh_L_ND_A_05.c3d	154_P_T3_sh_L_ND_A_05.c3d	154_P_T3_sh_L_ND_A_05.c3d	154_P_T3_sh_L_ND_A_05.c3d	154_P_T3_sh_L_ND_A_05.c3d	154_P_T3_sh_L_ND_A_05.c3d	154_P_T3_sh_L_ND_A_05.c3d	154_P_T3_sh_L_ND_A_05.c3d	154_P_T3_sh_L_ND_A_06.c3d	154_P_T3_sh_L_ND_A_06.c3d	154_P_T3_sh_L_ND_A_06.c3d	154_P_T3_sh_L_ND_A_06.c3d	154_P_T3_sh_L_ND_A_06.c3d	154_P_T3_sh_L_ND_A_06.c3d	154_P_T3_sh_L_ND_A_06.c3d	154_P_T3_sh_L_ND_A_06.c3d	154_P_T3_sh_L_ND_A_07.c3d	154_P_T3_sh_L_ND_A_07.c3d	154_P_T3_sh_L_ND_A_07.c3d	154_P_T3_sh_L_ND_A_07.c3d	154_P_T3_sh_L_ND_A_07.c3d	154_P_T3_sh_L_ND_A_07.c3d	154_P_T3_sh_L_ND_A_07.c3d	154_P_T3_sh_L_ND_A_07.c3d	154_P_T3_sh_L_ND_A_08.c3d	154_P_T3_sh_L_ND_A_08.c3d	154_P_T3_sh_L_ND_A_08.c3d	154_P_T3_sh_L_ND_A_08.c3d	154_P_T3_sh_L_ND_A_08.c3d	154_P_T3_sh_L_ND_A_08.c3d	154_P_T3_sh_L_ND_A_08.c3d	154_P_T3_sh_L_ND_A_08.c3d	154_P_T3_sh_L_ND_A_10.c3d	154_P_T3_sh_L_ND_A_10.c3d	154_P_T3_sh_L_ND_A_10.c3d	154_P_T3_sh_L_ND_A_10.c3d	154_P_T3_sh_L_ND_A_10.c3d	154_P_T3_sh_L_ND_A_10.c3d	154_P_T3_sh_L_ND_A_10.c3d	154_P_T3_sh_L_ND_A_10.c3d
	Biceps femoris_lat	Semitendinosus_lat	Vastus lateralis_lat	Vastus medialis_lat	Biceps femoris_med	Semitendinosus_med	Vastus lateralis_med	Vastus medialis_med	Biceps femoris_lat	Semitendinosus_lat	Vastus lateralis_lat	Vastus medialis_lat	Biceps femoris_med	Semitendinosus_med	Vastus lateralis_med	Vastus medialis_med	Biceps femoris_lat	Semitendinosus_lat	Vastus lateralis_lat	Vastus medialis_lat	Biceps femoris_med	Semitendinosus_med	Vastus lateralis_med	Vastus medialis_med	Biceps femoris_lat	Semitendinosus_lat	Vastus lateralis_lat	Vastus medialis_lat	Biceps femoris_med	Semitendinosus_med	Vastus lateralis_med	Vastus medialis_med	Biceps femoris_lat	Semitendinosus_lat	Vastus lateralis_lat	Vastus medialis_lat	Biceps femoris_med	Semitendinosus_med	Vastus lateralis_med	Vastus medialis_med	Biceps femoris_lat	Semitendinosus_lat	Vastus lateralis_lat	Vastus medialis_lat	Biceps femoris_med	Semitendinosus_med	Vastus lateralis_med	Vastus medialis_med	Biceps femoris_lat	Semitendinosus_lat	Vastus lateralis_lat	Vastus medialis_lat	Biceps femoris_med	Semitendinosus_med	Vastus lateralis_med	Vastus medialis_med	Biceps femoris_lat	Semitendinosus_lat	Vastus lateralis_lat	Vastus medialis_lat	Biceps femoris_med	Semitendinosus_med	Vastus lateralis_med	Vastus medialis_med	Biceps femoris_lat	Semitendinosus_lat	Vastus lateralis_lat	Vastus medialis_lat	Biceps femoris_med	Semitendinosus_med	Vastus lateralis_med	Vastus medialis_med
	P2D	P2D	P2D	P2D	P2D	P2D	P2D	P2D	P2D	P2D	P2D	P2D	P2D	P2D	P2D	P2D	P2D	P2D	P2D	P2D	P2D	P2D	P2D	P2D	P2D	P2D	P2D	P2D	P2D	P2D	P2D	P2D	P2D	P2D	P2D	P2D	P2D	P2D	P2D	P2D	P2D	P2D	P2D	P2D	P2D	P2D	P2D	P2D	P2D	P2D	P2D	P2D	P2D	P2D	P2D	P2D	P2D	P2D	P2D	P2D	P2D	P2D	P2D	P2D	P2D	P2D	P2D	P2D	P2D	P2D	P2D	P2D
	EMG_lat	EMG_lat	EMG_lat	EMG_lat	EMG_med	EMG_med	EMG_med	EMG_med	EMG_lat	EMG_lat	EMG_lat	EMG_lat	EMG_med	EMG_med	EMG_med	EMG_med	EMG_lat	EMG_lat	EMG_lat	EMG_lat	EMG_med	EMG_med	EMG_med	EMG_med	EMG_lat	EMG_lat	EMG_lat	EMG_lat	EMG_med	EMG_med	EMG_med	EMG_med	EMG_lat	EMG_lat	EMG_lat	EMG_lat	EMG_med	EMG_med	EMG_med	EMG_med	EMG_lat	EMG_lat	EMG_lat	EMG_lat	EMG_med	EMG_med	EMG_med	EMG_med	EMG_lat	EMG_lat	EMG_lat	EMG_lat	EMG_med	EMG_med	EMG_med	EMG_med	EMG_lat	EMG_lat	EMG_lat	EMG_lat	EMG_med	EMG_med	EMG_med	EMG_med	EMG_lat	EMG_lat	EMG_lat	EMG_lat	EMG_med	EMG_med	EMG_med	EMG_med
ITEM	Y	Y	Y	Y	Y	Y	Y	Y	Y	Y	Y	Y	Y	Y	Y	Y	Y	Y	Y	Y	Y	Y	Y	Y	Y	Y	Y	Y	Y	Y	Y	Y	Y	Y	Y	Y	Y	Y	Y	Y	Y	Y	Y	Y	Y	Y	Y	Y	Y	Y	Y	Y	Y	Y	Y	Y	Y	Y	Y	Y	Y	Y	Y	Y	Y	Y	Y	Y	Y	Y	Y	Y
1	0.390151	0.085077	0.529048	0.525501	0.132212	0.100894	0.350944	0.268354	0.341930	0.251465	0.319601	0.446719	0.161124	0.147625	0.323200	0.493615	0.149661	0.084505	0.686155	0.558898	0.416832	0.165839	0.560852	0.524678	0.493452	0.089060	0.544590	0.485609	0.193900	0.076131	0.373288	0.292976	0.343675	0.139483	0.735760	0.425518	0.192504	0.067168	0.703654	0.312622	0.178464	0.038589	0.454830	0.391703	0.100322	0.133855	0.350189	0.274935	0.548354	0.091355	0.569715	0.244115	0.123737	0.075773	0.562090	0.629823	0.461139	0.072369	0.317278	0.234055	0.127922	0.080603	0.383457	0.320046	0.444825	0.113498	0.338790	0.538115	0.131811	0.041309	0.591776	0.286448
2	0.392003	0.085041	0.489587	0.547870	0.118510	0.130389	0.284099	0.303370	0.358452	0.139290	0.313873	0.477243	0.157551	0.161744	0.270405	0.492281	0.155700	0.079558	0.691433	0.576218	0.398280	0.166684	0.507921	0.516010	0.490475	0.089076	0.526026	0.488374	0.191007	0.074741	0.382353	0.254246	0.363954	0.144194	0.763039	0.424767	0.181980	0.080493	0.677478	0.305062	0.204062	0.047674	0.455464	0.388064	0.098370	0.168426	0.317522	0.250789	0.540473	0.091257	0.570058	0.232916	0.127239	0.077536	0.579241	0.611190	0.453731	0.072605	0.326854	0.233766	0.142408	0.072409	0.446984	0.287807	0.467901	0.126805	0.354975	0.559542	0.131661	0.040186	0.596833	0.253917
3	0.379129	0.086531	0.479278	0.548960	0.114772	0.150933	0.251454	0.332464	0.363749	0.104213	0.333177	0.487797	0.146318	0.219986	0.252488	0.492910	0.165440	0.080089	0.693495	0.592578	0.399118	0.167620	0.481025	0.517682	0.493741	0.092451	0.499035	0.438445	0.158299	0.077061	0.361124	0.254112	0.368155	0.146494	0.776416	0.423222	0.218774	0.102461	0.577251	0.300469	0.232434	0.049651	0.445986	0.396839	0.097556	0.175772	0.313664	0.253666	0.542600	0.090527	0.565777	0.242758	0.128781	0.078762	0.557259	0.608504	0.456767	0.071568	0.353945	0.239817	0.177258	0.073489	0.439112	0.285342	0.460239	0.129534	0.394754	0.588523	0.132258	0.039736	0.603005	0.214197
4	0.342734	0.087429	0.479087	0.564538	0.122360	0.150881	0.242149	0.326618	0.369055	0.119357	0.385186	0.464914	0.136072	0.253682	0.240887	0.454265	0.165977	0.074863	0.694915	0.596040	0.394989	0.167548	0.490143	0.529452	0.539473	0.097552	0.499316	0.381134	0.150378	0.082711	0.355694	0.270338	0.368072	0.148105	0.779757	0.407377	0.220074	0.101642	0.498934	0.299719	0.233779	0.051284	0.479226	0.412655	0.099190	0.173410	0.279764	0.249548	0.514887	0.083033	0.549867	0.224544	0.124815	0.080246	0.522927	0.619082	0.387393	0.068633	0.371801	0.249274	0.186523	0.072673	0.438778	0.285122	0.448406	0.126715	0.413462	0.610006	0.133898	0.039625	0.603508	0.212142
5	0.333952	0.087607	0.485729	0.581632	0.189281	0.152097	0.259750	0.317633	0.376463	0.120118	0.430457	0.448890	0.130238	0.279708	0.232002	0.445602	0.165227	0.058254	0.699614	0.554272	0.383503	0.167014	0.511750	0.551951	0.563020	0.101645	0.500414	0.372150	0.146246	0.091429	0.331384	0.306022	0.369186	0.150278	0.778388	0.387184	0.220505	0.099171	0.552838	0.342411	0.243167	0.059097	0.512572	0.396511	0.129697	0.176213	0.243609	0.260220	0.457711	0.076288	0.539372	0.224902	0.120845	0.081012	0.499855	0.619930	0.286373	0.067944	0.374398	0.258903	0.210355	0.072113	0.428325	0.250847	0.441523	0.117346	0.411112	0.624190	0.144563	0.041906	0.597427	0.219545
6	0.333585	0.087636	0.498481	0.587015	0.233026	0.156778	0.232561	0.311662	0.379720	0.120300	0.439064	0.469120	0.225119	0.370515	0.225021	0.445930	0.164606	0.052326	0.700169	0.520971	0.378690	0.166848	0.523331	0.554152	0.565891	0.101675	0.495578	0.387670	0.139296	0.187279	0.305860	0.325195	0.370449	0.146395	0.767155	0.376473	0.198862	0.098762	0.605094	0.421588	0.234178	0.063364	0.542879	0.357229	0.125516	0.178491	0.242699	0.293026	0.442287	0.075809	0.529791	0.275666	0.123402	0.081055	0.487205	0.596715	0.268313	0.067295	0.372948	0.276656	0.220671	0.063651	0.426383	0.242843	0.441601	0.115268	0.392962	0.626175	0.177407	0.044161	0.588045	0.216009
7	0.312517	0.088099	0.501682	0.587422	0.237593	0.161814	0.178678	0.315057	0.380175	0.127319	0.435919	0.480733	0.309646	0.443419	0.229783	0.442991	0.165790	0.052986	0.687481	0.516859	0.377551	0.166754	0.522846	0.552672	0.573913	0.100595	0.495037	0.482344	0.137217	0.226884	0.278982	0.308517	0.353998	0.128575	0.756451	0.383511	0.213692	0.101504	0.621484	0.426786	0.233874	0.063788	0.561834	0.346538	0.147744	0.192397	0.335824	0.254457	0.429714	0.076346	0.516937	0.287050	0.127736	0.081441	0.494091	0.538897	0.281137	0.066980	0.367057	0.284574	0.239115	0.070000	0.417939	0.166661	0.437044	0.115263	0.376243	0.623302	0.183395	0.044071	0.579592	0.209725
8	0.302283	0.078771	0.506957	0.581299	0.314390	0.163615	0.313356	0.313174	0.380448	0.138132	0.432757	0.484398	0.361514	0.455417	0.263856	0.393033	0.169117	0.053421	0.683248	0.516269	0.377199	0.166743	0.517653	0.552189	0.569326	0.100662	0.508317	0.569295	0.136316	0.370768	0.271954	0.310109	0.374405	0.116262	0.758347	0.391103	0.215049	0.098150	0.584980	0.414060	0.232510	0.063412	0.558027	0.356831	0.195471	0.200497	0.389996	0.277526	0.379020	0.081964	0.516359	0.277633	0.132143	0.079091	0.504106	0.496238	0.322922	0.068238	0.359840	0.295250	0.262499	0.072160	0.419639	0.162542	0.439018	0.114785	0.409518	0.618505	0.183593	0.044025	0.579805	0.210009
9	0.307245	0.071227	0.607057	0.535792	0.340561	0.172885	0.444545	0.349150	0.376818	0.140654	0.441128	0.483048	0.413423	0.518681	0.277674	0.258251	0.158948	0.054146	0.692564	0.525417	0.376704	0.166325	0.509668	0.548774	0.579530	0.094984	0.508674	0.593580	0.140038	0.422055	0.271377	0.351251	0.506794	0.116876	0.767678	0.388710	0.298800	0.105311	0.511934	0.375426	0.228472	0.063373	0.562104	0.360959	0.291489	0.184042	0.409240	0.282895	0.271496	0.086770	0.519303	0.282493	0.143903	0.073977	0.491443	0.487003	0.321879	0.067207	0.353192	0.331459	0.266804	0.109308	0.463119	0.219881	0.439082	0.115758	0.487957	0.585678	0.183476	0.042923	0.592597	0.220836
10	0.309627	0.070504	0.743189	0.484715	0.346550	0.169152	0.470244	0.328643	0.373672	0.141429	0.455376	0.489315	0.438723	0.546661	0.434931	0.170036	0.153260	0.054695	0.707028	0.550356	0.368587	0.165236	0.504616	0.541997	0.565966	0.082863	0.491286	0.581560	0.174521	0.423931	0.296420	0.345919	0.582095	0.109415	0.777971	0.385306	0.297985	0.110674	0.549255	0.347944	0.241576	0.063897	0.581141	0.360461	0.289977	0.175109	0.415191	0.397808	0.250809	0.093185	0.526930	0.284920	0.149141	0.071028	0.457421	0.493705	0.293165	0.048355	0.345418	0.344870	0.292895	0.120055	0.491076	0.357429	0.438141	0.121666	0.565193	0.523774	0.177313	0.038996	0.602445	0.246728
11	0.306541	0.069206	0.854739	0.491772	0.346247	0.146516	0.469857	0.289229	0.353912	0.140406	0.456191	0.508726	0.433504	0.543850	0.494871	0.165282	0.160492	0.056439	0.714176	0.561458	0.362696	0.163035	0.504438	0.519707	0.563432	0.077907	0.534529	0.564847	0.171855	0.422612	0.290718	0.368781	0.584356	0.101280	0.792676	0.399617	0.298973	0.109847	0.555190	0.359749	0.246757	0.062900	0.601322	0.350402	0.293431	0.171638	0.430163	0.473260	0.250285	0.093949	0.557690	0.329237	0.150159	0.071020	0.415923	0.507264	0.282161	0.042754	0.337348	0.342047	0.285612	0.195250	0.367343	0.379250	0.431889	0.128357	0.626360	0.511420	0.181057	0.037580	0.602967	0.263543
12	0.326105	0.069539	0.897773	0.509163	0.343392	0.135415	0.467570	0.255615	0.329666	0.137549	0.455876	0.533116	0.432999	0.521738	0.501506	0.159350	0.165691	0.066732	0.725000	0.564480	0.367714	0.180513	0.522514	0.503062	0.558483	0.077515	0.636084	0.555550	0.160132	0.422703	0.306534	0.381566	0.595006	0.104278	0.812764	0.409621	0.299615	0.100145	0.557361	0.391746	0.255651	0.063409	0.620075	0.330448	0.307616	0.149401	0.432934	0.478119	0.357687	0.103775	0.593161	0.425907	0.150528	0.063468	0.399826	0.515676	0.297216	0.051104	0.314893	0.340531	0.311485	0.208280	0.353914	0.388068	0.427407	0.134856	0.649504	0.564683	0.183027	0.037794	0.602488	0.271338
13	0.347928	0.069416	0.889480	0.509695	0.344894	0.135619	0.541504	0.271122	0.311334	0.132939	0.450966	0.541825	0.432963	0.512564	0.543219	0.146874	0.319739	0.093694	0.743835	0.562209	0.370404	0.305499	0.573997	0.505840	0.581223	0.083611	0.686177	0.537172	0.167912	0.426809	0.307500	0.383381	0.650433	0.103744	0.845967	0.423343	0.273641	0.075525	0.555241	0.400992	0.255299	0.062979	0.609467	0.325329	0.316820	0.151095	0.437924	0.477851	0.397512	0.102975	0.606089	0.517999	0.155044	0.056561	0.404376	0.523042	0.341310	0.063160	0.296517	0.343540	0.311567	0.210619	0.338424	0.395008	0.425436	0.139979	0.650869	0.614892	0.180023	0.037835	0.590777	0.269945
14	0.344803	0.065765	0.875362	0.516948	0.316621	0.136808	0.543333	0.273903	0.299070	0.129392	0.424465	0.530799	0.439689	0.501417	0.566773	0.111756	0.500104	0.114806	0.766520	0.559011	0.371213	0.453936	0.615562	0.509570	0.585752	0.085732	0.689847	0.541192	0.168382	0.435717	0.313556	0.378512	0.789912	0.105654	0.878586	0.437761	0.263398	0.076527	0.567268	0.403953	0.254333	0.062607	0.597075	0.323395	0.314493	0.150115	0.432994	0.483353	0.383469	0.104526	0.605725	0.544752	0.155578	0.055705	0.404406	0.534495	0.353649	0.072055	0.294486	0.344656	0.312173	0.211263	0.346325	0.423779	0.396853	0.141300	0.650683	0.635300	0.177914	0.037225	0.550678	0.261391
15	0.325310	0.064294	0.860656	0.544162	0.288343	0.130456	0.542916	0.273768	0.284917	0.127293	0.405766	0.527585	0.416522	0.472125	0.570508	0.100862	0.520286	0.116832	0.776117	0.543040	0.369781	0.479587	0.612715	0.504041	0.578440	0.087448	0.762085	0.573153	0.170373	0.434853	0.317578	0.359225	0.926718	0.117541	0.904460	0.437190	0.263269	0.076591	0.532250	0.370819	0.241045	0.061377	0.596907	0.317571	0.315999	0.151912	0.452638	0.491784	0.392517	0.107521	0.583453	0.544526	0.155792	0.068475	0.409035	0.533148	0.343208	0.073690	0.301216	0.343812	0.290293	0.210471	0.324594	0.536396	0.381311	0.141053	0.649928	0.648665	0.177769	0.042723	0.508072	0.260170
16	0.266222	0.048759	0.847538	0.539317	0.273477	0.122000	0.544007	0.270369	0.278612	0.126345	0.443277	0.498370	0.341355	0.375091	0.604469	0.114190	0.519361	0.116904	0.721986	0.499822	0.336385	0.498713	0.595758	0.505707	0.554267	0.087026	0.869958	0.609444	0.174676	0.432402	0.317343	0.298888	0.941432	0.122816	0.929334	0.441657	0.251095	0.072670	0.412639	0.271728	0.237866	0.060416	0.600273	0.294888	0.321514	0.152644	0.504524	0.492255	0.391147	0.107968	0.529324	0.549048	0.156095	0.090040	0.412200	0.525897	0.341960	0.074411	0.300243	0.343370	0.283220	0.207197	0.315834	0.572642	0.318892	0.140735	0.645824	0.648609	0.177086	0.044559	0.481369	0.259149
17	0.264037	0.052354	0.872671	0.496265	0.180764	0.123412	0.466175	0.275113	0.276489	0.125370	0.502986	0.479192	0.312796	0.363238	0.628277	0.133040	0.519404	0.116919	0.677617	0.485410	0.274992	0.616521	0.573156	0.493491	0.537258	0.085772	0.884424	0.639135	0.163797	0.391518	0.301764	0.301832	0.929230	0.121321	0.944891	0.439776	0.236257	0.067291	0.381681	0.267271	0.236788	0.060232	0.596157	0.264825	0.306929	0.124468	0.463450	0.487630	0.387977	0.105277	0.482993	0.582465	0.156323	0.101364	0.413924	0.526321	0.342993	0.075793	0.272315	0.356957	0.282273	0.207436	0.312834	0.572965	0.305953	0.134306	0.650180	0.644312	0.177805	0.045094	0.444777	0.260871
18	0.261457	0.066351	0.962407	0.488391	0.133260	0.116129	0.344215	0.231549	0.255220	0.124088	0.541785	0.477417	0.217176	0.279696	0.611652	0.135229	0.519417	0.116781	0.678524	0.484836	0.250309	0.693067	0.552936	0.452018	0.535907	0.085640	0.869949	0.647549	0.155918	0.349973	0.297617	0.316039	0.927949	0.122495	0.913122	0.440711	0.236719	0.064971	0.385680	0.269791	0.237829	0.058901	0.571046	0.234583	0.228273	0.123731	0.448703	0.474176	0.381257	0.107614	0.484836	0.648383	0.155802	0.104083	0.411258	0.526519	0.341607	0.077738	0.253170	0.368008	0.261487	0.199591	0.291182	0.566899	0.225263	0.116252	0.683307	0.639486	0.178435	0.045004	0.407238	0.261537
19	0.249567	0.073428	1.011514	0.496337	0.126299	0.107388	0.318700	0.220963	0.224994	0.123099	0.577349	0.466316	0.141447	0.159320	0.521826	0.149263	0.519904	0.116450	0.693345	0.472874	0.258791	0.704472	0.547026	0.431036	0.542513	0.084266	0.862201	0.648390	0.150825	0.177416	0.290264	0.290215	0.927480	0.123801	0.846254	0.445562	0.110070	0.053650	0.384077	0.269787	0.211718	0.055379	0.538996	0.227166	0.192294	0.121154	0.427563	0.435783	0.379143	0.112978	0.502452	0.728334	0.155534	0.104387	0.385856	0.512230	0.356698	0.076897	0.253711	0.399464	0.244072	0.184386	0.167967	0.499627	0.185859	0.109400	0.728647	0.626677	0.176369	0.045531	0.377013	0.270160
20	0.251916	0.076746	1.031802	0.487493	0.136491	0.148800	0.333493	0.231425	0.193443	0.123158	0.597492	0.435310	0.118300	0.133938	0.453747	0.152696	0.520924	0.116172	0.699715	0.448475	0.268355	0.704440	0.551977	0.439716	0.513875	0.078443	0.861084	0.668127	0.126378	0.152869	0.311234	0.282107	0.928454	0.123854	0.794327	0.447114	0.114352	0.039055	0.319517	0.250309	0.190972	0.057797	0.501632	0.243195	0.189217	0.090004	0.417400	0.321644	0.377929	0.119183	0.503092	0.793217	0.155887	0.108296	0.351948	0.490732	0.363741	0.076205	0.298861	0.439021	0.217897	0.151054	0.141548	0.473223	0.187823	0.112659	0.750325	0.627744	0.172245	0.047805	0.357860	0.282591
21	0.253963	0.077786	1.030120	0.482004	0.150005	0.168801	0.354069	0.246243	0.185630	0.111758	0.594473	0.413355	0.120100	0.147833	0.449961	0.238912	0.526687	0.116816	0.694243	0.418795	0.273336	0.704249	0.549923	0.470749	0.472134	0.072098	0.860965	0.704569	0.084947	0.153015	0.331063	0.257474	0.924935	0.118913	0.772379	0.445797	0.126853	0.033844	0.315330	0.226278	0.198407	0.058507	0.468790	0.251596	0.178458	0.079809	0.412382	0.267012	0.374604	0.122541	0.502422	0.816682	0.153583	0.111009	0.324859	0.441611	0.352696	0.076236	0.370936	0.447775	0.202093	0.068230	0.155214	0.484822	0.194134	0.117528	0.766851	0.638285	0.168220	0.046676	0.358350	0.289510
22	0.254781	0.078233	1.025609	0.481984	0.136123	0.242381	0.228601	0.259281	0.171249	0.092231	0.595106	0.412058	0.128857	0.150586	0.457132	0.248166	0.527459	0.116898	0.698688	0.389875	0.275587	0.704205	0.531047	0.497041	0.472418	0.071802	0.864090	0.731028	0.089048	0.153763	0.310374	0.216175	0.919123	0.113933	0.759786	0.441251	0.156170	0.035085	0.309381	0.155723	0.189154	0.051442	0.446320	0.253227	0.175700	0.076152	0.418861	0.268955	0.377882	0.123371	0.504139	0.822066	0.151291	0.113293	0.323815	0.384422	0.345215	0.075891	0.378933	0.444827	0.160181	0.090489	0.156751	0.478556	0.203004	0.121475	0.772434	0.642768	0.167998	0.047384	0.359602	0.285545
23	0.253591	0.077311	1.024446	0.479730	0.159492	0.243222	0.217586	0.268330	0.159223	0.089975	0.574191	0.400173	0.118737	0.138701	0.416682	0.295205	0.525476	0.116447	0.707158	0.364966	0.282964	0.704199	0.522602	0.484796	0.459951	0.071699	0.866075	0.691165	0.084338	0.153852	0.274653	0.222921	0.920197	0.111799	0.751442	0.460332	0.279010	0.051533	0.314439	0.184191	0.175752	0.045323	0.421317	0.256414	0.192582	0.097729	0.418011	0.266647	0.396119	0.123871	0.507660	0.833174	0.146947	0.113754	0.307139	0.358167	0.348445	0.075554	0.365871	0.439944	0.171270	0.095114	0.143375	0.470478	0.213427	0.123978	0.779698	0.649729	0.181849	0.052333	0.349278	0.282707
24	0.252736	0.077498	1.008803	0.460965	0.158265	0.242532	0.226870	0.275076	0.124759	0.090344	0.561796	0.362186	0.106669	0.118755	0.415906	0.334883	0.528171	0.115464	0.701025	0.355925	0.288958	0.704196	0.521012	0.476411	0.455400	0.071696	0.860775	0.620890	0.080651	0.132226	0.272269	0.220776	0.922048	0.109838	0.744808	0.482098	0.293613	0.054882	0.293404	0.216127	0.174969	0.044458	0.404686	0.250637	0.187302	0.093176	0.414150	0.222474	0.405249	0.123284	0.512803	0.831463	0.147648	0.114447	0.286024	0.354993	0.353135	0.075571	0.366776	0.438907	0.184029	0.097156	0.136527	0.371422	0.211771	0.124113	0.793544	0.648265	0.198581	0.060327	0.339383	0.278210
25	0.253377	0.079179	0.927179	0.449059	0.157848	0.242556	0.221949	0.278508	0.109375	0.082276	0.573501	0.339855	0.107857	0.127923	0.480730	0.344058	0.531650	0.112179	0.699481	0.374059	0.287919	0.704198	0.513452	0.476835	0.438823	0.071918	0.854788	0.605243	0.081463	0.199483	0.273884	0.235106	0.922518	0.105321	0.737370	0.478610	0.301676	0.059199	0.240984	0.219401	0.180327	0.044873	0.406591	0.241470	0.169937	0.083001	0.331751	0.162745	0.423335	0.122282	0.524528	0.831296	0.145915	0.115278	0.263365	0.341510	0.353100	0.075315	0.378065	0.455451	0.182667	0.110877	0.127802	0.242099	0.205791	0.124222	0.775129	0.649763	0.200991	0.064311	0.335760	0.270565
26	0.326980	0.084288	0.809900	0.418978	0.163357	0.240393	0.225169	0.275370	0.107818	0.061126	0.582917	0.333479	0.108688	0.136198	0.474522	0.357307	0.531368	0.111077	0.695578	0.380656	0.286682	0.704224	0.500463	0.476824	0.430130	0.073099	0.851865	0.620990	0.108335	0.197211	0.291262	0.283135	0.921837	0.102674	0.736364	0.470564	0.313617	0.062442	0.220007	0.227805	0.191030	0.047215	0.394645	0.255083	0.161491	0.076680	0.211653	0.139533	0.451241	0.124136	0.531802	0.832129	0.140631	0.115795	0.233115	0.327411	0.337907	0.074206	0.377389	0.479514	0.182199	0.109281	0.125479	0.211803	0.204386	0.122326	0.728814	0.650210	0.177468	0.063109	0.336614	0.268568
27	0.368587	0.087810	0.708059	0.378020	0.186473	0.248830	0.254539	0.252659	0.123619	0.053125	0.578244	0.368084	0.102753	0.143370	0.469247	0.361608	0.532438	0.111109	0.696722	0.382981	0.285931	0.704213	0.488007	0.476508	0.440149	0.074706	0.820103	0.635790	0.141582	0.258640	0.288110	0.310957	0.921648	0.101007	0.736811	0.458220	0.314488	0.062660	0.223880	0.221737	0.177362	0.046907	0.378380	0.261377	0.169672	0.076650	0.189327	0.137588	0.450407	0.121843	0.524558	0.842366	0.129215	0.115119	0.211427	0.326916	0.301498	0.072805	0.375708	0.500072	0.181552	0.108750	0.124240	0.209425	0.254477	0.119804	0.668996	0.647298	0.156994	0.062822	0.336616	0.274562
28	0.341733	0.085816	0.690870	0.359412	0.194621	0.249123	0.255309	0.247102	0.129400	0.051272	0.566496	0.455452	0.107153	0.157002	0.476828	0.357444	0.529592	0.111232	0.706728	0.384416	0.290864	0.704095	0.483111	0.468415	0.442046	0.076119	0.741733	0.647627	0.167066	0.268740	0.315095	0.298076	0.889262	0.100326	0.734112	0.456934	0.319925	0.062621	0.229091	0.214819	0.176149	0.046258	0.358998	0.261605	0.185948	0.076916	0.188705	0.139230	0.447381	0.118169	0.484261	0.850440	0.114094	0.115069	0.195359	0.329435	0.297723	0.072227	0.375830	0.507213	0.182737	0.110037	0.119525	0.206007	0.312373	0.120619	0.619934	0.610750	0.155667	0.062922	0.336135	0.285553
29	0.472398	0.093483	0.704260	0.357246	0.243379	0.235385	0.234133	0.234436	0.130771	0.049298	0.565107	0.492263	0.120095	0.158473	0.474549	0.356379	0.531536	0.111920	0.736135	0.365051	0.297322	0.703013	0.482476	0.445571	0.438300	0.074708	0.674367	0.658132	0.217992	0.270913	0.319362	0.292780	0.817569	0.104631	0.740169	0.464287	0.330632	0.064956	0.226601	0.228071	0.169388	0.045854	0.323976	0.262364	0.189344	0.083212	0.186328	0.139841	0.419031	0.109309	0.451331	0.829367	0.106886	0.117199	0.198209	0.316481	0.295084	0.072132	0.376083	0.514291	0.180137	0.112646	0.141772	0.187447	0.310293	0.115825	0.607120	0.602421	0.169409	0.065310	0.331076	0.293663
30	0.687026	0.114744	0.685831	0.337136	0.262803	0.222692	0.197646	0.189242	0.152036	0.050014	0.568143	0.463179	0.139330	0.152305	0.460861	0.317448	0.538230	0.112404	0.770844	0.340832	0.299738	0.698270	0.469946	0.394141	0.323779	0.059251	0.668401	0.655400	0.242224	0.270252	0.293891	0.300513	0.782477	0.104775	0.773600	0.479251	0.337277	0.065736	0.216081	0.234010	0.179784	0.046846	0.307492	0.264139	0.188462	0.080243	0.177006	0.193110	0.314656	0.103327	0.468538	0.777433	0.121799	0.119930	0.216084	0.295336	0.294739	0.070207	0.378538	0.514753	0.250608	0.112995	0.160385	0.154464	0.305230	0.109336	0.619233	0.649232	0.177913	0.067798	0.323371	0.280759
31	0.720783	0.124025	0.676212	0.301926	0.262043	0.141554	0.213469	0.145437	0.201219	0.050037	0.569437	0.461527	0.142354	0.142933	0.429234	0.302267	0.548353	0.112104	0.781500	0.332536	0.295549	0.662146	0.426488	0.341640	0.368401	0.058325	0.620069	0.626712	0.258937	0.271702	0.236009	0.306966	0.788714	0.102649	0.815691	0.482423	0.347546	0.068824	0.186235	0.233327	0.239226	0.047827	0.307875	0.289254	0.182053	0.084994	0.191350	0.219212	0.324612	0.102412	0.474012	0.740391	0.137683	0.121553	0.223523	0.285568	0.281347	0.063587	0.378727	0.515391	0.321306	0.093342	0.159338	0.174991	0.296556	0.106604	0.625148	0.652258	0.167424	0.068810	0.321398	0.260187
32	0.724689	0.125313	0.672226	0.299705	0.290820	0.140508	0.219816	0.136732	0.204223	0.049142	0.569525	0.493164	0.131723	0.128771	0.406219	0.269038	0.547237	0.102732	0.760652	0.314657	0.305986	0.566076	0.369041	0.328977	0.371164	0.055689	0.437191	0.589481	0.279195	0.274107	0.232451	0.293850	0.772645	0.104004	0.829372	0.480329	0.411539	0.095121	0.189307	0.233936	0.276523	0.047933	0.305310	0.305800	0.167438	0.067097	0.196463	0.222873	0.317445	0.099374	0.471709	0.738009	0.149383	0.121964	0.218964	0.273117	0.223211	0.050801	0.378997	0.554856	0.329602	0.085451	0.157452	0.198341	0.294319	0.105812	0.636478	0.641937	0.164939	0.068839	0.336375	0.249478
33	0.746559	0.120744	0.601156	0.306421	0.312578	0.140488	0.228842	0.170305	0.207552	0.049218	0.573380	0.515737	0.140511	0.121141	0.405406	0.198527	0.412942	0.078893	0.734079	0.297401	0.324813	0.525410	0.352807	0.327249	0.363148	0.056544	0.324720	0.552701	0.285109	0.274549	0.259702	0.306714	0.703651	0.107707	0.807297	0.478983	0.380445	0.098289	0.179823	0.195296	0.279635	0.050934	0.295827	0.304797	0.189532	0.071146	0.195008	0.261893	0.318486	0.098904	0.469559	0.742041	0.161029	0.120939	0.237873	0.266853	0.213444	0.039945	0.377764	0.638621	0.461871	0.095745	0.161433	0.208696	0.337281	0.107359	0.649082	0.647915	0.169833	0.068020	0.361321	0.242392
34	0.771378	0.113452	0.454525	0.329625	0.328984	0.140374	0.237958	0.240487	0.208226	0.050050	0.564170	0.525548	0.137058	0.114512	0.346525	0.242325	0.274728	0.079805	0.713686	0.276114	0.347090	0.514435	0.351081	0.320091	0.428915	0.061129	0.308191	0.542130	0.282390	0.272611	0.265152	0.325125	0.533198	0.106880	0.772336	0.481305	0.427508	0.101330	0.180599	0.153637	0.279299	0.052294	0.292101	0.301018	0.249139	0.078214	0.223074	0.319174	0.333050	0.101788	0.468313	0.731692	0.165734	0.110995	0.265626	0.270919	0.219287	0.038396	0.370147	0.681296	0.464753	0.087408	0.162505	0.207462	0.366950	0.106468	0.630471	0.649934	0.170335	0.067711	0.383990	0.242631
35	0.786628	0.108240	0.380531	0.373831	0.328246	0.141066	0.236373	0.326854	0.207947	0.052678	0.515226	0.527244	0.135999	0.105939	0.282347	0.385797	0.289711	0.094834	0.694846	0.262916	0.358593	0.380047	0.355950	0.327550	0.559711	0.060062	0.312227	0.581221	0.282111	0.247208	0.259001	0.332160	0.383315	0.096408	0.744117	0.481887	0.426619	0.098844	0.184901	0.149672	0.303312	0.056665	0.291298	0.315786	0.253186	0.079436	0.203884	0.339735	0.358254	0.103432	0.459520	0.688658	0.168459	0.094750	0.305486	0.283782	0.246858	0.037175	0.364060	0.685412	0.472917	0.081538	0.194623	0.212193	0.382811	0.104122	0.581903	0.632883	0.174643	0.070639	0.393381	0.242838
36	0.790671	0.109909	0.356373	0.431801	0.315189	0.112075	0.203839	0.345951	0.217092	0.052084	0.471190	0.556107	0.149213	0.113219	0.279581	0.484881	0.297838	0.099328	0.675940	0.307153	0.368191	0.176837	0.359882	0.343829	0.596200	0.057778	0.324502	0.587034	0.278799	0.209613	0.233404	0.304343	0.389002	0.094297	0.717209	0.473396	0.419677	0.097119	0.183108	0.152075	0.364474	0.064529	0.299522	0.360052	0.253131	0.079564	0.216034	0.340204	0.416214	0.100617	0.434418	0.612705	0.220383	0.087807	0.324469	0.291963	0.331349	0.041213	0.369647	0.678251	0.480943	0.086385	0.282479	0.226997	0.386682	0.102206	0.505706	0.607525	0.176042	0.087626	0.376298	0.236281
37	0.798981	0.121615	0.365894	0.475257	0.317163	0.125747	0.201656	0.389211	0.227023	0.051205	0.437207	0.581332	0.164071	0.106522	0.270220	0.516198	0.310203	0.100605	0.634286	0.428044	0.359787	0.094601	0.359933	0.363326	0.604080	0.064180	0.327501	0.544017	0.259936	0.191200	0.223728	0.262536	0.390624	0.094970	0.684663	0.474989	0.449290	0.100287	0.180473	0.159498	0.363233	0.063755	0.299316	0.348808	0.243432	0.080218	0.240334	0.340307	0.464821	0.095281	0.427352	0.513832	0.258316	0.089434	0.324365	0.286005	0.435940	0.044124	0.380915	0.667564	0.503597	0.087943	0.302289	0.254358	0.385991	0.098387	0.447379	0.574465	0.175236	0.102093	0.359565	0.231253
38	0.834571	0.141484	0.400015	0.478642	0.282491	0.104967	0.308671	0.443011	0.230420	0.052782	0.404350	0.587973	0.158285	0.100629	0.267075	0.527945	0.316556	0.101149	0.579608	0.563416	0.345027	0.093007	0.372938	0.358500	0.780217	0.099149	0.355206	0.498277	0.256444	0.126866	0.211949	0.236180	0.399493	0.093273	0.665752	0.494608	0.455624	0.101123	0.237791	0.164635	0.365613	0.062312	0.286515	0.367287	0.236462	0.079019	0.245504	0.351144	0.489179	0.088705	0.428613	0.430719	0.282851	0.092402	0.330714	0.280874	0.423510	0.044713	0.382540	0.643038	0.520523	0.091095	0.300699	0.281748	0.398186	0.093294	0.411257	0.542121	0.173977	0.103804	0.350101	0.247886
39	0.848343	0.147431	0.427271	0.494450	0.258542	0.127101	0.346524	0.463487	0.241968	0.053778	0.410407	0.615788	0.154693	0.129481	0.275339	0.624908	0.319672	0.101192	0.549774	0.659843	0.347199	0.092779	0.399448	0.322842	0.805221	0.101885	0.392333	0.484737	0.229521	0.134006	0.182750	0.235119	0.431388	0.094010	0.657196	0.589004	0.455106	0.098974	0.329962	0.398042	0.367096	0.062659	0.267528	0.424504	0.244639	0.082312	0.246931	0.341930	0.488853	0.089297	0.445928	0.418786	0.293250	0.091135	0.343894	0.272536	0.423344	0.044722	0.337485	0.619077	0.514470	0.091713	0.278486	0.281529	0.395892	0.090527	0.417520	0.526133	0.173676	0.108283	0.346358	0.267445
40	0.849865	0.146882	0.434602	0.541233	0.262555	0.126375	0.392362	0.457541	0.241620	0.053628	0.395436	0.673394	0.137341	0.157510	0.278518	0.673495	0.318799	0.100938	0.543931	0.727827	0.356361	0.093203	0.412484	0.273977	0.812195	0.105642	0.402127	0.497207	0.195748	0.128193	0.187502	0.217797	0.433771	0.093241	0.648382	0.657975	0.456100	0.099181	0.356377	0.528625	0.405549	0.072921	0.249283	0.447958	0.249177	0.083257	0.255778	0.314409	0.524403	0.101158	0.482628	0.383419	0.293821	0.089118	0.364115	0.269802	0.424100	0.044644	0.252692	0.620025	0.476856	0.090419	0.307891	0.268170	0.390803	0.088132	0.415552	0.537063	0.173431	0.126501	0.345015	0.269565
41	0.846509	0.145792	0.445247	0.588235	0.254530	0.137995	0.460703	0.458588	0.239354	0.052688	0.425272	0.703614	0.164211	0.162531	0.279440	0.678918	0.305795	0.103395	0.543285	0.759268	0.358521	0.093856	0.399235	0.248115	0.816863	0.105415	0.402717	0.474578	0.190426	0.124388	0.175912	0.202262	0.433018	0.093628	0.665282	0.675818	0.448918	0.097539	0.352540	0.538252	0.430556	0.077205	0.228003	0.456604	0.241292	0.078810	0.232108	0.310710	0.581876	0.115229	0.486923	0.341886	0.293336	0.085833	0.372478	0.276487	0.423960	0.044745	0.231496	0.637510	0.455644	0.088226	0.345418	0.258693	0.397373	0.090331	0.387538	0.558405	0.173219	0.141754	0.341524	0.260552
42	0.814524	0.142417	0.477102	0.602679	0.244506	0.143860	0.462552	0.447763	0.237602	0.051953	0.517939	0.707900	0.217861	0.179622	0.275542	0.685592	0.305714	0.105920	0.537039	0.762702	0.359921	0.095184	0.377829	0.257474	0.819533	0.104585	0.412556	0.437321	0.180524	0.116142	0.273947	0.263810	0.446491	0.098206	0.680732	0.676522	0.404878	0.072539	0.359990	0.583514	0.432663	0.077387	0.224084	0.456514	0.233494	0.073282	0.242961	0.294315	0.593584	0.120451	0.487279	0.332635	0.293615	0.083871	0.373044	0.282030	0.423627	0.048281	0.250276	0.639296	0.381357	0.069207	0.365161	0.301948	0.404728	0.092807	0.374599	0.558851	0.173695	0.148020	0.338172	0.259758
43	0.802032	0.140925	0.510131	0.605775	0.293956	0.144682	0.460579	0.414621	0.237454	0.051918	0.530292	0.712000	0.227542	0.196578	0.297410	0.679145	0.318417	0.105755	0.536769	0.767263	0.384892	0.101384	0.370642	0.281612	0.821202	0.104504	0.439934	0.413527	0.171789	0.114352	0.384528	0.362798	0.490726	0.108425	0.685174	0.653519	0.377401	0.055344	0.385867	0.638641	0.427522	0.076760	0.222841	0.447650	0.165366	0.061119	0.271294	0.236399	0.580113	0.119578	0.485917	0.378669	0.295229	0.082356	0.369320	0.289575	0.424252	0.055197	0.277776	0.640548	0.296670	0.062192	0.382226	0.319081	0.417600	0.097556	0.369807	0.562379	0.169092	0.148258	0.337741	0.261018
44	0.794067	0.141865	0.530055	0.609934	0.327617	0.144066	0.460931	0.352767	0.236898	0.050423	0.534469	0.713889	0.263497	0.224100	0.293045	0.631833	0.340926	0.109287	0.540175	0.787184	0.395077	0.107917	0.355508	0.318667	0.825926	0.104812	0.457584	0.417538	0.182392	0.131802	0.409270	0.417686	0.495489	0.108872	0.682963	0.636682	0.310747	0.052529	0.402975	0.681382	0.429988	0.076114	0.198194	0.451255	0.116830	0.057222	0.282529	0.158777	0.578165	0.115208	0.482313	0.411386	0.297989	0.081562	0.367793	0.300077	0.425364	0.055870	0.317239	0.638518	0.290499	0.064127	0.395707	0.330437	0.410266	0.109307	0.443609	0.558290	0.145378	0.146381	0.337833	0.261306
45	0.674143	0.134815	0.545944	0.612255	0.327208	0.142226	0.462139	0.362267	0.228986	0.049340	0.576992	0.705943	0.283324	0.221898	0.306859	0.549759	0.352465	0.111022	0.531228	0.825054	0.394720	0.111333	0.349446	0.385960	0.824273	0.104052	0.457211	0.404093	0.185665	0.135951	0.430273	0.438194	0.494608	0.109376	0.684129	0.630097	0.301517	0.052714	0.400123	0.694744	0.427293	0.076129	0.171320	0.477343	0.122017	0.055700	0.282992	0.146056	0.587930	0.114176	0.483916	0.399646	0.301042	0.081927	0.366747	0.319266	0.437474	0.057935	0.357034	0.624892	0.258100	0.074458	0.377625	0.346779	0.397477	0.110862	0.529377	0.546031	0.131619	0.144139	0.337792	0.272927
46	0.496592	0.131872	0.540644	0.614556	0.315826	0.113040	0.460266	0.377011	0.224746	0.045641	0.606520	0.686318	0.272720	0.226248	0.311962	0.518807	0.376011	0.112717	0.548635	0.871542	0.392942	0.112346	0.346612	0.421965	0.809176	0.103056	0.463683	0.402827	0.186988	0.186928	0.494282	0.439359	0.552557	0.114175	0.689341	0.631500	0.299631	0.052484	0.401520	0.710318	0.427499	0.076102	0.175205	0.510181	0.160712	0.058696	0.281281	0.186563	0.632528	0.114947	0.468668	0.379965	0.305611	0.084381	0.365379	0.345257	0.442880	0.058797	0.389447	0.607048	0.243294	0.114156	0.343256	0.373310	0.410319	0.116046	0.609247	0.460681	0.135801	0.143139	0.337146	0.309642
47	0.485519	0.251965	0.541464	0.616708	0.317184	0.106209	0.414823	0.346230	0.225901	0.042571	0.644970	0.712026	0.274395	0.225450	0.323615	0.620022	0.381482	0.114057	0.568935	0.920953	0.378903	0.112329	0.346537	0.427829	0.789007	0.102541	0.478717	0.433897	0.187332	0.241409	0.545684	0.439954	0.574039	0.115311	0.696338	0.642701	0.250252	0.045706	0.471626	0.745667	0.421454	0.076374	0.176115	0.540344	0.167863	0.057178	0.288235	0.193862	0.637556	0.115937	0.384816	0.359595	0.311462	0.085283	0.365146	0.364326	0.441895	0.058574	0.419753	0.585588	0.176063	0.125961	0.340420	0.404568	0.413078	0.121127	0.645195	0.323902	0.141033	0.143004	0.336442	0.350469
48	0.475177	0.409148	0.546367	0.610191	0.343836	0.081079	0.450337	0.333233	0.218981	0.039551	0.699627	0.772921	0.269117	0.215107	0.328056	0.585135	0.395308	0.113619	0.554202	0.958892	0.360930	0.113332	0.344060	0.428321	0.784170	0.101097	0.478304	0.460309	0.184922	0.239313	0.582651	0.443846	0.570899	0.108933	0.695167	0.652397	0.229459	0.043197	0.523266	0.752711	0.391091	0.077742	0.172741	0.558948	0.162200	0.049361	0.285843	0.178577	0.650186	0.119615	0.341408	0.363633	0.312600	0.082831	0.362220	0.377068	0.441677	0.065966	0.440376	0.576807	0.176567	0.144973	0.345624	0.411777	0.449352	0.125486	0.650866	0.297172	0.142392	0.143053	0.335823	0.379144
49	0.433793	0.440247	0.551370	0.601912	0.350327	0.079344	0.416748	0.351633	0.180127	0.036637	0.741404	0.796926	0.267505	0.192024	0.314351	0.524992	0.439286	0.111564	0.503640	0.988063	0.363100	0.113657	0.326496	0.440202	0.784452	0.100869	0.469365	0.469193	0.187494	0.270764	0.586139	0.451666	0.576983	0.106085	0.669194	0.652823	0.215049	0.043818	0.496732	0.664015	0.373876	0.079321	0.180317	0.570972	0.149528	0.042003	0.277047	0.174994	0.685854	0.122330	0.384033	0.373747	0.309130	0.080485	0.349938	0.387429	0.453170	0.068398	0.444805	0.576450	0.186466	0.144829	0.354354	0.407105	0.473542	0.127112	0.642585	0.318714	0.138886	0.142721	0.330659	0.397066
50	0.410494	0.479909	0.537686	0.596347	0.360753	0.060604	0.344957	0.347871	0.241257	0.037205	0.764985	0.789502	0.258475	0.187758	0.323702	0.548439	0.440149	0.110388	0.445922	1.008623	0.359190	0.110927	0.302393	0.468755	0.768973	0.097843	0.446797	0.464011	0.215292	0.282398	0.584537	0.451798	0.591010	0.105626	0.603786	0.645397	0.188072	0.042331	0.485977	0.569456	0.373592	0.080826	0.216335	0.580998	0.149757	0.040331	0.267686	0.181534	0.762507	0.126039	0.483068	0.364776	0.308184	0.080334	0.342993	0.389913	0.472677	0.068369	0.446197	0.573307	0.159212	0.144679	0.306727	0.404371	0.516799	0.129671	0.692580	0.314877	0.122194	0.141329	0.308616	0.410811
51	0.413526	0.598522	0.527312	0.567413	0.494861	0.072307	0.360017	0.350447	0.294708	0.043845	0.769850	0.781713	0.213120	0.171590	0.329366	0.594028	0.439362	0.110265	0.417859	1.019313	0.355077	0.104335	0.292913	0.505889	0.673952	0.097313	0.462814	0.419723	0.226951	0.282617	0.585505	0.455327	0.595059	0.102759	0.530190	0.640435	0.184248	0.042497	0.503735	0.576154	0.373694	0.092839	0.282534	0.585856	0.146270	0.036790	0.273891	0.193232	0.769952	0.125041	0.545333	0.371675	0.316418	0.083196	0.343223	0.389652	0.513740	0.067842	0.480612	0.527472	0.162021	0.144652	0.307457	0.379023	0.557745	0.131551	0.790253	0.302162	0.117020	0.140590	0.287720	0.420395
52	0.421201	0.639791	0.524860	0.509937	0.464295	0.071173	0.359978	0.353048	0.321459	0.058761	0.767657	0.779567	0.191149	0.164094	0.315161	0.602254	0.466250	0.110888	0.419060	1.023309	0.353312	0.094873	0.300890	0.535927	0.621007	0.099125	0.484926	0.375891	0.214707	0.282334	0.580947	0.480129	0.597398	0.101683	0.480847	0.637554	0.146862	0.047899	0.497359	0.541537	0.341552	0.134417	0.339303	0.573991	0.141270	0.035839	0.245855	0.195907	0.794371	0.131769	0.556964	0.387577	0.322425	0.084731	0.331849	0.377945	0.610775	0.067730	0.561288	0.426429	0.163775	0.144541	0.270434	0.357260	0.555395	0.130232	0.860671	0.307762	0.118113	0.141105	0.272582	0.424021
53	0.391450	0.639911	0.511371	0.485402	0.472767	0.068958	0.357512	0.351739	0.329464	0.065945	0.768664	0.781705	0.158713	0.105226	0.261299	0.580749	0.486230	0.102934	0.414375	1.024197	0.358392	0.085947	0.307894	0.561433	0.614709	0.100196	0.500432	0.371138	0.200002	0.281935	0.546435	0.442653	0.594356	0.101003	0.457434	0.627252	0.241569	0.057356	0.479100	0.488396	0.285036	0.202401	0.378962	0.543311	0.143571	0.037543	0.222211	0.241242	0.798269	0.134530	0.554988	0.396088	0.322017	0.084707	0.304027	0.370094	0.616701	0.073823	0.638643	0.368175	0.166223	0.144007	0.285780	0.376793	0.559523	0.127403	0.904379	0.324959	0.105599	0.142185	0.248070	0.425855
54	0.338514	0.637131	0.500588	0.490769	0.478397	0.068869	0.356336	0.323257	0.324133	0.067725	0.768859	0.769475	0.102942	0.099456	0.213031	0.571674	0.481181	0.086715	0.401401	1.024475	0.373078	0.080189	0.313394	0.581808	0.441298	0.071146	0.491589	0.368518	0.188042	0.278719	0.502128	0.394001	0.559196	0.095446	0.446977	0.612384	0.262387	0.056372	0.506909	0.434631	0.290469	0.221549	0.416418	0.536601	0.143714	0.037657	0.216195	0.316472	0.771341	0.133944	0.561526	0.397423	0.318784	0.084119	0.259858	0.359410	0.653940	0.094483	0.678214	0.360637	0.167994	0.141931	0.235254	0.361932	0.669180	0.125407	0.910572	0.357041	0.104323	0.148270	0.206996	0.426435
55	0.431113	0.638722	0.526410	0.464666	0.479108	0.068383	0.356049	0.233767	0.320803	0.068291	0.767354	0.754799	0.124332	0.056929	0.244574	0.564439	0.475102	0.074919	0.388716	1.021694	0.387498	0.079580	0.317824	0.593933	0.313700	0.060453	0.451772	0.368660	0.182014	0.274116	0.503898	0.338836	0.538074	0.091069	0.430445	0.599895	0.419583	0.081588	0.533932	0.412207	0.305156	0.231798	0.420047	0.504584	0.115452	0.034761	0.206285	0.314360	0.750782	0.133044	0.614435	0.396566	0.282296	0.079250	0.239242	0.352133	0.665931	0.109587	0.682301	0.360756	0.212360	0.109560	0.223139	0.331029	0.696450	0.127514	0.909442	0.390256	0.100775	0.191738	0.154620	0.425363
56	0.465163	0.639230	0.534722	0.414346	0.476401	0.068418	0.315070	0.199865	0.347840	0.067616	0.766026	0.754572	0.140415	0.063214	0.248816	0.474539	0.468992	0.071089	0.381881	0.998709	0.390138	0.079512	0.300669	0.612441	0.331220	0.056130	0.456450	0.355698	0.183947	0.267419	0.461193	0.334219	0.528495	0.088140	0.424989	0.599321	0.676123	0.131413	0.534748	0.401668	0.343018	0.287452	0.419151	0.460722	0.070560	0.023042	0.173446	0.303831	0.752934	0.132753	0.669013	0.397818	0.252917	0.074505	0.240866	0.351740	0.648804	0.113810	0.676528	0.358557	0.252219	0.102020	0.222838	0.266941	0.701909	0.144497	0.904005	0.408664	0.101722	0.247594	0.132798	0.421464
57	0.464901	0.639303	0.536574	0.372012	0.458164	0.067693	0.227285	0.196765	0.341351	0.067888	0.761040	0.737112	0.140448	0.063531	0.237211	0.371119	0.463690	0.069746	0.388093	0.941772	0.389558	0.079398	0.258290	0.626485	0.366541	0.058367	0.544397	0.355658	0.208103	0.213542	0.394874	0.346486	0.533881	0.089561	0.423223	0.594835	0.694031	0.132102	0.488133	0.344285	0.307379	0.307782	0.437514	0.437819	0.101876	0.023055	0.165475	0.299388	0.746547	0.129653	0.690519	0.417657	0.299609	0.070326	0.232043	0.342717	0.657183	0.115019	0.681881	0.356881	0.258369	0.049089	0.216241	0.207499	0.711703	0.162610	0.898703	0.395614	0.118977	0.267156	0.127008	0.420385
58	0.496645	0.640661	0.512685	0.363433	0.551381	0.072207	0.192419	0.184081	0.343214	0.069853	0.746936	0.689492	0.140547	0.063420	0.231522	0.360113	0.460426	0.069225	0.394984	0.867966	0.399881	0.078780	0.239595	0.630066	0.404838	0.064940	0.638081	0.374472	0.218109	0.183720	0.342442	0.352814	0.545453	0.095473	0.418283	0.554904	0.697292	0.133900	0.396818	0.334044	0.359467	0.310193	0.477630	0.433820	0.105785	0.022749	0.171682	0.298868	0.706415	0.121848	0.714544	0.455203	0.326457	0.065751	0.215680	0.330386	0.657282	0.115435	0.694642	0.355424	0.239127	0.039943	0.199823	0.199312	0.718154	0.197307	0.899545	0.372557	0.138923	0.265688	0.115952	0.415417
59	0.657057	0.643591	0.509745	0.376851	0.541421	0.064853	0.194219	0.181655	0.350657	0.070538	0.720802	0.665919	0.138997	0.060262	0.217922	0.311598	0.464499	0.073470	0.396747	0.801942	0.404309	0.077944	0.239281	0.630438	0.420608	0.065332	0.686635	0.384868	0.215071	0.176835	0.325192	0.340416	0.530456	0.095514	0.411898	0.430388	0.697826	0.135525	0.358344	0.326054	0.379785	0.310456	0.528389	0.438704	0.238779	0.024387	0.185515	0.308526	0.684304	0.116717	0.722964	0.483336	0.331752	0.062389	0.265179	0.323108	0.657334	0.115602	0.697570	0.350788	0.230847	0.040014	0.191259	0.197766	0.718015	0.210591	0.902259	0.370602	0.148970	0.279098	0.114918	0.401137
60	0.678322	0.643608	0.506643	0.394796	0.448646	0.041269	0.152855	0.158903	0.366212	0.071627	0.655708	0.677422	0.146651	0.064589	0.203205	0.193336	0.587544	0.111631	0.397685	0.749411	0.406088	0.076796	0.232378	0.626471	0.456395	0.064767	0.706931	0.391036	0.192112	0.139719	0.325308	0.342021	0.530120	0.095299	0.374036	0.359662	0.706470	0.136995	0.345713	0.305639	0.387777	0.310805	0.569763	0.503798	0.272061	0.027234	0.166576	0.301612	0.675050	0.111076	0.714353	0.476694	0.335435	0.061785	0.336427	0.315545	0.658459	0.115664	0.698039	0.345495	0.227075	0.039967	0.182129	0.193025	0.708411	0.210933	0.904043	0.363218	0.151467	0.314155	0.109731	0.387200
61	0.700868	0.643572	0.483745	0.396523	0.435589	0.039651	0.160215	0.140939	0.395986	0.083162	0.628516	0.694684	0.148562	0.204971	0.192969	0.129186	0.735682	0.144051	0.389781	0.732897	0.382778	0.071163	0.234987	0.617423	0.451459	0.065091	0.725334	0.408683	0.158053	0.167924	0.328550	0.356542	0.529984	0.094980	0.304540	0.342263	0.712553	0.137982	0.319393	0.276369	0.401923	0.319243	0.585070	0.591697	0.309288	0.032830	0.157432	0.300853	0.666653	0.109121	0.726375	0.435387	0.339090	0.065021	0.368726	0.312725	0.657060	0.114547	0.699073	0.365091	0.225521	0.040013	0.195237	0.188103	0.705079	0.207063	0.873186	0.376993	0.151668	0.334332	0.104316	0.378801
62	0.727845	0.637295	0.507853	0.387731	0.411533	0.039113	0.161494	0.141031	0.420502	0.100348	0.629574	0.709880	0.162482	0.226313	0.187273	0.125315	0.742857	0.149972	0.369028	0.734806	0.370327	0.060280	0.249341	0.615265	0.448757	0.068539	0.741035	0.404506	0.146839	0.197623	0.348563	0.338300	0.507663	0.085459	0.265658	0.341537	0.712558	0.136156	0.324799	0.255390	0.404923	0.334008	0.592745	0.623991	0.321962	0.032948	0.167748	0.298383	0.667281	0.113306	0.753525	0.460948	0.363882	0.072336	0.372611	0.318924	0.656840	0.111992	0.692513	0.372076	0.223175	0.040152	0.190730	0.134686	0.698424	0.237885	0.824713	0.428812	0.169716	0.330953	0.102246	0.372894
63	0.729815	0.578018	0.521394	0.388093	0.407471	0.038849	0.161347	0.147843	0.421463	0.101587	0.599585	0.715712	0.166672	0.255907	0.186527	0.124787	0.747200	0.149918	0.354093	0.724589	0.376423	0.053237	0.256027	0.605393	0.436992	0.068990	0.737103	0.376615	0.156285	0.199634	0.334166	0.331724	0.470505	0.078046	0.261933	0.342524	0.683882	0.131920	0.325160	0.229867	0.402940	0.337359	0.599079	0.622406	0.387872	0.061670	0.152090	0.225377	0.635026	0.113750	0.776206	0.520718	0.393392	0.083379	0.377409	0.335781	0.657473	0.111794	0.672823	0.363322	0.221613	0.040165	0.181282	0.105622	0.696132	0.251980	0.762623	0.491076	0.219073	0.331660	0.092667	0.370513
64	0.730558	0.492461	0.515200	0.399669	0.407849	0.038540	0.171007	0.192053	0.423734	0.105027	0.580958	0.689777	0.191007	0.260022	0.145597	0.124242	0.741011	0.148102	0.349410	0.683961	0.376728	0.050536	0.256276	0.616175	0.429805	0.069171	0.801677	0.363871	0.161306	0.200384	0.275080	0.331261	0.480518	0.079380	0.256595	0.343184	0.675313	0.128113	0.253694	0.207742	0.408061	0.343471	0.623551	0.606432	0.392206	0.065099	0.148958	0.210832	0.611683	0.114618	0.787709	0.535366	0.404621	0.090200	0.398474	0.360228	0.648590	0.110654	0.653254	0.342891	0.209524	0.039323	0.180807	0.102014	0.699465	0.250756	0.736773	0.550803	0.271776	0.332564	0.084201	0.370327
65	0.725354	0.482374	0.510461	0.396242	0.407818	0.038251	0.205155	0.206656	0.426043	0.130097	0.586841	0.620349	0.173299	0.263275	0.073766	0.125478	0.760082	0.151623	0.352380	0.637535	0.375753	0.050755	0.262114	0.653958	0.428882	0.068947	0.832707	0.394069	0.161078	0.197266	0.278462	0.308986	0.475299	0.079720	0.241034	0.339909	0.603609	0.118730	0.173505	0.212388	0.425845	0.366440	0.652873	0.593984	0.393561	0.065063	0.176860	0.250386	0.606220	0.112273	0.809363	0.533423	0.403511	0.089507	0.407868	0.383641	0.644545	0.110191	0.639881	0.331311	0.099587	0.025977	0.198323	0.134307	0.671481	0.248673	0.755872	0.638590	0.301932	0.332949	0.081043	0.368024
66	0.710336	0.405118	0.521371	0.364422	0.399490	0.037425	0.218113	0.185726	0.433044	0.133443	0.601585	0.534754	0.194469	0.314062	0.060091	0.121495	0.769471	0.151334	0.339264	0.610384	0.375027	0.048463	0.271547	0.685493	0.438431	0.068602	0.837781	0.410225	0.161509	0.194649	0.281485	0.299520	0.424215	0.072082	0.230358	0.329723	0.266726	0.072167	0.160789	0.180741	0.437825	0.374307	0.669515	0.582655	0.391830	0.064802	0.226412	0.257847	0.576424	0.110137	0.847001	0.529213	0.398965	0.087683	0.408470	0.407151	0.664132	0.114624	0.626434	0.403676	0.083943	0.017353	0.235349	0.141613	0.659060	0.248466	0.769127	0.786030	0.302164	0.332925	0.086711	0.349377
67	0.693554	0.208260	0.554705	0.352939	0.235850	0.028397	0.226014	0.191813	0.442294	0.136874	0.609973	0.484960	0.197036	0.326890	0.036585	0.122846	0.778209	0.150989	0.373457	0.589357	0.377230	0.046565	0.275205	0.698092	0.450232	0.068427	0.824390	0.419405	0.143160	0.193183	0.326918	0.300734	0.465356	0.073081	0.271022	0.333576	0.242585	0.078878	0.097745	0.146226	0.444575	0.374074	0.664247	0.572739	0.388777	0.065988	0.228553	0.260011	0.490494	0.108202	0.850583	0.530533	0.395200	0.086181	0.408558	0.445262	0.738427	0.128592	0.619232	0.544238	0.044517	0.014262	0.244879	0.129071	0.594669	0.246178	0.723432	0.851519	0.314660	0.333211	0.097284	0.311936
68	0.689330	0.121145	0.570310	0.350922	0.178894	0.022203	0.230132	0.210754	0.471912	0.137523	0.619350	0.477580	0.197288	0.326200	0.077846	0.121075	0.770130	0.151175	0.430929	0.574930	0.374814	0.046026	0.275642	0.691353	0.450954	0.065908	0.804289	0.424172	0.107323	0.190504	0.358334	0.288263	0.471694	0.072619	0.435877	0.375896	0.244298	0.076964	0.096938	0.125685	0.449088	0.370941	0.638603	0.567654	0.370806	0.065955	0.244699	0.270078	0.425543	0.108082	0.802145	0.532397	0.391523	0.084625	0.409424	0.483235	0.738601	0.139637	0.618913	0.699555	0.040487	0.016668	0.248982	0.131833	0.551104	0.244875	0.628232	0.854555	0.380552	0.335520	0.117571	0.283227
69	0.689696	0.121126	0.580911	0.334729	0.143279	0.017548	0.239768	0.210624	0.547163	0.137016	0.625894	0.479273	0.193982	0.326724	0.081244	0.111173	0.751794	0.151184	0.517169	0.534365	0.363995	0.044664	0.278713	0.670283	0.451310	0.062335	0.794060	0.428391	0.100935	0.186332	0.403976	0.286395	0.459020	0.072059	0.612553	0.403632	0.247070	0.074014	0.096873	0.120258	0.453965	0.353026	0.625091	0.573888	0.302708	0.063512	0.317099	0.275925	0.407716	0.100876	0.791925	0.532194	0.384832	0.082247	0.410103	0.498626	0.728332	0.144726	0.620222	0.797648	0.026851	0.022146	0.245767	0.151252	0.566349	0.246461	0.534408	0.865219	0.448732	0.341187	0.143185	0.297319
70	0.658191	0.136069	0.561501	0.328810	0.147112	0.016925	0.304175	0.210053	0.572812	0.132136	0.621639	0.470974	0.190037	0.286184	0.118417	0.094970	0.755660	0.151441	0.642714	0.499354	0.343977	0.043308	0.275485	0.646658	0.463841	0.061227	0.835785	0.432160	0.105812	0.155656	0.421023	0.295605	0.430815	0.071963	0.722067	0.407431	0.256103	0.074589	0.097376	0.146636	0.456167	0.320913	0.637123	0.588102	0.269248	0.060575	0.332546	0.275210	0.374110	0.088687	0.830925	0.544372	0.371060	0.078638	0.407251	0.503002	0.690190	0.147675	0.589748	0.819227	0.026454	0.023447	0.236794	0.155713	0.554057	0.246664	0.467500	0.880833	0.507664	0.346513	0.152003	0.351730
71	0.602542	0.153467	0.530855	0.325567	0.148935	0.021650	0.324270	0.222477	0.574649	0.127447	0.616240	0.469289	0.189317	0.247794	0.126515	0.085993	0.747190	0.151134	0.744876	0.493181	0.311767	0.041045	0.268328	0.621168	0.484406	0.061111	0.881943	0.434183	0.106696	0.194102	0.423792	0.288117	0.421806	0.071889	0.798949	0.394273	0.242084	0.074448	0.113866	0.185185	0.448897	0.314526	0.689504	0.598785	0.244956	0.060972	0.416909	0.279074	0.390749	0.084771	0.874023	0.562001	0.363696	0.077319	0.404192	0.503133	0.613620	0.148860	0.526207	0.818423	0.051400	0.025090	0.235995	0.157423	0.398411	0.246779	0.461405	0.885617	0.543634	0.349914	0.149804	0.412980
72	0.583394	0.176148	0.531606	0.306778	0.163590	0.022805	0.328853	0.250001	0.588846	0.127506	0.615345	0.466814	0.199961	0.219320	0.144258	0.117782	0.728102	0.150915	0.794483	0.516260	0.274470	0.037582	0.258807	0.591782	0.471088	0.071953	0.892930	0.434490	0.098827	0.304938	0.419397	0.323255	0.412925	0.066440	0.848348	0.383967	0.251632	0.078982	0.171099	0.198323	0.431076	0.301397	0.784717	0.620103	0.194541	0.052670	0.438677	0.290599	0.391781	0.089195	0.869274	0.569622	0.363137	0.077310	0.407150	0.504631	0.605743	0.145177	0.502959	0.822180	0.092218	0.025710	0.255248	0.150369	0.431459	0.244811	0.475738	0.891396	0.545135	0.351672	0.156531	0.457828
73	0.586252	0.197264	0.537035	0.289767	0.250556	0.048120	0.322370	0.228701	0.821758	0.146596	0.612718	0.462604	0.176427	0.213431	0.163164	0.158567	0.717035	0.150744	0.809750	0.545379	0.249105	0.035481	0.250483	0.566731	0.458606	0.083209	0.857566	0.426244	0.116510	0.314961	0.419772	0.317594	0.404773	0.062727	0.879035	0.402663	0.249489	0.079021	0.226703	0.284224	0.401724	0.248838	0.840024	0.667073	0.096321	0.027263	0.461921	0.282499	0.376144	0.101701	0.825857	0.571711	0.363571	0.077636	0.410899	0.523556	0.546304	0.132706	0.541513	0.821705	0.100100	0.025940	0.266506	0.173051	0.520933	0.236116	0.505859	0.906540	0.544579	0.352394	0.165375	0.484640
74	0.535174	0.193570	0.530425	0.281822	0.256174	0.053090	0.303970	0.270923	1.061171	0.162503	0.657911	0.458657	0.165405	0.207372	0.178947	0.164728	0.713167	0.150341	0.810687	0.564392	0.238412	0.033139	0.249060	0.551996	0.412858	0.082506	0.786784	0.407679	0.116106	0.385663	0.420572	0.258725	0.406742	0.065762	0.884392	0.455524	0.240991	0.079104	0.246631	0.318290	0.386392	0.228093	0.849612	0.714469	0.090282	0.029203	0.466979	0.221871	0.378623	0.109500	0.787227	0.565484	0.365063	0.078572	0.413209	0.538517	0.466974	0.118776	0.569336	0.824991	0.114034	0.027211	0.273353	0.194178	0.513846	0.223000	0.557395	0.938156	0.544917	0.352650	0.165785	0.496935
75	0.371671	0.187932	0.483434	0.247827	0.257380	0.055035	0.298111	0.284101	1.068697	0.171333	0.745793	0.462706	0.164899	0.147966	0.179218	0.185012	0.714171	0.150401	0.827224	0.570590	0.229798	0.033747	0.247252	0.549399	0.457754	0.085705	0.721424	0.395376	0.132582	0.397850	0.453962	0.247814	0.412885	0.068832	0.885044	0.525274	0.243120	0.074148	0.252025	0.332257	0.322777	0.226735	0.832920	0.736709	0.085294	0.031243	0.444291	0.211304	0.366369	0.108350	0.761440	0.542294	0.364711	0.081082	0.416802	0.539871	0.429927	0.114484	0.570727	0.831871	0.116670	0.027867	0.244059	0.179178	0.521714	0.194500	0.599165	0.973640	0.546151	0.344114	0.164885	0.498694
76	0.360521	0.198681	0.459325	0.217453	0.252103	0.056460	0.278947	0.270129	1.079155	0.188826	0.821295	0.464281	0.162316	0.069587	0.182162	0.223354	0.714334	0.151500	0.898474	0.570283	0.194008	0.035979	0.259999	0.549774	0.419482	0.085373	0.673852	0.366829	0.159261	0.399586	0.475576	0.255711	0.434420	0.071018	0.898506	0.591473	0.237261	0.056539	0.267286	0.366837	0.314489	0.227828	0.805510	0.736686	0.105232	0.032058	0.434619	0.204341	0.344800	0.103798	0.758917	0.513569	0.302088	0.082059	0.428911	0.544653	0.418427	0.115696	0.579971	0.833283	0.116587	0.028733	0.227948	0.211308	0.520490	0.186093	0.608240	0.999142	0.546568	0.308773	0.165849	0.498279
77	0.285643	0.229367	0.500335	0.240106	0.244722	0.057423	0.273143	0.257402	1.088819	0.199455	0.869322	0.451411	0.226575	0.070830	0.169984	0.234389	0.723867	0.152167	0.996715	0.570731	0.176437	0.038405	0.275324	0.551571	0.416885	0.094431	0.648898	0.324278	0.162563	0.399156	0.457626	0.248463	0.465136	0.070896	0.936164	0.637677	0.212444	0.046007	0.272538	0.370573	0.305091	0.228508	0.781980	0.682924	0.174819	0.031359	0.431816	0.192118	0.341150	0.103746	0.772246	0.498829	0.280744	0.083872	0.440096	0.568085	0.419347	0.119409	0.617899	0.836058	0.115288	0.028309	0.207746	0.231787	0.542803	0.186481	0.597212	1.014259	0.545240	0.270515	0.165910	0.499117
78	0.243361	0.252094	0.529158	0.233638	0.238911	0.070754	0.285787	0.262623	1.084784	0.204001	0.907738	0.425274	0.242849	0.068048	0.169582	0.233038	0.774091	0.152299	1.058023	0.590335	0.161046	0.038826	0.275047	0.553703	0.416947	0.103085	0.625794	0.318714	0.164319	0.399299	0.451381	0.253715	0.476037	0.069604	1.004013	0.652828	0.201119	0.044670	0.272512	0.377263	0.284076	0.212724	0.775991	0.613372	0.199082	0.031839	0.398039	0.150001	0.355682	0.103781	0.775395	0.495292	0.274624	0.085484	0.415691	0.607552	0.448814	0.125707	0.654736	0.837391	0.114598	0.024616	0.204115	0.233299	0.542777	0.177029	0.582308	1.014251	0.542848	0.261431	0.165909	0.502392
79	0.232551	0.260899	0.549319	0.220699	0.231574	0.075601	0.229886	0.264184	1.079301	0.206771	0.933527	0.388812	0.275797	0.061383	0.151952	0.232151	0.855139	0.147401	1.086774	0.617824	0.163101	0.035942	0.257873	0.552947	0.421439	0.101983	0.620694	0.315331	0.164231	0.399659	0.383401	0.262131	0.484395	0.069909	1.075631	0.650368	0.196711	0.043602	0.274401	0.386014	0.281034	0.191544	0.785610	0.595495	0.251200	0.046171	0.361319	0.151141	0.384279	0.100566	0.763340	0.475698	0.274215	0.085735	0.363613	0.650057	0.530806	0.129191	0.667200	0.839081	0.114129	0.021742	0.209446	0.228097	0.537944	0.124307	0.593456	0.996031	0.542259	0.259059	0.165966	0.504246
80	0.231823	0.262827	0.553639	0.200491	0.226409	0.082044	0.233018	0.262242	1.072949	0.204361	0.937372	0.350246	0.322590	0.059930	0.146173	0.233082	0.800865	0.110744	1.105850	0.643065	0.162326	0.034471	0.244416	0.540149	0.422762	0.102071	0.553088	0.296251	0.161288	0.400817	0.362567	0.264607	0.526936	0.075601	1.132227	0.647068	0.151777	0.037455	0.284453	0.376484	0.280948	0.187785	0.793901	0.619384	0.366082	0.063082	0.304698	0.147830	0.387745	0.097282	0.738260	0.391665	0.269506	0.084175	0.336099	0.685116	0.551810	0.129817	0.665231	0.853999	0.114310	0.019702	0.201446	0.240429	0.534660	0.093880	0.604582	0.965875	0.546945	0.244199	0.168988	0.504651
81	0.229667	0.265050	0.555399	0.189315	0.207235	0.081865	0.304638	0.241178	1.076944	0.208304	0.929264	0.338451	0.315494	0.062243	0.150225	0.224315	0.725670	0.080594	1.120806	0.682283	0.145912	0.036350	0.241976	0.510472	0.422418	0.103103	0.480479	0.234301	0.164500	0.398846	0.397496	0.275261	0.539213	0.080816	1.175096	0.656778	0.140981	0.032733	0.303415	0.356954	0.267925	0.169281	0.787067	0.624743	0.376951	0.063455	0.226576	0.110279	0.400722	0.096841	0.718334	0.338052	0.231193	0.079262	0.337838	0.705906	0.550218	0.129843	0.663146	0.883926	0.078427	0.018268	0.182917	0.264515	0.527880	0.091450	0.605591	0.945828	0.553639	0.226559	0.174793	0.517821
82	0.226880	0.266501	0.544314	0.204518	0.105939	0.068949	0.309863	0.225556	1.077459	0.209617	0.921381	0.337333	0.303185	0.053123	0.142520	0.194231	0.753409	0.088081	1.125989	0.724159	0.140639	0.042236	0.242804	0.464136	0.415401	0.105222	0.466247	0.187804	0.166403	0.322150	0.436125	0.238751	0.544901	0.080396	1.210285	0.686784	0.101470	0.019031	0.270339	0.362214	0.233674	0.111681	0.813796	0.614100	0.399144	0.065755	0.188041	0.087135	0.406942	0.095857	0.703401	0.337294	0.180854	0.068562	0.330539	0.712593	0.552104	0.129880	0.677713	0.924260	0.065401	0.017503	0.164221	0.265049	0.525285	0.090297	0.591822	0.908761	0.559974	0.263361	0.178375	0.557833
83	0.226821	0.268013	0.516281	0.209956	0.122795	0.067063	0.306154	0.162143	1.090823	0.195343	0.902866	0.346496	0.302425	0.043721	0.121564	0.183863	0.768233	0.095862	1.127874	0.754357	0.186042	0.054490	0.238513	0.400764	0.396438	0.107304	0.467529	0.167917	0.163194	0.263875	0.428411	0.205418	0.553752	0.080377	1.240850	0.731153	0.084608	0.018632	0.224959	0.427170	0.211196	0.091130	0.858418	0.612532	0.402922	0.065207	0.140177	0.090360	0.405307	0.094845	0.657812	0.333628	0.158644	0.060328	0.307238	0.713495	0.552754	0.130393	0.703321	0.967512	0.067354	0.015382	0.147629	0.234099	0.527490	0.090359	0.571327	0.816027	0.553849	0.299757	0.178612	0.608280
84	0.231293	0.268240	0.532091	0.211207	0.136494	0.065827	0.306116	0.152791	1.098382	0.191779	0.861055	0.363999	0.297419	0.052980	0.135744	0.172781	0.761523	0.096057	1.128022	0.766316	0.305677	0.062469	0.236578	0.340210	0.391486	0.108937	0.466146	0.156583	0.139741	0.198628	0.421555	0.233809	0.539814	0.083411	1.263630	0.780177	0.083457	0.020350	0.214612	0.441075	0.193387	0.088491	0.909010	0.621197	0.406038	0.065204	0.145501	0.081659	0.400128	0.092305	0.594877	0.320102	0.158311	0.059363	0.299463	0.713900	0.556009	0.134215	0.720259	0.988447	0.099719	0.015390	0.137898	0.228976	0.523836	0.090290	0.550371	0.780063	0.535527	0.308659	0.178161	0.649551
85	0.284200	0.264220	0.559707	0.215509	0.153258	0.064974	0.326823	0.151618	1.094680	0.189336	0.822722	0.358045	0.293663	0.100747	0.184641	0.121166	0.736977	0.091472	1.124316	0.749275	0.405235	0.064818	0.240487	0.296930	0.391343	0.110508	0.468253	0.148544	0.138356	0.081447	0.418195	0.235818	0.556683	0.083257	1.275786	0.824927	0.072279	0.023277	0.223200	0.431731	0.189265	0.087209	0.959715	0.635263	0.406800	0.066742	0.150019	0.077558	0.400231	0.088785	0.566100	0.312323	0.157857	0.059141	0.304100	0.713960	0.544188	0.133413	0.734189	0.967964	0.113131	0.014945	0.135771	0.213285	0.521133	0.089265	0.541558	0.783028	0.512146	0.308506	0.177642	0.675336
86	0.314429	0.250491	0.564012	0.246320	0.230404	0.075187	0.340069	0.165316	1.076517	0.188330	0.799966	0.320565	0.287216	0.109447	0.229082	0.083859	0.720762	0.091548	1.112526	0.711491	0.481266	0.070280	0.248882	0.268765	0.382597	0.110731	0.410212	0.138154	0.103536	0.064359	0.390309	0.232450	0.581462	0.082279	1.274649	0.858025	0.062269	0.023819	0.279749	0.397631	0.198277	0.088117	0.963045	0.629808	0.391555	0.068415	0.175015	0.132835	0.383505	0.085177	0.564337	0.294828	0.157381	0.059112	0.313152	0.699501	0.468719	0.116229	0.740514	0.894869	0.197181	0.022423	0.134710	0.190125	0.498979	0.084731	0.547560	0.766712	0.506419	0.315280	0.176727	0.688173
87	0.346257	0.237782	0.610376	0.264195	0.231428	0.060608	0.323705	0.158612	1.027434	0.187312	0.796864	0.288014	0.274781	0.166537	0.234406	0.082351	0.718975	0.093936	1.088277	0.668782	0.521056	0.074542	0.245532	0.257699	0.356748	0.111903	0.282484	0.128232	0.087043	0.065990	0.361785	0.224699	0.570022	0.082856	1.253518	0.862889	0.062703	0.021758	0.292991	0.397248	0.210806	0.078063	0.934276	0.634800	0.372379	0.069118	0.162713	0.173091	0.360403	0.084292	0.525728	0.261090	0.157169	0.059382	0.328179	0.674634	0.461363	0.103400	0.744565	0.779522	0.201177	0.024855	0.138508	0.180806	0.507604	0.086518	0.552260	0.741052	0.505205	0.321056	0.172106	0.692837
88	0.364285	0.218766	0.618776	0.269284	0.232505	0.057090	0.315536	0.164604	1.004901	0.187242	0.798234	0.283637	0.262732	0.174516	0.251196	0.135147	0.718215	0.095051	1.056115	0.641910	0.523815	0.074745	0.239566	0.258124	0.348460	0.108401	0.218037	0.118243	0.084675	0.071556	0.351163	0.223103	0.635253	0.086382	1.187099	0.852803	0.061858	0.025130	0.310605	0.445362	0.236767	0.071419	0.879677	0.643176	0.366199	0.068099	0.169064	0.175576	0.313846	0.083557	0.442323	0.205861	0.158116	0.060928	0.340198	0.664286	0.554908	0.101382	0.743451	0.689560	0.210654	0.025760	0.133815	0.177115	0.521836	0.088119	0.546242	0.722838	0.481221	0.324081	0.163619	0.689904
89	0.358406	0.204993	0.600945	0.291763	0.234234	0.046510	0.287747	0.181697	1.001528	0.187019	0.795729	0.278830	0.173988	0.173783	0.257657	0.173776	0.721214	0.094725	0.997894	0.638456	0.583244	0.085114	0.235456	0.259247	0.366393	0.100840	0.202656	0.110684	0.083089	0.108997	0.351657	0.201298	0.649828	0.086517	1.109097	0.845954	0.060746	0.026107	0.320404	0.516556	0.254495	0.071318	0.808788	0.623108	0.221104	0.043045	0.185459	0.199125	0.289208	0.082561	0.390689	0.167729	0.159879	0.063067	0.345354	0.676833	0.862918	0.122387	0.741229	0.669288	0.212776	0.026607	0.136611	0.167695	0.444396	0.084441	0.528679	0.697896	0.417455	0.321245	0.144444	0.674714
90	0.325624	0.202741	0.599122	0.293373	0.252466	0.047047	0.213684	0.201127	0.997833	0.186501	0.796034	0.270984	0.172203	0.172206	0.253709	0.174579	0.711689	0.091922	0.913716	0.634972	0.809454	0.121421	0.235678	0.259278	0.365978	0.098324	0.211588	0.106727	0.084690	0.152642	0.348097	0.201031	0.652581	0.086308	1.047665	0.841488	0.059216	0.028418	0.321300	0.524291	0.257461	0.065709	0.776654	0.569365	0.199989	0.041215	0.184829	0.225568	0.288206	0.069672	0.379535	0.154709	0.161706	0.065502	0.347456	0.702403	0.935529	0.127448	0.726047	0.669571	0.212942	0.029626	0.145569	0.134576	0.353691	0.081336	0.498438	0.660598	0.349649	0.316986	0.129924	0.642663
91	0.316303	0.201247	0.593447	0.304847	0.268740	0.050869	0.233076	0.200634	0.858137	0.174713	0.797645	0.261871	0.176747	0.171479	0.256112	0.180713	0.710411	0.090640	0.843300	0.621417	0.895112	0.133523	0.238117	0.259362	0.303489	0.093366	0.220828	0.106309	0.089248	0.156879	0.317602	0.172773	0.649796	0.086324	1.005519	0.841042	0.056818	0.032054	0.312636	0.526330	0.443617	0.075399	0.800003	0.515329	0.134105	0.035098	0.205607	0.229875	0.283228	0.052132	0.379498	0.157148	0.164423	0.067346	0.343534	0.725709	0.981871	0.130454	0.677748	0.668620	0.213156	0.029885	0.194279	0.112688	0.337444	0.078525	0.444268	0.604485	0.255913	0.318166	0.126742	0.597388
92	0.315937	0.180670	0.583218	0.313887	0.287055	0.052355	0.252060	0.216819	0.461043	0.155942	0.768100	0.253510	0.175868	0.172258	0.266994	0.182106	0.711690	0.090371	0.808835	0.594070	0.907500	0.134997	0.255049	0.242055	0.259076	0.098724	0.224214	0.107072	0.084823	0.203918	0.242409	0.164386	0.649802	0.087278	0.984214	0.838248	0.061956	0.032520	0.364614	0.537114	0.490087	0.071497	0.809073	0.493781	0.117539	0.033389	0.233587	0.264879	0.265960	0.036898	0.370710	0.157543	0.165351	0.068203	0.342268	0.728033	1.034812	0.130707	0.617249	0.671026	0.214752	0.030171	0.217603	0.210012	0.314012	0.069467	0.396741	0.551086	0.227180	0.321140	0.153064	0.553731
93	0.314597	0.137986	0.538755	0.297099	0.293460	0.052927	0.250730	0.212590	0.410313	0.148711	0.685681	0.250966	0.174567	0.181751	0.267298	0.186365	0.715806	0.090539	0.800676	0.570254	0.915369	0.137663	0.273575	0.200134	0.248714	0.126551	0.224764	0.108019	0.085923	0.222615	0.192888	0.159708	0.649256	0.086909	0.980855	0.819785	0.065210	0.034637	0.380282	0.450226	0.484409	0.070053	0.805250	0.501423	0.110198	0.033020	0.234445	0.272634	0.273115	0.030189	0.323813	0.151947	0.160859	0.066869	0.339765	0.723758	1.036302	0.132067	0.598662	0.669742	0.202104	0.033393	0.228343	0.252741	0.312080	0.061370	0.378302	0.514876	0.227213	0.324379	0.179749	0.521700
94	0.318563	0.099907	0.491047	0.295157	0.302871	0.060179	0.275969	0.231156	0.385035	0.124121	0.592893	0.246434	0.181353	0.166673	0.260590	0.188166	0.719813	0.090541	0.798691	0.556752	0.915989	0.138185	0.276549	0.165315	0.253565	0.218361	0.227095	0.108203	0.087203	0.306729	0.193854	0.108180	0.644076	0.085199	0.994205	0.786979	0.064059	0.036213	0.405225	0.430729	0.482936	0.072020	0.809090	0.511241	0.091383	0.030497	0.276224	0.272335	0.281681	0.028042	0.283264	0.143038	0.154299	0.063358	0.331900	0.723324	1.036577	0.133060	0.602317	0.665521	0.194615	0.033686	0.259311	0.261125	0.277853	0.055653	0.370488	0.492999	0.228858	0.325701	0.189637	0.502008
95	0.323953	0.088834	0.470092	0.273334	0.345590	0.056355	0.275115	0.235944	0.346874	0.103908	0.519371	0.239411	0.156644	0.160924	0.219143	0.187491	0.719078	0.089771	0.764254	0.555348	0.921518	0.143299	0.269990	0.150080	0.251254	0.275115	0.233314	0.107210	0.086410	0.359193	0.176470	0.072084	0.634431	0.083219	0.998489	0.753043	0.065370	0.038592	0.421981	0.465596	0.482694	0.073588	0.843686	0.501920	0.075030	0.022480	0.280458	0.270595	0.281226	0.023716	0.251625	0.133052	0.149864	0.059146	0.310919	0.718558	1.037132	0.130696	0.585141	0.668238	0.135720	0.031102	0.264442	0.301981	0.291175	0.063280	0.368940	0.480678	0.228477	0.325316	0.190120	0.507162
96	0.333151	0.089503	0.471986	0.270881	0.344841	0.061306	0.257026	0.234506	0.342612	0.092971	0.448364	0.236530	0.108540	0.108983	0.242195	0.214526	0.718278	0.088800	0.650506	0.556233	0.921717	0.145645	0.269654	0.138545	0.250462	0.287399	0.235528	0.104206	0.082101	0.367036	0.136368	0.071425	0.616120	0.081421	0.981547	0.726930	0.066354	0.041169	0.382827	0.482526	0.485698	0.075740	0.854547	0.455292	0.071077	0.020727	0.278021	0.243439	0.235740	0.026489	0.217852	0.130731	0.144747	0.055742	0.281995	0.699384	1.038385	0.126756	0.532966	0.667015	0.089612	0.030265	0.265717	0.319535	0.287550	0.063800	0.341329	0.472752	0.228241	0.324597	0.197728	0.556339
97	0.345598	0.091372	0.548842	0.268855	0.343755	0.061694	0.257957	0.227782	0.332800	0.079168	0.385361	0.238875	0.104978	0.078816	0.228897	0.208647	0.696489	0.089980	0.499577	0.550608	0.921549	0.146485	0.269141	0.148374	0.251052	0.289442	0.233509	0.099770	0.107153	0.389208	0.135927	0.088151	0.573759	0.074569	0.936348	0.710388	0.063494	0.042060	0.367197	0.486981	0.486918	0.075689	0.846750	0.399780	0.066600	0.019010	0.276568	0.248898	0.267841	0.035772	0.198475	0.131369	0.139260	0.053628	0.259650	0.665146	1.021114	0.120168	0.489483	0.661346	0.081976	0.028298	0.315067	0.318434	0.288623	0.064749	0.319244	0.470681	0.229871	0.324381	0.215421	0.591979
98	0.346314	0.087784	0.609804	0.263776	0.342622	0.061308	0.324432	0.234955	0.319873	0.062435	0.357058	0.239023	0.105125	0.078226	0.272497	0.207668	0.621653	0.091964	0.398825	0.521382	0.922683	0.146654	0.273584	0.164807	0.260380	0.310853	0.229797	0.092119	0.122445	0.427977	0.133189	0.091751	0.562775	0.072425	0.856489	0.715534	0.052587	0.040316	0.352424	0.538798	0.497245	0.076410	0.835799	0.380833	0.065419	0.017881	0.275752	0.252122	0.378156	0.055180	0.201160	0.130339	0.133248	0.051905	0.251204	0.623080	0.988167	0.117176	0.472217	0.646874	0.060353	0.028353	0.327352	0.319041	0.287525	0.064794	0.285143	0.434254	0.227089	0.329993	0.240570	0.601217
99	0.346350	0.086052	0.611664	0.270716	0.325054	0.060437	0.359754	0.305359	0.306714	0.043433	0.353831	0.224223	0.098622	0.077811	0.275774	0.238714	0.472285	0.090036	0.347911	0.490499	0.923523	0.146170	0.287948	0.166935	0.279391	0.326056	0.225375	0.081274	0.135638	0.463078	0.142263	0.088277	0.539262	0.069655	0.776965	0.724948	0.052159	0.039684	0.342740	0.513192	0.500187	0.075797	0.785858	0.380934	0.065599	0.017328	0.288968	0.220217	0.423373	0.064581	0.202515	0.122406	0.139189	0.050737	0.260907	0.583584	0.981951	0.116375	0.470267	0.614221	0.056446	0.025919	0.327356	0.317160	0.281175	0.064193	0.250692	0.348634	0.220700	0.343585	0.269149	0.599312
100	0.356145	0.085279	0.567551	0.281664	0.309215	0.058196	0.345727	0.333518	0.322866	0.028407	0.351339	0.219181	0.101125	0.077870	0.275146	0.242486	0.410090	0.089799	0.305391	0.448065	0.923532	0.144690	0.311752	0.180103	0.282074	0.341097	0.219764	0.071378	0.153670	0.449260	0.138256	0.087124	0.500369	0.061526	0.714473	0.724406	0.050333	0.038007	0.334944	0.516417	0.501282	0.075320	0.722933	0.378638	0.065360	0.019220	0.282052	0.227986	0.426848	0.065458	0.200595	0.112607	0.192559	0.053531	0.292558	0.555538	0.981830	0.116404	0.466229	0.552483	0.056205	0.026603	0.316300	0.327224	0.274731	0.063343	0.237040	0.252965	0.208735	0.348228	0.279854	0.602018
101	0.352874	0.084760	0.554076	0.289139	0.280547	0.056830	0.336048	0.338249	0.312953	0.029693	0.339056	0.204537	0.105655	0.077752	0.267171	0.240393	0.395000	0.083081	0.282803	0.372705	0.918256	0.140791	0.339104	0.209825	0.281618	0.354576	0.211108	0.062837	0.151860	0.441856	0.137472	0.090106	0.497251	0.059664	0.663757	0.708234	0.051566	0.035807	0.328920	0.519982	0.508947	0.076314	0.649720	0.386611	0.049633	0.019145	0.256247	0.201897	0.433448	0.069976	0.196179	0.106730	0.206738	0.055389	0.313160	0.532464	0.981096	0.117071	0.439777	0.463410	0.053019	0.029766	0.275492	0.309427	0.303266	0.073685	0.235687	0.206775	0.193277	0.331554	0.277431	0.606496
