	156_P_T1_sh_R_D_A_01.c3d	156_P_T1_sh_R_D_A_01.c3d	156_P_T1_sh_R_D_A_01.c3d	156_P_T1_sh_R_D_A_01.c3d	156_P_T1_sh_R_D_A_01.c3d	156_P_T1_sh_R_D_A_01.c3d	156_P_T1_sh_R_D_A_01.c3d	156_P_T1_sh_R_D_A_01.c3d	156_P_T1_sh_R_D_A_02.c3d	156_P_T1_sh_R_D_A_02.c3d	156_P_T1_sh_R_D_A_02.c3d	156_P_T1_sh_R_D_A_02.c3d	156_P_T1_sh_R_D_A_02.c3d	156_P_T1_sh_R_D_A_02.c3d	156_P_T1_sh_R_D_A_02.c3d	156_P_T1_sh_R_D_A_02.c3d	156_P_T1_sh_R_D_A_04.c3d	156_P_T1_sh_R_D_A_04.c3d	156_P_T1_sh_R_D_A_04.c3d	156_P_T1_sh_R_D_A_04.c3d	156_P_T1_sh_R_D_A_04.c3d	156_P_T1_sh_R_D_A_04.c3d	156_P_T1_sh_R_D_A_04.c3d	156_P_T1_sh_R_D_A_04.c3d	156_P_T1_sh_R_D_A_05.c3d	156_P_T1_sh_R_D_A_05.c3d	156_P_T1_sh_R_D_A_05.c3d	156_P_T1_sh_R_D_A_05.c3d	156_P_T1_sh_R_D_A_05.c3d	156_P_T1_sh_R_D_A_05.c3d	156_P_T1_sh_R_D_A_05.c3d	156_P_T1_sh_R_D_A_05.c3d	156_P_T1_sh_R_D_A_06.c3d	156_P_T1_sh_R_D_A_06.c3d	156_P_T1_sh_R_D_A_06.c3d	156_P_T1_sh_R_D_A_06.c3d	156_P_T1_sh_R_D_A_06.c3d	156_P_T1_sh_R_D_A_06.c3d	156_P_T1_sh_R_D_A_06.c3d	156_P_T1_sh_R_D_A_06.c3d	156_P_T1_sh_R_D_A_07.c3d	156_P_T1_sh_R_D_A_07.c3d	156_P_T1_sh_R_D_A_07.c3d	156_P_T1_sh_R_D_A_07.c3d	156_P_T1_sh_R_D_A_07.c3d	156_P_T1_sh_R_D_A_07.c3d	156_P_T1_sh_R_D_A_07.c3d	156_P_T1_sh_R_D_A_07.c3d	156_P_T1_sh_R_D_A_09.c3d	156_P_T1_sh_R_D_A_09.c3d	156_P_T1_sh_R_D_A_09.c3d	156_P_T1_sh_R_D_A_09.c3d	156_P_T1_sh_R_D_A_09.c3d	156_P_T1_sh_R_D_A_09.c3d	156_P_T1_sh_R_D_A_09.c3d	156_P_T1_sh_R_D_A_09.c3d	156_P_T1_sh_R_D_A_10.c3d	156_P_T1_sh_R_D_A_10.c3d	156_P_T1_sh_R_D_A_10.c3d	156_P_T1_sh_R_D_A_10.c3d	156_P_T1_sh_R_D_A_10.c3d	156_P_T1_sh_R_D_A_10.c3d	156_P_T1_sh_R_D_A_10.c3d	156_P_T1_sh_R_D_A_10.c3d
	Biceps femoris_lat	Semitendinosus_lat	Vastus lateralis_lat	Vastus medialis_lat	Biceps femoris_med	Semitendinosus_med	Vastus lateralis_med	Vastus medialis_med	Biceps femoris_lat	Semitendinosus_lat	Vastus lateralis_lat	Vastus medialis_lat	Biceps femoris_med	Semitendinosus_med	Vastus lateralis_med	Vastus medialis_med	Biceps femoris_lat	Semitendinosus_lat	Vastus lateralis_lat	Vastus medialis_lat	Biceps femoris_med	Semitendinosus_med	Vastus lateralis_med	Vastus medialis_med	Biceps femoris_lat	Semitendinosus_lat	Vastus lateralis_lat	Vastus medialis_lat	Biceps femoris_med	Semitendinosus_med	Vastus lateralis_med	Vastus medialis_med	Biceps femoris_lat	Semitendinosus_lat	Vastus lateralis_lat	Vastus medialis_lat	Biceps femoris_med	Semitendinosus_med	Vastus lateralis_med	Vastus medialis_med	Biceps femoris_lat	Semitendinosus_lat	Vastus lateralis_lat	Vastus medialis_lat	Biceps femoris_med	Semitendinosus_med	Vastus lateralis_med	Vastus medialis_med	Biceps femoris_lat	Semitendinosus_lat	Vastus lateralis_lat	Vastus medialis_lat	Biceps femoris_med	Semitendinosus_med	Vastus lateralis_med	Vastus medialis_med	Biceps femoris_lat	Semitendinosus_lat	Vastus lateralis_lat	Vastus medialis_lat	Biceps femoris_med	Semitendinosus_med	Vastus lateralis_med	Vastus medialis_med
	P2D	P2D	P2D	P2D	P2D	P2D	P2D	P2D	P2D	P2D	P2D	P2D	P2D	P2D	P2D	P2D	P2D	P2D	P2D	P2D	P2D	P2D	P2D	P2D	P2D	P2D	P2D	P2D	P2D	P2D	P2D	P2D	P2D	P2D	P2D	P2D	P2D	P2D	P2D	P2D	P2D	P2D	P2D	P2D	P2D	P2D	P2D	P2D	P2D	P2D	P2D	P2D	P2D	P2D	P2D	P2D	P2D	P2D	P2D	P2D	P2D	P2D	P2D	P2D
	EMG_lat	EMG_lat	EMG_lat	EMG_lat	EMG_med	EMG_med	EMG_med	EMG_med	EMG_lat	EMG_lat	EMG_lat	EMG_lat	EMG_med	EMG_med	EMG_med	EMG_med	EMG_lat	EMG_lat	EMG_lat	EMG_lat	EMG_med	EMG_med	EMG_med	EMG_med	EMG_lat	EMG_lat	EMG_lat	EMG_lat	EMG_med	EMG_med	EMG_med	EMG_med	EMG_lat	EMG_lat	EMG_lat	EMG_lat	EMG_med	EMG_med	EMG_med	EMG_med	EMG_lat	EMG_lat	EMG_lat	EMG_lat	EMG_med	EMG_med	EMG_med	EMG_med	EMG_lat	EMG_lat	EMG_lat	EMG_lat	EMG_med	EMG_med	EMG_med	EMG_med	EMG_lat	EMG_lat	EMG_lat	EMG_lat	EMG_med	EMG_med	EMG_med	EMG_med
ITEM	Y	Y	Y	Y	Y	Y	Y	Y	Y	Y	Y	Y	Y	Y	Y	Y	Y	Y	Y	Y	Y	Y	Y	Y	Y	Y	Y	Y	Y	Y	Y	Y	Y	Y	Y	Y	Y	Y	Y	Y	Y	Y	Y	Y	Y	Y	Y	Y	Y	Y	Y	Y	Y	Y	Y	Y	Y	Y	Y	Y	Y	Y	Y	Y
1	0.621668	0.189145	0.128251	0.286705	0.742615	0.564551	0.166043	0.400887	0.528519	0.577189	0.292075	0.466173	0.542451	0.243701	0.174529	0.495113	0.714851	0.431197	0.132403	0.252464	0.636136	0.479993	0.173406	0.333588	0.480810	0.261566	0.320211	0.428032	0.599153	0.508267	0.262464	0.530498	0.275862	0.312304	0.218735	0.597503	0.201118	0.310134	0.328440	0.434983	0.528692	0.275061	0.244444	0.280712	0.251156	0.252987	0.201409	0.368873	0.512711	0.519741	0.157674	0.278152	0.324378	0.269347	0.373570	0.622611	0.596284	0.552992	0.077752	0.570597	0.452610	0.234211	0.135642	0.394092
2	0.633237	0.189322	0.114024	0.272517	0.732440	0.613067	0.162909	0.392894	0.531490	0.577204	0.291279	0.511945	0.548150	0.257949	0.190387	0.492891	0.727504	0.430877	0.119199	0.251177	0.655092	0.510475	0.174085	0.329145	0.509401	0.257328	0.316850	0.526892	0.529249	0.500717	0.261949	0.529018	0.252141	0.248990	0.223459	0.582749	0.207775	0.308523	0.335174	0.461837	0.480927	0.287317	0.243432	0.304983	0.251697	0.232610	0.201582	0.379374	0.515608	0.509345	0.166824	0.290513	0.267750	0.143479	0.371086	0.628397	0.584537	0.553259	0.078845	0.517268	0.453185	0.222535	0.148412	0.361636
3	0.635687	0.195884	0.121761	0.244506	0.736024	0.661019	0.159035	0.384532	0.532364	0.566277	0.304527	0.527381	0.544712	0.265340	0.235306	0.516526	0.735497	0.431754	0.113777	0.254343	0.622604	0.526679	0.167768	0.331179	0.521536	0.263223	0.319604	0.552210	0.523771	0.486614	0.265877	0.529203	0.249134	0.236799	0.219349	0.571267	0.199514	0.282673	0.342547	0.475287	0.548619	0.277034	0.228083	0.391355	0.255194	0.211956	0.214850	0.385076	0.511775	0.505993	0.174522	0.292315	0.266927	0.108870	0.368623	0.620803	0.574548	0.553413	0.059344	0.484767	0.439169	0.217479	0.152790	0.363032
4	0.646928	0.227089	0.129766	0.248222	0.739934	0.668832	0.161120	0.405304	0.523853	0.501289	0.305019	0.527095	0.510954	0.268710	0.242328	0.509330	0.706717	0.427515	0.107106	0.263931	0.574019	0.493909	0.159402	0.349698	0.528591	0.284072	0.318730	0.560096	0.494586	0.425852	0.316902	0.529815	0.246192	0.237422	0.219251	0.572726	0.231546	0.294591	0.364848	0.458872	0.562705	0.268804	0.259178	0.592109	0.262231	0.178227	0.231340	0.460815	0.484100	0.500136	0.178497	0.312474	0.271127	0.109420	0.365156	0.570373	0.473003	0.535896	0.060406	0.484387	0.410874	0.171462	0.152343	0.347818
5	0.647270	0.258413	0.141658	0.251934	0.750524	0.663861	0.154202	0.373762	0.498026	0.487177	0.298735	0.531393	0.531504	0.269052	0.245493	0.509461	0.646938	0.410143	0.105137	0.267148	0.567877	0.435537	0.163265	0.356902	0.526846	0.288512	0.285282	0.564419	0.460131	0.381952	0.410530	0.561342	0.247440	0.253013	0.212928	0.560753	0.241148	0.260823	0.398769	0.489675	0.548370	0.251681	0.320716	0.641509	0.262737	0.154538	0.227306	0.462431	0.490689	0.487332	0.179063	0.320983	0.297582	0.121297	0.363575	0.543236	0.484976	0.505884	0.060204	0.486488	0.256717	0.153295	0.152735	0.319029
6	0.680879	0.258607	0.140886	0.339737	0.694910	0.643827	0.152575	0.318503	0.513800	0.487722	0.319137	0.527020	0.568691	0.269175	0.252797	0.512066	0.642390	0.377229	0.102754	0.267412	0.575673	0.405672	0.215903	0.312280	0.495662	0.280714	0.246308	0.559560	0.438848	0.380060	0.428880	0.577759	0.243710	0.303531	0.212149	0.509123	0.269186	0.244997	0.402595	0.537693	0.512764	0.251260	0.344613	0.632813	0.252923	0.129942	0.228812	0.414843	0.484597	0.472369	0.189859	0.325863	0.297367	0.124680	0.335643	0.531273	0.495010	0.413375	0.062200	0.491424	0.195142	0.148267	0.148956	0.318891
7	0.686426	0.232203	0.127246	0.357477	0.450137	0.613041	0.144185	0.310094	0.464780	0.371217	0.341739	0.539046	0.574245	0.264725	0.253335	0.512692	0.592687	0.365172	0.105967	0.260460	0.576223	0.408250	0.258444	0.336756	0.494096	0.267287	0.239550	0.553771	0.388699	0.398824	0.432191	0.581129	0.247683	0.370853	0.212573	0.468508	0.317133	0.319581	0.399446	0.542563	0.504310	0.224536	0.346418	0.681708	0.247262	0.119947	0.224006	0.399536	0.485573	0.473908	0.189319	0.348068	0.308275	0.134097	0.362849	0.510033	0.488571	0.388566	0.070625	0.469032	0.181883	0.143732	0.147344	0.338460
8	0.595004	0.234362	0.133851	0.401774	0.334853	0.602572	0.146199	0.335648	0.429416	0.351849	0.387340	0.590893	0.566301	0.259944	0.252235	0.493902	0.568607	0.329879	0.122333	0.255757	0.550854	0.367402	0.251972	0.330545	0.498612	0.273591	0.242559	0.558252	0.384590	0.411598	0.446025	0.569696	0.245540	0.371845	0.212842	0.453859	0.327372	0.354057	0.389057	0.535834	0.521979	0.224873	0.345063	0.710886	0.231717	0.097730	0.175531	0.379140	0.482647	0.482558	0.201588	0.367556	0.352350	0.164092	0.401055	0.380580	0.478417	0.369681	0.076383	0.380431	0.186418	0.132318	0.146268	0.362826
9	0.546946	0.231344	0.143564	0.413546	0.358243	0.603240	0.150216	0.356003	0.479723	0.444108	0.429371	0.754618	0.522705	0.251404	0.239072	0.478831	0.568530	0.283138	0.146343	0.256045	0.525837	0.335324	0.266685	0.366100	0.530560	0.289698	0.269788	0.557204	0.351763	0.390848	0.450375	0.499586	0.274214	0.375574	0.203526	0.444666	0.328137	0.359031	0.387359	0.507280	0.549639	0.224146	0.344902	0.746378	0.225800	0.084230	0.162515	0.348739	0.461692	0.487376	0.249259	0.369253	0.396754	0.178594	0.398212	0.442733	0.344729	0.192394	0.106938	0.437618	0.196194	0.133975	0.176673	0.363700
10	0.509663	0.239398	0.188177	0.468470	0.355323	0.603567	0.152177	0.357569	0.583709	0.446997	0.427032	0.865914	0.401888	0.221569	0.234297	0.473280	0.566748	0.293980	0.152128	0.261064	0.511292	0.329774	0.262404	0.379086	0.603286	0.285704	0.313876	0.555747	0.331225	0.360775	0.447621	0.448997	0.272491	0.393261	0.193560	0.437506	0.322063	0.364266	0.378247	0.477098	0.532849	0.214111	0.373735	0.787379	0.165845	0.084240	0.176340	0.348473	0.397186	0.467582	0.260183	0.394334	0.427150	0.206739	0.361310	0.458413	0.400440	0.191854	0.129262	0.554837	0.209827	0.137624	0.236741	0.385461
11	0.459954	0.238427	0.224268	0.623244	0.351846	0.579336	0.154775	0.362388	0.617402	0.436155	0.430622	0.892770	0.379806	0.219418	0.224067	0.459830	0.548332	0.296690	0.153182	0.269501	0.510383	0.330289	0.262190	0.373406	0.547611	0.266446	0.314136	0.564027	0.316632	0.316448	0.425330	0.433529	0.250382	0.400198	0.188790	0.351307	0.327182	0.362773	0.360790	0.480406	0.505725	0.188238	0.385460	0.792286	0.170533	0.093059	0.215603	0.390512	0.390792	0.443886	0.253562	0.441113	0.407472	0.212889	0.381330	0.454448	0.521609	0.242098	0.132778	0.575347	0.258733	0.155334	0.249765	0.406541
12	0.363859	0.235317	0.225551	0.693005	0.321613	0.500845	0.163950	0.368448	0.616684	0.444576	0.429730	0.864520	0.379697	0.208303	0.223153	0.454595	0.531504	0.247716	0.166665	0.293633	0.501863	0.327847	0.267919	0.413797	0.641541	0.253956	0.281363	0.608370	0.304698	0.290385	0.404006	0.434673	0.229273	0.411317	0.185334	0.226503	0.348774	0.340504	0.319451	0.471653	0.503974	0.182698	0.374204	0.792264	0.187151	0.107652	0.258985	0.430105	0.381690	0.381975	0.254785	0.459785	0.422386	0.217310	0.462213	0.455086	0.544510	0.246300	0.132934	0.536285	0.280588	0.165908	0.254531	0.400549
13	0.393847	0.238051	0.229559	0.714870	0.328708	0.450781	0.182723	0.453853	0.636067	0.452149	0.438506	0.856541	0.379991	0.199985	0.221946	0.409823	0.521666	0.221835	0.196775	0.309787	0.472300	0.281563	0.276512	0.436166	0.684120	0.253827	0.277460	0.597666	0.318884	0.352182	0.398304	0.372324	0.224865	0.422722	0.193463	0.204895	0.363528	0.340137	0.303721	0.464364	0.482222	0.182118	0.375737	0.808434	0.190514	0.117253	0.265884	0.428018	0.357605	0.375774	0.253107	0.504721	0.464627	0.247093	0.485285	0.458355	0.525505	0.244315	0.140603	0.530626	0.277961	0.174260	0.262627	0.381816
14	0.387273	0.239313	0.225972	0.947335	0.326492	0.446381	0.186915	0.605092	0.638705	0.452412	0.455273	0.916208	0.382336	0.194516	0.221787	0.318869	0.431402	0.200985	0.263634	0.263095	0.310597	0.202779	0.279344	0.437562	0.701393	0.264724	0.291110	0.495255	0.338932	0.371692	0.404004	0.305904	0.227716	0.421331	0.206009	0.202824	0.371148	0.326295	0.299272	0.499534	0.483721	0.174072	0.397609	0.844200	0.184707	0.117240	0.249300	0.370746	0.307277	0.332349	0.245020	0.592324	0.471461	0.253638	0.488618	0.497415	0.509436	0.241828	0.141428	0.547461	0.286643	0.196681	0.286857	0.357795
15	0.367680	0.215897	0.230967	1.040742	0.311906	0.383168	0.185188	0.649724	0.625624	0.446438	0.451547	0.978421	0.374665	0.175061	0.214200	0.325081	0.382990	0.194175	0.314752	0.298937	0.264372	0.200398	0.326196	0.434718	0.686839	0.268090	0.322229	0.437610	0.346721	0.369065	0.407150	0.311708	0.229531	0.421083	0.206276	0.195026	0.362512	0.299965	0.284905	0.512203	0.466791	0.152029	0.420382	0.838221	0.190996	0.130226	0.257339	0.374751	0.268564	0.255122	0.239064	0.646543	0.474457	0.252698	0.489017	0.585954	0.511971	0.252512	0.176821	0.552195	0.272444	0.195476	0.298293	0.353570
16	0.367053	0.178939	0.235328	1.044477	0.292672	0.255279	0.185718	0.652223	0.618885	0.442989	0.449689	0.993408	0.361074	0.167417	0.158419	0.271565	0.323371	0.188199	0.331912	0.388678	0.241237	0.181396	0.406382	0.422168	0.693374	0.266704	0.330921	0.431848	0.347147	0.385455	0.408052	0.312004	0.228200	0.421038	0.193727	0.283065	0.359574	0.302609	0.247780	0.471307	0.353155	0.158044	0.463546	0.812401	0.183409	0.167731	0.268964	0.407926	0.269225	0.249150	0.238053	0.650708	0.469898	0.251388	0.491103	0.611203	0.524860	0.264442	0.234216	0.591575	0.265310	0.220630	0.299144	0.350666
17	0.297444	0.175165	0.246643	1.106187	0.305387	0.197192	0.213172	0.680803	0.607185	0.421372	0.434011	0.991898	0.354618	0.163957	0.156411	0.254950	0.281406	0.187239	0.341044	0.416675	0.211753	0.159967	0.436565	0.398279	0.679713	0.238799	0.329344	0.439588	0.345170	0.414052	0.396902	0.312031	0.228483	0.412529	0.193230	0.327998	0.345763	0.295501	0.217961	0.417151	0.296347	0.229732	0.468800	0.689077	0.202603	0.168091	0.272257	0.441868	0.290501	0.260514	0.233603	0.654004	0.444852	0.245262	0.506064	0.605536	0.548454	0.267293	0.251841	0.631457	0.261677	0.348148	0.306217	0.364532
18	0.275716	0.175906	0.321388	1.178186	0.289470	0.185966	0.256273	0.693729	0.587627	0.403892	0.408692	0.992008	0.318777	0.160405	0.161029	0.256302	0.299777	0.190138	0.352001	0.413236	0.192868	0.130979	0.416445	0.387820	0.686759	0.236526	0.329062	0.445317	0.346489	0.454434	0.304804	0.291730	0.210313	0.384910	0.270348	0.341111	0.314932	0.227638	0.233879	0.427727	0.296004	0.251973	0.428133	0.628783	0.213623	0.226291	0.286530	0.452385	0.298796	0.266127	0.230410	0.679939	0.440059	0.244572	0.512236	0.624784	0.604884	0.278686	0.252163	0.645409	0.260565	0.396098	0.311354	0.347587
19	0.275187	0.163717	0.373110	1.223522	0.280873	0.172002	0.267532	0.730484	0.568605	0.398676	0.400641	0.969222	0.216821	0.156592	0.244791	0.248364	0.302927	0.184799	0.355981	0.414245	0.166636	0.107991	0.415456	0.430417	0.706214	0.244563	0.337520	0.439748	0.325667	0.465431	0.238073	0.254799	0.198438	0.318109	0.332083	0.375942	0.296531	0.166932	0.230642	0.486161	0.295066	0.251455	0.420913	0.629566	0.211390	0.287824	0.344772	0.480622	0.296639	0.268948	0.230522	0.721619	0.426265	0.238092	0.472759	0.650083	0.601615	0.289979	0.250844	0.669711	0.262592	0.425888	0.331267	0.315091
20	0.330396	0.151694	0.371602	1.271204	0.280755	0.164689	0.266031	0.793793	0.576559	0.349552	0.341243	0.926404	0.198682	0.168626	0.324976	0.244447	0.305402	0.192400	0.367219	0.421826	0.191063	0.108699	0.462056	0.409910	0.831913	0.271735	0.341321	0.444088	0.261188	0.460048	0.240037	0.255462	0.205708	0.307766	0.340781	0.434313	0.406020	0.211816	0.249940	0.514677	0.288881	0.276034	0.443911	0.579552	0.223750	0.288761	0.399000	0.517447	0.282958	0.279615	0.230778	0.787318	0.383148	0.217887	0.453920	0.601104	0.629344	0.296091	0.247640	0.692416	0.292385	0.443144	0.317913	0.331942
21	0.372010	0.160868	0.355579	1.250599	0.284963	0.163566	0.262883	0.814756	0.505123	0.245979	0.300452	0.779934	0.194276	0.172309	0.353173	0.201157	0.297145	0.206165	0.382281	0.424164	0.236582	0.233572	0.540660	0.416035	0.874855	0.261447	0.328576	0.456838	0.239317	0.446404	0.222655	0.253186	0.170137	0.304784	0.395149	0.463664	0.499951	0.213756	0.254367	0.508458	0.250720	0.287837	0.481031	0.560237	0.217428	0.298011	0.398578	0.495588	0.273422	0.283181	0.237145	0.924820	0.327597	0.195791	0.457685	0.509659	0.651241	0.295851	0.256805	0.759394	0.296411	0.449474	0.285457	0.358281
22	0.371396	0.195394	0.334995	1.179488	0.285422	0.163219	0.288359	0.805855	0.424197	0.231138	0.298069	0.693039	0.206407	0.146775	0.392731	0.196672	0.302006	0.216449	0.395466	0.438956	0.226536	0.335649	0.570010	0.447702	0.805787	0.247043	0.273407	0.459498	0.244725	0.448138	0.257767	0.262197	0.205851	0.299450	0.425075	0.468816	0.509206	0.219275	0.235524	0.487388	0.191004	0.282381	0.513030	0.537044	0.226365	0.293833	0.372660	0.461603	0.258420	0.268758	0.231272	0.990985	0.286094	0.200066	0.458282	0.505638	0.755563	0.303597	0.255857	0.746668	0.264176	0.458205	0.274611	0.330461
23	0.366138	0.224567	0.373004	1.145175	0.267631	0.161285	0.308535	0.821020	0.355210	0.216798	0.282143	0.721181	0.224662	0.121463	0.428126	0.378144	0.335108	0.218374	0.425515	0.436582	0.239387	0.355158	0.582626	0.476275	0.792397	0.259009	0.247297	0.440498	0.243327	0.458904	0.282154	0.304750	0.248322	0.292211	0.447082	0.464147	0.496119	0.219886	0.256890	0.492114	0.192852	0.282295	0.501816	0.490294	0.218999	0.302796	0.366221	0.470629	0.253372	0.254557	0.233959	0.986719	0.283213	0.202190	0.419798	0.511281	0.782387	0.298191	0.250472	0.678522	0.230124	0.484825	0.272853	0.315284
24	0.339469	0.230503	0.511877	1.155132	0.270767	0.162064	0.326561	0.843666	0.330444	0.167712	0.275156	0.715896	0.248128	0.125306	0.439226	0.525915	0.375663	0.228667	0.468456	0.435649	0.243201	0.413858	0.584068	0.473029	0.740378	0.284806	0.253338	0.393482	0.232852	0.459753	0.289875	0.310245	0.247558	0.259952	0.473695	0.464951	0.499328	0.234857	0.297028	0.505382	0.224588	0.282302	0.482820	0.480929	0.236302	0.348076	0.374467	0.463018	0.241101	0.235185	0.312546	1.013319	0.242633	0.198053	0.306453	0.510389	0.738760	0.249370	0.283383	0.656063	0.239507	0.531764	0.261650	0.308222
25	0.386430	0.241279	0.587715	1.135100	0.271384	0.169527	0.335431	0.845964	0.292578	0.148048	0.255733	0.665492	0.266279	0.127403	0.451960	0.553079	0.372843	0.236461	0.500870	0.411203	0.249645	0.487111	0.583800	0.472217	0.745576	0.308359	0.253291	0.357290	0.220329	0.455227	0.290091	0.306965	0.244826	0.228990	0.472204	0.463762	0.506123	0.243400	0.302702	0.458811	0.287323	0.284188	0.482484	0.515892	0.235754	0.350776	0.369658	0.442116	0.231528	0.222079	0.362302	1.001442	0.176498	0.201517	0.252187	0.501706	0.746018	0.221352	0.303994	0.693355	0.231779	0.538321	0.241532	0.316338
26	0.399815	0.245568	0.592987	1.172829	0.251663	0.191150	0.328816	0.839742	0.291718	0.148468	0.226480	0.539246	0.272004	0.128093	0.523731	0.567873	0.372104	0.236259	0.493716	0.436780	0.249465	0.486291	0.567636	0.463838	0.692718	0.305591	0.264784	0.348335	0.211711	0.413108	0.304864	0.318866	0.243701	0.230094	0.471440	0.466415	0.504250	0.242851	0.297942	0.408207	0.289093	0.284071	0.489891	0.568608	0.234330	0.347039	0.359196	0.410550	0.302017	0.222179	0.369280	0.997048	0.159799	0.216673	0.251251	0.439885	0.747032	0.243062	0.302780	0.715909	0.228865	0.532989	0.221341	0.366951
27	0.408835	0.263193	0.589607	1.184346	0.229305	0.201571	0.319743	0.796065	0.294171	0.145587	0.218575	0.427413	0.306975	0.156801	0.622311	0.615941	0.368260	0.236192	0.462576	0.501734	0.248334	0.492953	0.515649	0.457330	0.689772	0.310882	0.276983	0.351710	0.168037	0.382857	0.373239	0.415208	0.248891	0.232372	0.482379	0.473879	0.496166	0.235731	0.283660	0.411391	0.284200	0.278464	0.503438	0.540246	0.217924	0.419401	0.356580	0.354450	0.362867	0.219176	0.383336	0.978975	0.159379	0.271172	0.249548	0.328793	0.747819	0.258909	0.318713	0.704269	0.221764	0.531865	0.229449	0.395454
28	0.444192	0.308549	0.589828	1.100506	0.235624	0.222499	0.377838	0.737733	0.277689	0.140936	0.222163	0.422093	0.363537	0.187641	0.707536	0.668832	0.371506	0.237620	0.428029	0.527478	0.249182	0.509339	0.463498	0.462481	0.717212	0.300409	0.287306	0.367329	0.144851	0.389158	0.448477	0.494247	0.247129	0.233693	0.495602	0.437374	0.493515	0.233914	0.284633	0.419758	0.283106	0.276550	0.513156	0.534082	0.206448	0.450611	0.345592	0.331980	0.364675	0.219910	0.393996	0.934000	0.158688	0.299187	0.242240	0.288684	0.740578	0.249338	0.357775	0.700980	0.219913	0.508683	0.269076	0.375341
29	0.478734	0.342959	0.577433	1.016288	0.267215	0.238333	0.423087	0.814246	0.249435	0.157796	0.194896	0.440716	0.359318	0.187181	0.749995	0.713965	0.373732	0.239421	0.414490	0.470189	0.259439	0.540375	0.448448	0.464771	0.719284	0.288072	0.315539	0.365389	0.130042	0.387962	0.490994	0.514693	0.244198	0.237129	0.497867	0.395870	0.486002	0.231493	0.310413	0.414805	0.283068	0.272669	0.483014	0.531097	0.207751	0.426285	0.286335	0.295495	0.368417	0.219329	0.397492	0.881475	0.153241	0.305055	0.206339	0.285594	0.730807	0.235628	0.353493	0.671542	0.214921	0.491074	0.292255	0.393881
30	0.474890	0.350583	0.562338	0.959476	0.322073	0.267395	0.429431	0.897342	0.256213	0.174306	0.157873	0.450141	0.358264	0.183778	0.754056	0.722588	0.383604	0.244193	0.407742	0.443743	0.270614	0.564827	0.447229	0.398850	0.728062	0.286348	0.331624	0.367939	0.132740	0.359599	0.510349	0.525035	0.248990	0.232099	0.464434	0.384033	0.483230	0.223274	0.384866	0.518319	0.293897	0.223930	0.458335	0.516155	0.205377	0.451773	0.192128	0.224506	0.369611	0.209770	0.394439	0.870396	0.150511	0.313408	0.160828	0.202392	0.722375	0.247780	0.350250	0.632196	0.207895	0.478321	0.272979	0.472227
31	0.431998	0.352037	0.563640	0.927696	0.344189	0.274475	0.408014	0.904648	0.246177	0.171584	0.136356	0.449799	0.356225	0.184229	0.754130	0.723793	0.367777	0.246525	0.399022	0.447828	0.254767	0.568353	0.409360	0.385708	0.730105	0.285516	0.329736	0.374793	0.145611	0.303111	0.511441	0.528070	0.252688	0.334854	0.420530	0.348936	0.412408	0.155780	0.415618	0.543122	0.363706	0.201808	0.457990	0.501913	0.210264	0.462257	0.157218	0.208374	0.349622	0.193950	0.404498	0.868600	0.152324	0.315256	0.147295	0.133645	0.656153	0.239689	0.364606	0.616991	0.170693	0.497852	0.269337	0.474535
32	0.396903	0.335482	0.563330	0.936709	0.341748	0.275091	0.394028	0.879084	0.203841	0.171222	0.135380	0.438375	0.355785	0.184028	0.735046	0.724834	0.361705	0.251106	0.395743	0.450293	0.192564	0.557092	0.285417	0.363417	0.624507	0.261780	0.322304	0.365267	0.144038	0.247143	0.518562	0.520147	0.244145	0.403869	0.411514	0.272589	0.271873	0.132985	0.415991	0.546921	0.419927	0.207825	0.446057	0.491898	0.180749	0.487233	0.192982	0.187375	0.343814	0.191001	0.413119	0.850338	0.157615	0.315272	0.145097	0.269788	0.665765	0.226465	0.365381	0.587665	0.174756	0.502611	0.262326	0.484473
33	0.403287	0.315987	0.565459	0.943481	0.369030	0.304549	0.394997	0.854538	0.196150	0.218523	0.136487	0.437442	0.354760	0.174641	0.713092	0.729511	0.354841	0.251419	0.387440	0.442147	0.189654	0.535171	0.205754	0.326238	0.507319	0.249605	0.327305	0.345151	0.140110	0.237091	0.522610	0.511493	0.249207	0.420913	0.359419	0.216199	0.240595	0.131363	0.406798	0.581877	0.450462	0.223076	0.422993	0.489677	0.176324	0.486919	0.196587	0.155738	0.327065	0.183646	0.419020	0.812343	0.152788	0.315793	0.155257	0.330244	0.650805	0.218712	0.368941	0.551645	0.173083	0.486334	0.331405	0.544146
34	0.401587	0.298908	0.537495	0.938501	0.414348	0.348414	0.396045	0.863044	0.202592	0.229727	0.135291	0.386179	0.353769	0.165733	0.709977	0.731735	0.361027	0.247887	0.366322	0.439760	0.200526	0.521043	0.157319	0.255558	0.488191	0.250139	0.346658	0.332324	0.136953	0.210459	0.522996	0.516884	0.218777	0.423140	0.308214	0.188196	0.228143	0.142767	0.406120	0.621583	0.460792	0.308950	0.385357	0.472398	0.162843	0.487928	0.199468	0.117222	0.332050	0.171642	0.425297	0.758124	0.149199	0.293588	0.165318	0.326847	0.641103	0.231455	0.365293	0.457890	0.182933	0.469606	0.394674	0.644670
35	0.386836	0.308393	0.403538	0.938241	0.432870	0.371105	0.391473	0.885033	0.210396	0.249757	0.128745	0.293440	0.341012	0.166796	0.692093	0.752616	0.364026	0.233809	0.343899	0.424365	0.229247	0.500375	0.181929	0.168935	0.490030	0.251376	0.400826	0.320790	0.116354	0.220555	0.502811	0.522017	0.239633	0.435138	0.275104	0.184977	0.209947	0.131984	0.408516	0.623334	0.462579	0.339228	0.340856	0.452324	0.206240	0.500458	0.318582	0.115208	0.346278	0.165987	0.423485	0.619591	0.157487	0.301004	0.164836	0.338811	0.552362	0.225709	0.361018	0.390891	0.234029	0.456165	0.424672	0.687483
36	0.360739	0.367279	0.325342	0.777061	0.428504	0.380040	0.368210	0.882886	0.213587	0.256694	0.116106	0.286081	0.307131	0.170867	0.711310	0.704653	0.339856	0.203230	0.307554	0.422836	0.241494	0.429902	0.202180	0.210944	0.460708	0.222338	0.451236	0.367083	0.120820	0.195447	0.487266	0.500788	0.260080	0.441150	0.218755	0.184412	0.169753	0.136946	0.435469	0.618299	0.472672	0.353757	0.324520	0.436590	0.220172	0.493035	0.362086	0.109350	0.360922	0.169744	0.434836	0.397567	0.141716	0.308132	0.165094	0.359289	0.507607	0.246510	0.361154	0.360865	0.293933	0.567054	0.422656	0.696609
37	0.346975	0.407405	0.390270	0.598874	0.424476	0.384402	0.352311	0.860795	0.222552	0.264026	0.175334	0.357742	0.290738	0.226453	0.755263	0.598831	0.268012	0.170175	0.244059	0.415872	0.253372	0.456202	0.206731	0.349114	0.364579	0.155975	0.496594	0.510879	0.122069	0.190228	0.479834	0.487057	0.259520	0.447289	0.215326	0.179193	0.155504	0.204259	0.449605	0.619730	0.484392	0.357747	0.319690	0.436552	0.221113	0.433834	0.362112	0.110982	0.382112	0.176962	0.435936	0.382189	0.118837	0.277889	0.164564	0.381883	0.587208	0.300611	0.340992	0.313875	0.300770	0.588666	0.425385	0.675866
38	0.334032	0.397382	0.430515	0.585213	0.429169	0.386565	0.336725	0.845625	0.219596	0.297902	0.277012	0.453509	0.273292	0.276436	0.780974	0.568159	0.259284	0.238622	0.140568	0.411970	0.250285	0.452922	0.214874	0.379433	0.362983	0.142961	0.529023	0.581269	0.123108	0.196817	0.479096	0.489145	0.261689	0.450649	0.199200	0.211129	0.155649	0.212623	0.455523	0.621204	0.466980	0.381433	0.319200	0.400616	0.221168	0.372237	0.362437	0.129938	0.391229	0.180708	0.398773	0.298602	0.246359	0.299439	0.169509	0.413650	0.590663	0.316477	0.325713	0.240290	0.309392	0.592670	0.438658	0.650790
39	0.283796	0.369145	0.436191	0.594854	0.430242	0.416420	0.330490	0.844728	0.292972	0.362218	0.369091	0.470668	0.316297	0.303120	0.754304	0.556356	0.337814	0.385725	0.125336	0.369863	0.258896	0.448567	0.220464	0.410402	0.361665	0.110554	0.534038	0.603520	0.122966	0.207056	0.477871	0.487346	0.262201	0.450729	0.163820	0.271534	0.151916	0.216504	0.457979	0.618335	0.497866	0.477724	0.305332	0.288945	0.226221	0.358509	0.372216	0.129067	0.395849	0.179066	0.364947	0.305880	0.380562	0.328629	0.180968	0.509770	0.697745	0.339106	0.330531	0.236706	0.321037	0.583196	0.426602	0.651082
40	0.220037	0.337532	0.424241	0.609633	0.430655	0.473171	0.329447	0.810765	0.323122	0.398147	0.398033	0.473828	0.425832	0.545223	0.688960	0.499550	0.381888	0.524435	0.126535	0.270093	0.286313	0.418897	0.252921	0.475180	0.304339	0.100258	0.513433	0.635378	0.117462	0.206774	0.445114	0.445258	0.281097	0.453821	0.100697	0.273157	0.153242	0.236171	0.442057	0.614150	0.504199	0.519442	0.267270	0.216260	0.215339	0.321772	0.387216	0.138336	0.386779	0.177462	0.363243	0.325626	0.461314	0.396324	0.182679	0.532159	0.710509	0.321141	0.342303	0.323463	0.333028	0.560647	0.408204	0.650536
41	0.219852	0.329869	0.476021	0.603022	0.451557	0.475699	0.295508	0.776223	0.322180	0.396820	0.410536	0.464178	0.479982	0.831221	0.602319	0.426365	0.417700	0.556323	0.133107	0.193002	0.271743	0.379545	0.305786	0.528536	0.261507	0.101725	0.497580	0.636236	0.119750	0.197156	0.363920	0.327284	0.283351	0.455386	0.067899	0.287981	0.207734	0.259358	0.381544	0.509239	0.540772	0.520610	0.232169	0.205521	0.208543	0.307512	0.390514	0.132236	0.336386	0.172735	0.355011	0.340169	0.479942	0.400159	0.172561	0.537268	0.716307	0.321853	0.385437	0.407014	0.337310	0.556231	0.401615	0.595882
42	0.220381	0.326401	0.532528	0.540919	0.507211	0.547268	0.191111	0.732078	0.321332	0.397999	0.488188	0.526200	0.480784	0.862789	0.541828	0.369458	0.507747	0.697956	0.174883	0.302977	0.277189	0.365721	0.341911	0.558105	0.244352	0.098747	0.491724	0.688618	0.139183	0.276813	0.279595	0.261965	0.284060	0.453475	0.060015	0.340252	0.237698	0.268057	0.328331	0.409531	0.543726	0.524941	0.238263	0.215886	0.208615	0.288805	0.382897	0.157050	0.352670	0.184035	0.343351	0.339596	0.596537	0.414269	0.185743	0.549846	0.727080	0.326083	0.483314	0.409260	0.338624	0.535841	0.407795	0.586311
43	0.228636	0.332695	0.579601	0.514033	0.532530	0.767577	0.130506	0.608374	0.369049	0.407703	0.575148	0.625672	0.489300	0.877281	0.529935	0.382319	0.530037	0.846211	0.220462	0.341608	0.292044	0.346601	0.348905	0.564826	0.214549	0.093535	0.496978	0.785278	0.140543	0.341282	0.216785	0.234236	0.321155	0.389430	0.059020	0.366354	0.254633	0.316205	0.322916	0.405639	0.557655	0.525439	0.243974	0.291411	0.219695	0.287788	0.404773	0.197901	0.365663	0.186087	0.334249	0.346740	0.645466	0.470077	0.254329	0.561148	0.769270	0.340758	0.548646	0.416143	0.322513	0.518633	0.409105	0.568681
44	0.209164	0.337830	0.592018	0.505246	0.496237	0.782633	0.121839	0.492336	0.422393	0.408330	0.641475	0.707934	0.494288	0.882860	0.539836	0.394278	0.537715	0.889550	0.243354	0.341507	0.296543	0.292279	0.354531	0.565416	0.201699	0.090573	0.529867	0.928387	0.142642	0.348775	0.197266	0.214919	0.329983	0.309557	0.068639	0.368894	0.252837	0.339039	0.331377	0.410167	0.585250	0.524893	0.249224	0.325675	0.241624	0.259966	0.443354	0.446362	0.371302	0.189146	0.338309	0.342837	0.653138	0.487023	0.282235	0.501225	0.821528	0.384635	0.545008	0.454692	0.334345	0.532563	0.377060	0.496903
45	0.189220	0.337359	0.599710	0.504625	0.492883	0.782187	0.101868	0.472656	0.423054	0.385765	0.663975	0.739039	0.494703	0.883758	0.562526	0.396897	0.536402	0.892630	0.242254	0.362968	0.308182	0.263003	0.354544	0.576175	0.189087	0.083880	0.565321	1.040372	0.154516	0.386231	0.192868	0.213624	0.326177	0.282817	0.071076	0.369189	0.272240	0.357297	0.324459	0.366068	0.577125	0.521503	0.254747	0.333899	0.293423	0.342428	0.448828	0.498909	0.371897	0.191570	0.329590	0.340113	0.653154	0.487047	0.292423	0.515198	0.826747	0.434193	0.627355	0.474536	0.328679	0.544964	0.309194	0.373179
46	0.172627	0.321361	0.602442	0.453495	0.497261	0.778004	0.143558	0.453307	0.426982	0.385450	0.664125	0.747522	0.494498	0.895510	0.563270	0.390516	0.538876	0.905035	0.262241	0.370652	0.411212	0.273540	0.337410	0.583570	0.182298	0.091618	0.579195	1.095541	0.178536	0.413251	0.132340	0.264527	0.319779	0.274827	0.082418	0.369767	0.379476	0.419830	0.291588	0.326506	0.555125	0.507086	0.254046	0.439053	0.312422	0.620256	0.418148	0.552305	0.377112	0.191537	0.317723	0.379014	0.652328	0.486271	0.308357	0.549363	0.836021	0.442703	0.782413	0.475438	0.300060	0.526026	0.252211	0.286166
47	0.162920	0.230297	0.590891	0.376553	0.473654	0.761664	0.212054	0.342246	0.423158	0.364620	0.665498	0.748265	0.495817	0.904608	0.548451	0.423615	0.534663	0.918963	0.299911	0.402202	0.490718	0.249233	0.324424	0.582519	0.169370	0.087740	0.565046	1.109388	0.204443	0.431568	0.131778	0.363373	0.263603	0.243075	0.094642	0.369403	0.409910	0.415733	0.233801	0.325672	0.542241	0.450693	0.276665	0.525312	0.326864	0.632929	0.417519	0.603174	0.388528	0.204640	0.323879	0.471503	0.649951	0.479427	0.311867	0.566522	0.824142	0.439092	0.861878	0.489701	0.236453	0.392168	0.244308	0.257047
48	0.182214	0.140819	0.568462	0.401133	0.435991	0.746832	0.227735	0.233476	0.418653	0.361527	0.664604	0.743957	0.506641	0.916490	0.548387	0.468449	0.530149	0.918464	0.323929	0.455707	0.497650	0.175755	0.325635	0.535221	0.161295	0.082311	0.521454	1.105938	0.238309	0.436404	0.139839	0.370875	0.243041	0.227220	0.101745	0.369980	0.409490	0.395455	0.207642	0.332463	0.540642	0.430712	0.292141	0.526299	0.335110	0.636826	0.421254	0.626555	0.433340	0.291807	0.336028	0.477506	0.649111	0.476289	0.315877	0.577608	0.808260	0.436665	0.878321	0.495095	0.220884	0.327038	0.264581	0.274316
49	0.186787	0.134765	0.576766	0.431934	0.427245	0.742151	0.225510	0.211311	0.411068	0.351359	0.646627	0.697228	0.530242	0.931441	0.518489	0.480918	0.529633	0.918361	0.323662	0.475054	0.506094	0.169194	0.347158	0.497753	0.167718	0.089419	0.470872	1.055713	0.252528	0.428472	0.145897	0.362671	0.261646	0.245458	0.103069	0.381393	0.409866	0.389066	0.196227	0.347592	0.534720	0.427336	0.291765	0.523815	0.374415	0.700862	0.473678	0.623966	0.458933	0.430973	0.351925	0.478266	0.651119	0.475221	0.331185	0.574084	0.780800	0.423199	0.878977	0.498259	0.251222	0.323710	0.349232	0.269741
50	0.189512	0.117385	0.575908	0.437559	0.425418	0.747000	0.240385	0.207253	0.400024	0.313475	0.607394	0.642886	0.533514	0.922800	0.480450	0.483392	0.534358	0.917683	0.330896	0.475562	0.509118	0.158861	0.385846	0.482599	0.180620	0.098191	0.431367	1.008563	0.265429	0.426637	0.148646	0.381820	0.270461	0.295100	0.112289	0.394162	0.430287	0.389032	0.236672	0.343113	0.516606	0.422662	0.302728	0.523901	0.428046	0.776362	0.502743	0.630442	0.448684	0.459459	0.351571	0.478893	0.622554	0.447734	0.358878	0.550173	0.698898	0.396072	0.877127	0.501884	0.278346	0.302496	0.440697	0.409830
51	0.189945	0.118039	0.554645	0.436657	0.423010	0.747401	0.254109	0.211100	0.349655	0.233914	0.561205	0.623717	0.532092	0.907447	0.467802	0.482334	0.518520	0.903677	0.341337	0.478720	0.541087	0.167997	0.388629	0.414755	0.183580	0.098494	0.387363	0.999034	0.338799	0.436595	0.215087	0.438260	0.283248	0.290920	0.119311	0.346862	0.456682	0.390364	0.290121	0.341240	0.505787	0.405043	0.316862	0.529885	0.433394	0.791299	0.516277	0.641841	0.434980	0.463228	0.332683	0.483293	0.589071	0.392570	0.380049	0.476934	0.696805	0.414234	0.876732	0.498043	0.261360	0.273775	0.464529	0.465646
52	0.194029	0.118167	0.495228	0.431735	0.434257	0.744652	0.262295	0.212331	0.319905	0.182680	0.566144	0.615098	0.508810	0.904281	0.458081	0.484929	0.469010	0.852470	0.348477	0.480357	0.557336	0.165696	0.347569	0.353011	0.189506	0.102999	0.374537	0.993614	0.349461	0.441475	0.263785	0.501195	0.311598	0.285530	0.211283	0.327510	0.472602	0.418741	0.322913	0.335244	0.467359	0.293122	0.310606	0.530875	0.435674	0.796944	0.530929	0.635935	0.422344	0.474668	0.326579	0.513917	0.549757	0.327642	0.401138	0.471247	0.627232	0.417310	0.880667	0.456734	0.264895	0.269531	0.467257	0.469971
53	0.212514	0.125221	0.457964	0.450515	0.435876	0.704937	0.274695	0.210822	0.316160	0.182542	0.577351	0.606609	0.452031	0.809609	0.440698	0.485442	0.431221	0.778112	0.348332	0.486656	0.558634	0.177495	0.300631	0.363971	0.211542	0.118319	0.372133	0.983024	0.358533	0.446427	0.295215	0.555195	0.311090	0.287466	0.359955	0.327388	0.461193	0.436553	0.330415	0.327334	0.464454	0.191548	0.303137	0.544489	0.431857	0.801059	0.514946	0.625734	0.424776	0.495677	0.335320	0.524789	0.524710	0.331968	0.443212	0.472329	0.626638	0.432243	0.873535	0.408709	0.285149	0.250650	0.472219	0.496783
54	0.204625	0.110282	0.413145	0.495344	0.429028	0.680402	0.281420	0.214535	0.309546	0.169683	0.537500	0.579195	0.409236	0.516390	0.435499	0.476159	0.404090	0.751061	0.347597	0.484407	0.550034	0.230466	0.291210	0.412322	0.289235	0.128088	0.366645	0.966585	0.367719	0.446496	0.312577	0.562126	0.313986	0.296440	0.402632	0.352777	0.453772	0.427889	0.345521	0.330061	0.423475	0.201100	0.288401	0.556293	0.443939	0.795879	0.495038	0.485447	0.411056	0.508914	0.365080	0.515167	0.398807	0.298806	0.482751	0.487540	0.619941	0.434798	0.837935	0.313133	0.286242	0.248526	0.522609	0.506832
55	0.205170	0.092151	0.393670	0.524881	0.385086	0.671301	0.281195	0.233444	0.240106	0.153160	0.451929	0.526173	0.435076	0.438319	0.436411	0.451838	0.283998	0.643924	0.331864	0.423199	0.562177	0.269317	0.284641	0.564292	0.312475	0.154509	0.355611	0.904963	0.364563	0.428530	0.314453	0.562278	0.273841	0.296156	0.407470	0.392712	0.467853	0.406630	0.348100	0.355092	0.417508	0.190923	0.299727	0.558744	0.400585	0.760740	0.444539	0.429728	0.395721	0.504455	0.366751	0.499933	0.352584	0.193785	0.457638	0.514882	0.614709	0.432928	0.773707	0.309777	0.265916	0.224721	0.587037	0.522364
56	0.210419	0.089132	0.382886	0.556175	0.297287	0.460047	0.283311	0.255084	0.150579	0.135893	0.355797	0.433319	0.430212	0.413059	0.434987	0.428000	0.210563	0.431636	0.300911	0.376220	0.648332	0.312501	0.285174	0.726897	0.327054	0.164344	0.320861	0.779806	0.361588	0.378048	0.324759	0.563074	0.274128	0.302119	0.436045	0.396399	0.486826	0.421400	0.362340	0.371240	0.393460	0.201750	0.333084	0.527263	0.372299	0.551669	0.440134	0.365227	0.371926	0.497535	0.365858	0.504605	0.567739	0.193479	0.449033	0.543495	0.589323	0.414713	0.716616	0.299196	0.310892	0.192863	0.663167	0.595972
57	0.270535	0.093704	0.385865	0.554635	0.281564	0.233277	0.286710	0.260093	0.142310	0.124302	0.344902	0.397897	0.453571	0.416444	0.421701	0.413565	0.190297	0.392560	0.280482	0.371193	0.666634	0.313481	0.294437	0.727648	0.376350	0.259123	0.257916	0.589737	0.361256	0.378969	0.331979	0.562889	0.277435	0.301232	0.480573	0.396428	0.418649	0.362877	0.399689	0.425366	0.297049	0.282220	0.340392	0.498038	0.359939	0.535468	0.440678	0.290042	0.366580	0.504001	0.365850	0.512775	0.610426	0.203014	0.438289	0.514614	0.580615	0.377511	0.711865	0.239423	0.326730	0.191371	0.726998	0.643073
58	0.269385	0.091546	0.385474	0.556071	0.286002	0.234583	0.287018	0.260283	0.166765	0.122536	0.389457	0.414073	0.524447	0.466635	0.388159	0.411035	0.260028	0.388372	0.278296	0.345174	0.604883	0.338269	0.293358	0.745303	0.471446	0.531098	0.190896	0.441735	0.356497	0.407507	0.332910	0.561569	0.277073	0.295759	0.522705	0.404628	0.373401	0.363758	0.431912	0.426165	0.238269	0.384468	0.336851	0.496073	0.359806	0.530814	0.437527	0.231905	0.355732	0.541255	0.362823	0.519492	0.610218	0.202874	0.446964	0.488058	0.609626	0.326534	0.650594	0.187859	0.329930	0.163335	0.751287	0.658792
59	0.264533	0.094742	0.402545	0.532663	0.265729	0.238282	0.282706	0.260203	0.170979	0.138219	0.439492	0.420158	0.535672	0.461840	0.364958	0.411350	0.376745	0.421532	0.260721	0.336182	0.609021	0.384050	0.295400	0.764682	0.575196	0.569877	0.188433	0.365649	0.354134	0.373869	0.334158	0.558112	0.277712	0.288370	0.531967	0.432017	0.372940	0.365880	0.540967	0.432299	0.231524	0.391008	0.336151	0.414875	0.329708	0.448446	0.374515	0.250272	0.350773	0.555910	0.360551	0.536350	0.610817	0.202459	0.480186	0.460819	0.605609	0.319307	0.454042	0.186133	0.326378	0.161354	0.752297	0.745928
60	0.267411	0.098661	0.380234	0.510057	0.275194	0.240749	0.253543	0.259775	0.182532	0.155031	0.475009	0.429562	0.542926	0.443430	0.364430	0.380742	0.448576	0.675857	0.250395	0.304067	0.625105	0.424249	0.300875	0.789570	0.796385	0.721854	0.232983	0.443185	0.348369	0.438068	0.340623	0.497712	0.277109	0.308214	0.531260	0.457932	0.428435	0.372089	0.700505	0.458565	0.235406	0.401812	0.316359	0.282060	0.270410	0.296533	0.320065	0.236000	0.385675	0.556275	0.363061	0.531405	0.621332	0.192437	0.491049	0.455775	0.604308	0.321775	0.262911	0.148238	0.312088	0.172677	0.731291	0.787285
61	0.266275	0.100934	0.383349	0.516546	0.336414	0.244367	0.221779	0.266992	0.183833	0.157422	0.493158	0.433067	0.566575	0.420448	0.376284	0.278957	0.451722	0.805069	0.388572	0.239381	0.624498	0.426578	0.269301	0.794808	0.905009	0.787422	0.252622	0.447741	0.327762	0.478344	0.388253	0.464678	0.269749	0.358964	0.531112	0.457089	0.416915	0.374642	0.745702	0.466693	0.231345	0.407004	0.296047	0.266858	0.266357	0.236016	0.301532	0.213392	0.485596	0.558558	0.387495	0.445850	0.615149	0.193704	0.479832	0.503997	0.618535	0.325892	0.252275	0.126726	0.268855	0.154818	0.687022	0.744105
62	0.270993	0.099486	0.392949	0.504249	0.481597	0.236906	0.233813	0.242746	0.202809	0.218633	0.494003	0.431316	0.548442	0.399169	0.402810	0.223173	0.468481	0.820706	0.438316	0.281058	0.609212	0.413588	0.254591	0.794220	0.910741	0.796043	0.261759	0.450924	0.310507	0.477384	0.477244	0.466566	0.263319	0.383881	0.529321	0.432061	0.397334	0.369430	0.729192	0.467559	0.213354	0.399955	0.300290	0.260380	0.266183	0.189808	0.293137	0.223206	0.507856	0.548722	0.419587	0.415373	0.588706	0.193090	0.458879	0.524509	0.665271	0.327928	0.278284	0.155817	0.294917	0.159121	0.667971	0.703522
63	0.291176	0.378354	0.393116	0.481200	0.538374	0.236498	0.262682	0.250409	0.214772	0.377495	0.490234	0.451888	0.566664	0.402203	0.401145	0.236978	0.473454	0.839489	0.441327	0.321151	0.591534	0.427848	0.264871	0.792052	0.912779	0.798147	0.334928	0.420438	0.309793	0.477919	0.552710	0.494570	0.247656	0.435564	0.527525	0.428111	0.360226	0.328430	0.721844	0.471246	0.213852	0.401940	0.302998	0.258285	0.306665	0.226736	0.298218	0.224380	0.546892	0.539729	0.460854	0.416921	0.554943	0.168109	0.441879	0.538735	0.696042	0.319721	0.279036	0.156722	0.290732	0.161133	0.665077	0.726368
64	0.284580	0.765935	0.369018	0.467476	0.544772	0.244158	0.268664	0.293494	0.243111	0.403548	0.475294	0.480949	0.581939	0.401894	0.366551	0.304807	0.473586	0.840666	0.439043	0.394518	0.587969	0.426803	0.269824	0.765969	0.915490	0.798246	0.425923	0.414764	0.251893	0.479542	0.569193	0.519280	0.187690	0.438698	0.505169	0.444716	0.371107	0.285114	0.721710	0.470574	0.232597	0.407118	0.305413	0.252088	0.299300	0.265511	0.287465	0.238201	0.575472	0.491486	0.541732	0.418031	0.547957	0.162829	0.425192	0.536513	0.682825	0.283750	0.275439	0.203161	0.276291	0.155828	0.664375	0.711422
65	0.450252	0.798650	0.373801	0.409250	0.612327	0.314072	0.274567	0.288063	0.380915	0.471275	0.438962	0.479147	0.592036	0.397876	0.344895	0.311278	0.481088	0.840991	0.432783	0.472841	0.599034	0.419843	0.268517	0.724773	0.919393	0.797243	0.499004	0.416846	0.206900	0.486761	0.549122	0.470477	0.209713	0.439346	0.421658	0.485612	0.390588	0.263273	0.720287	0.470914	0.243598	0.411046	0.354568	0.251200	0.295700	0.299482	0.252251	0.283655	0.577596	0.495672	0.590614	0.422424	0.557151	0.147004	0.369609	0.526088	0.634300	0.235959	0.259373	0.241700	0.294304	0.174685	0.636649	0.692204
66	0.618444	1.076050	0.382773	0.379811	0.710274	0.372723	0.266067	0.310249	0.543315	0.670413	0.412576	0.402833	0.574753	0.384147	0.361079	0.332985	0.579606	0.845385	0.436513	0.509071	0.595483	0.396059	0.265315	0.665571	0.908814	0.797757	0.520402	0.419897	0.202066	0.504477	0.530272	0.400369	0.243326	0.435997	0.383896	0.448005	0.377904	0.301759	0.717138	0.428092	0.246233	0.412689	0.386997	0.234792	0.340678	0.417170	0.258462	0.313175	0.576387	0.498652	0.591058	0.397644	0.559110	0.143429	0.318609	0.489184	0.631606	0.226245	0.258364	0.245639	0.315892	0.220133	0.573225	0.691513
67	0.642020	1.207448	0.385840	0.341286	0.806977	0.420361	0.255378	0.332629	0.573772	0.749037	0.418524	0.332266	0.517872	0.343506	0.362774	0.359524	0.636665	0.866710	0.466686	0.525707	0.518273	0.364465	0.270163	0.419759	0.887061	0.806178	0.520938	0.450264	0.186751	0.577137	0.518046	0.372353	0.327147	0.455625	0.380146	0.381119	0.349623	0.273812	0.714889	0.377330	0.264442	0.418649	0.383121	0.236576	0.344038	0.451356	0.270492	0.300960	0.575340	0.486894	0.572616	0.366919	0.522045	0.141939	0.305300	0.460165	0.634111	0.223305	0.300516	0.254486	0.285213	0.210709	0.484194	0.651756
68	0.710298	1.242158	0.376132	0.320016	0.818586	0.421829	0.254716	0.328534	0.574405	0.749804	0.443344	0.328059	0.488463	0.335767	0.364068	0.375016	0.637461	0.874899	0.480456	0.526147	0.386295	0.352007	0.281223	0.370835	0.887720	0.814137	0.538030	0.476921	0.184848	0.586807	0.525374	0.389926	0.400619	0.567003	0.352380	0.371031	0.341194	0.251444	0.695551	0.308057	0.307317	0.494916	0.359128	0.222019	0.340904	0.467513	0.282153	0.383383	0.584090	0.468054	0.541469	0.318028	0.301250	0.131109	0.295602	0.420876	0.637372	0.251173	0.349710	0.261153	0.255151	0.214041	0.366970	0.587766
69	0.720212	1.277818	0.361869	0.295313	0.814670	0.430255	0.259193	0.349889	0.584804	0.757311	0.444490	0.316773	0.482358	0.337383	0.364381	0.428545	0.637193	0.872246	0.487002	0.536223	0.385220	0.337954	0.280682	0.345770	0.885879	0.808963	0.571674	0.493394	0.187178	0.581470	0.537158	0.398698	0.410092	0.586498	0.311419	0.370988	0.335833	0.255018	0.688478	0.279748	0.311612	0.580572	0.322567	0.269826	0.358864	0.479744	0.291374	0.470312	0.616033	0.466566	0.545219	0.333256	0.381064	0.202013	0.292418	0.417552	0.612591	0.291655	0.374592	0.261288	0.242984	0.226395	0.302102	0.573708
70	0.758899	1.343770	0.290675	0.297105	0.830909	0.430403	0.255981	0.417253	0.587828	0.780720	0.405939	0.292131	0.482377	0.327301	0.371525	0.439457	0.637645	0.846104	0.509773	0.549285	0.380776	0.288262	0.284359	0.267660	0.842095	0.713084	0.594504	0.495981	0.189323	0.595551	0.554777	0.410291	0.422398	0.621642	0.265347	0.364541	0.336212	0.269446	0.642668	0.261079	0.301106	0.595430	0.316892	0.308808	0.427883	0.480951	0.387089	0.475323	0.618670	0.468823	0.595755	0.352068	0.417844	0.213508	0.293928	0.414915	0.560755	0.321600	0.394801	0.264503	0.272179	0.230116	0.278922	0.470662
71	0.901919	1.356126	0.247738	0.248454	0.834199	0.433953	0.256091	0.448490	0.662526	0.818385	0.378877	0.324694	0.419580	0.252126	0.374078	0.438463	0.615301	0.845357	0.523423	0.552499	0.359184	0.219028	0.279364	0.167403	0.818293	0.619145	0.620376	0.497971	0.225395	0.572311	0.574844	0.436828	0.424596	0.650353	0.244250	0.356814	0.275418	0.261139	0.488830	0.180146	0.333089	0.565687	0.319291	0.312742	0.458852	0.485384	0.482459	0.482596	0.612376	0.472680	0.676899	0.361890	0.428708	0.212513	0.287440	0.493850	0.494596	0.343864	0.398804	0.285284	0.277096	0.222469	0.318382	0.361179
72	0.936145	1.366076	0.222006	0.205349	0.835088	0.466078	0.270153	0.449327	0.828993	0.896613	0.360332	0.322875	0.405802	0.236704	0.378412	0.447687	0.573651	0.848641	0.523936	0.552501	0.360983	0.199518	0.299656	0.170885	0.634752	0.539621	0.629027	0.493789	0.345545	0.650928	0.609215	0.444528	0.427506	0.643973	0.263505	0.342370	0.250131	0.253883	0.354379	0.109144	0.438292	0.711749	0.325719	0.311261	0.466336	0.487437	0.481014	0.491349	0.619828	0.449942	0.725483	0.427428	0.418409	0.212090	0.322015	0.525994	0.467384	0.403412	0.399194	0.299695	0.270114	0.258901	0.289749	0.359335
73	0.947045	1.375861	0.204601	0.201166	0.837296	0.465600	0.303588	0.451836	0.976068	0.928841	0.347254	0.329507	0.398975	0.258603	0.390269	0.462471	0.590607	0.740425	0.511643	0.551514	0.334165	0.213544	0.294353	0.221394	0.359576	0.364969	0.625159	0.464463	0.372747	0.681466	0.654950	0.442818	0.425199	0.606790	0.295496	0.338491	0.253376	0.260151	0.347176	0.119553	0.521931	0.743029	0.330059	0.310963	0.440816	0.457805	0.469446	0.494656	0.621081	0.429140	0.727720	0.444912	0.433049	0.209746	0.362163	0.483468	0.476383	0.418826	0.391550	0.300347	0.248582	0.251987	0.258589	0.334460
74	0.947473	1.343938	0.198909	0.196015	0.825196	0.470040	0.329361	0.451100	1.054675	0.910733	0.375202	0.345555	0.369760	0.344113	0.390737	0.476882	0.644967	0.622785	0.398849	0.543425	0.355229	0.222732	0.302721	0.221141	0.311033	0.347726	0.624546	0.441900	0.378674	0.622121	0.669756	0.438566	0.424213	0.558136	0.328276	0.361787	0.256738	0.259952	0.328849	0.121933	0.574979	0.824556	0.331640	0.312456	0.417526	0.428959	0.476461	0.488477	0.610610	0.439009	0.734560	0.439479	0.448417	0.210501	0.370603	0.452309	0.515934	0.456788	0.352913	0.301964	0.244235	0.256995	0.255891	0.271914
75	1.029315	1.187744	0.191825	0.190569	0.773991	0.486693	0.337589	0.442912	1.122457	0.872662	0.393247	0.341350	0.376471	0.407565	0.341621	0.480805	0.653698	0.628906	0.330567	0.509772	0.384726	0.238596	0.324270	0.220692	0.303028	0.410109	0.607061	0.442794	0.386577	0.612744	0.625681	0.448199	0.470755	0.515815	0.332351	0.368431	0.237507	0.268125	0.324221	0.166179	0.599656	0.833924	0.330537	0.311810	0.425925	0.396612	0.484545	0.458874	0.546782	0.435944	0.731720	0.451083	0.461961	0.214199	0.379240	0.440584	0.474007	0.478728	0.322676	0.286389	0.239055	0.259807	0.252904	0.251912
76	1.016296	1.219941	0.151594	0.194323	0.705515	0.551261	0.331608	0.436499	1.145004	0.871357	0.435542	0.311998	0.351183	0.397377	0.277217	0.470676	0.644558	0.671594	0.319784	0.477319	0.388174	0.225333	0.324929	0.296425	0.303087	0.501724	0.552777	0.444593	0.387377	0.612168	0.555514	0.443539	0.487242	0.511597	0.342906	0.371330	0.202571	0.268809	0.317441	0.171670	0.641010	0.850031	0.322538	0.310891	0.398945	0.274784	0.478267	0.435789	0.454880	0.429236	0.707839	0.450275	0.474055	0.213103	0.420136	0.439157	0.469713	0.544260	0.322569	0.280426	0.226295	0.272032	0.240768	0.254497
77	0.939486	0.988101	0.124201	0.172262	0.704008	0.632640	0.315441	0.399700	1.096864	0.829583	0.457968	0.332467	0.324919	0.409745	0.276401	0.431201	0.644249	0.674403	0.312215	0.425381	0.388616	0.212489	0.354954	0.318232	0.304933	0.515609	0.488902	0.407356	0.401542	0.613868	0.500218	0.353921	0.480589	0.510187	0.336856	0.325752	0.192529	0.215326	0.302632	0.180996	0.691770	0.872387	0.307164	0.307934	0.397184	0.211263	0.471277	0.434402	0.399684	0.321630	0.680434	0.489128	0.464289	0.217886	0.428857	0.463063	0.504882	0.743011	0.322911	0.242323	0.189244	0.232001	0.238447	0.261292
78	0.952782	0.847965	0.117580	0.206501	0.671283	0.629261	0.300490	0.390772	1.035524	0.706099	0.450710	0.382377	0.350088	0.417004	0.318123	0.422267	0.653270	0.675618	0.312546	0.329626	0.393806	0.212237	0.392255	0.328597	0.287167	0.516427	0.470170	0.419358	0.400789	0.608438	0.490123	0.312409	0.461386	0.508768	0.323779	0.308064	0.202551	0.211158	0.298978	0.199419	0.692821	0.871812	0.252556	0.313305	0.408530	0.175004	0.464130	0.361035	0.294480	0.280932	0.632795	0.548025	0.468368	0.232838	0.426126	0.478213	0.520121	0.964365	0.319638	0.198723	0.182442	0.237823	0.237226	0.225159
79	0.886016	0.801249	0.158469	0.306058	0.592664	0.664718	0.295178	0.387548	1.026022	0.656986	0.434560	0.392497	0.390950	0.434398	0.306914	0.418690	0.577446	0.704815	0.337523	0.259461	0.399722	0.203226	0.395458	0.343705	0.388828	0.500698	0.473958	0.384387	0.418121	0.621817	0.492794	0.311680	0.412943	0.495373	0.323939	0.311257	0.204168	0.205231	0.313475	0.207264	0.688478	0.871522	0.179530	0.306218	0.384889	0.130131	0.458445	0.213834	0.287444	0.276932	0.593018	0.588528	0.464162	0.233890	0.428013	0.475081	0.572796	0.964860	0.318567	0.194411	0.182494	0.244996	0.235765	0.200948
80	0.876527	0.740515	0.197061	0.398777	0.420156	0.673844	0.294739	0.353351	1.025089	0.672354	0.410109	0.391909	0.397324	0.438266	0.303780	0.398925	0.532741	0.686550	0.326859	0.202979	0.385809	0.209670	0.426450	0.395510	0.403721	0.499149	0.468817	0.349948	0.427965	0.579474	0.493164	0.319622	0.365168	0.357476	0.320576	0.314374	0.207869	0.196058	0.302158	0.209879	0.684465	0.869637	0.190862	0.278671	0.346482	0.119569	0.380765	0.193921	0.292941	0.247624	0.585821	0.615865	0.442011	0.213228	0.472035	0.491130	0.587804	0.970450	0.286161	0.178647	0.180582	0.231539	0.236292	0.197463
81	0.835621	0.621377	0.341465	0.510577	0.337604	0.665678	0.293840	0.348938	1.013272	0.678099	0.401380	0.392127	0.400027	0.440531	0.300472	0.388631	0.591448	0.709511	0.339848	0.217035	0.360940	0.222635	0.472197	0.431242	0.395433	0.520507	0.449442	0.312038	0.433364	0.660150	0.487214	0.329946	0.359693	0.315672	0.306009	0.315494	0.220324	0.151141	0.266234	0.211852	0.668669	0.833503	0.259363	0.283298	0.374115	0.129466	0.228692	0.174658	0.304122	0.228902	0.589537	0.611327	0.353296	0.146566	0.491068	0.494596	0.580651	0.963437	0.219787	0.181574	0.166750	0.278172	0.234360	0.162627
82	0.679985	0.592537	0.387980	0.514259	0.332054	0.671179	0.295793	0.331784	1.008767	0.674502	0.420646	0.390845	0.403300	0.439918	0.300238	0.329695	0.627454	0.722130	0.418454	0.228806	0.347135	0.233854	0.479287	0.444333	0.402448	0.527012	0.436335	0.302825	0.473559	0.743775	0.479190	0.306174	0.351793	0.263014	0.274559	0.321009	0.206185	0.144901	0.229560	0.216171	0.668729	0.773382	0.285438	0.258857	0.379919	0.139073	0.245138	0.138765	0.330374	0.230817	0.589148	0.607031	0.332306	0.146141	0.471417	0.486478	0.609203	0.954432	0.176108	0.192290	0.161390	0.401645	0.163226	0.167673
83	0.636464	0.570774	0.388008	0.536904	0.300967	0.668007	0.299926	0.263496	0.963601	0.638715	0.450363	0.352318	0.396351	0.444373	0.299870	0.308179	0.630497	0.714378	0.417231	0.338773	0.344639	0.237316	0.454772	0.431914	0.407235	0.539386	0.409845	0.314359	0.477235	0.741669	0.463515	0.302620	0.384142	0.160474	0.278374	0.300999	0.202695	0.166756	0.217079	0.216533	0.692902	0.737657	0.286656	0.203650	0.379886	0.162820	0.282932	0.154501	0.292336	0.237122	0.583250	0.602652	0.330221	0.146207	0.505567	0.413276	0.615125	0.945962	0.139728	0.192449	0.193386	0.419656	0.097781	0.179737
84	0.617780	0.546169	0.395899	0.626414	0.249853	0.664670	0.309244	0.167868	0.861260	0.553574	0.455923	0.354044	0.379236	0.456969	0.315924	0.316448	0.642074	0.707991	0.401178	0.344828	0.362037	0.233251	0.442191	0.402361	0.566400	0.550978	0.360290	0.296666	0.596431	0.750938	0.433490	0.275207	0.409313	0.157674	0.269830	0.291522	0.199993	0.195553	0.220263	0.215131	0.695562	0.724881	0.282559	0.193060	0.514846	0.304150	0.257764	0.151406	0.282149	0.232853	0.542174	0.595723	0.315885	0.143733	0.512682	0.382256	0.613178	0.936841	0.151673	0.165485	0.236002	0.479545	0.098574	0.173219
85	0.614239	0.490479	0.414276	0.643794	0.234704	0.642730	0.315429	0.195727	0.693137	0.515397	0.448082	0.352129	0.377138	0.449051	0.314727	0.317125	0.695901	0.705451	0.400350	0.349278	0.400366	0.226629	0.432753	0.414463	0.643243	0.520182	0.372882	0.280705	0.620422	0.730155	0.415464	0.249441	0.407979	0.146639	0.236538	0.313229	0.265021	0.248422	0.235533	0.211492	0.634972	0.571271	0.277160	0.226864	0.538116	0.327947	0.243088	0.155782	0.288927	0.220826	0.457370	0.604766	0.305579	0.142959	0.490748	0.376211	0.613451	0.911253	0.193224	0.219963	0.241277	0.490548	0.106746	0.190672
86	0.475823	0.444668	0.531485	0.667506	0.227065	0.636407	0.304063	0.233587	0.611886	0.513057	0.423089	0.337751	0.377642	0.435800	0.298714	0.295179	0.694308	0.709252	0.407243	0.353751	0.392555	0.222161	0.435792	0.443676	0.648792	0.532904	0.489111	0.332571	0.645178	0.678010	0.360929	0.252262	0.415184	0.154356	0.194515	0.429272	0.368640	0.269647	0.264032	0.190846	0.571332	0.520926	0.271738	0.222123	0.548628	0.328211	0.270935	0.205533	0.290631	0.194003	0.362405	0.556617	0.288898	0.148748	0.487522	0.362910	0.623705	0.905426	0.251192	0.241641	0.242178	0.488156	0.116553	0.196365
87	0.432892	0.283492	0.556921	0.779609	0.206579	0.633707	0.275606	0.252822	0.468471	0.497025	0.401156	0.306191	0.364369	0.399262	0.282510	0.264041	0.638110	0.654068	0.413738	0.371533	0.393905	0.215198	0.443113	0.413949	0.658093	0.551420	0.544553	0.501886	0.672737	0.667424	0.284625	0.253991	0.373807	0.166834	0.209032	0.584455	0.483279	0.266076	0.270641	0.233709	0.519931	0.370817	0.270617	0.232906	0.555712	0.335260	0.304651	0.261783	0.282949	0.164714	0.354542	0.518894	0.273079	0.140942	0.471420	0.360113	0.585712	0.888666	0.251041	0.286455	0.231810	0.481034	0.112306	0.233824
88	0.413729	0.209069	0.592431	0.845501	0.205638	0.628336	0.270906	0.255442	0.464478	0.492326	0.364481	0.302279	0.348739	0.345695	0.276407	0.230500	0.615043	0.640280	0.461827	0.374308	0.389688	0.218396	0.432277	0.383229	0.663406	0.476027	0.557298	0.554194	0.665430	0.667222	0.254983	0.243105	0.345646	0.169977	0.195226	0.588974	0.635184	0.279529	0.278255	0.244782	0.521042	0.349908	0.269813	0.246355	0.572931	0.345804	0.321977	0.267768	0.286686	0.134651	0.376184	0.518105	0.243889	0.139955	0.440094	0.354708	0.577282	0.876129	0.255006	0.286014	0.233811	0.478862	0.111522	0.228290
89	0.340851	0.181534	0.672124	0.909408	0.200645	0.596698	0.256273	0.276626	0.466749	0.456993	0.408264	0.253112	0.347607	0.360404	0.278222	0.219327	0.614594	0.562031	0.554051	0.379082	0.388900	0.219711	0.394457	0.377494	0.657350	0.443239	0.574177	0.582026	0.662901	0.667189	0.287820	0.233154	0.341088	0.165274	0.186254	0.618313	0.658193	0.305705	0.292868	0.233197	0.493052	0.316040	0.274899	0.247052	0.570127	0.345903	0.322386	0.267944	0.298380	0.107418	0.476307	0.514023	0.248117	0.127484	0.435356	0.317292	0.527017	0.835254	0.259288	0.290751	0.233933	0.476710	0.103388	0.271798
90	0.339931	0.148143	0.695467	0.912366	0.169385	0.510566	0.244368	0.288885	0.464020	0.417816	0.521835	0.184768	0.370580	0.402117	0.273906	0.214893	0.626603	0.553418	0.661482	0.388734	0.382149	0.223504	0.375303	0.363594	0.654736	0.462233	0.610116	0.603787	0.658113	0.667457	0.355768	0.234662	0.361192	0.179050	0.185045	0.650038	0.711714	0.368645	0.290796	0.229485	0.437363	0.242691	0.354499	0.281671	0.543215	0.346418	0.322780	0.265855	0.300905	0.108129	0.562042	0.526184	0.236978	0.104443	0.435730	0.297760	0.475490	0.705318	0.271394	0.318990	0.234547	0.465806	0.152483	0.294252
91	0.336013	0.136951	0.692947	0.981069	0.155108	0.461992	0.252414	0.299753	0.471921	0.411315	0.591557	0.177218	0.393420	0.409638	0.241381	0.214015	0.620771	0.552204	0.715836	0.407685	0.409573	0.259321	0.339830	0.314915	0.637741	0.467794	0.625480	0.609998	0.658684	0.658313	0.417207	0.241012	0.371347	0.214063	0.213105	0.675326	0.770731	0.403172	0.305264	0.240792	0.456966	0.270269	0.456970	0.479220	0.491929	0.336483	0.318806	0.256840	0.296989	0.107364	0.591727	0.532057	0.235866	0.100217	0.429005	0.283959	0.465241	0.279833	0.335489	0.388362	0.243189	0.465794	0.171659	0.345964
92	0.335545	0.161384	0.704319	0.953864	0.211228	0.418895	0.259053	0.304709	0.479913	0.381769	0.618273	0.184819	0.387411	0.386232	0.226550	0.197210	0.630031	0.510110	0.708694	0.439938	0.417649	0.282557	0.259880	0.254516	0.606424	0.463315	0.627063	0.617712	0.677258	0.648779	0.447233	0.273154	0.333613	0.259392	0.232214	0.714854	0.923867	0.469783	0.329017	0.241844	0.467682	0.296173	0.522214	0.510541	0.487769	0.337317	0.277944	0.255522	0.310264	0.138087	0.580084	0.479278	0.211866	0.098816	0.372916	0.258477	0.375809	0.281953	0.428352	0.415104	0.234259	0.454700	0.176193	0.373673
93	0.335278	0.170721	0.827187	0.975176	0.295823	0.368705	0.264053	0.307524	0.492946	0.329394	0.670056	0.169417	0.365203	0.400127	0.225927	0.177104	0.626646	0.496405	0.705354	0.439696	0.413210	0.294939	0.217868	0.218344	0.601772	0.434820	0.642482	0.637614	0.687129	0.632567	0.457769	0.263996	0.319739	0.281658	0.228715	0.741447	0.970302	0.482236	0.330765	0.242100	0.463016	0.294674	0.541249	0.511385	0.496768	0.333817	0.236087	0.238364	0.319679	0.154746	0.560546	0.433761	0.188823	0.086666	0.354654	0.229998	0.339710	0.254236	0.467127	0.416290	0.213929	0.339192	0.200396	0.377795
94	0.361685	0.192534	0.847033	0.960368	0.339017	0.591826	0.273416	0.314525	0.490853	0.310779	0.653361	0.167292	0.372183	0.436090	0.226275	0.190411	0.568170	0.439215	0.710452	0.454445	0.419390	0.302475	0.203417	0.212995	0.584062	0.403276	0.676343	0.643582	0.701924	0.577583	0.459347	0.281238	0.316261	0.276067	0.226866	0.745993	0.974529	0.475393	0.365139	0.240433	0.456667	0.292081	0.519691	0.508562	0.392815	0.215208	0.224954	0.254160	0.322092	0.160428	0.560727	0.411337	0.175249	0.079669	0.330086	0.225853	0.337412	0.254954	0.472974	0.426745	0.246772	0.307310	0.210925	0.371637
95	0.446875	0.222503	0.855551	0.927692	0.348865	0.608411	0.272360	0.340785	0.429901	0.213442	0.616456	0.169658	0.401367	0.449028	0.236987	0.194355	0.534273	0.410585	0.684168	0.507911	0.440541	0.306924	0.203836	0.212640	0.589288	0.401248	0.673064	0.649044	0.686482	0.436122	0.457020	0.345095	0.314153	0.312520	0.210885	0.754558	0.982696	0.465239	0.419082	0.288460	0.451619	0.292546	0.504421	0.500310	0.342187	0.172174	0.221519	0.284732	0.338992	0.160682	0.564147	0.399958	0.160151	0.082743	0.207477	0.133855	0.309353	0.262898	0.530286	0.424072	0.225547	0.179445	0.210320	0.374326
96	0.444119	0.216825	0.905536	0.991258	0.392271	0.720509	0.265974	0.340805	0.385572	0.185490	0.614139	0.214676	0.387098	0.448880	0.234228	0.199794	0.541701	0.409335	0.668390	0.430644	0.453715	0.312727	0.240747	0.193963	0.543251	0.356753	0.685543	0.689804	0.677799	0.372660	0.448337	0.367239	0.292769	0.322760	0.221992	0.747382	0.979101	0.439806	0.460711	0.363151	0.423731	0.283598	0.507248	0.499617	0.322378	0.172464	0.183504	0.259326	0.321282	0.154867	0.564810	0.397888	0.159378	0.090577	0.121543	0.055861	0.287189	0.255685	0.564643	0.427427	0.235286	0.114681	0.208882	0.383079
97	0.433805	0.217100	0.901374	1.013253	0.396664	0.772261	0.254017	0.332305	0.404956	0.215343	0.615130	0.289203	0.380365	0.433935	0.201638	0.193858	0.528068	0.410281	0.668804	0.449975	0.450220	0.294330	0.237862	0.129476	0.334625	0.362299	0.709669	0.687764	0.653838	0.367907	0.449312	0.364941	0.287571	0.323953	0.296501	0.737578	0.944055	0.418353	0.452559	0.382609	0.391807	0.283031	0.559885	0.498192	0.309549	0.154821	0.123509	0.205082	0.301856	0.141760	0.568473	0.400537	0.174476	0.105195	0.116296	0.063992	0.288286	0.250584	0.561254	0.476702	0.229979	0.113826	0.205617	0.393689
98	0.366727	0.205401	0.891590	0.933851	0.398181	0.774817	0.242755	0.312849	0.424762	0.248070	0.624706	0.289897	0.377585	0.434322	0.191888	0.170775	0.449398	0.384397	0.671004	0.546002	0.425550	0.308263	0.217189	0.122991	0.339653	0.365905	0.648255	0.691182	0.535143	0.324334	0.453110	0.363289	0.276511	0.318688	0.337643	0.673504	0.908878	0.421549	0.442324	0.353773	0.425025	0.299214	0.681214	0.501084	0.252617	0.130209	0.085956	0.249340	0.292537	0.142934	0.569176	0.415615	0.313795	0.237830	0.113921	0.065419	0.286568	0.250907	0.550954	0.482919	0.236611	0.108964	0.218709	0.394310
99	0.360578	0.204549	0.910712	0.904328	0.397581	0.780264	0.232451	0.295978	0.431270	0.278289	0.627931	0.351877	0.376732	0.431885	0.195435	0.172327	0.327779	0.170450	0.676304	0.577841	0.444040	0.345016	0.209135	0.187479	0.303931	0.296553	0.584501	0.600950	0.482192	0.268759	0.461305	0.373934	0.260089	0.312207	0.343729	0.537430	0.795422	0.415780	0.438064	0.331622	0.472199	0.313964	0.701063	0.607659	0.252078	0.129484	0.084564	0.256317	0.287953	0.143183	0.576001	0.401265	0.464196	0.468429	0.114000	0.061309	0.264859	0.236745	0.530554	0.483809	0.246778	0.112012	0.246415	0.399954
100	0.361411	0.205919	0.886887	0.871651	0.397070	0.801863	0.214839	0.276938	0.399603	0.285984	0.617863	0.407956	0.376274	0.422967	0.204459	0.174427	0.351580	0.171550	0.692035	0.598184	0.442315	0.364250	0.206131	0.193399	0.296690	0.260156	0.563114	0.646052	0.384908	0.238196	0.498815	0.399254	0.259998	0.311378	0.364106	0.600429	0.782650	0.410813	0.428172	0.330214	0.484439	0.309488	0.708988	0.638621	0.247975	0.128126	0.084999	0.257481	0.286391	0.143141	0.589144	0.401671	0.488352	0.541332	0.091405	0.060809	0.244695	0.234722	0.573880	0.456319	0.271982	0.117752	0.262605	0.380168
101	0.371353	0.219330	0.866620	0.843825	0.400862	0.805926	0.189591	0.278506	0.406995	0.294915	0.604694	0.469754	0.373495	0.391553	0.207684	0.191330	0.349364	0.163914	0.679230	0.616626	0.452047	0.369630	0.217517	0.230736	0.306567	0.252403	0.560394	0.674236	0.384265	0.260879	0.543432	0.416021	0.275809	0.310694	0.367250	0.735278	0.728310	0.354605	0.415389	0.328413	0.452488	0.294360	0.716905	0.635049	0.247971	0.125668	0.132338	0.260527	0.305859	0.142177	0.600074	0.437588	0.514999	0.581738	0.088085	0.054015	0.236965	0.235345	0.597642	0.473557	0.291838	0.121703	0.246659	0.349666
