	157_P_T1_sh_L_ND_A_02.c3d	157_P_T1_sh_L_ND_A_02.c3d	157_P_T1_sh_L_ND_A_02.c3d	157_P_T1_sh_L_ND_A_02.c3d	157_P_T1_sh_L_ND_A_02.c3d	157_P_T1_sh_L_ND_A_02.c3d	157_P_T1_sh_L_ND_A_02.c3d	157_P_T1_sh_L_ND_A_02.c3d	157_P_T1_sh_L_ND_A_03.c3d	157_P_T1_sh_L_ND_A_03.c3d	157_P_T1_sh_L_ND_A_03.c3d	157_P_T1_sh_L_ND_A_03.c3d	157_P_T1_sh_L_ND_A_03.c3d	157_P_T1_sh_L_ND_A_03.c3d	157_P_T1_sh_L_ND_A_03.c3d	157_P_T1_sh_L_ND_A_03.c3d	157_P_T1_sh_L_ND_A_04.c3d	157_P_T1_sh_L_ND_A_04.c3d	157_P_T1_sh_L_ND_A_04.c3d	157_P_T1_sh_L_ND_A_04.c3d	157_P_T1_sh_L_ND_A_04.c3d	157_P_T1_sh_L_ND_A_04.c3d	157_P_T1_sh_L_ND_A_04.c3d	157_P_T1_sh_L_ND_A_04.c3d	157_P_T1_sh_L_ND_A_05.c3d	157_P_T1_sh_L_ND_A_05.c3d	157_P_T1_sh_L_ND_A_05.c3d	157_P_T1_sh_L_ND_A_05.c3d	157_P_T1_sh_L_ND_A_05.c3d	157_P_T1_sh_L_ND_A_05.c3d	157_P_T1_sh_L_ND_A_05.c3d	157_P_T1_sh_L_ND_A_05.c3d	157_P_T1_sh_L_ND_A_06.c3d	157_P_T1_sh_L_ND_A_06.c3d	157_P_T1_sh_L_ND_A_06.c3d	157_P_T1_sh_L_ND_A_06.c3d	157_P_T1_sh_L_ND_A_06.c3d	157_P_T1_sh_L_ND_A_06.c3d	157_P_T1_sh_L_ND_A_06.c3d	157_P_T1_sh_L_ND_A_06.c3d	157_P_T1_sh_L_ND_A_07.c3d	157_P_T1_sh_L_ND_A_07.c3d	157_P_T1_sh_L_ND_A_07.c3d	157_P_T1_sh_L_ND_A_07.c3d	157_P_T1_sh_L_ND_A_07.c3d	157_P_T1_sh_L_ND_A_07.c3d	157_P_T1_sh_L_ND_A_07.c3d	157_P_T1_sh_L_ND_A_07.c3d	157_P_T1_sh_L_ND_A_08.c3d	157_P_T1_sh_L_ND_A_08.c3d	157_P_T1_sh_L_ND_A_08.c3d	157_P_T1_sh_L_ND_A_08.c3d	157_P_T1_sh_L_ND_A_08.c3d	157_P_T1_sh_L_ND_A_08.c3d	157_P_T1_sh_L_ND_A_08.c3d	157_P_T1_sh_L_ND_A_08.c3d	157_P_T1_sh_L_ND_A_10.c3d	157_P_T1_sh_L_ND_A_10.c3d	157_P_T1_sh_L_ND_A_10.c3d	157_P_T1_sh_L_ND_A_10.c3d	157_P_T1_sh_L_ND_A_10.c3d	157_P_T1_sh_L_ND_A_10.c3d	157_P_T1_sh_L_ND_A_10.c3d	157_P_T1_sh_L_ND_A_10.c3d	157_P_T1_sh_L_ND_A_11.c3d	157_P_T1_sh_L_ND_A_11.c3d	157_P_T1_sh_L_ND_A_11.c3d	157_P_T1_sh_L_ND_A_11.c3d	157_P_T1_sh_L_ND_A_11.c3d	157_P_T1_sh_L_ND_A_11.c3d	157_P_T1_sh_L_ND_A_11.c3d	157_P_T1_sh_L_ND_A_11.c3d
	Biceps femoris_lat	Semitendinosus_lat	Vastus lateralis_lat	Vastus medialis_lat	Biceps femoris_med	Semitendinosus_med	Vastus lateralis_med	Vastus medialis_med	Biceps femoris_lat	Semitendinosus_lat	Vastus lateralis_lat	Vastus medialis_lat	Biceps femoris_med	Semitendinosus_med	Vastus lateralis_med	Vastus medialis_med	Biceps femoris_lat	Semitendinosus_lat	Vastus lateralis_lat	Vastus medialis_lat	Biceps femoris_med	Semitendinosus_med	Vastus lateralis_med	Vastus medialis_med	Biceps femoris_lat	Semitendinosus_lat	Vastus lateralis_lat	Vastus medialis_lat	Biceps femoris_med	Semitendinosus_med	Vastus lateralis_med	Vastus medialis_med	Biceps femoris_lat	Semitendinosus_lat	Vastus lateralis_lat	Vastus medialis_lat	Biceps femoris_med	Semitendinosus_med	Vastus lateralis_med	Vastus medialis_med	Biceps femoris_lat	Semitendinosus_lat	Vastus lateralis_lat	Vastus medialis_lat	Biceps femoris_med	Semitendinosus_med	Vastus lateralis_med	Vastus medialis_med	Biceps femoris_lat	Semitendinosus_lat	Vastus lateralis_lat	Vastus medialis_lat	Biceps femoris_med	Semitendinosus_med	Vastus lateralis_med	Vastus medialis_med	Biceps femoris_lat	Semitendinosus_lat	Vastus lateralis_lat	Vastus medialis_lat	Biceps femoris_med	Semitendinosus_med	Vastus lateralis_med	Vastus medialis_med	Biceps femoris_lat	Semitendinosus_lat	Vastus lateralis_lat	Vastus medialis_lat	Biceps femoris_med	Semitendinosus_med	Vastus lateralis_med	Vastus medialis_med
	P2D	P2D	P2D	P2D	P2D	P2D	P2D	P2D	P2D	P2D	P2D	P2D	P2D	P2D	P2D	P2D	P2D	P2D	P2D	P2D	P2D	P2D	P2D	P2D	P2D	P2D	P2D	P2D	P2D	P2D	P2D	P2D	P2D	P2D	P2D	P2D	P2D	P2D	P2D	P2D	P2D	P2D	P2D	P2D	P2D	P2D	P2D	P2D	P2D	P2D	P2D	P2D	P2D	P2D	P2D	P2D	P2D	P2D	P2D	P2D	P2D	P2D	P2D	P2D	P2D	P2D	P2D	P2D	P2D	P2D	P2D	P2D
	EMG_lat	EMG_lat	EMG_lat	EMG_lat	EMG_med	EMG_med	EMG_med	EMG_med	EMG_lat	EMG_lat	EMG_lat	EMG_lat	EMG_med	EMG_med	EMG_med	EMG_med	EMG_lat	EMG_lat	EMG_lat	EMG_lat	EMG_med	EMG_med	EMG_med	EMG_med	EMG_lat	EMG_lat	EMG_lat	EMG_lat	EMG_med	EMG_med	EMG_med	EMG_med	EMG_lat	EMG_lat	EMG_lat	EMG_lat	EMG_med	EMG_med	EMG_med	EMG_med	EMG_lat	EMG_lat	EMG_lat	EMG_lat	EMG_med	EMG_med	EMG_med	EMG_med	EMG_lat	EMG_lat	EMG_lat	EMG_lat	EMG_med	EMG_med	EMG_med	EMG_med	EMG_lat	EMG_lat	EMG_lat	EMG_lat	EMG_med	EMG_med	EMG_med	EMG_med	EMG_lat	EMG_lat	EMG_lat	EMG_lat	EMG_med	EMG_med	EMG_med	EMG_med
ITEM	Y	Y	Y	Y	Y	Y	Y	Y	Y	Y	Y	Y	Y	Y	Y	Y	Y	Y	Y	Y	Y	Y	Y	Y	Y	Y	Y	Y	Y	Y	Y	Y	Y	Y	Y	Y	Y	Y	Y	Y	Y	Y	Y	Y	Y	Y	Y	Y	Y	Y	Y	Y	Y	Y	Y	Y	Y	Y	Y	Y	Y	Y	Y	Y	Y	Y	Y	Y	Y	Y	Y	Y
1	0.244735	0.280953	0.322065	0.143106	0.591672	0.364020	0.268266	0.061620	0.143423	0.344750	0.352994	0.146444	0.264529	0.254748	0.204015	0.181226	0.220535	0.209046	0.465430	0.294849	0.216585	0.295968	0.149860	0.064344	0.323952	0.311375	0.603657	0.156407	0.098577	0.062383	0.317578	0.258534	0.222084	0.244750	0.220320	0.258730	0.154378	0.513510	0.252478	0.070042	0.266859	0.339133	0.399992	0.149645	0.302324	0.710864	0.102459	0.103226	0.368560	0.231786	0.392337	0.221798	0.164507	0.341924	0.269963	0.204848	0.241207	0.303839	0.527110	0.199891	0.237240	0.274934	0.165477	0.034501	0.656473	0.430815	0.299731	0.260944	0.408382	0.247696	0.177260	0.179978
2	0.230994	0.230812	0.330801	0.148997	0.592988	0.358394	0.285786	0.054094	0.197948	0.346377	0.314985	0.188553	0.274208	0.254594	0.210330	0.191323	0.210872	0.201795	0.467618	0.313407	0.215044	0.270626	0.147697	0.060551	0.346750	0.304495	0.603563	0.186441	0.099265	0.065627	0.313958	0.235613	0.199156	0.222369	0.225571	0.257759	0.184854	0.526955	0.253459	0.069473	0.233235	0.252987	0.424815	0.146542	0.261631	0.691669	0.101833	0.104229	0.368934	0.230884	0.370483	0.229967	0.171162	0.345073	0.274849	0.295538	0.240933	0.300361	0.517969	0.200654	0.237974	0.269522	0.160003	0.044577	0.656324	0.429774	0.295577	0.282014	0.428661	0.238463	0.175054	0.174078
3	0.200530	0.196442	0.294522	0.139636	0.585467	0.337719	0.294953	0.042670	0.241361	0.347528	0.308818	0.218296	0.282445	0.251082	0.220364	0.181879	0.203620	0.199926	0.467143	0.316321	0.201045	0.262049	0.165049	0.057853	0.367911	0.307938	0.602487	0.208627	0.105306	0.063282	0.309929	0.226015	0.212492	0.202998	0.229900	0.259856	0.208547	0.544058	0.220229	0.061668	0.227080	0.246217	0.425547	0.152145	0.258391	0.610946	0.095174	0.100774	0.370010	0.215604	0.360312	0.230016	0.174480	0.345887	0.274054	0.353582	0.241587	0.292071	0.509516	0.188810	0.219422	0.222334	0.159805	0.053811	0.641083	0.424269	0.293709	0.286157	0.440525	0.220311	0.174942	0.172480
4	0.189674	0.173299	0.294150	0.130560	0.542224	0.331039	0.292611	0.040858	0.248151	0.346804	0.339044	0.220862	0.280248	0.233536	0.216931	0.168331	0.212478	0.200554	0.463329	0.309786	0.188684	0.219337	0.241869	0.058297	0.372274	0.316859	0.535497	0.213059	0.120214	0.061678	0.296291	0.224357	0.239112	0.209263	0.229700	0.262362	0.209798	0.547646	0.189438	0.053279	0.225876	0.234896	0.440048	0.168813	0.235687	0.497351	0.102005	0.102015	0.370800	0.197240	0.361711	0.221563	0.213516	0.362962	0.304122	0.366132	0.233553	0.262200	0.496146	0.171631	0.203515	0.202468	0.160067	0.055516	0.590044	0.402778	0.280036	0.280948	0.445656	0.226394	0.187366	0.172135
5	0.096896	0.174972	0.292506	0.126948	0.498246	0.331220	0.297573	0.041653	0.253564	0.344740	0.353379	0.216378	0.284347	0.215920	0.217235	0.156718	0.283541	0.223555	0.459795	0.300549	0.189431	0.196828	0.264658	0.057470	0.372391	0.319229	0.396631	0.212986	0.133631	0.078355	0.256146	0.206525	0.241324	0.208698	0.230029	0.270226	0.206944	0.527975	0.191547	0.051760	0.214656	0.210299	0.482547	0.176753	0.233061	0.469550	0.226475	0.097539	0.365852	0.196365	0.360905	0.221448	0.254848	0.443661	0.355335	0.369548	0.229602	0.240332	0.427464	0.166035	0.177341	0.200599	0.158858	0.059814	0.529453	0.358305	0.253028	0.276092	0.445595	0.214526	0.205586	0.171020
6	0.097186	0.270803	0.289656	0.118898	0.492905	0.330416	0.298176	0.046999	0.254246	0.344838	0.359422	0.221973	0.295702	0.213781	0.216136	0.149706	0.362691	0.257808	0.414721	0.291565	0.193596	0.200638	0.268760	0.061786	0.371333	0.299358	0.339823	0.213011	0.153940	0.105252	0.230742	0.170063	0.232165	0.215891	0.228273	0.269632	0.202718	0.417687	0.193213	0.064317	0.215762	0.207324	0.573710	0.180280	0.232506	0.417524	0.261771	0.096010	0.357706	0.181939	0.349455	0.227970	0.295680	0.479469	0.375263	0.398353	0.221978	0.242828	0.378170	0.170704	0.168134	0.200783	0.159323	0.081248	0.484220	0.330917	0.236528	0.274081	0.430724	0.207196	0.225751	0.170851
7	0.154293	0.304667	0.248257	0.116544	0.488332	0.323781	0.299875	0.052406	0.253022	0.344938	0.363105	0.242337	0.300470	0.213444	0.227004	0.147081	0.406848	0.254718	0.340654	0.277929	0.193684	0.204567	0.290255	0.064308	0.364502	0.282563	0.341424	0.212414	0.171828	0.111897	0.188962	0.175469	0.232988	0.218871	0.257002	0.270333	0.189561	0.348341	0.190166	0.078784	0.214266	0.205506	0.631281	0.180131	0.228197	0.380150	0.262750	0.100096	0.333782	0.158105	0.330501	0.239907	0.302605	0.487410	0.400105	0.448293	0.215978	0.245221	0.370444	0.175943	0.168647	0.192792	0.165782	0.102860	0.472057	0.328396	0.236121	0.272069	0.405685	0.206062	0.243983	0.166839
8	0.183570	0.318669	0.286033	0.176921	0.480324	0.309932	0.300495	0.052555	0.255411	0.343421	0.368244	0.271516	0.300537	0.210789	0.227604	0.146285	0.412897	0.239809	0.310436	0.255803	0.196816	0.224478	0.302889	0.064007	0.367699	0.282260	0.346974	0.211115	0.177088	0.123323	0.163880	0.252786	0.245954	0.241963	0.270958	0.278746	0.172194	0.335002	0.213198	0.082355	0.201650	0.193305	0.662169	0.180195	0.290814	0.354169	0.266883	0.107004	0.321783	0.158866	0.321897	0.257250	0.303244	0.508966	0.425637	0.491078	0.212748	0.222586	0.365204	0.177120	0.163758	0.187223	0.154407	0.124511	0.449680	0.264540	0.206680	0.260808	0.377797	0.224520	0.240884	0.149441
9	0.192271	0.320321	0.257920	0.231000	0.403736	0.255279	0.307248	0.064622	0.269615	0.341371	0.370069	0.288715	0.299425	0.194741	0.248969	0.156206	0.410143	0.236860	0.303539	0.243110	0.205898	0.277993	0.302378	0.064942	0.394229	0.281206	0.319992	0.205403	0.186963	0.132462	0.159335	0.317722	0.259351	0.236987	0.254365	0.297295	0.169704	0.312084	0.224977	0.082239	0.151198	0.184614	0.681419	0.182594	0.330233	0.358190	0.272419	0.108934	0.310537	0.156951	0.313825	0.262006	0.307092	0.505031	0.433365	0.522132	0.191829	0.190459	0.338362	0.178674	0.161990	0.201667	0.124110	0.185408	0.345151	0.157474	0.146451	0.255675	0.354240	0.229647	0.226126	0.159847
10	0.193652	0.307885	0.272485	0.256328	0.233644	0.173619	0.297270	0.080274	0.296679	0.328490	0.382289	0.296387	0.243734	0.156485	0.257227	0.239418	0.418546	0.259260	0.296637	0.242736	0.205178	0.284466	0.302974	0.080661	0.413893	0.282132	0.275075	0.195542	0.201847	0.132677	0.156166	0.340369	0.257258	0.211029	0.288873	0.306481	0.178103	0.309871	0.245677	0.081275	0.145705	0.155815	0.681892	0.185061	0.330469	0.267885	0.274072	0.120274	0.306935	0.154959	0.293296	0.262484	0.316889	0.502481	0.431298	0.540988	0.160950	0.155409	0.299564	0.180507	0.162204	0.215732	0.143657	0.281859	0.221425	0.135139	0.140861	0.257224	0.343690	0.228784	0.267317	0.177939
11	0.204037	0.301807	0.360214	0.259315	0.155692	0.155557	0.277855	0.109245	0.313877	0.299431	0.394653	0.303961	0.205471	0.124496	0.255881	0.304575	0.502755	0.301702	0.294927	0.244010	0.214877	0.327265	0.304558	0.176490	0.407031	0.283774	0.257513	0.186814	0.205759	0.134005	0.155577	0.342009	0.242456	0.203715	0.345049	0.295509	0.189662	0.314592	0.258444	0.077969	0.141984	0.132050	0.657394	0.186358	0.349873	0.258593	0.280171	0.140318	0.240258	0.133896	0.289351	0.258138	0.331343	0.500301	0.426085	0.548320	0.139235	0.159471	0.274017	0.176005	0.158390	0.207344	0.150383	0.373238	0.184624	0.138388	0.224695	0.266909	0.293565	0.205192	0.340819	0.180220
12	0.224079	0.297517	0.368669	0.267081	0.143103	0.170458	0.249742	0.136444	0.321410	0.283415	0.395265	0.307125	0.188549	0.125334	0.228879	0.321650	0.524868	0.316846	0.283095	0.246579	0.223241	0.340585	0.301670	0.289345	0.411013	0.277836	0.234848	0.199681	0.254353	0.159082	0.169755	0.342441	0.231798	0.203484	0.349126	0.287231	0.194330	0.310670	0.257951	0.076646	0.106765	0.103764	0.631615	0.198156	0.352924	0.264565	0.285787	0.145802	0.148042	0.119546	0.293356	0.252987	0.340371	0.459204	0.418123	0.550266	0.137994	0.190822	0.273579	0.174744	0.138936	0.190187	0.154692	0.419076	0.189656	0.166083	0.271943	0.280105	0.236838	0.199540	0.374895	0.182801
13	0.227390	0.302913	0.373131	0.286145	0.137563	0.182042	0.228072	0.140999	0.320785	0.281318	0.393574	0.309330	0.188126	0.203361	0.210709	0.322633	0.528948	0.324197	0.232452	0.248099	0.228577	0.334694	0.301213	0.343272	0.409420	0.234388	0.212781	0.224056	0.287337	0.174333	0.199806	0.361295	0.266361	0.211183	0.373641	0.295804	0.207896	0.283243	0.255651	0.074978	0.101604	0.095293	0.627118	0.200701	0.354561	0.267644	0.287034	0.148719	0.118909	0.115125	0.286205	0.251548	0.341306	0.445567	0.403484	0.546958	0.137748	0.208897	0.271624	0.180564	0.142529	0.200213	0.171786	0.423811	0.181362	0.168551	0.272744	0.277398	0.235982	0.202892	0.378607	0.201664
14	0.228249	0.305173	0.377794	0.304149	0.143000	0.214565	0.226298	0.151316	0.316872	0.239184	0.382907	0.308561	0.188187	0.213580	0.224586	0.313728	0.530067	0.327905	0.206611	0.235557	0.239846	0.327696	0.302014	0.347001	0.421264	0.179579	0.198432	0.247741	0.293665	0.188261	0.206222	0.397928	0.280990	0.212693	0.390260	0.300350	0.207148	0.216807	0.263928	0.075157	0.101158	0.112205	0.619218	0.199876	0.359530	0.290010	0.292508	0.148398	0.122391	0.111974	0.259475	0.253851	0.322381	0.436122	0.384472	0.540253	0.138534	0.218686	0.270090	0.193949	0.122976	0.198491	0.175003	0.435606	0.184727	0.180342	0.275866	0.259272	0.232273	0.195291	0.387668	0.225201
15	0.228184	0.244568	0.386400	0.320062	0.146994	0.236164	0.213138	0.171565	0.369586	0.166837	0.365478	0.308458	0.177657	0.218603	0.281296	0.300709	0.531507	0.332702	0.203234	0.202145	0.246872	0.322794	0.311710	0.359195	0.391469	0.180659	0.194576	0.277434	0.296581	0.225442	0.260966	0.420984	0.284637	0.199477	0.391286	0.297072	0.200107	0.188262	0.324788	0.107185	0.149878	0.141393	0.579539	0.232542	0.382308	0.300917	0.292124	0.154302	0.114395	0.112312	0.268225	0.261931	0.312001	0.417634	0.367212	0.528389	0.138723	0.219944	0.264613	0.289559	0.122697	0.206815	0.175565	0.476512	0.214879	0.191886	0.280500	0.239206	0.231602	0.213231	0.424397	0.232053
16	0.213084	0.182992	0.385145	0.357223	0.134457	0.240044	0.189204	0.183242	0.428920	0.170506	0.365797	0.311934	0.166905	0.235084	0.330867	0.297288	0.532274	0.335504	0.182232	0.157496	0.253598	0.322578	0.326426	0.393163	0.376894	0.175094	0.198028	0.323040	0.297923	0.238080	0.321985	0.422265	0.297930	0.190562	0.396066	0.297634	0.217833	0.190534	0.356631	0.150924	0.272175	0.184611	0.565753	0.283934	0.388239	0.304968	0.289976	0.155948	0.100039	0.112419	0.305453	0.275707	0.306035	0.413369	0.359992	0.489620	0.141540	0.220374	0.271527	0.414231	0.123413	0.209968	0.192358	0.539952	0.242204	0.195369	0.281254	0.216354	0.191093	0.218288	0.462341	0.228779
17	0.230795	0.175425	0.366368	0.370561	0.134562	0.294302	0.185285	0.184365	0.504804	0.223821	0.371263	0.309783	0.198218	0.303403	0.332154	0.302280	0.540478	0.337885	0.167037	0.127208	0.256233	0.325815	0.290361	0.425417	0.363816	0.172040	0.207189	0.357563	0.303129	0.267235	0.331027	0.427859	0.291569	0.189761	0.392196	0.297619	0.222023	0.194732	0.359125	0.164328	0.428396	0.229377	0.565059	0.331520	0.374120	0.305959	0.215536	0.165613	0.098362	0.126314	0.322519	0.280197	0.305597	0.410454	0.366041	0.442939	0.146669	0.220881	0.304181	0.494446	0.138751	0.214726	0.210087	0.587785	0.246781	0.205405	0.281446	0.197637	0.173939	0.216665	0.497396	0.229624
18	0.266341	0.206139	0.346087	0.334858	0.155209	0.335244	0.242843	0.203930	0.536565	0.242095	0.356971	0.287685	0.209536	0.352016	0.326021	0.316344	0.547175	0.340600	0.181772	0.120697	0.318697	0.341465	0.244207	0.445210	0.368793	0.166767	0.206139	0.379331	0.297782	0.273473	0.340003	0.433446	0.280608	0.187163	0.401374	0.296164	0.220362	0.193362	0.376649	0.216189	0.525618	0.250970	0.554304	0.360643	0.377364	0.303462	0.160384	0.180037	0.098890	0.126371	0.335001	0.276739	0.287545	0.405253	0.357888	0.424419	0.150932	0.220517	0.314531	0.531044	0.159559	0.247656	0.210420	0.614000	0.262782	0.230604	0.286797	0.189081	0.150588	0.205188	0.508012	0.241556
19	0.287772	0.209612	0.346843	0.309622	0.159183	0.337161	0.286353	0.258103	0.523620	0.242620	0.311717	0.263112	0.186134	0.358289	0.324468	0.331186	0.537857	0.334448	0.185027	0.123874	0.389340	0.347508	0.261880	0.451958	0.375100	0.160062	0.208079	0.387295	0.296547	0.270286	0.360361	0.432469	0.265249	0.181230	0.415130	0.291283	0.224465	0.192772	0.405647	0.286956	0.574359	0.256628	0.511442	0.372329	0.373237	0.295152	0.158189	0.190457	0.104067	0.127594	0.369055	0.276009	0.261010	0.339005	0.308647	0.423250	0.149802	0.216117	0.314915	0.549029	0.159288	0.279035	0.211649	0.617944	0.266461	0.243068	0.297561	0.185894	0.148506	0.203237	0.503379	0.246174
20	0.308324	0.225379	0.281155	0.292738	0.171344	0.337704	0.305387	0.293391	0.540615	0.266437	0.267571	0.253156	0.180925	0.403060	0.319171	0.346169	0.493897	0.308023	0.178288	0.124415	0.395583	0.344022	0.259710	0.452990	0.377490	0.159369	0.208451	0.387872	0.292433	0.266741	0.399998	0.438927	0.262863	0.180819	0.416732	0.287023	0.227253	0.195312	0.418760	0.304101	0.579248	0.258120	0.404731	0.378118	0.326784	0.265002	0.152118	0.193053	0.111822	0.156500	0.380666	0.279484	0.208628	0.246971	0.266693	0.404954	0.119267	0.210838	0.312688	0.549732	0.158515	0.294214	0.212756	0.616073	0.263422	0.246145	0.296401	0.185096	0.134744	0.201000	0.497277	0.257735
21	0.307744	0.223839	0.198173	0.289290	0.203701	0.338780	0.305964	0.304445	0.550141	0.279129	0.247316	0.253729	0.176334	0.411662	0.317053	0.365353	0.437092	0.280068	0.191701	0.114757	0.395170	0.340199	0.231968	0.453203	0.379203	0.158874	0.206193	0.398017	0.283110	0.269335	0.454948	0.440090	0.261918	0.167754	0.418855	0.289917	0.224362	0.197549	0.412147	0.326714	0.604065	0.273837	0.318505	0.378914	0.279954	0.230838	0.138685	0.194226	0.178474	0.202524	0.380405	0.280000	0.189029	0.237157	0.229457	0.354983	0.115903	0.209466	0.321923	0.546890	0.157318	0.293731	0.210473	0.612686	0.257996	0.245842	0.307693	0.185565	0.132166	0.199415	0.501416	0.299177
22	0.327723	0.214033	0.194414	0.274368	0.207151	0.337670	0.312504	0.304911	0.561325	0.287302	0.240291	0.254533	0.176502	0.410588	0.310733	0.389314	0.401819	0.268893	0.210941	0.106258	0.392347	0.307224	0.232735	0.453750	0.372881	0.153841	0.224368	0.438626	0.287515	0.265631	0.477865	0.414070	0.261155	0.161832	0.398484	0.292708	0.220222	0.198190	0.397741	0.414114	0.678683	0.321337	0.263099	0.387555	0.265969	0.219141	0.135146	0.189667	0.214309	0.217061	0.375639	0.275016	0.188568	0.177715	0.174112	0.287036	0.113805	0.205473	0.389911	0.555597	0.158410	0.293594	0.208910	0.609647	0.260378	0.244194	0.328424	0.184660	0.132787	0.177872	0.526827	0.342750
23	0.337366	0.219356	0.220987	0.250605	0.208894	0.338597	0.356609	0.307467	0.680429	0.322161	0.251093	0.257841	0.180444	0.415696	0.298704	0.392537	0.399053	0.267571	0.217205	0.111476	0.392200	0.280237	0.248619	0.453129	0.341523	0.153054	0.236797	0.487313	0.297364	0.275041	0.478479	0.388378	0.243801	0.124844	0.390261	0.282751	0.234028	0.263071	0.399764	0.482681	0.750384	0.369981	0.249938	0.426041	0.237031	0.191818	0.124263	0.182657	0.244552	0.228432	0.386197	0.272500	0.184211	0.161364	0.138697	0.219526	0.111410	0.205647	0.465283	0.591246	0.167198	0.287631	0.209767	0.598627	0.261489	0.235004	0.331160	0.188579	0.131891	0.157457	0.569120	0.361751
24	0.339258	0.225847	0.255161	0.257776	0.206223	0.333014	0.448774	0.320871	0.757184	0.348940	0.259584	0.257523	0.190046	0.427004	0.354909	0.345026	0.399399	0.257799	0.217636	0.128765	0.389702	0.247910	0.273214	0.443087	0.300647	0.163255	0.240976	0.520520	0.298225	0.283541	0.487042	0.381625	0.264416	0.167645	0.387615	0.264505	0.243545	0.359900	0.402511	0.521158	0.766114	0.385689	0.265095	0.489230	0.234133	0.186070	0.111443	0.176079	0.275867	0.231416	0.441064	0.274851	0.169820	0.157105	0.139635	0.152556	0.109804	0.196496	0.492281	0.640892	0.220931	0.275436	0.193498	0.567665	0.261842	0.223561	0.330870	0.189385	0.131572	0.161207	0.579639	0.360830
25	0.338910	0.228817	0.255501	0.251896	0.211735	0.326660	0.480104	0.345177	0.776666	0.354784	0.290961	0.254777	0.205209	0.441888	0.410430	0.311813	0.356244	0.219376	0.226817	0.141256	0.384431	0.196791	0.281289	0.391181	0.269764	0.175749	0.229026	0.531468	0.296845	0.282411	0.490170	0.381276	0.306276	0.207804	0.344165	0.236075	0.212209	0.366582	0.401526	0.532625	0.790727	0.400000	0.242449	0.545680	0.229830	0.182645	0.108543	0.164970	0.295007	0.239700	0.507209	0.283971	0.140693	0.128739	0.138639	0.115252	0.108809	0.191401	0.480507	0.680046	0.298181	0.261270	0.186925	0.514035	0.265158	0.224381	0.312267	0.178973	0.131665	0.163998	0.540605	0.359483
26	0.323847	0.220878	0.260326	0.343576	0.213522	0.327123	0.479558	0.369224	0.788862	0.352343	0.300735	0.262245	0.212317	0.430501	0.413637	0.306160	0.260893	0.188911	0.225653	0.140576	0.382660	0.176722	0.277672	0.323469	0.273081	0.203107	0.221223	0.527130	0.246509	0.266760	0.488087	0.377872	0.331606	0.217226	0.307812	0.213303	0.200258	0.395900	0.362804	0.534134	0.807220	0.407858	0.213683	0.566801	0.228208	0.141989	0.092825	0.163760	0.312341	0.263202	0.552738	0.354776	0.111145	0.101089	0.148983	0.096684	0.102174	0.185854	0.454645	0.711426	0.363086	0.260130	0.187743	0.467504	0.272219	0.219127	0.265638	0.158707	0.142639	0.174214	0.507243	0.358122
27	0.290009	0.194479	0.249643	0.472076	0.214209	0.321800	0.477570	0.391426	0.797542	0.352434	0.285997	0.263814	0.213444	0.411859	0.417131	0.306229	0.252925	0.187352	0.229093	0.137549	0.366925	0.161126	0.275452	0.301461	0.290633	0.225896	0.225512	0.518462	0.213486	0.262954	0.478422	0.356487	0.333203	0.219341	0.308618	0.203444	0.193757	0.394194	0.315549	0.524894	0.819916	0.416009	0.249092	0.568038	0.205236	0.108262	0.089275	0.161076	0.364442	0.296085	0.551164	0.416677	0.090195	0.082770	0.174002	0.092615	0.091337	0.155263	0.439236	0.721851	0.387442	0.248372	0.173762	0.457134	0.275909	0.204152	0.273503	0.141045	0.151347	0.191981	0.501385	0.346656
28	0.248122	0.176178	0.265910	0.481510	0.212847	0.308501	0.474485	0.402019	0.794425	0.352386	0.284510	0.259396	0.214961	0.415050	0.402121	0.306541	0.287850	0.194553	0.273027	0.136458	0.347365	0.153242	0.270561	0.298889	0.290948	0.246507	0.232640	0.514030	0.207390	0.257911	0.469546	0.316612	0.322332	0.215505	0.276294	0.193385	0.195942	0.393326	0.315907	0.518253	0.824177	0.415944	0.330322	0.568448	0.200568	0.201961	0.085298	0.155579	0.386575	0.316608	0.557617	0.437996	0.077504	0.072709	0.188784	0.093846	0.087920	0.124994	0.442350	0.722941	0.388050	0.260540	0.164220	0.451704	0.276914	0.200780	0.281956	0.138291	0.153325	0.198875	0.500818	0.325291
29	0.236219	0.170178	0.294257	0.492086	0.203900	0.314508	0.473887	0.398036	0.794971	0.352437	0.285080	0.256639	0.213111	0.413793	0.373694	0.304774	0.322403	0.200104	0.304642	0.143003	0.339335	0.153131	0.250390	0.265739	0.289242	0.246064	0.261730	0.502491	0.202112	0.227030	0.429999	0.292043	0.408034	0.225307	0.268746	0.189235	0.226320	0.413561	0.314762	0.511876	0.814139	0.406379	0.379371	0.565389	0.199479	0.348225	0.067046	0.144957	0.393227	0.312842	0.580362	0.442707	0.077110	0.072758	0.190686	0.079930	0.086692	0.102406	0.444257	0.721149	0.422765	0.299327	0.163560	0.419754	0.278916	0.200611	0.278851	0.149777	0.148124	0.180141	0.476211	0.309417
30	0.202434	0.149097	0.342683	0.493674	0.202228	0.320068	0.474145	0.392152	0.794217	0.352281	0.286368	0.264873	0.187874	0.382945	0.376634	0.303090	0.328104	0.195687	0.306906	0.151912	0.336461	0.156315	0.244014	0.205956	0.295605	0.246164	0.260216	0.471933	0.196038	0.223229	0.388248	0.298674	0.418184	0.230372	0.258862	0.192701	0.235265	0.416382	0.288521	0.478535	0.776577	0.386800	0.386968	0.562203	0.226246	0.405387	0.053097	0.126426	0.394316	0.312031	0.577100	0.437290	0.076770	0.073246	0.191112	0.065349	0.085973	0.096454	0.445893	0.697414	0.609465	0.352409	0.150484	0.339451	0.255999	0.198774	0.291091	0.155507	0.140135	0.165467	0.441548	0.308474
31	0.164386	0.152968	0.347952	0.493322	0.206802	0.291312	0.472499	0.390708	0.774056	0.348825	0.294557	0.284075	0.158985	0.330685	0.382190	0.294777	0.320568	0.191864	0.306882	0.164945	0.316369	0.135555	0.243529	0.142394	0.293622	0.256922	0.258938	0.441353	0.183939	0.197570	0.384627	0.294457	0.408014	0.236431	0.228018	0.196458	0.234285	0.429587	0.253502	0.451995	0.701345	0.363224	0.386128	0.550267	0.309319	0.584404	0.050804	0.106094	0.398932	0.312428	0.565236	0.429629	0.079063	0.079481	0.188793	0.063257	0.081911	0.095299	0.448864	0.630812	0.663109	0.367224	0.111624	0.239976	0.241144	0.196803	0.292255	0.154524	0.127881	0.165322	0.396820	0.307752
32	0.117913	0.148562	0.342707	0.505441	0.190263	0.231649	0.446469	0.386696	0.746801	0.337122	0.299729	0.303139	0.156100	0.319463	0.380870	0.276356	0.305049	0.188469	0.305244	0.173918	0.209064	0.104330	0.228063	0.096047	0.303579	0.260994	0.264213	0.422977	0.187614	0.206903	0.372907	0.288512	0.407391	0.249448	0.222571	0.233502	0.236316	0.428701	0.250989	0.451514	0.640071	0.353472	0.391716	0.540273	0.314426	0.590539	0.049305	0.093523	0.402318	0.307740	0.586541	0.438632	0.079990	0.080304	0.189955	0.063566	0.073123	0.092080	0.438859	0.563737	0.658784	0.353755	0.105398	0.132686	0.261609	0.177599	0.291761	0.153401	0.122076	0.167044	0.375635	0.302061
33	0.104745	0.129462	0.302088	0.557661	0.182124	0.220933	0.412371	0.359182	0.699212	0.307738	0.340992	0.314846	0.152809	0.285462	0.382021	0.261313	0.315446	0.185800	0.294355	0.178733	0.137274	0.117986	0.204239	0.077670	0.306622	0.258828	0.271091	0.417882	0.175364	0.207441	0.349816	0.288713	0.417386	0.266160	0.254333	0.287051	0.253561	0.431762	0.278453	0.422418	0.606460	0.354003	0.392622	0.535969	0.315627	0.590603	0.049969	0.088308	0.400540	0.306742	0.593426	0.463812	0.060314	0.072681	0.202437	0.064305	0.061000	0.084779	0.430711	0.522894	0.657985	0.329302	0.102560	0.092956	0.286175	0.157020	0.283372	0.158246	0.119539	0.168495	0.370183	0.295271
34	0.180014	0.205222	0.290911	0.597068	0.179221	0.222356	0.393116	0.325675	0.660120	0.290099	0.407211	0.318588	0.148231	0.240211	0.380772	0.241621	0.315530	0.197913	0.287809	0.176681	0.141364	0.156393	0.201357	0.074606	0.304881	0.260767	0.275660	0.418203	0.167033	0.203596	0.302986	0.272604	0.439229	0.279635	0.286170	0.305523	0.283740	0.421783	0.291302	0.335379	0.603595	0.354184	0.392842	0.531827	0.325886	0.594208	0.049877	0.087343	0.398801	0.305902	0.592320	0.491278	0.046219	0.068254	0.211004	0.064061	0.054786	0.082572	0.431528	0.500711	0.658060	0.322640	0.100594	0.096578	0.338447	0.165084	0.277669	0.175852	0.119412	0.173776	0.370044	0.291064
35	0.495766	0.431916	0.286942	0.584628	0.139143	0.221623	0.389297	0.309331	0.653715	0.301885	0.424743	0.318258	0.147547	0.242222	0.379849	0.208770	0.315968	0.211898	0.286487	0.176939	0.169362	0.227475	0.199416	0.074080	0.327633	0.263365	0.273907	0.406532	0.175950	0.204696	0.208237	0.241533	0.448877	0.286728	0.311281	0.306069	0.274398	0.330956	0.298318	0.252606	0.578509	0.340813	0.392320	0.531390	0.331118	0.595304	0.046151	0.071778	0.392262	0.285774	0.599044	0.507914	0.045623	0.071943	0.215262	0.062052	0.054964	0.083563	0.434549	0.493147	0.658098	0.331189	0.095875	0.099688	0.370668	0.181857	0.280437	0.200798	0.150126	0.198875	0.356573	0.258926
36	0.761529	0.541597	0.284212	0.466350	0.126670	0.221827	0.387122	0.306877	0.651143	0.297831	0.418654	0.318973	0.146331	0.245632	0.380711	0.158564	0.317223	0.212904	0.273130	0.176545	0.178704	0.319350	0.185634	0.073951	0.340926	0.264178	0.251107	0.363825	0.194811	0.228946	0.175215	0.203038	0.451890	0.289778	0.324513	0.312758	0.273142	0.264789	0.299716	0.199333	0.474691	0.290711	0.381256	0.522647	0.332783	0.623296	0.039832	0.053241	0.366026	0.262202	0.603242	0.511519	0.048743	0.091581	0.215759	0.060678	0.052662	0.078905	0.442529	0.494732	0.658698	0.333957	0.103464	0.102162	0.378124	0.191618	0.300131	0.217174	0.193903	0.212214	0.320557	0.192605
37	0.842476	0.560078	0.291972	0.419145	0.120955	0.220960	0.357370	0.305480	0.641331	0.289056	0.414081	0.318781	0.136790	0.222950	0.369052	0.109127	0.325624	0.244067	0.253728	0.176830	0.177862	0.321580	0.151478	0.071098	0.347870	0.258917	0.235115	0.305868	0.185661	0.224986	0.165229	0.160866	0.453357	0.291151	0.336747	0.328963	0.271186	0.233700	0.313321	0.183984	0.375954	0.234372	0.361012	0.486684	0.336065	0.637258	0.039223	0.053272	0.349203	0.253798	0.602446	0.504307	0.056858	0.111358	0.214963	0.059770	0.049987	0.068725	0.400841	0.490993	0.658549	0.344330	0.106281	0.103096	0.377806	0.198818	0.326682	0.220151	0.198609	0.252843	0.238230	0.122896
38	0.996720	0.610287	0.270894	0.412455	0.120347	0.219711	0.247225	0.292414	0.640595	0.285648	0.413285	0.316220	0.120157	0.195806	0.290240	0.102170	0.332685	0.273387	0.246991	0.173412	0.183304	0.321512	0.101408	0.061872	0.355718	0.260765	0.231733	0.263060	0.183535	0.220272	0.137234	0.133711	0.450103	0.281851	0.336949	0.355040	0.271070	0.205885	0.311842	0.178311	0.342809	0.207979	0.349969	0.419031	0.330436	0.654907	0.038954	0.047704	0.328395	0.245910	0.590377	0.494039	0.062792	0.147994	0.211980	0.056679	0.050749	0.064092	0.306255	0.460919	0.647872	0.342865	0.121106	0.102246	0.377806	0.202794	0.328200	0.240273	0.198364	0.275976	0.147701	0.072447
39	1.106523	0.663454	0.211656	0.407351	0.108717	0.217135	0.102938	0.261556	0.551250	0.254835	0.407288	0.302766	0.093893	0.162032	0.264513	0.101318	0.332330	0.273207	0.249168	0.156994	0.178514	0.321628	0.081964	0.059869	0.403685	0.278918	0.226211	0.253057	0.180035	0.220728	0.126509	0.129897	0.432457	0.254035	0.338362	0.372113	0.264723	0.215725	0.299523	0.177914	0.282301	0.181157	0.357678	0.338873	0.320053	0.663884	0.036753	0.037765	0.301697	0.246475	0.560485	0.503610	0.066357	0.160135	0.211669	0.053638	0.050766	0.073431	0.246490	0.396645	0.616463	0.338883	0.110105	0.096504	0.377746	0.203626	0.333219	0.305706	0.218478	0.297259	0.134765	0.054688
40	1.136315	0.674221	0.193892	0.432627	0.097974	0.202750	0.099668	0.211149	0.399733	0.207421	0.412801	0.274394	0.103966	0.155477	0.261827	0.099850	0.325636	0.265830	0.240347	0.144021	0.173658	0.322367	0.080646	0.058435	0.439786	0.270850	0.211685	0.255010	0.208573	0.241477	0.109231	0.129263	0.413168	0.235444	0.336783	0.375466	0.244758	0.209848	0.289282	0.172825	0.239145	0.163422	0.375261	0.288892	0.331552	0.646015	0.035542	0.035430	0.292006	0.235044	0.500494	0.599001	0.089101	0.204189	0.208565	0.053391	0.050457	0.081675	0.231126	0.327652	0.580350	0.361265	0.101827	0.090744	0.374567	0.200098	0.335072	0.331809	0.374504	0.338875	0.123119	0.044380
41	1.139898	0.674074	0.191724	0.461084	0.095359	0.183606	0.099052	0.151498	0.340295	0.191226	0.421086	0.267960	0.162386	0.211338	0.248360	0.099652	0.307535	0.255548	0.247894	0.143404	0.170022	0.322460	0.080202	0.052876	0.455128	0.260647	0.207465	0.252160	0.266059	0.258707	0.108735	0.126411	0.405994	0.240380	0.347039	0.370938	0.228311	0.214827	0.274122	0.167159	0.196729	0.138615	0.349125	0.280155	0.334527	0.576280	0.032329	0.035933	0.256520	0.205773	0.465255	0.713356	0.107798	0.269673	0.186645	0.055055	0.057776	0.079668	0.228642	0.250609	0.552450	0.367548	0.111648	0.087442	0.362485	0.204429	0.319020	0.331801	0.404808	0.331915	0.108710	0.042047
42	1.142510	0.677436	0.187334	0.417734	0.098530	0.185157	0.094266	0.102573	0.292376	0.183846	0.436203	0.265822	0.258548	0.270493	0.229331	0.099022	0.289273	0.251009	0.246662	0.139342	0.168045	0.323248	0.073699	0.049346	0.512719	0.279835	0.189112	0.231313	0.272204	0.258912	0.109216	0.120991	0.408631	0.241097	0.371215	0.366254	0.239833	0.318836	0.256900	0.162566	0.180648	0.126652	0.310001	0.274947	0.308020	0.548677	0.027373	0.036450	0.177427	0.153636	0.472778	0.759185	0.115639	0.312988	0.167311	0.056859	0.064917	0.079212	0.221707	0.205404	0.552486	0.362563	0.117572	0.087803	0.370588	0.214695	0.304572	0.342084	0.416051	0.329326	0.098392	0.041841
43	1.142495	0.674890	0.172909	0.320333	0.100513	0.145607	0.092823	0.078212	0.226600	0.173307	0.467253	0.254967	0.325302	0.274737	0.173882	0.096315	0.246168	0.238698	0.197426	0.133634	0.164356	0.322139	0.065101	0.048532	0.526101	0.291616	0.155439	0.202500	0.273142	0.259749	0.108296	0.108385	0.373964	0.239291	0.407836	0.365681	0.245693	0.345362	0.270424	0.157513	0.178922	0.126331	0.302284	0.246674	0.212453	0.338300	0.028604	0.035974	0.148776	0.117583	0.481124	0.759902	0.119147	0.317730	0.159969	0.057941	0.065641	0.079081	0.206085	0.191330	0.543555	0.337318	0.121754	0.087016	0.370767	0.223316	0.353985	0.367617	0.435585	0.337237	0.089256	0.040979
44	1.092756	0.601586	0.178701	0.259326	0.103815	0.107226	0.085998	0.071262	0.218022	0.170265	0.491582	0.252674	0.343162	0.281548	0.130844	0.092009	0.204272	0.231655	0.172045	0.125756	0.166693	0.319182	0.051503	0.048950	0.521204	0.289345	0.143209	0.217266	0.272822	0.253471	0.108771	0.081354	0.280780	0.229540	0.429966	0.369477	0.249305	0.349719	0.321289	0.128016	0.177273	0.123280	0.303366	0.189938	0.204654	0.319564	0.036060	0.035479	0.151091	0.114368	0.469562	0.765590	0.125712	0.329506	0.159936	0.060863	0.102060	0.142578	0.205511	0.183590	0.388004	0.273326	0.125700	0.084001	0.361974	0.210244	0.376326	0.411777	0.440887	0.340893	0.080242	0.038951
45	0.939361	0.462539	0.178363	0.241515	0.091580	0.103542	0.078638	0.071021	0.212914	0.170686	0.494710	0.254100	0.359462	0.298780	0.131577	0.088627	0.188161	0.229620	0.174596	0.113565	0.167995	0.317565	0.049012	0.049675	0.522933	0.271652	0.134571	0.230199	0.272259	0.302356	0.107117	0.061424	0.276300	0.223759	0.444412	0.379932	0.196746	0.346092	0.316376	0.063069	0.169666	0.118368	0.308278	0.130820	0.200957	0.320454	0.037280	0.032748	0.174317	0.122848	0.463149	0.798930	0.131033	0.345468	0.156324	0.065745	0.209433	0.340415	0.205922	0.183440	0.139245	0.239272	0.125892	0.079327	0.361086	0.253018	0.388759	0.460502	0.442085	0.341079	0.071522	0.036538
46	0.780234	0.431789	0.199471	0.240331	0.078088	0.098037	0.078086	0.068512	0.211243	0.171739	0.504210	0.257180	0.387113	0.308707	0.131146	0.080524	0.188088	0.229680	0.174819	0.095414	0.166629	0.316600	0.047953	0.050070	0.510114	0.264063	0.155434	0.231623	0.269531	0.301865	0.108115	0.053467	0.276092	0.212339	0.446056	0.375130	0.172960	0.348644	0.313428	0.047689	0.156783	0.106765	0.306422	0.073808	0.187119	0.318634	0.036855	0.031727	0.174754	0.118698	0.454109	0.835706	0.135885	0.363029	0.133321	0.071523	0.323686	0.498610	0.194903	0.188799	0.116562	0.231205	0.126345	0.074735	0.355397	0.316724	0.390366	0.503647	0.448318	0.341104	0.060960	0.036011
47	0.659741	0.352173	0.191965	0.245099	0.074444	0.117020	0.067874	0.063579	0.213533	0.173527	0.525328	0.249199	0.429951	0.308887	0.133179	0.068849	0.181941	0.227904	0.178783	0.082714	0.163788	0.296702	0.045226	0.049923	0.508835	0.265339	0.178496	0.239770	0.277763	0.347324	0.108023	0.048317	0.273292	0.193775	0.437226	0.347802	0.156161	0.349927	0.323445	0.041334	0.142122	0.095117	0.304162	0.105681	0.181702	0.319537	0.041090	0.031267	0.175212	0.129897	0.428563	0.854024	0.139631	0.365298	0.097934	0.075935	0.417152	0.559610	0.177564	0.195040	0.116559	0.231496	0.126631	0.067731	0.334909	0.328154	0.394355	0.525318	0.464846	0.340477	0.051330	0.036070
48	0.444533	0.289751	0.207880	0.244246	0.070439	0.117339	0.054540	0.057640	0.206457	0.174154	0.554753	0.235348	0.445389	0.314800	0.140681	0.055097	0.156753	0.226554	0.187238	0.077743	0.150714	0.286711	0.045918	0.047485	0.522996	0.268845	0.172992	0.246490	0.291431	0.442586	0.102755	0.044577	0.240661	0.168480	0.400172	0.313874	0.151833	0.351066	0.321196	0.038033	0.128192	0.085173	0.311617	0.178001	0.196022	0.276352	0.073298	0.035644	0.253594	0.183021	0.406041	0.856772	0.150618	0.370417	0.075436	0.078799	0.424627	0.595273	0.164562	0.201248	0.117169	0.228532	0.126665	0.060004	0.316626	0.359885	0.395342	0.525802	0.471188	0.343831	0.045050	0.037453
49	0.219419	0.212803	0.190944	0.231664	0.068889	0.115993	0.044946	0.053672	0.204975	0.172848	0.584175	0.234010	0.446879	0.311052	0.147777	0.043133	0.157655	0.211622	0.190789	0.075315	0.115203	0.153984	0.046311	0.043869	0.535901	0.275384	0.186271	0.254983	0.285807	0.443915	0.090907	0.042156	0.200285	0.148159	0.375708	0.304578	0.151079	0.354807	0.320362	0.108513	0.114231	0.079455	0.325497	0.194290	0.193392	0.234303	0.096059	0.035891	0.420416	0.264430	0.389080	0.851931	0.158689	0.373234	0.069558	0.084227	0.429968	0.673461	0.161043	0.206783	0.123435	0.211155	0.126637	0.054716	0.272223	0.377674	0.392962	0.544020	0.465617	0.336650	0.041999	0.041593
50	0.180312	0.208385	0.187800	0.124871	0.070060	0.117193	0.050229	0.052213	0.202738	0.165497	0.588175	0.256730	0.458144	0.331130	0.135167	0.041299	0.153922	0.202528	0.191129	0.071207	0.111424	0.088027	0.045456	0.040098	0.536115	0.279614	0.244881	0.265589	0.278352	0.461308	0.070297	0.042316	0.186130	0.138491	0.371827	0.303264	0.151156	0.361027	0.327896	0.282484	0.103885	0.077754	0.339953	0.197273	0.205795	0.188153	0.106801	0.040182	0.572960	0.336208	0.389717	0.840989	0.162470	0.370355	0.079657	0.091675	0.439521	0.707676	0.153818	0.210459	0.132218	0.222256	0.122295	0.051915	0.255431	0.373807	0.391684	0.565747	0.448053	0.328710	0.044587	0.052274
51	0.162316	0.225825	0.186281	0.097031	0.070438	0.118206	0.064896	0.054699	0.185914	0.146531	0.590281	0.283543	0.460225	0.333114	0.121329	0.047421	0.148689	0.206422	0.193588	0.070672	0.100697	0.091329	0.042644	0.035738	0.532867	0.292780	0.280243	0.274355	0.276008	0.480729	0.065406	0.045916	0.179567	0.132560	0.367322	0.293617	0.157708	0.355373	0.331709	0.329119	0.098358	0.078824	0.353718	0.219649	0.235109	0.138987	0.109685	0.046367	0.659433	0.384565	0.383680	0.832932	0.161841	0.365440	0.080274	0.099421	0.457458	0.736298	0.119052	0.206998	0.146084	0.251938	0.144009	0.051693	0.305106	0.374429	0.354727	0.576449	0.440126	0.311883	0.049653	0.062577
52	0.164440	0.223514	0.185331	0.091316	0.069902	0.117486	0.064809	0.058315	0.178648	0.137510	0.591844	0.302247	0.460772	0.333846	0.104584	0.054574	0.119179	0.212792	0.186960	0.067853	0.095871	0.148714	0.037225	0.033143	0.528488	0.283287	0.293131	0.289520	0.273519	0.490221	0.108568	0.049148	0.186611	0.138970	0.364861	0.279296	0.156848	0.351703	0.338487	0.329656	0.091541	0.119919	0.362780	0.251006	0.228305	0.135658	0.109370	0.046623	0.689045	0.410905	0.381891	0.829359	0.159821	0.358951	0.081101	0.100690	0.509129	0.772192	0.096022	0.190039	0.143387	0.254557	0.158670	0.053535	0.308937	0.370321	0.335800	0.581831	0.440529	0.295937	0.078233	0.087559
53	0.173578	0.217959	0.182861	0.089340	0.071365	0.116657	0.071838	0.061462	0.205621	0.149985	0.599501	0.304083	0.460337	0.340955	0.101867	0.057770	0.110303	0.271751	0.172990	0.066818	0.143930	0.213622	0.036695	0.029864	0.488228	0.256346	0.316837	0.296593	0.273225	0.494695	0.168626	0.069068	0.348043	0.212122	0.370773	0.259900	0.154779	0.295439	0.354103	0.339782	0.086206	0.286071	0.358950	0.263518	0.221183	0.140513	0.129142	0.052351	0.700511	0.413635	0.340580	0.831170	0.160726	0.350990	0.088496	0.099937	0.545048	0.777500	0.099547	0.172062	0.145008	0.262031	0.152814	0.057815	0.312214	0.376515	0.362756	0.563759	0.439220	0.283739	0.100086	0.168191
54	0.177049	0.219642	0.178743	0.090802	0.072502	0.117068	0.077482	0.066396	0.231158	0.162659	0.599908	0.342991	0.452611	0.331614	0.102251	0.061864	0.150989	0.301129	0.165977	0.068342	0.179663	0.216288	0.034794	0.027452	0.448678	0.244854	0.323573	0.294670	0.243596	0.489433	0.187011	0.152760	0.594919	0.300260	0.379732	0.242559	0.192801	0.199750	0.426737	0.357732	0.085669	0.465154	0.348110	0.266293	0.209554	0.178731	0.153532	0.062163	0.803163	0.444371	0.307538	0.818685	0.160364	0.336225	0.118543	0.100169	0.549058	0.777194	0.092204	0.153416	0.145404	0.237807	0.166721	0.160761	0.318439	0.376691	0.393244	0.530390	0.357777	0.237402	0.106344	0.261241
55	0.182630	0.210373	0.163011	0.082832	0.070036	0.115854	0.097060	0.071441	0.255796	0.177048	0.599006	0.442197	0.420366	0.281988	0.104244	0.067617	0.228574	0.324019	0.236933	0.070635	0.192507	0.217312	0.040828	0.029614	0.409715	0.241858	0.353627	0.305877	0.190113	0.486647	0.191101	0.202225	0.709005	0.337421	0.385303	0.232480	0.194447	0.191076	0.414107	0.362272	0.098066	0.487214	0.359314	0.266414	0.210557	0.184720	0.154646	0.069666	0.860568	0.480552	0.321707	0.721103	0.168542	0.317457	0.317327	0.222965	0.549178	0.778580	0.093726	0.136275	0.145218	0.225184	0.199562	0.376949	0.322640	0.383752	0.396296	0.520845	0.269139	0.214292	0.106478	0.314694
56	0.184877	0.221025	0.132289	0.074776	0.062889	0.126133	0.118107	0.072124	0.289058	0.183358	0.591403	0.516480	0.364535	0.262891	0.104123	0.076634	0.272695	0.364058	0.291793	0.119142	0.196947	0.225900	0.071137	0.038663	0.315771	0.224088	0.357936	0.385280	0.185589	0.486330	0.191229	0.210025	0.750824	0.347481	0.368532	0.229267	0.203020	0.189639	0.378679	0.363798	0.188306	0.556280	0.325257	0.278359	0.211966	0.207923	0.153099	0.082360	0.873711	0.511957	0.344140	0.574106	0.175536	0.300535	0.394807	0.407405	0.548797	0.787697	0.159264	0.122358	0.140890	0.227093	0.202614	0.527499	0.316074	0.381312	0.398808	0.519432	0.261995	0.214487	0.122769	0.322978
57	0.164870	0.188191	0.098002	0.052922	0.062814	0.141734	0.168362	0.073388	0.309435	0.182709	0.575161	0.532287	0.324691	0.290777	0.103892	0.099109	0.276513	0.373928	0.298426	0.372449	0.268349	0.262598	0.091279	0.045081	0.302858	0.224538	0.357331	0.455832	0.192394	0.502941	0.198895	0.213462	0.754253	0.362657	0.336813	0.224141	0.252012	0.209207	0.377136	0.365750	0.237100	0.643371	0.290247	0.354524	0.213934	0.212300	0.153544	0.093544	0.881788	0.526976	0.350160	0.506822	0.175198	0.292938	0.401804	0.530733	0.547849	0.794113	0.233266	0.125711	0.127198	0.224374	0.206037	0.576182	0.306577	0.383159	0.385431	0.515840	0.230007	0.210149	0.137536	0.323296
58	0.146147	0.171912	0.078030	0.052128	0.083058	0.141317	0.187626	0.104528	0.311780	0.184429	0.553479	0.523835	0.318393	0.276974	0.112622	0.120070	0.307115	0.389363	0.294829	0.613692	0.323794	0.274458	0.105259	0.044837	0.308804	0.258652	0.359745	0.465978	0.208595	0.506072	0.207626	0.214961	0.916192	0.465039	0.305631	0.230847	0.297728	0.213172	0.368005	0.365968	0.240296	0.647071	0.288897	0.409591	0.217918	0.211535	0.153822	0.097620	0.889476	0.529961	0.315050	0.506526	0.170021	0.279370	0.446683	0.597021	0.549516	0.795198	0.254993	0.173721	0.135024	0.226277	0.219733	0.582209	0.312377	0.390887	0.471942	0.507301	0.213656	0.206559	0.138223	0.324025
59	0.128997	0.166681	0.076141	0.054622	0.103613	0.151826	0.215557	0.223217	0.327236	0.202739	0.532818	0.531673	0.280456	0.250087	0.168217	0.164545	0.333420	0.416817	0.305507	0.740315	0.329416	0.274929	0.116273	0.045850	0.306715	0.265966	0.359722	0.476250	0.210730	0.478569	0.241489	0.217387	1.057665	0.513934	0.298246	0.296057	0.323105	0.212417	0.356575	0.371256	0.244094	0.645587	0.308843	0.422424	0.213534	0.207346	0.155291	0.100115	0.899851	0.531935	0.309190	0.493907	0.167374	0.266223	0.498186	0.627325	0.551437	0.798556	0.258896	0.253643	0.150211	0.229902	0.249030	0.589510	0.313083	0.388343	0.649519	0.469844	0.211661	0.206021	0.143927	0.335367
60	0.121102	0.158046	0.075688	0.055712	0.112176	0.173630	0.221268	0.346334	0.339588	0.220690	0.507178	0.563868	0.229224	0.245939	0.185263	0.240594	0.333184	0.421096	0.320746	0.802740	0.331550	0.275025	0.145526	0.047844	0.319692	0.267083	0.347918	0.481857	0.210849	0.482530	0.247704	0.217623	1.113041	0.521023	0.308473	0.421232	0.333976	0.209495	0.348982	0.382464	0.244914	0.645463	0.315338	0.423006	0.215179	0.206819	0.147172	0.103571	0.898562	0.531788	0.312277	0.463890	0.167764	0.234869	0.506092	0.628848	0.530488	0.753179	0.258344	0.355355	0.151456	0.230101	0.264604	0.619066	0.313656	0.347956	0.751939	0.484999	0.206659	0.221562	0.222457	0.359201
61	0.116277	0.130384	0.082974	0.054961	0.126020	0.180181	0.224047	0.441691	0.363783	0.228518	0.507285	0.600805	0.148402	0.239825	0.194744	0.284004	0.346271	0.452505	0.383328	0.824183	0.332007	0.274264	0.200432	0.050158	0.327061	0.271867	0.338830	0.479271	0.197707	0.435503	0.247432	0.221150	1.120957	0.521326	0.331035	0.512112	0.353843	0.201608	0.365280	0.341877	0.245226	0.647040	0.327639	0.415762	0.248010	0.216838	0.157106	0.103700	0.899039	0.533754	0.298294	0.430386	0.169532	0.231191	0.509730	0.633068	0.479991	0.664628	0.258530	0.406782	0.176990	0.248895	0.270807	0.667752	0.323538	0.305791	0.802508	0.546323	0.185863	0.257343	0.307560	0.374332
62	0.079558	0.115414	0.105581	0.054188	0.127342	0.176439	0.230627	0.508897	0.402738	0.231998	0.522577	0.625052	0.140693	0.238279	0.197534	0.287404	0.371340	0.470824	0.527947	0.826231	0.331615	0.278302	0.225074	0.055295	0.300741	0.270603	0.415034	0.486088	0.181643	0.363490	0.260628	0.223271	1.132006	0.524428	0.345170	0.554936	0.352406	0.187530	0.395603	0.252112	0.244883	0.649456	0.343075	0.421244	0.277391	0.222549	0.187917	0.142905	0.896951	0.530165	0.288734	0.388357	0.164122	0.226043	0.510960	0.649781	0.392913	0.594823	0.259749	0.415362	0.229945	0.284821	0.293386	0.709001	0.338935	0.304648	0.839621	0.619066	0.161730	0.254020	0.340643	0.375249
63	0.060370	0.106748	0.113715	0.050805	0.128078	0.176866	0.233496	0.528283	0.416209	0.230963	0.528672	0.633905	0.119595	0.234332	0.203897	0.289580	0.380713	0.474044	0.694899	0.863719	0.333108	0.276192	0.265999	0.116890	0.251118	0.264873	0.431245	0.484500	0.181044	0.363098	0.307037	0.230863	1.146208	0.530192	0.353253	0.566037	0.351401	0.182407	0.398373	0.240076	0.251356	0.650547	0.359128	0.447832	0.262806	0.222561	0.202882	0.211893	0.867505	0.512918	0.283295	0.374972	0.157524	0.228768	0.516175	0.681589	0.374352	0.579874	0.295187	0.417071	0.247276	0.293956	0.305269	0.736331	0.340186	0.247823	0.858875	0.658709	0.166046	0.254426	0.342614	0.382396
64	0.056155	0.101694	0.113850	0.046928	0.131623	0.176503	0.249504	0.531545	0.433511	0.230184	0.523546	0.631625	0.082585	0.218032	0.288146	0.290111	0.380662	0.477264	0.751284	0.943089	0.337012	0.284677	0.308833	0.245302	0.238589	0.259809	0.406115	0.482998	0.155532	0.323720	0.345595	0.236160	1.149314	0.533429	0.402405	0.566910	0.354317	0.189870	0.395595	0.235450	0.301099	0.664111	0.353541	0.473445	0.240180	0.237201	0.208300	0.238275	0.787682	0.474218	0.281758	0.395857	0.159361	0.248020	0.517440	0.729058	0.370446	0.483753	0.375659	0.452008	0.244564	0.290587	0.334648	0.745894	0.342437	0.221504	0.861048	0.641871	0.170721	0.247777	0.356552	0.398321
65	0.030365	0.033283	0.125446	0.042585	0.148362	0.187200	0.364692	0.563119	0.435653	0.229845	0.498671	0.625087	0.082885	0.217002	0.388922	0.293326	0.385413	0.477210	0.762701	1.057374	0.338556	0.281764	0.324585	0.300022	0.238122	0.245290	0.397273	0.498773	0.140836	0.287378	0.347379	0.237929	1.150157	0.535388	0.459208	0.578580	0.365260	0.198507	0.340856	0.211096	0.344816	0.678757	0.339890	0.483708	0.279608	0.268892	0.259381	0.238944	0.690287	0.431835	0.354280	0.453198	0.173997	0.270446	0.523755	0.772442	0.364397	0.425262	0.391947	0.488234	0.233387	0.249754	0.336097	0.747722	0.317044	0.218277	0.900763	0.620559	0.171467	0.253386	0.369977	0.400453
66	0.039129	0.037361	0.183779	0.047138	0.170378	0.204019	0.534159	0.611192	0.436219	0.229839	0.522499	0.613875	0.110714	0.229645	0.424059	0.304089	0.402729	0.474836	0.765689	1.153191	0.329228	0.232161	0.326568	0.304703	0.227330	0.243984	0.426882	0.518925	0.137388	0.273764	0.345514	0.265130	1.150156	0.535488	0.482404	0.606588	0.383084	0.191482	0.264463	0.189375	0.363362	0.672406	0.338346	0.484037	0.331976	0.261362	0.267806	0.247402	0.620967	0.389823	0.481833	0.476757	0.181658	0.270728	0.526249	0.816443	0.371577	0.383567	0.392217	0.505984	0.230912	0.241330	0.318652	0.747834	0.293686	0.216154	0.956509	0.614397	0.179121	0.245342	0.373756	0.400232
67	0.069238	0.046680	0.197858	0.168650	0.171032	0.204512	0.604096	0.671689	0.434945	0.228279	0.518579	0.618958	0.143637	0.233927	0.432260	0.332312	0.450025	0.452534	0.766596	1.215053	0.304207	0.207365	0.332043	0.312767	0.223037	0.251265	0.417015	0.533798	0.139476	0.281895	0.327952	0.304863	1.146134	0.530581	0.493433	0.634075	0.383948	0.191037	0.270694	0.190092	0.363672	0.619866	0.352755	0.479530	0.335240	0.259186	0.268364	0.251760	0.606185	0.375372	0.538554	0.490802	0.181513	0.267173	0.528625	0.845660	0.366885	0.322305	0.398027	0.513355	0.231506	0.227263	0.315110	0.747908	0.314770	0.212471	0.963785	0.624003	0.183549	0.236404	0.412086	0.389154
68	0.075472	0.054557	0.214085	0.417019	0.171697	0.203963	0.617424	0.694345	0.428329	0.221099	0.544144	0.715913	0.156930	0.232349	0.460250	0.370411	0.557906	0.434599	0.768901	1.259538	0.290366	0.205229	0.332712	0.340165	0.253660	0.282435	0.411496	0.539840	0.141020	0.292285	0.318864	0.303964	1.088920	0.500012	0.506537	0.660981	0.382919	0.184522	0.268800	0.187395	0.367309	0.515408	0.353688	0.485186	0.337060	0.248559	0.269173	0.313686	0.574894	0.373262	0.551873	0.488238	0.177230	0.266762	0.529327	0.856652	0.368271	0.329288	0.419142	0.514499	0.236471	0.226601	0.333269	0.741958	0.326226	0.205004	0.955994	0.646085	0.172039	0.230139	0.469227	0.347282
69	0.094846	0.084808	0.226684	0.463662	0.172428	0.203661	0.616076	0.697825	0.408773	0.203434	0.640997	0.871010	0.157648	0.237254	0.524884	0.403213	0.643025	0.458305	0.771296	1.291664	0.282403	0.201903	0.331154	0.362088	0.372944	0.329260	0.416018	0.536491	0.135697	0.279135	0.318149	0.287873	0.984635	0.461102	0.508145	0.682235	0.355715	0.159555	0.265823	0.189534	0.394000	0.510375	0.341657	0.497571	0.336594	0.245096	0.270457	0.460885	0.408026	0.333082	0.565657	0.487136	0.162024	0.253894	0.465781	0.847808	0.420487	0.367752	0.432542	0.516656	0.241084	0.235397	0.332619	0.680402	0.323927	0.196482	0.981486	0.672668	0.162522	0.233074	0.516588	0.289616
70	0.121237	0.117852	0.232736	0.507362	0.175389	0.202760	0.648953	0.697762	0.386315	0.189624	0.727569	0.950079	0.156257	0.219812	0.587172	0.405060	0.672533	0.437794	0.765168	1.307278	0.280449	0.185227	0.344509	0.376625	0.546020	0.376396	0.418286	0.488320	0.139967	0.295528	0.319661	0.287742	0.928878	0.465022	0.505705	0.694396	0.349528	0.165997	0.267038	0.191108	0.359641	0.410287	0.337268	0.490770	0.350095	0.249092	0.304422	0.523412	0.326280	0.282009	0.568124	0.508380	0.139181	0.195326	0.379333	0.784286	0.441514	0.376812	0.435588	0.516969	0.251194	0.293941	0.324706	0.562215	0.321402	0.193475	1.037700	0.720706	0.182684	0.235369	0.522493	0.293586
71	0.130510	0.128197	0.300580	0.607986	0.177590	0.193414	0.715239	0.698133	0.369560	0.179129	0.761759	0.932406	0.154838	0.218043	0.619801	0.407641	0.679209	0.406897	0.815622	1.299852	0.193342	0.165031	0.367737	0.389266	0.707273	0.399433	0.429188	0.436232	0.129929	0.273245	0.317882	0.294210	0.938341	0.502962	0.518135	0.699317	0.339968	0.170827	0.277363	0.175167	0.337068	0.288698	0.339819	0.436895	0.383633	0.270815	0.337868	0.528130	0.307197	0.231842	0.554865	0.536940	0.136120	0.193185	0.366807	0.702367	0.445077	0.363823	0.427617	0.517803	0.252645	0.299485	0.323456	0.491894	0.363141	0.202486	1.063781	0.790653	0.200390	0.223370	0.517460	0.345485
72	0.159908	0.137224	0.312357	0.642783	0.173087	0.190042	0.746576	0.696308	0.352397	0.177814	0.771176	0.888831	0.156413	0.217913	0.620117	0.408459	0.677426	0.408203	0.936847	1.237271	0.200493	0.184251	0.380481	0.399799	0.788377	0.385506	0.428543	0.420129	0.107852	0.270689	0.309389	0.297693	0.950321	0.499790	0.545527	0.700957	0.328380	0.207879	0.272837	0.141958	0.335531	0.282467	0.336105	0.397506	0.376739	0.268095	0.344925	0.553612	0.290189	0.212610	0.572849	0.564349	0.136134	0.195142	0.357809	0.639656	0.487546	0.377080	0.411728	0.518167	0.258799	0.313583	0.318517	0.477316	0.414579	0.194384	1.075315	0.840092	0.213725	0.217874	0.517091	0.406291
73	0.194278	0.152478	0.316636	0.646172	0.158618	0.183475	0.750453	0.678514	0.351180	0.196536	0.790379	0.884075	0.158052	0.215803	0.607957	0.385469	0.675958	0.383676	1.078912	1.169042	0.201901	0.186104	0.381518	0.402888	0.798718	0.384614	0.448154	0.402267	0.110245	0.268490	0.286617	0.303257	0.756644	0.407080	0.564425	0.694646	0.314775	0.216366	0.216249	0.103187	0.335050	0.282607	0.328827	0.387638	0.355136	0.258921	0.385201	0.623239	0.250996	0.202159	0.598289	0.591015	0.135419	0.195173	0.282046	0.608985	0.568722	0.401128	0.412810	0.507895	0.258991	0.330498	0.305323	0.474513	0.480224	0.192569	1.008841	0.859950	0.241144	0.217839	0.519670	0.438901
74	0.200422	0.154420	0.347713	0.647254	0.151290	0.167188	0.764459	0.631423	0.352640	0.202005	0.836714	0.913135	0.167005	0.220848	0.611990	0.340795	0.694423	0.363271	1.245892	1.149370	0.200317	0.189792	0.358231	0.403373	0.855434	0.414740	0.474225	0.396843	0.112187	0.256655	0.296484	0.311113	0.594640	0.371346	0.555824	0.651919	0.314983	0.213357	0.168350	0.093193	0.335633	0.281227	0.327553	0.390426	0.327433	0.253778	0.390659	0.672954	0.203723	0.193565	0.601629	0.605895	0.128687	0.195511	0.247667	0.616708	0.601612	0.389685	0.423676	0.482463	0.261356	0.337362	0.293676	0.443919	0.520290	0.193655	0.892474	0.855776	0.283616	0.214006	0.504999	0.439216
75	0.199483	0.152548	0.418288	0.667879	0.146746	0.137705	0.769817	0.570794	0.344994	0.194860	0.853335	0.941426	0.176205	0.225347	0.614803	0.329743	0.735147	0.370867	1.367638	1.165116	0.200318	0.186571	0.350496	0.423013	1.032614	0.460601	0.486471	0.394868	0.112321	0.257739	0.307663	0.312643	0.535894	0.433971	0.541835	0.573875	0.312070	0.214803	0.214455	0.153545	0.336503	0.280257	0.332712	0.383531	0.328051	0.262799	0.386167	0.687771	0.194380	0.192698	0.601231	0.589574	0.119761	0.206062	0.249499	0.626463	0.598302	0.380363	0.439429	0.415065	0.260222	0.353615	0.292228	0.376511	0.540323	0.210945	0.824268	0.808541	0.289806	0.171723	0.462032	0.430848
76	0.193942	0.163987	0.429095	0.677617	0.151062	0.138227	0.769076	0.506021	0.347509	0.207321	0.853843	0.947792	0.178560	0.220795	0.622182	0.332651	0.756621	0.371606	1.404683	1.199207	0.200202	0.183213	0.347014	0.473053	1.138541	0.484664	0.422480	0.392253	0.124595	0.263400	0.294035	0.311495	0.550180	0.451419	0.530172	0.527746	0.296874	0.196309	0.269696	0.280267	0.338640	0.306116	0.406519	0.353295	0.336893	0.256284	0.385259	0.690855	0.187102	0.188212	0.608632	0.573156	0.117647	0.211092	0.255168	0.616880	0.598109	0.376258	0.443544	0.352938	0.227164	0.333820	0.274572	0.281136	0.624837	0.246320	0.790870	0.741689	0.286463	0.164952	0.432493	0.430331
77	0.189314	0.296104	0.420998	0.598730	0.157756	0.136654	0.771983	0.476640	0.349475	0.222390	0.855177	0.935789	0.178517	0.212790	0.620375	0.333664	0.790558	0.400458	1.350675	1.238252	0.193763	0.177175	0.308965	0.488034	1.168110	0.490647	0.400810	0.405154	0.150657	0.284874	0.244868	0.305391	0.522387	0.447104	0.525548	0.533336	0.246027	0.188729	0.272524	0.326902	0.332169	0.317328	0.472403	0.341167	0.315611	0.222651	0.349784	0.693153	0.186634	0.183337	0.610707	0.565613	0.113838	0.210963	0.248437	0.587504	0.599207	0.374932	0.443521	0.331425	0.205649	0.322784	0.266964	0.190937	0.623932	0.243432	0.796039	0.689555	0.286335	0.193786	0.431372	0.427655
78	0.198512	0.326220	0.416758	0.514751	0.162243	0.146328	0.774411	0.476416	0.332613	0.233596	0.846970	0.921230	0.178820	0.213082	0.574353	0.334569	0.812056	0.413796	1.352324	1.242056	0.189228	0.166917	0.281574	0.463425	1.174339	0.493618	0.400393	0.404361	0.163706	0.331929	0.194871	0.306934	0.498723	0.443631	0.515482	0.558677	0.250656	0.279930	0.286549	0.332325	0.303333	0.301179	0.496174	0.393453	0.262890	0.199135	0.330255	0.690730	0.187494	0.172399	0.610178	0.548059	0.107775	0.190981	0.269550	0.531032	0.599113	0.368793	0.430686	0.329389	0.230599	0.333983	0.229709	0.127531	0.611117	0.238518	0.861755	0.683691	0.328361	0.257314	0.428767	0.411939
79	0.190781	0.338494	0.420543	0.515792	0.165225	0.174499	0.745412	0.450417	0.342068	0.252971	0.839280	0.914811	0.173162	0.205707	0.532709	0.331352	0.823181	0.412899	1.461895	1.202092	0.188368	0.167469	0.273927	0.452474	1.178856	0.495518	0.419352	0.387617	0.166607	0.343966	0.192619	0.310796	0.492530	0.440025	0.461862	0.560310	0.250128	0.469050	0.285497	0.369122	0.272732	0.291070	0.497408	0.426755	0.258405	0.196402	0.330374	0.688574	0.189779	0.162206	0.599697	0.516254	0.082099	0.158928	0.278279	0.466735	0.597856	0.364667	0.376333	0.285913	0.242897	0.337259	0.212235	0.114136	0.610892	0.241285	0.902049	0.709303	0.358186	0.256485	0.415453	0.405889
80	0.212986	0.413275	0.428118	0.417016	0.137347	0.149356	0.644942	0.389675	0.348267	0.262833	0.835549	0.915760	0.155940	0.185442	0.529000	0.312457	0.825146	0.412394	1.552430	1.112950	0.195453	0.171477	0.271317	0.459560	1.180300	0.494671	0.409155	0.359358	0.187615	0.451821	0.177580	0.289929	0.490970	0.441734	0.399342	0.546107	0.232698	0.508199	0.337191	0.399864	0.254364	0.285714	0.494938	0.432395	0.255789	0.185332	0.330568	0.666895	0.189766	0.156933	0.538289	0.471161	0.055757	0.152451	0.276999	0.388648	0.597617	0.364001	0.357157	0.208341	0.243456	0.337510	0.211674	0.116636	0.607726	0.240994	0.848036	0.734251	0.360239	0.256648	0.412756	0.408401
81	0.208677	0.429603	0.416150	0.315224	0.165715	0.205622	0.553027	0.274469	0.355243	0.265249	0.847695	0.916652	0.136302	0.170955	0.511225	0.271084	0.816382	0.406524	1.613610	1.030473	0.218456	0.187450	0.286365	0.468163	1.179493	0.491176	0.405412	0.336323	0.196882	0.508226	0.195557	0.244551	0.491267	0.444128	0.372819	0.515216	0.228774	0.570501	0.349205	0.411985	0.255883	0.259794	0.479231	0.434278	0.255471	0.183777	0.351731	0.575124	0.189361	0.155961	0.431650	0.454022	0.055216	0.156093	0.268831	0.308611	0.583572	0.356099	0.364300	0.148518	0.242948	0.339853	0.211709	0.122523	0.593784	0.239045	0.798661	0.750546	0.359309	0.267063	0.383464	0.405802
82	0.174594	0.434013	0.437536	0.294901	0.193866	0.232566	0.526413	0.164273	0.357776	0.266455	0.835670	0.917406	0.132226	0.162563	0.472394	0.211101	0.780456	0.395368	1.684492	0.963879	0.221425	0.188408	0.318969	0.472435	1.170630	0.474284	0.406983	0.332261	0.201969	0.503949	0.216735	0.209363	0.488318	0.444517	0.352721	0.475374	0.218200	0.571292	0.346288	0.416249	0.252907	0.250428	0.489158	0.427372	0.237626	0.173257	0.359941	0.511850	0.170603	0.141579	0.385808	0.439609	0.054683	0.157520	0.269948	0.266317	0.556343	0.340936	0.374654	0.111058	0.260218	0.345107	0.196365	0.130154	0.579171	0.237405	0.793045	0.741481	0.361405	0.359060	0.312071	0.403846
83	0.168680	0.434699	0.445324	0.298510	0.192806	0.233203	0.523551	0.136710	0.366853	0.277850	0.804255	0.913007	0.131660	0.158038	0.387811	0.174151	0.698260	0.364467	1.717883	0.911976	0.217476	0.189792	0.332295	0.480071	1.132846	0.431600	0.378678	0.331442	0.219013	0.510958	0.222649	0.200145	0.477412	0.441164	0.339021	0.428643	0.224786	0.563480	0.346778	0.417700	0.199683	0.235542	0.530895	0.425987	0.176570	0.137143	0.338714	0.507505	0.148839	0.121630	0.363440	0.439193	0.053784	0.160016	0.281331	0.272112	0.510970	0.312771	0.358850	0.107231	0.286200	0.341247	0.136599	0.137275	0.576795	0.241988	0.782523	0.722731	0.360190	0.440164	0.213359	0.407690
84	0.175131	0.435690	0.371236	0.284424	0.195848	0.235798	0.501856	0.133475	0.383348	0.286895	0.800353	0.855596	0.131219	0.118663	0.320762	0.188056	0.617271	0.335533	1.721663	0.902155	0.205998	0.178662	0.304145	0.479598	1.051491	0.378405	0.375308	0.336136	0.222214	0.501531	0.226307	0.194004	0.457819	0.430494	0.333022	0.394176	0.225905	0.578667	0.350323	0.418497	0.196441	0.238119	0.534025	0.427001	0.169765	0.111446	0.332374	0.487144	0.141517	0.113485	0.331419	0.425508	0.053966	0.160082	0.291400	0.295033	0.457130	0.262860	0.346850	0.094979	0.278730	0.293879	0.133603	0.139339	0.606850	0.256604	0.745815	0.699639	0.356332	0.446252	0.167202	0.401956
85	0.183018	0.443828	0.307911	0.231519	0.195868	0.234510	0.391999	0.136264	0.392711	0.289961	0.733780	0.702675	0.130388	0.104817	0.293400	0.187579	0.572155	0.336659	1.711405	0.936066	0.201209	0.164116	0.274412	0.474660	0.953904	0.347702	0.359705	0.337845	0.222234	0.494894	0.230024	0.180432	0.420914	0.387989	0.334563	0.374686	0.233342	0.605615	0.349492	0.418447	0.199743	0.242161	0.538094	0.424232	0.172100	0.112108	0.276028	0.402431	0.120420	0.101909	0.324284	0.392587	0.064173	0.190043	0.298070	0.314134	0.429289	0.235372	0.352869	0.144069	0.277287	0.275814	0.132526	0.137186	0.618516	0.260025	0.706883	0.643403	0.362428	0.539566	0.165944	0.369943
86	0.189226	0.402278	0.298454	0.217537	0.193215	0.232784	0.282828	0.142313	0.395159	0.289672	0.636596	0.548012	0.132622	0.105412	0.298619	0.190129	0.561547	0.332071	1.670124	0.980828	0.188707	0.159309	0.262467	0.470115	0.897986	0.345688	0.380207	0.332384	0.224137	0.490307	0.240139	0.173447	0.338128	0.337180	0.311644	0.366165	0.313189	0.613411	0.342423	0.413385	0.196866	0.243791	0.558574	0.422980	0.167053	0.138585	0.242420	0.300431	0.088468	0.083844	0.307882	0.350884	0.115662	0.268958	0.271971	0.318318	0.428258	0.236242	0.361064	0.207862	0.270554	0.263443	0.122965	0.130914	0.586819	0.250407	0.692489	0.556902	0.354622	0.564807	0.165512	0.306909
87	0.185695	0.354437	0.301138	0.209934	0.192385	0.232218	0.245015	0.148796	0.397049	0.289139	0.580910	0.498528	0.134667	0.102208	0.293455	0.210256	0.559155	0.327620	1.600268	1.006910	0.191259	0.159538	0.260792	0.469235	0.893422	0.341800	0.403176	0.337694	0.220373	0.488569	0.250063	0.160942	0.262807	0.305531	0.278652	0.364197	0.405224	0.622321	0.294679	0.367590	0.191057	0.243698	0.590910	0.425911	0.148210	0.152851	0.237491	0.212997	0.087686	0.078696	0.238967	0.299280	0.164899	0.358481	0.291203	0.303648	0.398007	0.199643	0.345814	0.224012	0.259758	0.241503	0.110728	0.125532	0.547840	0.248171	0.665865	0.487140	0.341817	0.571282	0.158721	0.243047
88	0.171036	0.314706	0.300774	0.174016	0.191930	0.231910	0.191238	0.145426	0.399951	0.291112	0.565934	0.503282	0.130269	0.093091	0.276995	0.222033	0.539094	0.329852	1.500720	1.004358	0.228855	0.176848	0.256332	0.463889	0.815308	0.299020	0.379364	0.340525	0.218812	0.487833	0.249595	0.166972	0.240482	0.302108	0.275165	0.364126	0.487987	0.629979	0.274403	0.288730	0.190452	0.242652	0.606617	0.456332	0.126113	0.148461	0.235585	0.163945	0.087504	0.076375	0.182848	0.227994	0.193842	0.373946	0.302195	0.278435	0.289112	0.134634	0.328011	0.225808	0.251070	0.231699	0.084457	0.124872	0.489494	0.257196	0.669618	0.455610	0.307599	0.580108	0.145081	0.200284
89	0.158766	0.295709	0.266372	0.138522	0.189157	0.230599	0.142269	0.146189	0.385803	0.282662	0.551045	0.487111	0.128197	0.082127	0.262410	0.220539	0.504484	0.331980	1.386072	0.964148	0.255450	0.180136	0.230781	0.429661	0.558186	0.215181	0.359369	0.345068	0.218462	0.486243	0.240841	0.196570	0.238635	0.281026	0.276146	0.364056	0.541755	0.623830	0.260190	0.274501	0.194931	0.239619	0.593639	0.517270	0.104049	0.145270	0.238008	0.150151	0.087693	0.067255	0.176772	0.152052	0.198503	0.480273	0.298003	0.252373	0.155676	0.123682	0.315657	0.222863	0.250514	0.357783	0.079342	0.124312	0.484807	0.268701	0.681672	0.453577	0.282630	0.580076	0.132854	0.180917
90	0.141948	0.255180	0.217433	0.114223	0.183775	0.229615	0.140197	0.148547	0.376042	0.274876	0.488390	0.434125	0.125361	0.092971	0.237024	0.216043	0.458482	0.314573	1.320797	0.906650	0.264656	0.181774	0.219966	0.364391	0.338485	0.158657	0.390875	0.343507	0.208213	0.472936	0.238602	0.219011	0.167690	0.149475	0.289527	0.357826	0.541895	0.535327	0.244283	0.244456	0.199276	0.198247	0.528395	0.566804	0.084691	0.154044	0.238318	0.146418	0.103407	0.056984	0.174723	0.100008	0.203594	0.523878	0.292204	0.240414	0.147168	0.137626	0.288432	0.230919	0.237171	0.443701	0.065883	0.121669	0.446440	0.252227	0.684270	0.456385	0.284061	0.577442	0.117237	0.173176
91	0.148560	0.399262	0.161482	0.110474	0.179532	0.229872	0.120533	0.139815	0.376089	0.272778	0.442657	0.377097	0.124417	0.234772	0.223727	0.217413	0.395301	0.267766	1.328156	0.852753	0.266315	0.178243	0.220628	0.319538	0.237609	0.139746	0.445746	0.329820	0.191406	0.454415	0.236214	0.221299	0.096041	0.132757	0.291981	0.330042	0.548289	0.434463	0.205057	0.174516	0.196385	0.182709	0.456491	0.577163	0.104654	0.240439	0.235591	0.144233	0.113799	0.056731	0.148866	0.084832	0.222944	0.521717	0.287010	0.241043	0.139334	0.158176	0.290768	0.241125	0.246080	0.456244	0.042754	0.117852	0.346075	0.222942	0.662621	0.458491	0.285267	0.579395	0.100987	0.171145
92	0.157590	0.410476	0.103702	0.107581	0.174562	0.227883	0.088974	0.130405	0.365392	0.251606	0.499448	0.330058	0.123923	0.457276	0.260351	0.221756	0.313324	0.220487	1.329431	0.810676	0.268088	0.177056	0.222183	0.312363	0.220406	0.138781	0.501170	0.312051	0.187784	0.424864	0.241002	0.213430	0.092304	0.127958	0.291603	0.249925	0.563136	0.405704	0.120219	0.118582	0.183476	0.164852	0.435264	0.523937	0.289994	0.372537	0.234892	0.144719	0.111958	0.056977	0.142395	0.090689	0.235166	0.523821	0.273390	0.241229	0.141384	0.165004	0.292956	0.260882	0.284647	0.585375	0.041022	0.111098	0.342021	0.220866	0.601480	0.441606	0.249303	0.590169	0.086231	0.171363
93	0.162799	0.451506	0.082125	0.083091	0.163124	0.203691	0.074199	0.127238	0.346237	0.226081	0.514175	0.342707	0.123538	0.499318	0.284448	0.223136	0.256968	0.209415	1.233247	0.779877	0.270028	0.174908	0.224481	0.315622	0.265581	0.178212	0.488521	0.287518	0.183242	0.410247	0.263345	0.204129	0.083463	0.118813	0.300068	0.195441	0.683456	0.373497	0.143941	0.079680	0.190939	0.167333	0.436282	0.484603	0.432154	0.411141	0.204404	0.145049	0.110551	0.057499	0.139294	0.093183	0.240733	0.526149	0.239964	0.236942	0.144594	0.164509	0.305512	0.282597	0.276219	0.592836	0.041162	0.103520	0.357720	0.220312	0.477664	0.397275	0.185915	0.608477	0.067257	0.168944
94	0.163601	0.451038	0.086532	0.056750	0.160151	0.205038	0.079320	0.127181	0.325509	0.208264	0.524826	0.435046	0.180949	0.622077	0.285896	0.224060	0.226462	0.209197	1.077297	0.748236	0.253651	0.156199	0.213683	0.293091	0.330653	0.203310	0.484148	0.263777	0.159780	0.266932	0.294498	0.196324	0.083426	0.118817	0.320190	0.191576	0.766774	0.378288	0.173813	0.057901	0.202599	0.180698	0.432119	0.470982	0.449865	0.419139	0.135316	0.142395	0.106658	0.068930	0.138921	0.092056	0.240167	0.527255	0.236002	0.228292	0.144531	0.164959	0.300709	0.291519	0.289394	0.595657	0.041063	0.096461	0.363999	0.216655	0.426421	0.346425	0.169154	0.639802	0.053890	0.162818
95	0.152574	0.448714	0.090736	0.047911	0.144602	0.188862	0.085738	0.127105	0.297310	0.184555	0.551167	0.487546	0.198688	0.739833	0.293895	0.227022	0.217286	0.210021	0.962820	0.729850	0.249252	0.153599	0.173238	0.252843	0.368905	0.203437	0.498075	0.261258	0.146574	0.146437	0.303572	0.190400	0.085568	0.105016	0.329084	0.174627	0.781905	0.374317	0.197742	0.062073	0.212851	0.190473	0.432126	0.470178	0.450763	0.497090	0.088234	0.132070	0.105470	0.077762	0.136588	0.091089	0.239263	0.531861	0.235613	0.223585	0.143542	0.175539	0.303275	0.292668	0.291348	0.599502	0.041258	0.086379	0.364296	0.214787	0.434677	0.287505	0.159828	0.670428	0.045417	0.152770
96	0.152124	0.460315	0.088262	0.049644	0.081612	0.119951	0.091473	0.125437	0.268669	0.167514	0.608476	0.491350	0.216404	0.743263	0.295542	0.227475	0.236036	0.219450	0.856071	0.724233	0.247002	0.149099	0.101072	0.203189	0.372923	0.202207	0.494658	0.272365	0.145047	0.141148	0.294237	0.187106	0.097183	0.101456	0.330363	0.157634	0.783605	0.293354	0.194377	0.064534	0.238633	0.208546	0.408861	0.466837	0.584866	0.568513	0.084960	0.116297	0.107369	0.088871	0.156812	0.088496	0.239508	0.532965	0.233042	0.220557	0.142424	0.181362	0.342618	0.292380	0.281891	0.604220	0.040521	0.071644	0.365711	0.215837	0.439138	0.240386	0.155852	0.644401	0.040609	0.139221
97	0.151708	0.460229	0.071225	0.051757	0.076154	0.121332	0.094886	0.123244	0.244936	0.162051	0.678788	0.489335	0.240966	0.746724	0.286861	0.218874	0.248175	0.221502	0.754331	0.734908	0.243870	0.142808	0.074796	0.163855	0.408289	0.233703	0.494484	0.269374	0.119784	0.117332	0.288798	0.186332	0.139382	0.101390	0.368880	0.157250	0.776839	0.282221	0.192859	0.068527	0.324060	0.235164	0.364461	0.456171	0.711490	0.603251	0.086863	0.098407	0.124040	0.096707	0.204056	0.127878	0.239848	0.532461	0.219896	0.205566	0.141725	0.184300	0.376575	0.292100	0.251799	0.602480	0.039272	0.054278	0.373313	0.220470	0.440571	0.231458	0.153049	0.605764	0.037871	0.124147
98	0.147713	0.450038	0.065139	0.051737	0.067155	0.115047	0.096007	0.120121	0.239934	0.161507	0.697495	0.500715	0.246062	0.746740	0.279376	0.196557	0.245999	0.211744	0.723796	0.739244	0.219790	0.126433	0.077189	0.141874	0.455729	0.274698	0.494000	0.243957	0.113562	0.116028	0.285019	0.185431	0.181777	0.098839	0.394316	0.157063	0.735532	0.257685	0.219065	0.076096	0.478454	0.261262	0.359360	0.457862	0.766009	0.607611	0.079141	0.077026	0.125756	0.095766	0.259484	0.167518	0.239814	0.532211	0.200264	0.172097	0.144137	0.202941	0.414986	0.292856	0.271031	0.602994	0.040103	0.040351	0.388503	0.223880	0.432738	0.222004	0.162233	0.626555	0.035265	0.108845
99	0.143356	0.434366	0.061106	0.051338	0.069027	0.115651	0.094794	0.115608	0.238442	0.146385	0.741842	0.536144	0.245755	0.747761	0.271533	0.177283	0.246696	0.204110	0.718325	0.695696	0.207487	0.133603	0.076967	0.133643	0.545394	0.307767	0.497195	0.228369	0.107521	0.118197	0.280737	0.185146	0.184302	0.124989	0.398553	0.173929	0.689850	0.234391	0.293003	0.076845	0.630478	0.280115	0.353080	0.464840	0.780686	0.603363	0.066367	0.056359	0.128262	0.092398	0.281495	0.178286	0.239668	0.526816	0.182429	0.130404	0.153172	0.223775	0.431656	0.295152	0.297600	0.603390	0.040360	0.030760	0.411985	0.215539	0.380597	0.204450	0.128855	0.613378	0.036077	0.093773
100	0.142536	0.355832	0.058863	0.051340	0.100327	0.143204	0.094270	0.108012	0.220135	0.121916	0.785643	0.560665	0.243105	0.747945	0.267642	0.152158	0.262007	0.199040	0.720079	0.626220	0.201720	0.238613	0.077349	0.134254	0.547217	0.308840	0.484404	0.226900	0.102244	0.118699	0.274943	0.185950	0.218131	0.167805	0.404181	0.183997	0.630174	0.225484	0.303107	0.097695	0.689407	0.283390	0.308726	0.467611	0.781192	0.602902	0.069300	0.042967	0.165573	0.090474	0.278352	0.178408	0.224695	0.505055	0.179559	0.103000	0.158842	0.228321	0.421619	0.285601	0.315447	0.603781	0.040642	0.027567	0.466628	0.215245	0.312939	0.196006	0.117176	0.577633	0.037917	0.080481
101	0.135240	0.259379	0.057868	0.045453	0.124458	0.149164	0.094055	0.096588	0.214050	0.125820	0.787726	0.566576	0.238086	0.747230	0.268206	0.124148	0.275715	0.195129	0.719821	0.555763	0.192178	0.274416	0.075378	0.133462	0.557074	0.352949	0.454786	0.226622	0.102168	0.118674	0.264578	0.184299	0.376933	0.249309	0.412442	0.189167	0.608877	0.224970	0.306190	0.137165	0.690085	0.286882	0.214563	0.464430	0.782318	0.603187	0.064074	0.036144	0.192037	0.090744	0.277744	0.183174	0.195487	0.458637	0.134431	0.101438	0.155341	0.224850	0.412176	0.254566	0.322952	0.605507	0.044353	0.027474	0.476546	0.212551	0.297435	0.183409	0.115953	0.577780	0.038148	0.068209
