	160_P_T1_sh_R_D_A_01.c3d	160_P_T1_sh_R_D_A_01.c3d	160_P_T1_sh_R_D_A_01.c3d	160_P_T1_sh_R_D_A_01.c3d	160_P_T1_sh_R_D_A_01.c3d	160_P_T1_sh_R_D_A_01.c3d	160_P_T1_sh_R_D_A_01.c3d	160_P_T1_sh_R_D_A_01.c3d	160_P_T1_sh_R_D_A_02.c3d	160_P_T1_sh_R_D_A_02.c3d	160_P_T1_sh_R_D_A_02.c3d	160_P_T1_sh_R_D_A_02.c3d	160_P_T1_sh_R_D_A_02.c3d	160_P_T1_sh_R_D_A_02.c3d	160_P_T1_sh_R_D_A_02.c3d	160_P_T1_sh_R_D_A_02.c3d	160_P_T1_sh_R_D_A_03.c3d	160_P_T1_sh_R_D_A_03.c3d	160_P_T1_sh_R_D_A_03.c3d	160_P_T1_sh_R_D_A_03.c3d	160_P_T1_sh_R_D_A_03.c3d	160_P_T1_sh_R_D_A_03.c3d	160_P_T1_sh_R_D_A_03.c3d	160_P_T1_sh_R_D_A_03.c3d	160_P_T1_sh_R_D_A_04.c3d	160_P_T1_sh_R_D_A_04.c3d	160_P_T1_sh_R_D_A_04.c3d	160_P_T1_sh_R_D_A_04.c3d	160_P_T1_sh_R_D_A_04.c3d	160_P_T1_sh_R_D_A_04.c3d	160_P_T1_sh_R_D_A_04.c3d	160_P_T1_sh_R_D_A_04.c3d	160_P_T1_sh_R_D_A_05.c3d	160_P_T1_sh_R_D_A_05.c3d	160_P_T1_sh_R_D_A_05.c3d	160_P_T1_sh_R_D_A_05.c3d	160_P_T1_sh_R_D_A_05.c3d	160_P_T1_sh_R_D_A_05.c3d	160_P_T1_sh_R_D_A_05.c3d	160_P_T1_sh_R_D_A_05.c3d	160_P_T1_sh_R_D_A_06.c3d	160_P_T1_sh_R_D_A_06.c3d	160_P_T1_sh_R_D_A_06.c3d	160_P_T1_sh_R_D_A_06.c3d	160_P_T1_sh_R_D_A_06.c3d	160_P_T1_sh_R_D_A_06.c3d	160_P_T1_sh_R_D_A_06.c3d	160_P_T1_sh_R_D_A_06.c3d	160_P_T1_sh_R_D_A_07.c3d	160_P_T1_sh_R_D_A_07.c3d	160_P_T1_sh_R_D_A_07.c3d	160_P_T1_sh_R_D_A_07.c3d	160_P_T1_sh_R_D_A_07.c3d	160_P_T1_sh_R_D_A_07.c3d	160_P_T1_sh_R_D_A_07.c3d	160_P_T1_sh_R_D_A_07.c3d	160_P_T1_sh_R_D_A_08.c3d	160_P_T1_sh_R_D_A_08.c3d	160_P_T1_sh_R_D_A_08.c3d	160_P_T1_sh_R_D_A_08.c3d	160_P_T1_sh_R_D_A_08.c3d	160_P_T1_sh_R_D_A_08.c3d	160_P_T1_sh_R_D_A_08.c3d	160_P_T1_sh_R_D_A_08.c3d	160_P_T1_sh_R_D_A_09.c3d	160_P_T1_sh_R_D_A_09.c3d	160_P_T1_sh_R_D_A_09.c3d	160_P_T1_sh_R_D_A_09.c3d	160_P_T1_sh_R_D_A_09.c3d	160_P_T1_sh_R_D_A_09.c3d	160_P_T1_sh_R_D_A_09.c3d	160_P_T1_sh_R_D_A_09.c3d	160_P_T1_sh_R_D_A_10.c3d	160_P_T1_sh_R_D_A_10.c3d	160_P_T1_sh_R_D_A_10.c3d	160_P_T1_sh_R_D_A_10.c3d	160_P_T1_sh_R_D_A_10.c3d	160_P_T1_sh_R_D_A_10.c3d	160_P_T1_sh_R_D_A_10.c3d	160_P_T1_sh_R_D_A_10.c3d
	Biceps femoris_lat	Semitendinosus_lat	Vastus lateralis_lat	Vastus medialis_lat	Biceps femoris_med	Semitendinosus_med	Vastus lateralis_med	Vastus medialis_med	Biceps femoris_lat	Semitendinosus_lat	Vastus lateralis_lat	Vastus medialis_lat	Biceps femoris_med	Semitendinosus_med	Vastus lateralis_med	Vastus medialis_med	Biceps femoris_lat	Semitendinosus_lat	Vastus lateralis_lat	Vastus medialis_lat	Biceps femoris_med	Semitendinosus_med	Vastus lateralis_med	Vastus medialis_med	Biceps femoris_lat	Semitendinosus_lat	Vastus lateralis_lat	Vastus medialis_lat	Biceps femoris_med	Semitendinosus_med	Vastus lateralis_med	Vastus medialis_med	Biceps femoris_lat	Semitendinosus_lat	Vastus lateralis_lat	Vastus medialis_lat	Biceps femoris_med	Semitendinosus_med	Vastus lateralis_med	Vastus medialis_med	Biceps femoris_lat	Semitendinosus_lat	Vastus lateralis_lat	Vastus medialis_lat	Biceps femoris_med	Semitendinosus_med	Vastus lateralis_med	Vastus medialis_med	Biceps femoris_lat	Semitendinosus_lat	Vastus lateralis_lat	Vastus medialis_lat	Biceps femoris_med	Semitendinosus_med	Vastus lateralis_med	Vastus medialis_med	Biceps femoris_lat	Semitendinosus_lat	Vastus lateralis_lat	Vastus medialis_lat	Biceps femoris_med	Semitendinosus_med	Vastus lateralis_med	Vastus medialis_med	Biceps femoris_lat	Semitendinosus_lat	Vastus lateralis_lat	Vastus medialis_lat	Biceps femoris_med	Semitendinosus_med	Vastus lateralis_med	Vastus medialis_med	Biceps femoris_lat	Semitendinosus_lat	Vastus lateralis_lat	Vastus medialis_lat	Biceps femoris_med	Semitendinosus_med	Vastus lateralis_med	Vastus medialis_med
	P2D	P2D	P2D	P2D	P2D	P2D	P2D	P2D	P2D	P2D	P2D	P2D	P2D	P2D	P2D	P2D	P2D	P2D	P2D	P2D	P2D	P2D	P2D	P2D	P2D	P2D	P2D	P2D	P2D	P2D	P2D	P2D	P2D	P2D	P2D	P2D	P2D	P2D	P2D	P2D	P2D	P2D	P2D	P2D	P2D	P2D	P2D	P2D	P2D	P2D	P2D	P2D	P2D	P2D	P2D	P2D	P2D	P2D	P2D	P2D	P2D	P2D	P2D	P2D	P2D	P2D	P2D	P2D	P2D	P2D	P2D	P2D	P2D	P2D	P2D	P2D	P2D	P2D	P2D	P2D
	EMG_lat	EMG_lat	EMG_lat	EMG_lat	EMG_med	EMG_med	EMG_med	EMG_med	EMG_lat	EMG_lat	EMG_lat	EMG_lat	EMG_med	EMG_med	EMG_med	EMG_med	EMG_lat	EMG_lat	EMG_lat	EMG_lat	EMG_med	EMG_med	EMG_med	EMG_med	EMG_lat	EMG_lat	EMG_lat	EMG_lat	EMG_med	EMG_med	EMG_med	EMG_med	EMG_lat	EMG_lat	EMG_lat	EMG_lat	EMG_med	EMG_med	EMG_med	EMG_med	EMG_lat	EMG_lat	EMG_lat	EMG_lat	EMG_med	EMG_med	EMG_med	EMG_med	EMG_lat	EMG_lat	EMG_lat	EMG_lat	EMG_med	EMG_med	EMG_med	EMG_med	EMG_lat	EMG_lat	EMG_lat	EMG_lat	EMG_med	EMG_med	EMG_med	EMG_med	EMG_lat	EMG_lat	EMG_lat	EMG_lat	EMG_med	EMG_med	EMG_med	EMG_med	EMG_lat	EMG_lat	EMG_lat	EMG_lat	EMG_med	EMG_med	EMG_med	EMG_med
ITEM	Y	Y	Y	Y	Y	Y	Y	Y	Y	Y	Y	Y	Y	Y	Y	Y	Y	Y	Y	Y	Y	Y	Y	Y	Y	Y	Y	Y	Y	Y	Y	Y	Y	Y	Y	Y	Y	Y	Y	Y	Y	Y	Y	Y	Y	Y	Y	Y	Y	Y	Y	Y	Y	Y	Y	Y	Y	Y	Y	Y	Y	Y	Y	Y	Y	Y	Y	Y	Y	Y	Y	Y	Y	Y	Y	Y	Y	Y	Y	Y
1	0.539439	0.164358	0.116634	0.125177	0.319711	0.114790	0.233907	0.145812	0.466932	0.353409	0.176354	0.231935	0.374913	0.128851	0.349157	0.192864	0.400810	0.159831	0.200323	0.103339	0.859237	0.113273	0.238609	0.050184	0.275935	0.158000	0.302158	0.139301	0.425948	0.026741	0.155385	0.192619	0.220522	0.187290	0.116279	0.078074	0.334102	0.075784	0.228264	0.150784	0.257753	0.230698	0.213970	0.181796	0.226539	0.032068	0.278118	0.183238	0.210114	0.100390	0.114282	0.092692	0.259321	0.038175	0.090534	0.082162	0.450413	0.313069	0.067610	0.088973	0.421179	0.107227	0.313861	0.089115	0.235487	0.137837	0.112293	0.111447	0.247174	0.117278	0.388622	0.185364	0.763591	0.108951	0.219906	0.092724	0.429098	0.126434	0.267616	0.129633
2	0.518228	0.155979	0.120121	0.121540	0.321180	0.095398	0.241805	0.181881	0.436943	0.349472	0.172603	0.232811	0.390102	0.127800	0.345688	0.178735	0.420158	0.148720	0.196487	0.120621	0.838097	0.160542	0.239017	0.039139	0.450194	0.122818	0.332974	0.144340	0.348795	0.033897	0.217133	0.182513	0.293927	0.188991	0.107530	0.083788	0.307476	0.040590	0.249601	0.179770	0.297795	0.250002	0.212337	0.183510	0.228906	0.031695	0.246615	0.199169	0.208030	0.097424	0.115350	0.098057	0.261186	0.048287	0.093459	0.085383	0.409100	0.349136	0.078197	0.085637	0.411141	0.106481	0.310836	0.085214	0.220754	0.130732	0.130506	0.106571	0.247733	0.086361	0.376531	0.170055	0.704160	0.095801	0.234368	0.113858	0.412695	0.109468	0.277136	0.128808
3	0.511984	0.154546	0.178410	0.177984	0.305193	0.104614	0.242591	0.177443	0.406748	0.289012	0.192341	0.235507	0.415898	0.140835	0.347724	0.147168	0.418946	0.155394	0.256830	0.116196	0.691622	0.205869	0.191409	0.042141	0.457222	0.104364	0.328849	0.127186	0.172840	0.042674	0.378439	0.188383	0.301577	0.165362	0.133462	0.116616	0.293377	0.032330	0.251459	0.191954	0.348030	0.292520	0.224020	0.197869	0.246510	0.032106	0.253153	0.229234	0.198344	0.097674	0.122113	0.105428	0.261619	0.051386	0.089964	0.105795	0.296254	0.364094	0.089838	0.088439	0.403901	0.098759	0.306147	0.083475	0.189680	0.058299	0.140594	0.096943	0.234561	0.079558	0.333543	0.170377	0.609981	0.094515	0.244714	0.152847	0.439909	0.080402	0.299439	0.140664
4	0.466152	0.148275	0.194960	0.192421	0.311262	0.108687	0.209941	0.173007	0.415983	0.153497	0.217586	0.212066	0.433865	0.145511	0.344108	0.116398	0.416578	0.159469	0.261724	0.117172	0.626315	0.200637	0.190384	0.073730	0.450014	0.102601	0.262560	0.128925	0.161233	0.050581	0.412359	0.182265	0.313421	0.170038	0.184293	0.125627	0.197752	0.025926	0.246216	0.191549	0.355989	0.315352	0.233379	0.211822	0.255898	0.032553	0.244468	0.233294	0.172439	0.098544	0.143660	0.122414	0.253626	0.056658	0.121855	0.120521	0.162808	0.360588	0.144326	0.092428	0.325564	0.084779	0.301810	0.082058	0.183193	0.048932	0.132152	0.082195	0.213719	0.069388	0.305136	0.174216	0.320510	0.084598	0.273716	0.189001	0.460886	0.071590	0.276791	0.144203
5	0.465533	0.120318	0.213583	0.203691	0.296515	0.107812	0.207845	0.169019	0.421521	0.120020	0.221610	0.191087	0.397968	0.145695	0.302740	0.109257	0.418047	0.153212	0.298252	0.101193	0.411408	0.208961	0.173883	0.072563	0.463037	0.098552	0.264542	0.127557	0.159075	0.054959	0.406545	0.175914	0.327397	0.169069	0.184402	0.143495	0.197077	0.025321	0.258522	0.203590	0.353492	0.323038	0.229908	0.210125	0.266737	0.033772	0.221822	0.248847	0.171766	0.105561	0.160182	0.132101	0.245782	0.060981	0.183622	0.123917	0.168134	0.350756	0.159504	0.099431	0.286617	0.092477	0.314217	0.081554	0.228518	0.051825	0.152013	0.085039	0.194656	0.056755	0.320161	0.157920	0.305325	0.091994	0.225646	0.187196	0.462231	0.077541	0.259374	0.146211
6	0.468883	0.080266	0.264886	0.207945	0.292498	0.120924	0.201322	0.170001	0.416203	0.118232	0.214238	0.188847	0.399537	0.140600	0.245080	0.109199	0.453181	0.146064	0.275114	0.091620	0.411824	0.245958	0.175263	0.081020	0.572408	0.101496	0.241300	0.132902	0.156930	0.055927	0.408113	0.156085	0.327757	0.171310	0.190158	0.177912	0.201422	0.027591	0.260893	0.218973	0.338577	0.311125	0.222015	0.213620	0.267814	0.032699	0.214851	0.246581	0.201629	0.110701	0.162225	0.136448	0.189122	0.059419	0.203219	0.123847	0.182577	0.355015	0.206333	0.095744	0.246315	0.118665	0.311535	0.136875	0.288595	0.049315	0.172173	0.090683	0.156305	0.055418	0.346779	0.101314	0.288950	0.092383	0.280304	0.212453	0.454449	0.081319	0.277665	0.122944
7	0.427719	0.086502	0.271200	0.210337	0.273325	0.134927	0.171766	0.172660	0.342970	0.115759	0.220774	0.173393	0.406860	0.148494	0.229422	0.111281	0.356838	0.125040	0.287003	0.084922	0.392211	0.323318	0.176844	0.085630	0.595097	0.093158	0.216562	0.138708	0.161349	0.056668	0.407278	0.129516	0.335180	0.170910	0.196686	0.192614	0.200778	0.027266	0.263997	0.220500	0.313616	0.295141	0.225696	0.213882	0.269156	0.034618	0.182382	0.238871	0.200726	0.108964	0.163376	0.123905	0.171949	0.072282	0.226672	0.125608	0.180454	0.394270	0.255883	0.084733	0.078625	0.128543	0.296765	0.151434	0.314340	0.044152	0.178445	0.084868	0.157309	0.051718	0.356392	0.094954	0.223107	0.070063	0.306187	0.239983	0.454125	0.081849	0.311701	0.118790
8	0.387574	0.096467	0.254106	0.197385	0.226979	0.189934	0.205762	0.152582	0.298054	0.112735	0.248166	0.151407	0.435199	0.168119	0.225026	0.111508	0.354551	0.113146	0.332138	0.139961	0.325382	0.324799	0.230414	0.086544	0.624621	0.079599	0.211500	0.134680	0.170691	0.060886	0.416212	0.135262	0.311494	0.169359	0.203568	0.194049	0.207667	0.025860	0.257966	0.217431	0.314149	0.266706	0.231440	0.212974	0.265951	0.034333	0.144319	0.249092	0.207332	0.103241	0.217620	0.136654	0.172068	0.079322	0.228473	0.131914	0.168682	0.400524	0.257801	0.080121	0.072809	0.131355	0.249031	0.160607	0.332168	0.053366	0.204557	0.090413	0.162213	0.047534	0.324937	0.080242	0.260208	0.059735	0.328852	0.240953	0.447963	0.087810	0.322253	0.133354
9	0.312737	0.086828	0.249862	0.194679	0.224966	0.191274	0.228714	0.149612	0.199840	0.089443	0.249542	0.145359	0.439808	0.163922	0.209337	0.116165	0.348444	0.097952	0.306739	0.167033	0.297065	0.330171	0.229635	0.094546	0.638590	0.066080	0.249788	0.195471	0.166355	0.063242	0.436173	0.148152	0.312395	0.184612	0.214482	0.194490	0.259810	0.017844	0.231806	0.227004	0.308509	0.252983	0.248841	0.202271	0.259278	0.033082	0.131214	0.251581	0.210611	0.097109	0.229593	0.145166	0.174318	0.080471	0.242706	0.137723	0.166900	0.418183	0.262414	0.088865	0.071785	0.127296	0.221672	0.154272	0.349569	0.056172	0.219334	0.086192	0.177169	0.046776	0.289547	0.077146	0.264801	0.060332	0.361553	0.226852	0.436343	0.088114	0.320393	0.133323
10	0.234083	0.088167	0.251723	0.196027	0.217112	0.196110	0.185489	0.142777	0.173655	0.088527	0.219315	0.123801	0.422213	0.144387	0.217134	0.118993	0.360783	0.083403	0.315306	0.190172	0.249553	0.311982	0.251853	0.100010	0.575973	0.057059	0.331504	0.214079	0.143176	0.063229	0.447428	0.153286	0.227634	0.127546	0.214970	0.195690	0.284791	0.025890	0.246176	0.230753	0.291708	0.247181	0.207756	0.161416	0.228367	0.031089	0.274257	0.275485	0.214261	0.093726	0.233280	0.142721	0.184639	0.082466	0.251543	0.137528	0.147188	0.380966	0.274305	0.087994	0.070415	0.126337	0.258096	0.157765	0.347921	0.060300	0.231805	0.074128	0.182235	0.045760	0.276625	0.087818	0.273233	0.074035	0.359795	0.215451	0.433001	0.126664	0.325135	0.149432
11	0.253750	0.091882	0.255161	0.194072	0.202977	0.195597	0.204371	0.135602	0.173267	0.087263	0.230193	0.123380	0.399010	0.145319	0.269362	0.130754	0.389002	0.084725	0.286887	0.201770	0.242330	0.315817	0.252819	0.080757	0.506470	0.054339	0.316470	0.221035	0.146238	0.064959	0.447808	0.194073	0.214865	0.122193	0.213453	0.183508	0.263569	0.027382	0.217836	0.208272	0.295211	0.246791	0.194780	0.153928	0.183695	0.030632	0.361740	0.279408	0.226280	0.080589	0.241669	0.146400	0.181532	0.082842	0.259079	0.142782	0.239064	0.317005	0.274746	0.094775	0.074528	0.133697	0.348770	0.163380	0.351927	0.066089	0.231042	0.079803	0.306013	0.054059	0.272850	0.090632	0.283569	0.077487	0.339821	0.178884	0.378740	0.134404	0.334676	0.148698
12	0.319552	0.096329	0.228883	0.167037	0.172785	0.189393	0.223105	0.136640	0.164322	0.086041	0.241547	0.125026	0.377116	0.163521	0.278302	0.128429	0.353303	0.078876	0.278663	0.202776	0.195142	0.302988	0.266209	0.093912	0.502640	0.051495	0.313690	0.279552	0.166161	0.064684	0.448193	0.211392	0.206669	0.115754	0.168664	0.164818	0.265411	0.033690	0.204650	0.185849	0.265489	0.222470	0.193997	0.153677	0.168987	0.043597	0.368728	0.261385	0.262303	0.071009	0.257735	0.148467	0.172502	0.084773	0.260923	0.175133	0.242114	0.283638	0.277955	0.093320	0.077701	0.132857	0.343427	0.185105	0.351522	0.076576	0.240656	0.077100	0.338196	0.060230	0.332341	0.096545	0.262978	0.070507	0.359716	0.189143	0.363708	0.133097	0.326575	0.148280
13	0.322138	0.096996	0.211318	0.124981	0.158928	0.197408	0.270618	0.148802	0.130749	0.085554	0.309782	0.193821	0.313104	0.157511	0.335870	0.128787	0.335426	0.062971	0.259869	0.203525	0.162976	0.269498	0.363895	0.382072	0.501185	0.059358	0.335500	0.332764	0.175843	0.065095	0.441546	0.206097	0.172557	0.129726	0.173086	0.208877	0.279810	0.036414	0.227441	0.182539	0.225954	0.172645	0.184100	0.131838	0.157260	0.048160	0.403641	0.243952	0.262616	0.069485	0.259960	0.143940	0.168774	0.082900	0.267231	0.185192	0.264929	0.265756	0.258486	0.093507	0.080289	0.133316	0.344464	0.196407	0.355427	0.079284	0.248890	0.103007	0.415706	0.069067	0.410911	0.097778	0.305687	0.060964	0.324853	0.197399	0.310911	0.133685	0.297792	0.139679
14	0.417181	0.096790	0.216690	0.112758	0.158829	0.199984	0.369563	0.170464	0.110009	0.086772	0.332045	0.198007	0.289573	0.176332	0.395664	0.150227	0.406743	0.059370	0.189550	0.186655	0.118003	0.182276	0.721834	0.416802	0.468417	0.055809	0.350093	0.337411	0.179151	0.060848	0.325942	0.208731	0.150459	0.166118	0.167521	0.211293	0.302325	0.048584	0.222349	0.159538	0.215236	0.135195	0.182671	0.083481	0.127396	0.055566	0.412238	0.228691	0.269023	0.069347	0.251052	0.131259	0.139709	0.079003	0.285632	0.176634	0.262464	0.264347	0.247663	0.094770	0.083752	0.134024	0.357975	0.200440	0.329841	0.079589	0.266147	0.140805	0.399877	0.070645	0.417463	0.086398	0.328152	0.065677	0.294109	0.158571	0.182827	0.137367	0.262983	0.167239
15	0.420913	0.096150	0.153200	0.099243	0.156978	0.192766	0.421584	0.165675	0.094897	0.088055	0.351967	0.201656	0.278317	0.186991	0.399024	0.165601	0.404086	0.051397	0.147575	0.181690	0.097369	0.180248	0.729257	0.514806	0.313453	0.049755	0.355530	0.337270	0.184718	0.054089	0.248604	0.214278	0.176131	0.187213	0.164932	0.188198	0.332419	0.049361	0.229067	0.110959	0.239222	0.122780	0.190613	0.075823	0.115929	0.062119	0.408491	0.219506	0.261448	0.058519	0.240153	0.117295	0.161168	0.082014	0.282273	0.168053	0.249592	0.267234	0.217314	0.095356	0.082212	0.133699	0.356312	0.201812	0.284297	0.080051	0.270835	0.137205	0.400837	0.071244	0.414047	0.153681	0.363961	0.066951	0.278800	0.197931	0.177925	0.145374	0.266009	0.187432
16	0.409429	0.090155	0.127225	0.097562	0.132220	0.173580	0.424429	0.192323	0.125614	0.088039	0.423957	0.205012	0.281419	0.186925	0.379086	0.169896	0.404547	0.047429	0.098562	0.166693	0.142418	0.148644	0.859801	0.595564	0.276338	0.063268	0.357183	0.348889	0.185192	0.061442	0.243428	0.220416	0.177938	0.192809	0.157880	0.189954	0.331851	0.050258	0.220566	0.107813	0.242527	0.120947	0.187593	0.079761	0.073132	0.064080	0.409095	0.204443	0.247088	0.049532	0.236344	0.118637	0.171313	0.078837	0.249455	0.188076	0.250831	0.214470	0.151787	0.102711	0.071037	0.120041	0.371653	0.183916	0.251951	0.081030	0.310990	0.141242	0.403140	0.073157	0.393610	0.273563	0.344103	0.068245	0.216223	0.214845	0.139618	0.141898	0.299780	0.193861
17	0.415421	0.082490	0.177335	0.083762	0.077111	0.124389	0.424363	0.395510	0.141960	0.090779	0.429107	0.210456	0.259313	0.179629	0.368061	0.169795	0.373556	0.038795	0.122861	0.175164	0.162721	0.167110	1.106577	0.596448	0.217607	0.071261	0.369207	0.336622	0.186539	0.080354	0.242999	0.217372	0.187950	0.200550	0.159527	0.198462	0.338732	0.053839	0.238032	0.170011	0.295494	0.119941	0.186942	0.232160	0.069449	0.064881	0.409163	0.191553	0.268284	0.066277	0.245747	0.140326	0.169779	0.079707	0.231641	0.209600	0.296884	0.211884	0.151481	0.109486	0.073227	0.102885	0.427100	0.165104	0.205613	0.075856	0.307659	0.140214	0.405204	0.071433	0.377568	0.326943	0.340091	0.061772	0.249671	0.216510	0.136112	0.154110	0.311124	0.206443
18	0.446479	0.071351	0.235059	0.102946	0.094222	0.136717	0.447840	0.467103	0.182205	0.084934	0.424820	0.218916	0.179263	0.177619	0.379065	0.170507	0.322672	0.028857	0.146977	0.220040	0.164535	0.160027	1.116196	0.600225	0.142471	0.086346	0.316717	0.312678	0.178975	0.082524	0.270112	0.235711	0.199343	0.191194	0.151711	0.216901	0.306855	0.060094	0.535117	0.267585	0.290620	0.112016	0.188389	0.296328	0.066118	0.072941	0.412813	0.187335	0.265526	0.074738	0.220685	0.155977	0.176598	0.080817	0.209545	0.211624	0.327387	0.165725	0.144064	0.098978	0.081163	0.118000	0.480290	0.216768	0.166176	0.074225	0.319760	0.172467	0.406649	0.076854	0.371557	0.332176	0.328778	0.055843	0.259092	0.222652	0.139142	0.156424	0.342490	0.195302
19	0.458419	0.074651	0.246532	0.100026	0.118985	0.144964	0.535724	0.483196	0.210625	0.081267	0.425155	0.248068	0.161467	0.182761	0.379997	0.178308	0.303106	0.026208	0.163207	0.221802	0.162142	0.149874	1.118481	0.601751	0.148257	0.089999	0.259328	0.313178	0.147160	0.090310	0.266726	0.245671	0.284808	0.201711	0.154518	0.219305	0.289347	0.067113	0.587392	0.269705	0.291799	0.105134	0.186851	0.299495	0.064680	0.074846	0.419551	0.222213	0.269575	0.081740	0.193541	0.170337	0.175323	0.075771	0.205414	0.208497	0.330484	0.156798	0.120348	0.100162	0.087884	0.155321	0.498665	0.255106	0.155381	0.069732	0.336160	0.200176	0.400930	0.078933	0.409719	0.351484	0.320994	0.055545	0.237083	0.241858	0.128146	0.154377	0.337946	0.193445
20	0.451322	0.069725	0.243858	0.124553	0.128633	0.149157	0.598168	0.562017	0.223059	0.085740	0.420987	0.286119	0.173590	0.181712	0.368293	0.285961	0.182967	0.033112	0.214246	0.216831	0.154455	0.142981	1.088599	0.463754	0.153536	0.095658	0.260634	0.295297	0.156263	0.144591	0.274996	0.239376	0.284125	0.208788	0.197839	0.226783	0.280521	0.067201	0.593524	0.301739	0.289616	0.100577	0.190386	0.328902	0.078916	0.078470	0.453335	0.327848	0.275941	0.082782	0.227994	0.182340	0.175748	0.073850	0.192402	0.205145	0.267122	0.153344	0.111784	0.147855	0.088215	0.152754	0.537907	0.256018	0.148388	0.080905	0.340238	0.201731	0.399825	0.077407	0.432853	0.384488	0.306108	0.054888	0.252609	0.225296	0.124939	0.133950	0.365558	0.189320
21	0.417202	0.075735	0.265842	0.126480	0.130170	0.150517	0.605376	0.612830	0.277587	0.124591	0.409003	0.293434	0.179153	0.184172	0.327658	0.319087	0.179514	0.063982	0.219656	0.225553	0.147273	0.143578	0.901020	0.446226	0.177368	0.208644	0.242965	0.226537	0.163269	0.198212	0.411545	0.273012	0.301983	0.203139	0.240385	0.214334	0.271731	0.064652	0.678642	0.335993	0.274368	0.091909	0.189603	0.371266	0.093596	0.103769	0.413018	0.317659	0.319016	0.080798	0.236735	0.181169	0.168908	0.071647	0.177811	0.202573	0.277491	0.149819	0.108361	0.251815	0.086658	0.142684	0.551771	0.254376	0.164026	0.092349	0.346551	0.229093	0.334994	0.070385	0.432876	0.414088	0.267483	0.046252	0.280544	0.224884	0.100974	0.108421	0.388633	0.181861
22	0.425509	0.076696	0.286486	0.125566	0.120739	0.125283	0.578528	0.608700	0.285054	0.129470	0.377365	0.334460	0.173486	0.168510	0.319065	0.322174	0.166714	0.066550	0.224187	0.216384	0.142680	0.139581	0.892168	0.319140	0.156519	0.264505	0.267689	0.213017	0.159758	0.204055	0.432099	0.318675	0.312147	0.192432	0.230711	0.154020	0.250431	0.063959	0.702740	0.356629	0.249817	0.073465	0.191140	0.383415	0.096146	0.112022	0.316882	0.329463	0.317854	0.080306	0.230737	0.176784	0.166744	0.070296	0.163698	0.201359	0.300275	0.149001	0.154916	0.256560	0.084219	0.139629	0.561037	0.259707	0.158147	0.093070	0.339190	0.264784	0.283648	0.068723	0.408614	0.416522	0.165215	0.047127	0.269885	0.193484	0.099114	0.108615	0.397017	0.190795
23	0.376003	0.087150	0.276779	0.140382	0.114980	0.121911	0.550410	0.607068	0.323853	0.131623	0.589655	0.420112	0.179211	0.173069	0.250259	0.341731	0.139550	0.074581	0.213560	0.234381	0.090123	0.097730	0.738439	0.156636	0.138735	0.276137	0.412061	0.241550	0.150262	0.218136	0.468604	0.333561	0.317260	0.174058	0.245653	0.152829	0.230839	0.055891	0.694559	0.537829	0.239531	0.055652	0.193332	0.392319	0.089474	0.112356	0.317476	0.372128	0.319619	0.080837	0.239139	0.182615	0.167521	0.070792	0.170685	0.178708	0.310410	0.147617	0.160295	0.260830	0.083177	0.139434	0.569153	0.283490	0.165854	0.090451	0.322702	0.270667	0.111568	0.056939	0.330933	0.419656	0.136743	0.049737	0.276156	0.171047	0.097031	0.106878	0.405995	0.193667
24	0.423012	0.089962	0.271495	0.180793	0.113103	0.124396	0.531847	0.610603	0.332593	0.130621	0.604789	0.423680	0.171374	0.152335	0.170047	0.345761	0.132204	0.095592	0.201475	0.201672	0.056116	0.060890	0.278895	0.156704	0.140837	0.304351	0.443969	0.220186	0.132766	0.233778	0.506159	0.340386	0.317156	0.191673	0.252632	0.143403	0.168825	0.058058	0.691172	0.567076	0.237276	0.055081	0.242105	0.396356	0.095228	0.110049	0.280369	0.418942	0.326209	0.079417	0.313601	0.205801	0.157760	0.075557	0.181960	0.161800	0.311708	0.152984	0.165479	0.269300	0.081948	0.139983	0.563295	0.285633	0.172195	0.089928	0.319116	0.275034	0.105771	0.053390	0.328062	0.426398	0.137413	0.047869	0.270144	0.167196	0.092511	0.106089	0.404193	0.199104
25	0.420426	0.093555	0.272093	0.187068	0.121315	0.117555	0.586773	0.594633	0.323454	0.130141	0.624340	0.445262	0.169888	0.144000	0.190935	0.353846	0.125552	0.172761	0.203282	0.227039	0.057606	0.116607	0.230471	0.143551	0.142447	0.311921	0.473101	0.227154	0.130592	0.233542	0.516809	0.331845	0.332380	0.198852	0.250154	0.140693	0.170845	0.057765	0.690691	0.605210	0.213293	0.058284	0.237120	0.396550	0.109355	0.109141	0.252762	0.439332	0.328610	0.079604	0.323121	0.300285	0.144037	0.075092	0.166160	0.163772	0.335886	0.206953	0.162792	0.284007	0.077227	0.137887	0.563872	0.286073	0.162654	0.088484	0.281866	0.273127	0.102257	0.062828	0.334624	0.420455	0.137475	0.041388	0.286189	0.187982	0.092243	0.087195	0.401463	0.209521
26	0.414531	0.097826	0.362070	0.206804	0.122254	0.115235	0.632001	0.462266	0.321453	0.126750	0.677510	0.467060	0.158932	0.145028	0.242869	0.357465	0.097847	0.246171	0.274549	0.309699	0.064955	0.127273	0.187812	0.126546	0.140036	0.314214	0.492175	0.251628	0.125951	0.233617	0.519224	0.329450	0.323560	0.183142	0.242161	0.112895	0.153594	0.057422	0.688093	0.674882	0.202878	0.065491	0.259245	0.390884	0.116246	0.105106	0.249357	0.438677	0.328661	0.078121	0.339863	0.307517	0.129046	0.085856	0.162029	0.161765	0.322796	0.208729	0.164733	0.285461	0.075464	0.128885	0.571992	0.289668	0.172115	0.087742	0.277093	0.280053	0.091080	0.067580	0.340342	0.354403	0.139650	0.041172	0.305311	0.276996	0.091616	0.087243	0.373145	0.224247
27	0.380190	0.108567	0.403790	0.195147	0.107553	0.091410	0.602332	0.432638	0.322576	0.126567	0.714287	0.475485	0.141453	0.129378	0.246054	0.362808	0.112033	0.273574	0.294209	0.308113	0.089144	0.144442	0.132124	0.125583	0.206160	0.315957	0.505122	0.258047	0.136992	0.232584	0.520310	0.323443	0.306251	0.202804	0.244357	0.096361	0.145275	0.058355	0.509007	0.673726	0.081849	0.066837	0.289534	0.313325	0.118826	0.105122	0.250461	0.439138	0.303973	0.063442	0.392880	0.317703	0.093612	0.090574	0.165201	0.144478	0.298556	0.269538	0.169631	0.284989	0.068717	0.128014	0.543213	0.290408	0.170245	0.087504	0.278474	0.328806	0.084839	0.091297	0.344899	0.307107	0.141496	0.038865	0.331466	0.274391	0.084932	0.068140	0.335132	0.209245
28	0.370901	0.118908	0.438448	0.215335	0.079013	0.067253	0.522866	0.387593	0.301216	0.119982	0.718823	0.463560	0.119504	0.115637	0.230148	0.359803	0.112498	0.273865	0.304707	0.325188	0.112256	0.147919	0.121744	0.148867	0.198069	0.319552	0.506250	0.256087	0.153971	0.237314	0.528100	0.323095	0.294612	0.199373	0.246422	0.151825	0.116252	0.083281	0.423463	0.678446	0.055879	0.067546	0.301328	0.276138	0.120881	0.104965	0.252738	0.438858	0.276327	0.053994	0.385841	0.364794	0.092838	0.090522	0.211297	0.103872	0.378518	0.293109	0.174292	0.284881	0.058482	0.118200	0.526553	0.266225	0.169757	0.087159	0.257059	0.339708	0.073082	0.096276	0.346706	0.312269	0.148984	0.050166	0.370679	0.275283	0.074901	0.049258	0.271650	0.207691
29	0.361962	0.127164	0.455234	0.252882	0.074379	0.058664	0.519664	0.231467	0.297190	0.116480	0.719730	0.443422	0.118504	0.097839	0.230657	0.345784	0.115899	0.274531	0.302243	0.372619	0.140510	0.185299	0.180575	0.217095	0.190780	0.331264	0.505246	0.256781	0.165236	0.239752	0.519149	0.316663	0.294425	0.200448	0.176620	0.183748	0.118475	0.115758	0.415382	0.666626	0.050088	0.068181	0.290051	0.272273	0.121508	0.100643	0.246927	0.438388	0.273983	0.057413	0.386225	0.414767	0.078437	0.083487	0.230589	0.102555	0.493099	0.295495	0.176395	0.266263	0.046524	0.046908	0.493702	0.210340	0.177400	0.072705	0.248607	0.339237	0.064565	0.112771	0.314849	0.300978	0.131462	0.055191	0.375648	0.340691	0.094910	0.075666	0.266505	0.208521
30	0.476899	0.126383	0.448583	0.249495	0.077378	0.095427	0.526682	0.200392	0.271149	0.082780	0.725135	0.434951	0.088773	0.097849	0.228718	0.271544	0.125048	0.275757	0.353916	0.396121	0.184311	0.194403	0.201103	0.210084	0.170781	0.261563	0.499745	0.265795	0.218884	0.242869	0.515941	0.308141	0.284308	0.198466	0.190059	0.194826	0.116399	0.160679	0.259076	0.650805	0.050534	0.070527	0.286664	0.230314	0.121161	0.108735	0.242914	0.423429	0.283103	0.061248	0.389261	0.429903	0.074709	0.096902	0.250787	0.131533	0.538660	0.300681	0.175623	0.163934	0.041209	0.031170	0.462127	0.200534	0.146129	0.060602	0.222981	0.322323	0.064571	0.122991	0.239154	0.261907	0.118944	0.053096	0.383806	0.377531	0.128577	0.176134	0.233145	0.204816
31	0.466157	0.128592	0.437633	0.277472	0.080311	0.115478	0.536624	0.302666	0.389851	0.072584	0.728287	0.412223	0.083049	0.081359	0.217955	0.241684	0.127088	0.233487	0.416813	0.409488	0.192210	0.208034	0.302457	0.240513	0.188025	0.281933	0.442777	0.246708	0.234855	0.266230	0.509953	0.307195	0.294327	0.200348	0.251238	0.209675	0.115105	0.174434	0.146186	0.647944	0.054377	0.070853	0.286477	0.158930	0.118067	0.187090	0.179976	0.338879	0.244725	0.064196	0.386090	0.432606	0.074284	0.120531	0.265190	0.131023	0.562575	0.317716	0.133744	0.151989	0.040045	0.029167	0.368778	0.200044	0.153001	0.093110	0.228417	0.297220	0.066450	0.131186	0.224926	0.198773	0.228491	0.057298	0.372378	0.401686	0.119315	0.232645	0.162684	0.198519
32	0.498604	0.148769	0.467547	0.301792	0.080493	0.117157	0.524126	0.322739	0.388182	0.068806	0.570866	0.271080	0.071466	0.076416	0.217436	0.249359	0.124153	0.184464	0.399189	0.432095	0.192666	0.218082	0.392428	0.344531	0.189981	0.263247	0.305501	0.232517	0.226920	0.240130	0.406452	0.293789	0.294397	0.180884	0.242852	0.272353	0.129518	0.211165	0.176986	0.512684	0.055015	0.073186	0.286113	0.138591	0.105867	0.204062	0.161840	0.323028	0.195412	0.064756	0.393370	0.433498	0.062084	0.123910	0.266805	0.155743	0.576160	0.316799	0.129799	0.161165	0.036241	0.029563	0.312802	0.185210	0.180565	0.094175	0.226225	0.298720	0.058851	0.138569	0.225600	0.181898	0.414567	0.063354	0.342171	0.406615	0.120170	0.242963	0.123715	0.194704
33	0.502772	0.166425	0.492883	0.325177	0.094474	0.136561	0.544243	0.316330	0.467284	0.074533	0.516515	0.267227	0.039780	0.059537	0.205264	0.233330	0.134138	0.087986	0.377054	0.474857	0.195845	0.221431	0.504274	0.404539	0.193363	0.285890	0.291857	0.231665	0.226474	0.232369	0.362546	0.228708	0.270367	0.140829	0.289056	0.293336	0.132044	0.221920	0.176737	0.471094	0.059331	0.083538	0.268384	0.103823	0.104053	0.199173	0.160484	0.309730	0.196764	0.064524	0.399575	0.429953	0.065365	0.145324	0.270954	0.191883	0.585653	0.309620	0.122288	0.154020	0.035980	0.084583	0.298382	0.143466	0.217924	0.135188	0.205276	0.309012	0.053028	0.142340	0.213898	0.182358	0.602366	0.078030	0.338247	0.442277	0.120968	0.246149	0.101969	0.192755
34	0.497145	0.165998	0.511230	0.351460	0.093375	0.176720	0.475758	0.307916	0.481551	0.074939	0.465850	0.274952	0.042422	0.059846	0.214176	0.212674	0.247402	0.098263	0.396506	0.491230	0.184886	0.212923	0.512993	0.415736	0.197599	0.317963	0.213855	0.232718	0.222141	0.231524	0.332305	0.160723	0.263226	0.138788	0.315502	0.297241	0.130233	0.244502	0.184450	0.429556	0.080870	0.095049	0.229257	0.125281	0.113262	0.218996	0.142708	0.265971	0.180135	0.064454	0.352654	0.426421	0.093743	0.189880	0.273157	0.209472	0.581336	0.271839	0.118362	0.127413	0.039294	0.138919	0.298733	0.140125	0.363635	0.155504	0.200685	0.312964	0.073754	0.143114	0.244595	0.169919	0.640110	0.084134	0.317175	0.565387	0.142054	0.248578	0.129542	0.178853
35	0.493303	0.164126	0.473861	0.349139	0.092566	0.191639	0.430766	0.310889	0.543393	0.077636	0.345089	0.260106	0.059086	0.119312	0.205432	0.192737	0.249929	0.099174	0.551945	0.474603	0.173137	0.210144	0.573517	0.505533	0.191806	0.323646	0.162531	0.229308	0.222652	0.218774	0.268053	0.136111	0.257751	0.129651	0.339354	0.312038	0.125468	0.248794	0.193379	0.284508	0.080163	0.096176	0.232306	0.151285	0.111264	0.221988	0.140019	0.188987	0.167752	0.075292	0.331433	0.367910	0.120917	0.277891	0.285777	0.210835	0.564551	0.268666	0.141605	0.111826	0.058590	0.181684	0.281676	0.153309	0.431939	0.158950	0.212076	0.326102	0.090781	0.377525	0.251024	0.167388	0.641433	0.081146	0.292886	0.567938	0.145160	0.282009	0.139236	0.130760
36	0.517324	0.161538	0.394632	0.350353	0.102925	0.207603	0.436267	0.332933	0.542252	0.092256	0.221224	0.229855	0.061198	0.130345	0.181111	0.202961	0.244029	0.092777	0.561935	0.514977	0.158867	0.185976	0.590326	0.512389	0.301591	0.320613	0.094144	0.221417	0.243911	0.247901	0.236487	0.135482	0.194335	0.085236	0.349359	0.307432	0.117731	0.293060	0.173967	0.172082	0.221804	0.107345	0.200081	0.160713	0.097277	0.230165	0.138334	0.138185	0.165883	0.087612	0.326021	0.351696	0.142358	0.325701	0.301047	0.208447	0.564321	0.210646	0.169301	0.111595	0.062277	0.191056	0.248275	0.161347	0.483456	0.182746	0.358694	0.372863	0.094487	0.433523	0.241665	0.169865	0.637870	0.075563	0.305430	0.551460	0.146402	0.294377	0.157258	0.077851
37	0.598978	0.152539	0.317826	0.345756	0.103910	0.212712	0.422139	0.365515	0.632418	0.101166	0.187035	0.241594	0.067022	0.146310	0.180147	0.202847	0.242384	0.116123	0.705497	0.538860	0.106177	0.191598	0.616858	0.549360	0.362541	0.316022	0.100821	0.222594	0.259383	0.267748	0.218788	0.132562	0.194505	0.070112	0.350059	0.280772	0.112790	0.341957	0.163624	0.140245	0.271625	0.111786	0.150180	0.156799	0.102250	0.264567	0.154006	0.173221	0.167955	0.095772	0.255453	0.343920	0.144571	0.366129	0.308012	0.208094	0.509073	0.173524	0.178245	0.153623	0.062658	0.196615	0.235189	0.187231	0.557199	0.199733	0.373055	0.356623	0.091768	0.485905	0.238423	0.155753	0.639298	0.076901	0.329655	0.573096	0.151938	0.300445	0.160058	0.077414
38	0.603817	0.143239	0.298589	0.307624	0.113990	0.238922	0.346099	0.382164	0.697452	0.102714	0.189525	0.251733	0.071937	0.151484	0.179514	0.202217	0.269480	0.126333	0.727196	0.669378	0.100058	0.169485	0.599741	0.536363	0.494779	0.315011	0.123206	0.255821	0.252692	0.268077	0.224337	0.134955	0.166259	0.090408	0.358745	0.277678	0.107462	0.342058	0.203793	0.147810	0.341372	0.114926	0.117232	0.155411	0.112969	0.277422	0.159053	0.176213	0.171140	0.126259	0.234090	0.294917	0.145565	0.411001	0.309145	0.203314	0.412582	0.183316	0.219484	0.184108	0.063421	0.207410	0.177653	0.202691	0.599955	0.210603	0.385582	0.360320	0.089060	0.492753	0.246798	0.113203	0.631024	0.076018	0.354328	0.563010	0.168372	0.334756	0.160704	0.080498
39	0.562511	0.146183	0.294584	0.406318	0.126492	0.268486	0.348412	0.351678	0.702128	0.103628	0.173374	0.255540	0.084937	0.156004	0.177179	0.193378	0.425154	0.143870	0.831865	0.705175	0.098861	0.119710	0.543365	0.474582	0.528191	0.309659	0.148493	0.279410	0.244414	0.262952	0.208561	0.157115	0.168355	0.120298	0.344112	0.284641	0.105543	0.331581	0.254178	0.143288	0.376094	0.122373	0.149156	0.159621	0.134942	0.303982	0.165475	0.174800	0.169008	0.121092	0.234558	0.200954	0.155507	0.412227	0.283824	0.199978	0.329547	0.181871	0.226397	0.187054	0.068786	0.210695	0.169775	0.217928	0.617088	0.214456	0.401491	0.395390	0.093711	0.498332	0.245320	0.090802	0.510213	0.073872	0.385342	0.601702	0.175720	0.375759	0.166372	0.079165
40	0.547968	0.152303	0.328602	0.458665	0.152563	0.271726	0.318339	0.270968	0.649580	0.096469	0.185883	0.296714	0.084653	0.160828	0.176949	0.176172	0.418897	0.135612	0.898577	0.692663	0.086699	0.103985	0.451181	0.430015	0.533246	0.273459	0.163446	0.283626	0.244442	0.259853	0.197923	0.166582	0.121829	0.116175	0.344804	0.250191	0.103712	0.338309	0.242956	0.126908	0.389657	0.122108	0.200356	0.306439	0.155058	0.311156	0.174015	0.175580	0.149595	0.116603	0.216034	0.129255	0.157309	0.415053	0.275620	0.203272	0.244221	0.164683	0.246495	0.194234	0.082786	0.221485	0.171546	0.259964	0.620910	0.202435	0.407007	0.435392	0.102326	0.500701	0.254984	0.118300	0.368292	0.078284	0.441013	0.583885	0.148654	0.348166	0.169138	0.127055
41	0.540492	0.143619	0.313539	0.443405	0.160757	0.320734	0.306493	0.303741	0.621141	0.095396	0.254520	0.306948	0.087453	0.174259	0.178824	0.171248	0.429765	0.142704	0.823031	0.692860	0.080954	0.100704	0.444804	0.414927	0.551972	0.261069	0.212825	0.296401	0.215422	0.279241	0.204946	0.162547	0.138042	0.116553	0.319425	0.197422	0.144347	0.352781	0.225210	0.140655	0.401846	0.128610	0.286500	0.407556	0.155884	0.320949	0.178830	0.177213	0.119855	0.120203	0.189273	0.151626	0.156058	0.414551	0.262139	0.205263	0.185616	0.164427	0.254391	0.178970	0.089681	0.231333	0.187270	0.277046	0.614505	0.201533	0.425634	0.437006	0.110131	0.502334	0.258319	0.120522	0.127122	0.081571	0.514015	0.448357	0.143884	0.308838	0.178365	0.169154
42	0.501963	0.123244	0.287393	0.439267	0.157673	0.322384	0.236504	0.480174	0.583768	0.093647	0.301628	0.307564	0.094922	0.197963	0.179769	0.192665	0.441920	0.161169	0.821732	0.712191	0.081396	0.099515	0.355141	0.277595	0.552925	0.184724	0.219061	0.296684	0.179712	0.256151	0.198590	0.166753	0.142779	0.164331	0.279396	0.235393	0.197485	0.548170	0.259207	0.149924	0.466914	0.144701	0.285941	0.414466	0.158583	0.300575	0.195241	0.185659	0.083784	0.121606	0.171666	0.168075	0.159473	0.415544	0.245828	0.240483	0.158436	0.165943	0.262511	0.186354	0.094333	0.237278	0.189743	0.280405	0.603545	0.179403	0.428535	0.448138	0.117904	0.504967	0.263733	0.122608	0.106609	0.082334	0.473212	0.466966	0.141303	0.300565	0.177709	0.190761
43	0.490495	0.120841	0.316156	0.422254	0.177872	0.364390	0.447223	0.811824	0.567956	0.090714	0.311951	0.282154	0.104518	0.202384	0.191503	0.193598	0.452360	0.156611	0.685927	0.806031	0.059922	0.076790	0.310923	0.239067	0.559990	0.151539	0.274780	0.276697	0.175728	0.239374	0.222326	0.271128	0.131425	0.192189	0.257605	0.264690	0.197992	0.568322	0.284715	0.177572	0.526115	0.158382	0.287169	0.446662	0.160608	0.278846	0.213819	0.193774	0.072097	0.126055	0.164753	0.167925	0.168119	0.416522	0.245898	0.251234	0.119266	0.160615	0.295314	0.200019	0.100170	0.232542	0.170567	0.276244	0.539102	0.162146	0.482282	0.497996	0.120036	0.504901	0.264001	0.140458	0.117216	0.092620	0.469119	0.576501	0.141731	0.296299	0.176738	0.200304
44	0.490197	0.115413	0.311362	0.471053	0.185170	0.415792	0.725480	0.849371	0.516166	0.089654	0.311845	0.389292	0.132436	0.201988	0.184742	0.192417	0.452163	0.146609	0.635689	0.704016	0.054101	0.054913	0.285446	0.145405	0.545358	0.145830	0.301260	0.290970	0.187381	0.242482	0.315473	0.302764	0.149803	0.194129	0.234211	0.253196	0.199911	0.583622	0.289838	0.284986	0.525445	0.149787	0.298352	0.498215	0.164430	0.282020	0.234856	0.233909	0.105688	0.129191	0.218708	0.178608	0.181004	0.430765	0.264126	0.223792	0.115327	0.145089	0.300726	0.225523	0.101111	0.211894	0.166732	0.271940	0.471950	0.160696	0.504417	0.598710	0.112797	0.506626	0.224079	0.147692	0.124861	0.099586	0.433326	0.559515	0.127378	0.304572	0.160265	0.250115
45	0.486913	0.117254	0.318192	0.532786	0.179192	0.410868	0.767543	0.972714	0.506517	0.070659	0.344412	0.522734	0.134784	0.220608	0.193824	0.194555	0.312812	0.137264	0.499536	0.622442	0.049696	0.225711	0.261207	0.138012	0.454835	0.138339	0.387689	0.377110	0.220350	0.235004	0.320695	0.303705	0.153822	0.193898	0.257927	0.255177	0.200792	0.565965	0.343015	0.404502	0.550879	0.149350	0.318756	0.547365	0.161949	0.273384	0.246186	0.256433	0.119492	0.126619	0.226856	0.211830	0.185886	0.451502	0.263180	0.205513	0.104591	0.152276	0.285423	0.251027	0.095681	0.195742	0.185441	0.277180	0.490992	0.147558	0.467398	0.547625	0.100904	0.426989	0.200327	0.146897	0.129181	0.108475	0.434519	0.548320	0.122518	0.323744	0.148729	0.281918
46	0.384768	0.132670	0.319837	0.579930	0.198885	0.410420	0.781324	1.039551	0.427256	0.050222	0.350074	0.529268	0.177926	0.486254	0.184038	0.179872	0.233392	0.142204	0.309886	0.596809	0.068730	0.349349	0.272808	0.135422	0.411046	0.093070	0.481453	0.443843	0.240002	0.236173	0.337343	0.311416	0.151837	0.194108	0.287612	0.269238	0.263064	0.615646	0.441750	0.443432	0.524274	0.147933	0.324493	0.556171	0.163405	0.268295	0.243617	0.257882	0.199730	0.117457	0.245861	0.247402	0.174593	0.418900	0.261515	0.203405	0.098366	0.200270	0.280037	0.247302	0.097552	0.194303	0.190975	0.269277	0.439554	0.126642	0.462734	0.581133	0.095628	0.306285	0.223660	0.178395	0.126757	0.106144	0.397689	0.525762	0.123043	0.320736	0.152422	0.287987
47	0.424190	0.149394	0.320793	0.593435	0.211822	0.393169	0.970224	1.049382	0.283062	0.066518	0.371596	0.556106	0.200509	0.664293	0.206137	0.169796	0.179584	0.134840	0.288105	0.590193	0.077516	0.497697	0.275634	0.135555	0.246463	0.089325	0.484493	0.474415	0.244643	0.239071	0.339960	0.330605	0.148853	0.170232	0.329987	0.299645	0.285335	0.662849	0.462005	0.490212	0.518146	0.146890	0.329100	0.555304	0.165097	0.266558	0.244015	0.272726	0.259090	0.115001	0.297593	0.245396	0.155597	0.371921	0.262082	0.212782	0.125376	0.191013	0.265612	0.337806	0.102010	0.194591	0.194053	0.251232	0.393759	0.109940	0.538520	0.620861	0.093614	0.231681	0.260172	0.196098	0.122026	0.097078	0.358824	0.489599	0.118301	0.313619	0.151748	0.287088
48	0.435522	0.144951	0.317450	0.557001	0.215551	0.394227	1.065384	1.060396	0.257964	0.103715	0.377078	0.579068	0.210308	0.681093	0.250504	0.168664	0.148434	0.111918	0.216013	0.537909	0.079561	0.507023	0.278929	0.139468	0.217290	0.095839	0.496742	0.596845	0.221737	0.215683	0.346576	0.355526	0.153074	0.163852	0.305880	0.324417	0.284864	0.659728	0.482984	0.565193	0.476216	0.142812	0.329486	0.567136	0.164494	0.235860	0.241027	0.296002	0.281973	0.076655	0.310368	0.268779	0.151902	0.351268	0.253527	0.232911	0.165973	0.226610	0.325024	0.413043	0.137169	0.259434	0.211284	0.232411	0.380333	0.102549	0.538741	0.616112	0.104092	0.218159	0.246083	0.199473	0.107705	0.084639	0.208110	0.474327	0.107335	0.293767	0.153834	0.289061
49	0.449145	0.139231	0.304017	0.500538	0.193849	0.383017	1.070446	1.068293	0.283088	0.135411	0.415858	0.577115	0.210408	0.746156	0.279494	0.169340	0.116580	0.086344	0.150890	0.272661	0.085399	0.509053	0.269668	0.123134	0.220325	0.131799	0.516810	0.662162	0.222565	0.222030	0.343736	0.396091	0.171898	0.164739	0.350681	0.329228	0.284856	0.653911	0.546908	0.630181	0.469702	0.137272	0.336958	0.672053	0.161855	0.233750	0.256343	0.343009	0.285819	0.071951	0.319261	0.476454	0.149806	0.265150	0.254812	0.257444	0.189954	0.247085	0.362872	0.504556	0.143534	0.296691	0.215408	0.235308	0.366530	0.107723	0.562475	0.590132	0.103684	0.200105	0.244609	0.205024	0.095981	0.078944	0.169567	0.480861	0.134932	0.222661	0.152994	0.289025
50	0.423279	0.137470	0.328769	0.524881	0.192721	0.355304	1.070914	1.053589	0.294583	0.149007	0.390299	0.568138	0.223015	0.763293	0.283995	0.175781	0.147579	0.077224	0.149639	0.231156	0.098735	0.512273	0.276854	0.094728	0.219397	0.148604	0.539313	0.659109	0.223628	0.221886	0.345706	0.420868	0.212410	0.171422	0.386805	0.326523	0.265227	0.641435	0.591100	0.668837	0.471739	0.142517	0.466919	0.720718	0.173244	0.253578	0.255070	0.373714	0.286978	0.071365	0.463181	0.639017	0.140239	0.263425	0.279169	0.265850	0.204418	0.317066	0.489371	0.565966	0.160159	0.342668	0.225937	0.211473	0.365080	0.112634	0.557891	0.573755	0.100169	0.199343	0.233410	0.197690	0.087953	0.070146	0.168983	0.360851	0.144520	0.222253	0.179157	0.288941
51	0.468408	0.139169	0.316957	0.610456	0.182590	0.336491	1.062575	0.946308	0.267807	0.151993	0.338460	0.600705	0.241275	0.767337	0.317883	0.178116	0.225665	0.070225	0.134541	0.115318	0.140721	0.510734	0.225257	0.079365	0.214723	0.150199	0.528118	0.655661	0.225716	0.222534	0.345498	0.437699	0.237891	0.214294	0.433050	0.406381	0.228645	0.481909	0.579184	0.677260	0.486786	0.141829	0.605225	0.712374	0.167300	0.290246	0.292460	0.382674	0.324346	0.069595	0.570135	0.655565	0.137535	0.258765	0.271206	0.264985	0.205919	0.318081	0.505823	0.600812	0.157276	0.344802	0.226744	0.179132	0.358297	0.111698	0.600657	0.559500	0.094396	0.197211	0.255463	0.198747	0.061807	0.053875	0.289598	0.388055	0.176416	0.232632	0.191205	0.302375
52	0.544593	0.147486	0.333784	0.777391	0.157798	0.227530	0.959858	0.722105	0.254234	0.151610	0.327015	0.630329	0.245908	0.774724	0.469210	0.131780	0.318365	0.053536	0.081119	0.044891	0.134564	0.453957	0.249852	0.152614	0.208372	0.158960	0.502204	0.652770	0.215013	0.194269	0.341634	0.443120	0.275634	0.237170	0.460982	0.489936	0.231286	0.444264	0.565084	0.671181	0.406961	0.118791	0.620854	0.710585	0.175040	0.283218	0.356814	0.383286	0.385777	0.070573	0.574543	0.685880	0.137428	0.255307	0.266163	0.254858	0.213630	0.319346	0.553120	0.671409	0.155821	0.352899	0.238424	0.177078	0.357312	0.110498	0.564341	0.518298	0.083669	0.184196	0.321049	0.200794	0.044625	0.024293	0.366815	0.386165	0.207106	0.285388	0.316996	0.286102
53	0.553053	0.151976	0.415791	0.789402	0.154886	0.179410	0.779961	0.697741	0.262432	0.151683	0.322046	0.596811	0.242693	0.777827	0.485619	0.173810	0.326502	0.041925	0.168320	0.056321	0.129818	0.438148	0.298331	0.257230	0.203305	0.170011	0.482634	0.631014	0.223052	0.219571	0.346735	0.442473	0.287546	0.295449	0.464683	0.499872	0.230161	0.421548	0.565168	0.634725	0.364714	0.097011	0.629293	0.694953	0.178603	0.269941	0.415648	0.400218	0.432762	0.090592	0.594327	0.744776	0.133924	0.247154	0.273389	0.220958	0.227884	0.323897	0.586180	0.734749	0.160854	0.350310	0.307546	0.201474	0.362153	0.110383	0.554407	0.395498	0.076492	0.176154	0.324788	0.224528	0.064225	0.016644	0.398582	0.394522	0.207660	0.296930	0.345754	0.307294
54	0.553071	0.150201	0.498596	0.748577	0.155640	0.176904	0.768707	0.489058	0.253005	0.158162	0.290631	0.436367	0.245237	0.785576	0.542404	0.177583	0.378724	0.066211	0.169683	0.131306	0.143231	0.354138	0.288046	0.274428	0.204212	0.176686	0.410132	0.558614	0.235089	0.288011	0.342524	0.407860	0.291809	0.336585	0.438476	0.519972	0.228433	0.420425	0.537722	0.566929	0.358008	0.099801	0.648326	0.651766	0.177329	0.269071	0.406039	0.486294	0.440659	0.098189	0.588496	0.747281	0.126589	0.240849	0.285277	0.188488	0.237296	0.322334	0.602267	0.743218	0.170230	0.353661	0.365629	0.225686	0.270839	0.091693	0.499660	0.409068	0.072990	0.172575	0.349898	0.241262	0.128825	0.034114	0.443013	0.409019	0.208596	0.298713	0.347044	0.307774
55	0.545746	0.139402	0.504279	0.763508	0.119474	0.190896	0.747855	0.383870	0.338048	0.177558	0.284734	0.430269	0.240202	0.767720	0.568488	0.192568	0.405829	0.089927	0.192631	0.155210	0.168455	0.364259	0.283616	0.331244	0.204017	0.175190	0.324387	0.542106	0.229564	0.299098	0.287258	0.383289	0.292972	0.338582	0.439233	0.553926	0.173716	0.306532	0.461280	0.537295	0.314608	0.093653	0.689894	0.639617	0.173593	0.269587	0.416384	0.535857	0.459314	0.097556	0.591848	0.743516	0.108976	0.217247	0.271383	0.194302	0.237926	0.294373	0.656287	0.740251	0.177082	0.352371	0.359884	0.231778	0.207680	0.086481	0.484672	0.379254	0.074162	0.168529	0.378438	0.260368	0.142728	0.037879	0.449972	0.407473	0.210537	0.264508	0.365121	0.300880
56	0.533561	0.143419	0.619732	0.962292	0.083501	0.176458	0.467558	0.360426	0.372589	0.184093	0.260787	0.389053	0.204320	0.583278	0.576891	0.195394	0.405134	0.106024	0.195898	0.155040	0.177143	0.383387	0.288209	0.340883	0.211283	0.171948	0.315801	0.436939	0.206344	0.337420	0.275921	0.414231	0.304658	0.338399	0.424071	0.563019	0.142411	0.138720	0.421623	0.520005	0.284810	0.090828	0.754437	0.692457	0.171017	0.267542	0.437081	0.526680	0.534056	0.099560	0.601893	0.735579	0.075573	0.128543	0.262833	0.209321	0.223187	0.291146	0.658709	0.703873	0.184423	0.345201	0.368770	0.286540	0.152116	0.083618	0.394730	0.328025	0.075301	0.167672	0.415725	0.251490	0.217187	0.046716	0.444935	0.383341	0.216560	0.231809	0.389657	0.295347
57	0.493354	0.163382	0.720196	1.085670	0.092649	0.247012	0.321513	0.352979	0.363891	0.172313	0.260364	0.356403	0.193323	0.452470	0.567462	0.199368	0.360860	0.126822	0.198684	0.177211	0.171767	0.382715	0.306168	0.358638	0.225865	0.157029	0.286263	0.216198	0.186264	0.342063	0.253210	0.421716	0.306909	0.337441	0.428350	0.568039	0.174590	0.130142	0.372302	0.473427	0.271081	0.092957	0.765439	0.727826	0.170927	0.265390	0.463267	0.547020	0.516826	0.099612	0.630046	0.734441	0.055787	0.072389	0.249969	0.222101	0.194400	0.262638	0.654686	0.667464	0.182596	0.344273	0.390438	0.334526	0.102131	0.075620	0.383828	0.313372	0.075565	0.143294	0.393344	0.269943	0.264389	0.116835	0.444880	0.384799	0.220980	0.235030	0.395726	0.295660
58	0.475978	0.172729	0.773862	1.109930	0.091605	0.249698	0.312046	0.388439	0.350629	0.147682	0.195268	0.316681	0.188039	0.413585	0.547520	0.200050	0.293153	0.124224	0.200289	0.186181	0.157005	0.416057	0.339425	0.592855	0.184135	0.125852	0.192906	0.130950	0.156861	0.327824	0.233772	0.402738	0.274937	0.335809	0.395276	0.568785	0.177476	0.128789	0.276946	0.383831	0.251176	0.092558	0.764874	0.749754	0.171873	0.265415	0.471813	0.550571	0.550279	0.099643	0.706578	0.736438	0.051940	0.064581	0.244976	0.231497	0.173768	0.239904	0.659635	0.603734	0.163901	0.306059	0.380378	0.339304	0.101356	0.058772	0.440825	0.715852	0.068428	0.117809	0.416204	0.319862	0.269072	0.136960	0.427031	0.279869	0.228326	0.240332	0.395433	0.296836
59	0.475359	0.168467	0.787001	1.098997	0.091147	0.251619	0.315720	0.411233	0.339830	0.131704	0.308293	0.335692	0.185009	0.333897	0.551338	0.231771	0.270962	0.127573	0.136118	0.185197	0.193936	0.429375	0.480708	0.601114	0.167697	0.121563	0.159558	0.134774	0.147919	0.318385	0.218091	0.402113	0.264375	0.308906	0.428390	0.571301	0.176735	0.126853	0.187156	0.299294	0.243181	0.091465	0.759672	0.648022	0.173415	0.267162	0.473213	0.529848	0.546725	0.099586	0.759233	0.686492	0.052295	0.063849	0.234391	0.230725	0.152999	0.132087	0.582014	0.539788	0.150805	0.247082	0.369810	0.335147	0.100721	0.052372	0.535861	0.900356	0.065517	0.100423	0.549752	0.321951	0.285311	0.237999	0.288378	0.252087	0.208018	0.293070	0.394989	0.299798
60	0.428042	0.158487	0.811394	1.165608	0.092094	0.253223	0.385920	0.457566	0.335859	0.124469	0.351317	0.297454	0.170110	0.418291	0.551339	0.364868	0.185920	0.140346	0.166880	0.193410	0.258042	0.374443	0.482100	0.631399	0.168770	0.121265	0.173415	0.136043	0.144095	0.312575	0.219148	0.391712	0.225230	0.248518	0.396631	0.492911	0.169827	0.112972	0.210330	0.273167	0.200251	0.079144	0.642338	0.541163	0.165194	0.262959	0.464187	0.499275	0.546004	0.100856	0.754625	0.596667	0.052246	0.067522	0.250129	0.213442	0.146348	0.124113	0.561598	0.503973	0.133441	0.197955	0.361495	0.323800	0.111511	0.057072	0.498316	0.905928	0.061378	0.092721	0.562656	0.322726	0.371998	0.246903	0.266397	0.210164	0.194683	0.389661	0.391441	0.303865
61	0.272921	0.151227	0.849785	1.105626	0.108979	0.271543	0.391156	0.580000	0.337103	0.124086	0.402837	0.360411	0.151737	0.443537	0.527737	0.411078	0.141555	0.127262	0.147763	0.161201	0.259313	0.277633	0.497807	0.687000	0.161532	0.116800	0.177819	0.155408	0.142777	0.309435	0.227908	0.376155	0.193935	0.232588	0.397040	0.555019	0.173210	0.100266	0.208400	0.273330	0.149830	0.072824	0.525562	0.519180	0.143123	0.220457	0.463020	0.473500	0.541433	0.099156	0.662555	0.586224	0.052243	0.067878	0.257760	0.216206	0.129536	0.121211	0.508752	0.429409	0.124384	0.154224	0.360556	0.318599	0.122361	0.056448	0.560846	0.934124	0.066499	0.170356	0.564244	0.318970	0.598060	0.352286	0.162957	0.150962	0.181779	0.400300	0.376710	0.316812
62	0.244117	0.150672	0.827540	1.065066	0.148509	0.322556	0.446025	0.607578	0.322554	0.124341	0.475658	0.514582	0.149195	0.487498	0.407277	0.423529	0.130431	0.128090	0.227212	0.167244	0.249327	0.261281	0.524676	0.670748	0.162510	0.110363	0.174720	0.209699	0.141594	0.309037	0.222914	0.348700	0.173832	0.100518	0.398731	0.562138	0.174463	0.096628	0.198268	0.281426	0.122352	0.078514	0.517153	0.626535	0.118721	0.134508	0.443014	0.467213	0.484177	0.093708	0.649202	0.582845	0.048117	0.067581	0.255883	0.277505	0.107678	0.108370	0.455173	0.415184	0.123139	0.110497	0.344403	0.319890	0.110382	0.061431	0.623975	0.973288	0.072169	0.195034	0.526008	0.319340	0.602078	0.377693	0.096336	0.138304	0.140716	0.416830	0.307302	0.322589
63	0.241165	0.153235	0.755998	1.066221	0.150893	0.327164	0.483187	0.597263	0.308704	0.120264	0.548456	0.520249	0.139611	0.479687	0.391815	0.418165	0.123436	0.144157	0.258509	0.166623	0.245316	0.229556	0.522432	0.667317	0.166047	0.108308	0.163453	0.221928	0.130288	0.307480	0.222295	0.334815	0.172595	0.039916	0.400576	0.549573	0.173527	0.085867	0.201748	0.288495	0.112982	0.086435	0.554243	0.761066	0.105151	0.122162	0.415560	0.480386	0.447649	0.074094	0.631112	0.491828	0.049129	0.071962	0.256603	0.332942	0.106334	0.098630	0.427812	0.410394	0.119175	0.114079	0.306118	0.308100	0.122330	0.073193	0.629915	0.990522	0.075416	0.197954	0.523987	0.302670	0.728594	0.380779	0.096306	0.135235	0.149026	0.410288	0.235395	0.308329
64	0.238554	0.152265	0.756123	1.050658	0.150890	0.306531	0.418203	0.586379	0.266735	0.092556	0.552643	0.521759	0.118785	0.466602	0.333728	0.486635	0.123417	0.148290	0.365608	0.170380	0.245202	0.247193	0.500016	0.657009	0.165683	0.101593	0.138866	0.234532	0.114368	0.294667	0.210126	0.342841	0.171302	0.050161	0.387903	0.550167	0.157203	0.089414	0.216062	0.281409	0.121593	0.091560	0.648383	0.835021	0.094025	0.121723	0.375651	0.490376	0.439278	0.050719	0.648229	0.529381	0.052245	0.075194	0.248747	0.358893	0.121971	0.108259	0.370244	0.408836	0.096884	0.166448	0.213674	0.282489	0.136410	0.083247	0.630005	0.986712	0.090266	0.240445	0.514003	0.278583	0.736575	0.375661	0.130872	0.110645	0.149863	0.417161	0.233858	0.302344
65	0.211392	0.134688	0.727197	0.938490	0.145938	0.322937	0.398518	0.578976	0.125759	0.053976	0.554815	0.533500	0.120145	0.464804	0.297108	0.527027	0.124434	0.158451	0.371184	0.202074	0.235117	0.211654	0.472172	0.455654	0.128863	0.121635	0.136263	0.277139	0.079700	0.230736	0.205250	0.348762	0.146827	0.067361	0.381655	0.552428	0.143838	0.132386	0.223254	0.261245	0.121814	0.091564	0.670439	0.825159	0.089634	0.132542	0.382396	0.430592	0.408222	0.044849	0.680007	0.571035	0.058654	0.071475	0.244454	0.363408	0.127910	0.113453	0.383118	0.401179	0.088994	0.149989	0.206417	0.273676	0.153788	0.084345	0.624071	0.980480	0.090454	0.250875	0.542358	0.258770	0.740345	0.396076	0.282899	0.142820	0.157935	0.440276	0.216278	0.294308
66	0.154160	0.099925	0.635557	0.828242	0.137852	0.283908	0.396787	0.559141	0.114143	0.045028	0.597764	0.588755	0.114794	0.465004	0.286089	0.542166	0.119244	0.158971	0.402231	0.175686	0.209763	0.219984	0.277173	0.430892	0.131899	0.211335	0.112067	0.302479	0.063031	0.202179	0.160568	0.333593	0.137731	0.069723	0.364761	0.548834	0.099570	0.136887	0.265443	0.190795	0.111758	0.086065	0.606729	0.794894	0.092882	0.163735	0.370273	0.327416	0.314370	0.041691	0.695122	0.652151	0.055235	0.068961	0.234853	0.364215	0.130285	0.116266	0.385479	0.394347	0.057791	0.181062	0.184914	0.214792	0.180875	0.086934	0.619553	0.976663	0.097099	0.253075	0.550182	0.272466	0.744265	0.396427	0.351602	0.143604	0.154854	0.450492	0.154623	0.291301
67	0.108039	0.076763	0.553349	0.776867	0.140133	0.533070	0.409910	0.557404	0.094090	0.042878	0.622688	0.627191	0.114258	0.462764	0.289606	0.546300	0.087464	0.197586	0.415206	0.170598	0.123096	0.322435	0.228130	0.326864	0.418782	0.385620	0.103252	0.311230	0.057885	0.138475	0.137761	0.297071	0.132150	0.069790	0.356422	0.545207	0.104899	0.138287	0.268441	0.179688	0.104310	0.084696	0.612203	0.845849	0.095132	0.189086	0.376479	0.346381	0.253822	0.043898	0.697326	0.752369	0.054154	0.074395	0.236553	0.373208	0.126570	0.114024	0.335088	0.403701	0.072528	0.188606	0.154551	0.182444	0.209260	0.087534	0.556803	0.754532	0.119770	0.279180	0.543069	0.253189	0.728976	0.412601	0.362296	0.148026	0.169094	0.459906	0.123956	0.304453
68	0.074617	0.068193	0.512401	0.804964	0.152963	0.591681	0.420725	0.560044	0.073832	0.038728	0.581043	0.630953	0.170076	0.457227	0.284915	0.545999	0.086138	0.197202	0.388164	0.170809	0.095096	0.332266	0.184944	0.177138	0.729121	0.498216	0.106116	0.310135	0.051983	0.108012	0.214032	0.273747	0.132301	0.074726	0.272622	0.520404	0.100365	0.169910	0.246474	0.180604	0.098424	0.090471	0.665395	0.887712	0.090713	0.189389	0.348728	0.322581	0.121122	0.040624	0.671944	0.757774	0.053417	0.068875	0.236405	0.370138	0.122898	0.110382	0.348658	0.417848	0.098273	0.194560	0.215591	0.219501	0.386701	0.086601	0.452110	0.485232	0.130650	0.289852	0.549555	0.184004	0.557086	0.357409	0.374317	0.166624	0.156885	0.504156	0.125556	0.342181
69	0.072948	0.069254	0.529904	0.825257	0.160234	0.674797	0.368908	0.486987	0.083239	0.046355	0.551847	0.641015	0.232233	0.416520	0.276696	0.528037	0.065572	0.169020	0.368902	0.155866	0.089778	0.334656	0.103456	0.142078	0.795080	0.644634	0.121635	0.334781	0.064033	0.114019	0.229441	0.293450	0.126158	0.080527	0.376161	0.454032	0.144051	0.274956	0.222402	0.202919	0.105365	0.103487	0.686818	0.896637	0.086466	0.194304	0.334723	0.302796	0.087172	0.040031	0.630211	0.739438	0.053908	0.124152	0.206151	0.362286	0.122494	0.115402	0.375144	0.424094	0.102813	0.205637	0.270925	0.262837	0.390404	0.087327	0.435131	0.471514	0.187830	0.313458	0.436492	0.159912	0.518884	0.298513	0.384123	0.258234	0.159513	0.500188	0.126250	0.358444
70	0.069804	0.064161	0.397651	0.773380	0.146231	0.699130	0.355930	0.338107	0.086463	0.052577	0.545586	0.603330	0.228669	0.286543	0.274246	0.452552	0.041892	0.161565	0.277395	0.141945	0.087815	0.335026	0.109680	0.138138	1.031008	0.773766	0.200130	0.368465	0.067812	0.113703	0.246400	0.301702	0.105735	0.082958	0.397130	0.364791	0.198851	0.318515	0.246591	0.258967	0.109532	0.112237	0.700899	0.897452	0.080353	0.206970	0.331568	0.305485	0.088385	0.046078	0.575648	0.726361	0.055481	0.176766	0.237195	0.360783	0.122296	0.118429	0.383508	0.400536	0.108121	0.210543	0.376607	0.277107	0.441472	0.099531	0.351674	0.417230	0.269116	0.330769	0.385500	0.161042	0.399190	0.293734	0.392324	0.265233	0.160673	0.436261	0.118704	0.358266
71	0.067925	0.053372	0.384097	0.786944	0.109384	0.704074	0.274825	0.294608	0.091839	0.057746	0.496732	0.468350	0.271152	0.217842	0.257764	0.471079	0.031008	0.183223	0.255982	0.079531	0.097103	0.415989	0.125737	0.122210	1.054338	0.783103	0.239116	0.347729	0.067346	0.119122	0.298054	0.266937	0.107914	0.085179	0.393722	0.352966	0.230048	0.323302	0.257825	0.260875	0.113557	0.114911	0.701865	0.887432	0.083157	0.203057	0.324901	0.301418	0.091819	0.051293	0.616437	0.712373	0.079528	0.211066	0.234710	0.360458	0.119309	0.118980	0.393598	0.357265	0.209291	0.213786	0.395312	0.308531	0.523781	0.108108	0.167456	0.303838	0.277361	0.312560	0.379772	0.157599	0.208102	0.289331	0.391827	0.266485	0.158807	0.403625	0.124437	0.324918
72	0.054138	0.033913	0.381271	0.778467	0.130111	0.703274	0.252463	0.292786	0.093587	0.062163	0.386136	0.485569	0.270488	0.083424	0.257687	0.513151	0.025548	0.247318	0.208745	0.067389	0.099356	0.453853	0.162492	0.128501	1.061676	0.785843	0.258712	0.343563	0.074502	0.218768	0.312588	0.256072	0.107227	0.093685	0.383971	0.305269	0.307284	0.331038	0.280480	0.287814	0.112080	0.110508	0.701872	0.795125	0.086789	0.203759	0.328617	0.302969	0.089952	0.051106	0.668188	0.701037	0.085538	0.268765	0.213467	0.355987	0.099797	0.128607	0.462272	0.367567	0.227837	0.225367	0.412263	0.363839	0.524823	0.104857	0.084762	0.181600	0.280858	0.286739	0.372640	0.164744	0.194050	0.275183	0.297871	0.229347	0.153782	0.375866	0.123836	0.302676
73	0.063794	0.030811	0.374608	0.778615	0.184487	0.703212	0.274266	0.298692	0.090374	0.063932	0.419980	0.511447	0.274878	0.079254	0.284998	0.502105	0.052755	0.225326	0.207898	0.418154	0.104903	0.476708	0.162188	0.127693	1.064474	0.789761	0.284281	0.345466	0.079443	0.224827	0.324406	0.265625	0.087716	0.086177	0.399363	0.229881	0.334257	0.407306	0.313312	0.309403	0.103488	0.102893	0.640885	0.677908	0.107827	0.204614	0.331425	0.319856	0.087808	0.052252	0.668911	0.716499	0.107379	0.272077	0.244611	0.338284	0.078435	0.113953	0.452349	0.370058	0.241678	0.254230	0.451286	0.394459	0.559264	0.096858	0.077827	0.124740	0.279478	0.285719	0.363779	0.168683	0.163915	0.192359	0.230547	0.229480	0.142519	0.351666	0.124183	0.309922
74	0.097295	0.035316	0.339144	0.746463	0.187782	0.687754	0.280824	0.296157	0.109484	0.063907	0.429159	0.499929	0.294730	0.099084	0.227504	0.446506	0.134794	0.332902	0.405712	0.530938	0.101078	0.423493	0.156750	0.125593	1.062957	0.784287	0.288014	0.361082	0.095105	0.253956	0.328077	0.267939	0.071081	0.084132	0.394605	0.211361	0.372206	0.646281	0.336640	0.305569	0.095359	0.095272	0.513582	0.593843	0.111295	0.231369	0.317494	0.316317	0.084406	0.058135	0.652593	0.694808	0.114019	0.272682	0.245299	0.365726	0.111649	0.106302	0.451782	0.386984	0.247507	0.311083	0.475287	0.399731	0.652388	0.105065	0.077588	0.113351	0.309044	0.333318	0.363114	0.179744	0.142825	0.132534	0.205155	0.231226	0.134041	0.343374	0.149718	0.293983
75	0.113214	0.034601	0.262074	0.659948	0.240793	0.670772	0.282505	0.279172	0.129672	0.062538	0.386101	0.447755	0.293942	0.164252	0.214455	0.419513	0.164253	0.356688	0.423678	0.593384	0.117933	0.446824	0.159257	0.111768	1.049290	0.749954	0.292927	0.345646	0.107446	0.322286	0.349233	0.263110	0.090607	0.095064	0.387618	0.190856	0.399966	0.694041	0.306990	0.303641	0.113486	0.086815	0.431284	0.577472	0.119528	0.239319	0.282286	0.289440	0.090430	0.070521	0.616233	0.652406	0.150018	0.275461	0.247327	0.341884	0.110483	0.100056	0.414008	0.407652	0.251230	0.351754	0.477390	0.400060	0.650793	0.102679	0.085078	0.109573	0.317684	0.467808	0.311108	0.195082	0.148172	0.117333	0.183521	0.228993	0.124505	0.336255	0.149804	0.267998
76	0.134027	0.032872	0.266914	0.637886	0.247104	0.474055	0.250459	0.175031	0.462771	0.060029	0.322288	0.389144	0.295020	0.189864	0.211694	0.416686	0.190798	0.360678	0.441697	0.749952	0.106935	0.489130	0.150106	0.112331	0.894446	0.676847	0.325838	0.342396	0.108973	0.332865	0.356003	0.242418	0.137952	0.101571	0.388699	0.189066	0.472928	0.803028	0.299888	0.302654	0.143503	0.084195	0.429013	0.544492	0.132710	0.233333	0.246983	0.272428	0.097704	0.082969	0.596276	0.597316	0.166195	0.298438	0.264283	0.333090	0.113106	0.111124	0.407908	0.432276	0.256285	0.349594	0.485014	0.426720	0.710641	0.100911	0.090408	0.109375	0.319763	0.472587	0.214477	0.182601	0.141360	0.128648	0.151429	0.134443	0.117987	0.324340	0.150052	0.253073
77	0.166647	0.034715	0.296668	0.639735	0.238755	0.429750	0.226842	0.153229	0.508361	0.094846	0.321961	0.365585	0.295161	0.207404	0.250689	0.416904	0.235357	0.371460	0.450661	0.802745	0.105739	0.505376	0.135729	0.109493	0.773484	0.653553	0.322248	0.341573	0.110393	0.344874	0.356289	0.236249	0.164894	0.107074	0.366135	0.183849	0.474662	0.801794	0.305898	0.302435	0.144469	0.082066	0.394824	0.381803	0.142574	0.210716	0.241464	0.320044	0.108959	0.091271	0.554188	0.455922	0.167131	0.306817	0.287303	0.343464	0.307570	0.275237	0.378620	0.437902	0.255604	0.347521	0.546299	0.457472	0.670786	0.164384	0.095130	0.123269	0.335739	0.480730	0.247384	0.159384	0.135643	0.132181	0.129626	0.097692	0.087127	0.300340	0.139525	0.255740
78	0.222020	0.035618	0.287021	0.534523	0.234412	0.302421	0.226783	0.148454	0.612151	0.097315	0.296746	0.362128	0.351321	0.208472	0.291570	0.416969	0.249271	0.341701	0.453874	0.804314	0.092840	0.430485	0.119740	0.100168	0.577429	0.429776	0.349761	0.284080	0.137911	0.443594	0.351193	0.257565	0.220935	0.149003	0.280701	0.191994	0.476657	0.790944	0.310735	0.292478	0.210149	0.083425	0.293133	0.208009	0.158692	0.182296	0.213103	0.298669	0.138454	0.092830	0.489118	0.443905	0.168022	0.305574	0.290696	0.347468	0.455143	0.327667	0.354800	0.431885	0.249311	0.360613	0.612315	0.427852	0.665398	0.224141	0.129207	0.139354	0.381519	0.543605	0.232405	0.158634	0.128659	0.130962	0.130426	0.121339	0.092816	0.247169	0.136449	0.214566
79	0.222375	0.036368	0.291884	0.406051	0.240191	0.226285	0.226152	0.121344	0.648956	0.112587	0.282904	0.383974	0.510975	0.210988	0.288038	0.411150	0.247688	0.328089	0.436689	0.733352	0.085689	0.393159	0.055479	0.082664	0.245282	0.363851	0.325740	0.242663	0.140049	0.462790	0.320035	0.261187	0.249955	0.156119	0.273711	0.194271	0.454254	0.783292	0.292765	0.238525	0.257776	0.071389	0.220737	0.145051	0.173528	0.183907	0.203595	0.316199	0.141894	0.096145	0.438505	0.459109	0.167928	0.308376	0.297594	0.348767	0.494891	0.377496	0.370250	0.427907	0.250936	0.411849	0.607312	0.423224	0.638838	0.300176	0.203453	0.138329	0.439255	0.554461	0.208699	0.179148	0.115657	0.127887	0.123888	0.238165	0.079918	0.193336	0.137405	0.167751
80	0.222947	0.037967	0.316666	0.360744	0.243298	0.266887	0.216607	0.115988	0.658981	0.168967	0.323352	0.433928	0.529143	0.213766	0.294381	0.394526	0.217752	0.234676	0.308673	0.614083	0.101021	0.414004	0.043956	0.053234	0.205315	0.455717	0.321721	0.246082	0.136503	0.481661	0.303415	0.254856	0.335235	0.226596	0.297675	0.213248	0.436113	0.785811	0.286718	0.229597	0.267007	0.063216	0.161932	0.140790	0.178236	0.183003	0.205202	0.331389	0.145643	0.096545	0.438724	0.415553	0.172091	0.308998	0.367939	0.352458	0.574647	0.436205	0.412494	0.364264	0.249314	0.461171	0.588412	0.425464	0.601780	0.330582	0.228877	0.139104	0.400689	0.544052	0.210176	0.203305	0.121493	0.137887	0.114932	0.321123	0.072629	0.279753	0.160744	0.157783
81	0.230604	0.040751	0.373720	0.365642	0.230441	0.291302	0.146007	0.318439	0.672827	0.223951	0.337456	0.419060	0.556194	0.216647	0.308327	0.317196	0.196365	0.179550	0.245084	0.579385	0.102690	0.407331	0.040233	0.041395	0.215457	0.689172	0.330475	0.246066	0.139385	0.499791	0.297532	0.232401	0.394337	0.259436	0.275871	0.199213	0.390263	0.783997	0.264678	0.190868	0.286616	0.175836	0.145413	0.141870	0.193671	0.183087	0.215041	0.343682	0.211259	0.093014	0.387368	0.330443	0.175268	0.272579	0.388020	0.383601	0.604777	0.452815	0.448784	0.303397	0.194809	0.473677	0.611093	0.433864	0.599159	0.329464	0.270149	0.330445	0.386180	0.534754	0.215222	0.213447	0.156230	0.162264	0.112363	0.331066	0.078735	0.307849	0.180394	0.163045
82	0.344264	0.066421	0.393582	0.370580	0.209518	0.298423	0.138361	0.375985	0.682549	0.227030	0.307855	0.387813	0.634192	0.219736	0.319465	0.260616	0.191386	0.178096	0.193990	0.381513	0.085710	0.397831	0.038746	0.087594	0.285300	0.763630	0.349669	0.151595	0.147835	0.604263	0.247957	0.243590	0.407966	0.259463	0.273691	0.184539	0.367749	0.755023	0.210738	0.165737	0.296066	0.248671	0.145386	0.132065	0.201672	0.203304	0.242248	0.369412	0.652553	0.104967	0.245520	0.319952	0.168611	0.261007	0.377745	0.429196	0.713321	0.472481	0.452036	0.298113	0.196415	0.473701	0.615987	0.390528	0.569930	0.329391	0.563527	0.448686	0.380661	0.534077	0.223952	0.213038	0.162618	0.159552	0.132268	0.329369	0.080536	0.338852	0.183356	0.160776
83	0.737770	0.112325	0.393643	0.361236	0.199362	0.307617	0.229426	0.417545	0.693249	0.233447	0.274970	0.412329	0.646700	0.221185	0.293774	0.292745	0.129270	0.148867	0.169840	0.236501	0.085161	0.373242	0.063171	0.158725	0.293052	0.775686	0.347183	0.106400	0.150344	0.637515	0.209175	0.233385	0.412855	0.256906	0.273121	0.181032	0.334864	0.550128	0.167018	0.158558	0.296149	0.266114	0.175607	0.136821	0.199032	0.250205	0.242076	0.372841	0.852014	0.105973	0.243884	0.278397	0.167443	0.191696	0.374069	0.465014	0.715886	0.474889	0.431734	0.294752	0.195167	0.462469	0.588991	0.359466	0.453487	0.327219	0.695719	0.449501	0.381261	0.533232	0.233601	0.269096	0.157523	0.151256	0.191016	0.374620	0.080790	0.332866	0.186316	0.142700
84	0.786063	0.125968	0.394144	0.348111	0.128623	0.291253	0.254317	0.511431	0.690633	0.233770	0.271667	0.429336	0.642778	0.208157	0.298477	0.355384	0.093276	0.095282	0.222247	0.538387	0.086920	0.363203	0.092129	0.181366	0.296170	0.856318	0.335069	0.197014	0.179016	0.726246	0.208519	0.208588	0.407492	0.252463	0.301588	0.182223	0.309422	0.491677	0.169611	0.218800	0.296669	0.331618	0.234935	0.145156	0.191655	0.284337	0.250221	0.359834	1.055795	0.112705	0.270501	0.264294	0.154892	0.201580	0.386355	0.465596	0.717057	0.477665	0.431788	0.275930	0.208226	0.422330	0.563451	0.352604	0.447570	0.330875	0.719040	0.479722	0.362892	0.512296	0.233760	0.372366	0.159709	0.158411	0.261232	0.377654	0.083093	0.332096	0.202791	0.131508
85	1.032779	0.128576	0.392548	0.333694	0.144235	0.291105	0.272175	0.561255	0.578176	0.252418	0.274189	0.422738	0.642898	0.192224	0.300266	0.336906	0.091447	0.091084	0.234429	0.578547	0.104436	0.361290	0.100475	0.191927	0.285004	0.948947	0.319465	0.221808	0.191870	0.755853	0.211197	0.205714	0.395934	0.251928	0.292249	0.189615	0.152813	0.261189	0.203678	0.235754	0.328951	0.337763	0.233501	0.146153	0.186446	0.275979	0.274133	0.342123	1.099905	0.107862	0.287397	0.269595	0.152604	0.215366	0.389340	0.407921	0.736019	0.475150	0.439693	0.223475	0.226137	0.371909	0.557997	0.353973	0.347865	0.334657	0.855992	0.606301	0.346941	0.376825	0.234387	0.458564	0.186022	0.184258	0.316342	0.378681	0.081528	0.315678	0.198518	0.139654
86	1.049600	0.134173	0.368447	0.303611	0.157152	0.286263	0.300084	0.568862	0.513129	0.277119	0.285961	0.414792	0.641812	0.230201	0.319100	0.326236	0.160027	0.100011	0.242178	0.586912	0.118028	0.340290	0.281342	0.210605	0.283923	0.943355	0.320378	0.234475	0.192890	0.736432	0.223213	0.204831	0.403337	0.238509	0.269771	0.177690	0.149021	0.244820	0.190202	0.248042	0.342115	0.339915	0.266386	0.165925	0.183142	0.270402	0.306523	0.340945	1.101394	0.098092	0.266093	0.369983	0.122812	0.221729	0.391608	0.389601	0.693582	0.406500	0.442739	0.182285	0.229831	0.348587	0.554720	0.341555	0.254538	0.314707	0.937360	0.713253	0.347262	0.345055	0.235799	0.466083	0.195393	0.193847	0.338498	0.345786	0.081748	0.313628	0.220991	0.144405
87	1.045373	0.149871	0.315775	0.204672	0.160262	0.275522	0.304402	0.569963	0.472560	0.279846	0.304075	0.406040	0.640730	0.261289	0.313969	0.346263	0.170556	0.102804	0.247943	0.667948	0.107109	0.270570	0.405758	0.245722	0.301606	0.925237	0.277696	0.239000	0.197584	0.729335	0.215502	0.205915	0.390735	0.225321	0.249407	0.189335	0.106779	0.182563	0.194019	0.284280	0.359720	0.340023	0.271019	0.176729	0.185324	0.314154	0.323594	0.344732	1.133289	0.092192	0.301718	0.459131	0.087838	0.272770	0.382900	0.389518	0.603763	0.357299	0.445954	0.175600	0.227333	0.348364	0.545339	0.274394	0.290112	0.307174	0.963839	0.748703	0.322358	0.331859	0.186378	0.497911	0.188219	0.185899	0.345807	0.276998	0.080599	0.311270	0.261866	0.137376
88	1.049596	0.150181	0.270817	0.160139	0.150130	0.248820	0.304485	0.573610	0.450654	0.315724	0.316959	0.382934	0.571692	0.264954	0.299824	0.350222	0.210890	0.126479	0.373958	0.746273	0.104941	0.256532	0.411620	0.260878	0.321480	0.926267	0.301852	0.235405	0.228960	0.725195	0.220346	0.223387	0.374299	0.208090	0.237361	0.198136	0.100421	0.166186	0.193076	0.320812	0.315277	0.337225	0.274820	0.220057	0.189273	0.333516	0.318055	0.314675	1.137075	0.088935	0.305600	0.473546	0.085630	0.360427	0.360975	0.383318	0.578594	0.315421	0.419161	0.174091	0.225968	0.335311	0.420991	0.268486	0.281091	0.247265	0.963436	0.753526	0.296444	0.212264	0.171920	0.538507	0.162945	0.162254	0.368942	0.259825	0.068416	0.319142	0.286187	0.117072
89	1.054441	0.150930	0.269244	0.159861	0.148679	0.187160	0.300169	0.556936	0.427038	0.309424	0.293847	0.309981	0.428795	0.268084	0.329519	0.371970	0.289843	0.147321	0.394815	0.750493	0.210154	0.233983	0.428217	0.249652	0.325662	0.821094	0.335061	0.273387	0.235596	0.674551	0.230945	0.220976	0.274502	0.080938	0.213381	0.157469	0.101394	0.137488	0.179736	0.336039	0.312713	0.336516	0.285556	0.245702	0.173146	0.348731	0.341399	0.333681	1.135870	0.086708	0.374232	0.466187	0.087685	0.388593	0.358503	0.362704	0.495465	0.221847	0.407202	0.209334	0.221240	0.295526	0.407723	0.247403	0.219288	0.213978	0.959495	0.752643	0.125221	0.093442	0.192746	0.546141	0.156510	0.157948	0.400976	0.263279	0.064011	0.317765	0.288388	0.115780
90	1.054876	0.155145	0.212942	0.156186	0.129665	0.218183	0.300943	0.459768	0.489832	0.300400	0.246319	0.246065	0.418101	0.265485	0.334986	0.440783	0.314160	0.146845	0.384230	0.594923	0.498872	0.213415	0.431968	0.215029	0.278638	0.699682	0.381252	0.304655	0.236512	0.653873	0.231490	0.218138	0.233548	0.054284	0.217559	0.185936	0.098226	0.149670	0.177403	0.335881	0.347040	0.337822	0.287037	0.247581	0.162264	0.354160	0.330846	0.357787	1.135363	0.086465	0.447711	0.478906	0.087990	0.402924	0.355155	0.350402	0.474215	0.189598	0.350797	0.217116	0.220339	0.194853	0.369879	0.221713	0.218928	0.243115	0.953369	0.699584	0.114179	0.104959	0.199004	0.549265	0.169367	0.167798	0.445186	0.230537	0.071156	0.254393	0.282641	0.130033
91	1.052541	0.155046	0.156793	0.134460	0.149454	0.269552	0.296593	0.438588	0.593852	0.297018	0.228017	0.242467	0.345843	0.274610	0.317112	0.461002	0.362121	0.173602	0.392163	0.519658	0.546525	0.197020	0.428536	0.270858	0.236242	0.630724	0.610667	0.299482	0.260795	0.641347	0.224435	0.211448	0.227693	0.052994	0.256951	0.190401	0.103582	0.223910	0.181596	0.327327	0.397610	0.285029	0.293016	0.256426	0.153041	0.357226	0.329597	0.343947	1.132423	0.107843	0.442049	0.615272	0.083873	0.401409	0.298496	0.350051	0.271842	0.139827	0.353351	0.271329	0.218379	0.134057	0.287741	0.172603	0.217349	0.256775	0.835401	0.634295	0.130986	0.141378	0.217147	0.553662	0.172385	0.164556	0.426594	0.194165	0.077867	0.233160	0.264601	0.150198
92	0.872389	0.126027	0.168078	0.138359	0.153821	0.273921	0.227228	0.372683	0.585511	0.294018	0.243446	0.196144	0.195982	0.305057	0.307583	0.456982	0.356023	0.175882	0.375782	0.514756	0.684745	0.166243	0.431313	0.313671	0.233693	0.615827	0.642116	0.294392	0.261754	0.639296	0.223138	0.198169	0.214910	0.061043	0.283253	0.197471	0.120945	0.374179	0.182131	0.317824	0.399687	0.243578	0.306908	0.286344	0.139281	0.352654	0.326061	0.324486	1.015999	0.224376	0.449471	0.673489	0.077705	0.407415	0.240292	0.333765	0.262609	0.142352	0.376746	0.289943	0.194048	0.126105	0.247740	0.178918	0.245009	0.362512	0.734305	0.648872	0.137473	0.142260	0.226335	0.557441	0.153256	0.139808	0.389368	0.200955	0.078356	0.150995	0.268975	0.172300
93	0.802235	0.108748	0.174734	0.155992	0.167400	0.275300	0.216781	0.230238	0.587242	0.292880	0.243444	0.149507	0.191152	0.311147	0.305110	0.417887	0.348837	0.201699	0.377969	0.420528	0.683580	0.160257	0.339728	0.305448	0.220441	0.370061	0.668628	0.270616	0.255070	0.540332	0.222657	0.187010	0.214136	0.070410	0.310010	0.195662	0.118490	0.388050	0.184602	0.285177	0.422078	0.211745	0.280596	0.272350	0.138825	0.341363	0.309398	0.307689	0.775704	0.288390	0.478102	0.686197	0.074425	0.422383	0.227750	0.284148	0.257932	0.131913	0.419628	0.279138	0.161237	0.119632	0.260376	0.195768	0.315492	0.366233	0.724704	0.654152	0.150093	0.196520	0.246375	0.540102	0.201117	0.130829	0.379897	0.197771	0.075328	0.148685	0.274311	0.173737
94	0.549265	0.106001	0.191846	0.178509	0.321297	0.273448	0.167682	0.136310	0.586354	0.286946	0.238403	0.142374	0.318642	0.315191	0.299069	0.365343	0.331594	0.271577	0.267671	0.223548	0.683855	0.163522	0.222374	0.280872	0.244898	0.267624	0.667631	0.276761	0.252359	0.502417	0.219149	0.165420	0.207157	0.067791	0.348589	0.184723	0.117998	0.411759	0.151386	0.282361	0.452803	0.114030	0.255846	0.276843	0.149168	0.313533	0.380581	0.327802	0.612563	0.321574	0.462858	0.688412	0.073201	0.456778	0.233884	0.217774	0.203792	0.131808	0.432545	0.281189	0.140252	0.115982	0.267033	0.189784	0.317642	0.377577	0.571666	0.576709	0.153252	0.246365	0.249595	0.488141	0.301233	0.130371	0.485165	0.180579	0.072764	0.164137	0.264861	0.185739
95	0.410718	0.107861	0.216659	0.181616	0.355641	0.278690	0.126808	0.254729	0.571769	0.256768	0.228308	0.149214	0.363496	0.295289	0.300842	0.367382	0.276341	0.273962	0.250080	0.130797	0.685299	0.170246	0.209907	0.282275	0.273987	0.241606	0.668431	0.275335	0.237317	0.322618	0.204279	0.163083	0.156452	0.061669	0.381814	0.187021	0.130724	0.470565	0.179970	0.281358	0.525429	0.102090	0.310715	0.278426	0.157194	0.274096	0.412277	0.344196	0.343552	0.345980	0.440657	0.686579	0.078280	0.461129	0.178679	0.192503	0.158413	0.132410	0.442396	0.362035	0.098198	0.115946	0.274528	0.231385	0.400257	0.384416	0.413678	0.442657	0.156441	0.249364	0.262705	0.389660	0.308225	0.125498	0.503223	0.156878	0.073396	0.164376	0.249947	0.187812
96	0.395585	0.079117	0.253567	0.186945	0.537048	0.293615	0.247704	0.403103	0.528793	0.246874	0.226684	0.149508	0.473039	0.263723	0.272789	0.366723	0.281954	0.331540	0.243694	0.125364	0.651835	0.159376	0.171072	0.303410	0.254151	0.217061	0.669902	0.293303	0.214265	0.199877	0.188086	0.173054	0.131832	0.069359	0.380165	0.171998	0.138137	0.485351	0.195425	0.252463	0.519123	0.097865	0.299120	0.292489	0.156731	0.269526	0.399731	0.351174	0.362679	0.371318	0.437134	0.657303	0.080738	0.454801	0.167219	0.182110	0.156906	0.133276	0.451228	0.411783	0.051859	0.116867	0.274552	0.267111	0.385234	0.355372	0.344566	0.392560	0.155311	0.252543	0.261011	0.361804	0.324351	0.116220	0.498525	0.160269	0.077021	0.155312	0.239133	0.189747
97	0.556174	0.094251	0.263495	0.187721	0.597171	0.296717	0.282087	0.413095	0.482229	0.203204	0.199578	0.152694	0.513500	0.225095	0.276359	0.342842	0.261771	0.425114	0.255084	0.108237	0.475003	0.124637	0.158760	0.343781	0.226009	0.183823	0.655937	0.354593	0.210203	0.155400	0.146628	0.186264	0.104040	0.081185	0.381835	0.208656	0.151094	0.498649	0.195553	0.202747	0.507593	0.099422	0.372657	0.286112	0.156402	0.260299	0.376035	0.351342	0.286171	0.374311	0.424273	0.571616	0.079145	0.454374	0.174154	0.187295	0.141125	0.125649	0.453138	0.414221	0.054466	0.117981	0.238397	0.273549	0.421454	0.349823	0.305782	0.390216	0.159857	0.295222	0.246388	0.332713	0.360088	0.107848	0.425796	0.147689	0.127784	0.155611	0.201212	0.189763
98	0.582892	0.094790	0.277131	0.187237	0.601745	0.283055	0.287950	0.457231	0.475076	0.184729	0.223139	0.155967	0.527958	0.219981	0.261490	0.341579	0.264050	0.486753	0.273863	0.093797	0.401092	0.126433	0.170548	0.311426	0.214068	0.167713	0.625915	0.319400	0.206897	0.141864	0.117485	0.201149	0.087545	0.092270	0.391072	0.241040	0.154783	0.540795	0.197570	0.179157	0.505477	0.101938	0.407848	0.259410	0.143278	0.225243	0.370707	0.361680	0.224034	0.410507	0.424898	0.535543	0.080185	0.420772	0.162340	0.189780	0.137218	0.116022	0.425633	0.412415	0.071255	0.115918	0.206033	0.269649	0.424616	0.335556	0.314235	0.395732	0.161549	0.312003	0.241217	0.248790	0.388456	0.116610	0.407244	0.199817	0.169758	0.136673	0.152435	0.190745
99	0.579388	0.090939	0.266311	0.175714	0.601770	0.235189	0.298120	0.496330	0.430870	0.111859	0.229484	0.215612	0.528701	0.214594	0.271932	0.307428	0.261347	0.510720	0.262871	0.081730	0.081991	0.127668	0.170441	0.267338	0.230544	0.161522	0.554777	0.308679	0.176448	0.140803	0.162192	0.242938	0.103187	0.105608	0.346390	0.249827	0.163014	0.605994	0.200784	0.170941	0.493711	0.105633	0.493392	0.280133	0.128524	0.176233	0.373275	0.357286	0.228310	0.417453	0.416664	0.536681	0.079022	0.344466	0.178829	0.205664	0.119281	0.096629	0.398663	0.461345	0.103320	0.105938	0.204299	0.272077	0.420631	0.317206	0.299742	0.411449	0.155508	0.317363	0.234391	0.213243	0.451345	0.124982	0.449575	0.455174	0.184988	0.182770	0.141371	0.190746
100	0.574236	0.087865	0.276394	0.176626	0.595736	0.156642	0.291052	0.514270	0.219070	0.100086	0.239504	0.225429	0.520616	0.210290	0.264052	0.205005	0.255114	0.472280	0.315890	0.141682	0.083769	0.158188	0.136752	0.277859	0.242773	0.170838	0.426639	0.308962	0.154595	0.138139	0.180411	0.252150	0.108796	0.108993	0.369357	0.317422	0.157846	0.638117	0.199128	0.179805	0.457775	0.089576	0.506054	0.283094	0.124180	0.136376	0.367532	0.332883	0.231912	0.420163	0.310197	0.542531	0.073977	0.294508	0.180762	0.234510	0.097527	0.073540	0.436197	0.470761	0.118737	0.071694	0.208577	0.271170	0.423340	0.315021	0.309513	0.439794	0.164760	0.368558	0.222545	0.226386	0.473550	0.127004	0.444596	0.476367	0.237518	0.204553	0.137732	0.182564
101	0.549513	0.087838	0.276411	0.187184	0.596113	0.148156	0.287360	0.514402	0.159994	0.107862	0.238338	0.222452	0.516416	0.207870	0.262158	0.161350	0.257838	0.464690	0.287847	0.143583	0.089555	0.223968	0.112383	0.285924	0.245292	0.171719	0.385094	0.395551	0.142340	0.129914	0.178262	0.245930	0.104592	0.102437	0.375228	0.394013	0.131416	0.610739	0.192624	0.181651	0.405291	0.080254	0.512575	0.329184	0.121332	0.111088	0.341307	0.270575	0.263349	0.418771	0.293705	0.414786	0.073922	0.266196	0.196413	0.242416	0.060943	0.043426	0.414882	0.449584	0.151215	0.061501	0.209407	0.274926	0.409229	0.178377	0.302094	0.424606	0.158604	0.354577	0.221340	0.244265	0.421056	0.126771	0.467663	0.485239	0.279153	0.227639	0.133709	0.159613
