	162_P_T3_sh_R_D_A_01.c3d	162_P_T3_sh_R_D_A_01.c3d	162_P_T3_sh_R_D_A_01.c3d	162_P_T3_sh_R_D_A_01.c3d	162_P_T3_sh_R_D_A_01.c3d	162_P_T3_sh_R_D_A_01.c3d	162_P_T3_sh_R_D_A_01.c3d	162_P_T3_sh_R_D_A_01.c3d	162_P_T3_sh_R_D_A_02.c3d	162_P_T3_sh_R_D_A_02.c3d	162_P_T3_sh_R_D_A_02.c3d	162_P_T3_sh_R_D_A_02.c3d	162_P_T3_sh_R_D_A_02.c3d	162_P_T3_sh_R_D_A_02.c3d	162_P_T3_sh_R_D_A_02.c3d	162_P_T3_sh_R_D_A_02.c3d	162_P_T3_sh_R_D_A_03.c3d	162_P_T3_sh_R_D_A_03.c3d	162_P_T3_sh_R_D_A_03.c3d	162_P_T3_sh_R_D_A_03.c3d	162_P_T3_sh_R_D_A_03.c3d	162_P_T3_sh_R_D_A_03.c3d	162_P_T3_sh_R_D_A_03.c3d	162_P_T3_sh_R_D_A_03.c3d	162_P_T3_sh_R_D_A_04.c3d	162_P_T3_sh_R_D_A_04.c3d	162_P_T3_sh_R_D_A_04.c3d	162_P_T3_sh_R_D_A_04.c3d	162_P_T3_sh_R_D_A_04.c3d	162_P_T3_sh_R_D_A_04.c3d	162_P_T3_sh_R_D_A_04.c3d	162_P_T3_sh_R_D_A_04.c3d	162_P_T3_sh_R_D_A_06.c3d	162_P_T3_sh_R_D_A_06.c3d	162_P_T3_sh_R_D_A_06.c3d	162_P_T3_sh_R_D_A_06.c3d	162_P_T3_sh_R_D_A_06.c3d	162_P_T3_sh_R_D_A_06.c3d	162_P_T3_sh_R_D_A_06.c3d	162_P_T3_sh_R_D_A_06.c3d	162_P_T3_sh_R_D_A_07.c3d	162_P_T3_sh_R_D_A_07.c3d	162_P_T3_sh_R_D_A_07.c3d	162_P_T3_sh_R_D_A_07.c3d	162_P_T3_sh_R_D_A_07.c3d	162_P_T3_sh_R_D_A_07.c3d	162_P_T3_sh_R_D_A_07.c3d	162_P_T3_sh_R_D_A_07.c3d	162_P_T3_sh_R_D_A_08.c3d	162_P_T3_sh_R_D_A_08.c3d	162_P_T3_sh_R_D_A_08.c3d	162_P_T3_sh_R_D_A_08.c3d	162_P_T3_sh_R_D_A_08.c3d	162_P_T3_sh_R_D_A_08.c3d	162_P_T3_sh_R_D_A_08.c3d	162_P_T3_sh_R_D_A_08.c3d	162_P_T3_sh_R_D_A_10.c3d	162_P_T3_sh_R_D_A_10.c3d	162_P_T3_sh_R_D_A_10.c3d	162_P_T3_sh_R_D_A_10.c3d	162_P_T3_sh_R_D_A_10.c3d	162_P_T3_sh_R_D_A_10.c3d	162_P_T3_sh_R_D_A_10.c3d	162_P_T3_sh_R_D_A_10.c3d
	Biceps femoris_lat	Semitendinosus_lat	Vastus lateralis_lat	Vastus medialis_lat	Biceps femoris_med	Semitendinosus_med	Vastus lateralis_med	Vastus medialis_med	Biceps femoris_lat	Semitendinosus_lat	Vastus lateralis_lat	Vastus medialis_lat	Biceps femoris_med	Semitendinosus_med	Vastus lateralis_med	Vastus medialis_med	Biceps femoris_lat	Semitendinosus_lat	Vastus lateralis_lat	Vastus medialis_lat	Biceps femoris_med	Semitendinosus_med	Vastus lateralis_med	Vastus medialis_med	Biceps femoris_lat	Semitendinosus_lat	Vastus lateralis_lat	Vastus medialis_lat	Biceps femoris_med	Semitendinosus_med	Vastus lateralis_med	Vastus medialis_med	Biceps femoris_lat	Semitendinosus_lat	Vastus lateralis_lat	Vastus medialis_lat	Biceps femoris_med	Semitendinosus_med	Vastus lateralis_med	Vastus medialis_med	Biceps femoris_lat	Semitendinosus_lat	Vastus lateralis_lat	Vastus medialis_lat	Biceps femoris_med	Semitendinosus_med	Vastus lateralis_med	Vastus medialis_med	Biceps femoris_lat	Semitendinosus_lat	Vastus lateralis_lat	Vastus medialis_lat	Biceps femoris_med	Semitendinosus_med	Vastus lateralis_med	Vastus medialis_med	Biceps femoris_lat	Semitendinosus_lat	Vastus lateralis_lat	Vastus medialis_lat	Biceps femoris_med	Semitendinosus_med	Vastus lateralis_med	Vastus medialis_med
	P2D	P2D	P2D	P2D	P2D	P2D	P2D	P2D	P2D	P2D	P2D	P2D	P2D	P2D	P2D	P2D	P2D	P2D	P2D	P2D	P2D	P2D	P2D	P2D	P2D	P2D	P2D	P2D	P2D	P2D	P2D	P2D	P2D	P2D	P2D	P2D	P2D	P2D	P2D	P2D	P2D	P2D	P2D	P2D	P2D	P2D	P2D	P2D	P2D	P2D	P2D	P2D	P2D	P2D	P2D	P2D	P2D	P2D	P2D	P2D	P2D	P2D	P2D	P2D
	EMG_lat	EMG_lat	EMG_lat	EMG_lat	EMG_med	EMG_med	EMG_med	EMG_med	EMG_lat	EMG_lat	EMG_lat	EMG_lat	EMG_med	EMG_med	EMG_med	EMG_med	EMG_lat	EMG_lat	EMG_lat	EMG_lat	EMG_med	EMG_med	EMG_med	EMG_med	EMG_lat	EMG_lat	EMG_lat	EMG_lat	EMG_med	EMG_med	EMG_med	EMG_med	EMG_lat	EMG_lat	EMG_lat	EMG_lat	EMG_med	EMG_med	EMG_med	EMG_med	EMG_lat	EMG_lat	EMG_lat	EMG_lat	EMG_med	EMG_med	EMG_med	EMG_med	EMG_lat	EMG_lat	EMG_lat	EMG_lat	EMG_med	EMG_med	EMG_med	EMG_med	EMG_lat	EMG_lat	EMG_lat	EMG_lat	EMG_med	EMG_med	EMG_med	EMG_med
ITEM	Y	Y	Y	Y	Y	Y	Y	Y	Y	Y	Y	Y	Y	Y	Y	Y	Y	Y	Y	Y	Y	Y	Y	Y	Y	Y	Y	Y	Y	Y	Y	Y	Y	Y	Y	Y	Y	Y	Y	Y	Y	Y	Y	Y	Y	Y	Y	Y	Y	Y	Y	Y	Y	Y	Y	Y	Y	Y	Y	Y	Y	Y	Y	Y
1	0.121200	0.171949	0.185436	0.353237	0.421148	0.552611	0.167150	0.371706	0.055869	0.051364	0.113402	0.333245	0.103954	0.474628	0.101234	0.274954	0.305841	0.262634	0.207391	0.340315	0.152615	0.341767	0.115152	0.296022	0.111287	0.344689	0.102965	0.274319	0.044901	0.078976	0.091716	0.306519	0.106162	0.091618	0.306268	0.166272	0.062976	0.153710	0.212926	0.154924	0.103950	0.132187	0.097105	0.289935	0.184629	0.225565	0.133317	0.238235	0.345373	0.181338	0.043967	0.304864	0.077773	0.058006	0.206294	0.284206	0.155799	0.400358	0.160260	0.161560	0.308530	0.271009	0.189609	0.256654
2	0.099286	0.147145	0.160949	0.300152	0.403156	0.551014	0.164104	0.368266	0.059705	0.043666	0.119676	0.394529	0.105505	0.478663	0.208624	0.351178	0.373662	0.273619	0.217649	0.356926	0.140010	0.327503	0.129867	0.294034	0.097782	0.313282	0.116950	0.305741	0.045993	0.079484	0.091387	0.361995	0.108780	0.087068	0.306617	0.169033	0.060988	0.152216	0.177211	0.168367	0.097644	0.124909	0.097093	0.290568	0.152555	0.219715	0.131561	0.226523	0.311509	0.175434	0.044099	0.305217	0.069879	0.046931	0.161301	0.276661	0.117788	0.295858	0.172964	0.207697	0.297281	0.225930	0.187308	0.226419
3	0.089109	0.126771	0.118697	0.235021	0.367456	0.522354	0.161991	0.334517	0.062160	0.047300	0.122993	0.406244	0.107311	0.482718	0.248523	0.345805	0.386017	0.280654	0.210263	0.332123	0.136698	0.318504	0.125391	0.192141	0.084104	0.257294	0.111960	0.308166	0.050091	0.081270	0.095746	0.397168	0.111100	0.088115	0.306519	0.149552	0.055653	0.145059	0.145505	0.153220	0.083113	0.107218	0.092738	0.285056	0.142393	0.313113	0.131159	0.209110	0.304576	0.170030	0.044704	0.291319	0.066016	0.045086	0.123337	0.272729	0.066212	0.215918	0.178235	0.214563	0.190956	0.155531	0.180510	0.226785
4	0.088040	0.125164	0.111345	0.223097	0.353863	0.456436	0.127093	0.325496	0.060118	0.045007	0.115422	0.402875	0.107509	0.495838	0.254033	0.351105	0.398355	0.299410	0.188345	0.310330	0.136032	0.302449	0.128574	0.170219	0.072953	0.256727	0.126642	0.293624	0.053464	0.083020	0.113854	0.418836	0.111380	0.088112	0.302830	0.148306	0.055347	0.143140	0.136600	0.152304	0.077616	0.098570	0.093298	0.269563	0.140949	0.366034	0.115133	0.193441	0.277164	0.137630	0.044136	0.223737	0.056465	0.048390	0.126701	0.267420	0.058924	0.187063	0.177914	0.210393	0.125672	0.157682	0.176448	0.221927
5	0.096004	0.124603	0.114333	0.214937	0.339172	0.406439	0.078045	0.349845	0.058576	0.045891	0.105057	0.401589	0.110294	0.454555	0.265168	0.484392	0.411840	0.326505	0.191277	0.309309	0.124848	0.265670	0.134116	0.163215	0.064076	0.252355	0.147572	0.258900	0.053901	0.081397	0.128085	0.423570	0.110541	0.087426	0.275003	0.158239	0.046976	0.120106	0.130730	0.157574	0.073387	0.091074	0.110907	0.269801	0.143658	0.389365	0.089315	0.199716	0.256223	0.129052	0.050152	0.176760	0.043577	0.053110	0.128140	0.208679	0.059516	0.187673	0.183273	0.226199	0.111234	0.160996	0.173047	0.255570
6	0.107797	0.140978	0.111978	0.223917	0.238098	0.402547	0.064366	0.351214	0.058886	0.048215	0.105686	0.397229	0.113454	0.426863	0.277029	0.598336	0.414186	0.334573	0.197167	0.291130	0.093179	0.220725	0.134858	0.158302	0.039326	0.237453	0.237915	0.257995	0.054211	0.082062	0.163834	0.445426	0.108626	0.088899	0.203551	0.184580	0.038665	0.088561	0.137021	0.158678	0.057327	0.073205	0.114436	0.242124	0.154441	0.572467	0.082115	0.197921	0.248690	0.126460	0.086703	0.170503	0.043296	0.057617	0.166353	0.196627	0.057107	0.185585	0.189182	0.231789	0.110937	0.181591	0.175601	0.276919
7	0.108276	0.159484	0.138068	0.219000	0.206049	0.394826	0.101859	0.311938	0.063070	0.052209	0.116191	0.381659	0.106010	0.390524	0.296586	0.597062	0.413475	0.331297	0.191014	0.296132	0.090395	0.215747	0.127850	0.166600	0.038909	0.237595	0.267272	0.322035	0.054751	0.084473	0.176831	0.442280	0.105930	0.089942	0.165153	0.188078	0.039335	0.092249	0.135303	0.237203	0.034633	0.052303	0.112014	0.181148	0.167224	0.614437	0.071636	0.207702	0.193518	0.103570	0.112115	0.172554	0.040286	0.060866	0.173989	0.203143	0.053882	0.178658	0.188352	0.229916	0.108297	0.190820	0.183995	0.266012
8	0.110115	0.160259	0.136755	0.374406	0.187101	0.365053	0.106885	0.278426	0.070618	0.055154	0.148978	0.383156	0.108788	0.328437	0.307500	0.606410	0.412548	0.325313	0.179917	0.317919	0.088591	0.216062	0.129435	0.183538	0.038574	0.247817	0.366802	0.334141	0.063935	0.093859	0.186398	0.443886	0.106308	0.090122	0.166810	0.190701	0.038887	0.097486	0.119389	0.300183	0.030297	0.046821	0.111647	0.161314	0.167746	0.616443	0.063341	0.183657	0.132195	0.086453	0.121549	0.191559	0.039943	0.065600	0.189153	0.258596	0.052882	0.175889	0.170472	0.225792	0.097338	0.187288	0.212817	0.271922
9	0.107620	0.160187	0.135414	0.449459	0.185853	0.332358	0.127895	0.322493	0.073591	0.056009	0.154493	0.385130	0.109529	0.368490	0.313114	0.645235	0.401043	0.307952	0.175106	0.315558	0.084871	0.206875	0.155105	0.256307	0.044064	0.255438	0.415607	0.345357	0.072740	0.102541	0.197725	0.458838	0.106041	0.089718	0.177047	0.190958	0.048645	0.122172	0.155157	0.305217	0.034782	0.049169	0.108650	0.169361	0.157807	0.672771	0.062044	0.219935	0.117252	0.085575	0.122610	0.194974	0.038792	0.074075	0.210811	0.286321	0.054521	0.168016	0.142068	0.257188	0.082328	0.173489	0.193517	0.329236
10	0.104829	0.163971	0.141578	0.442107	0.182484	0.301438	0.131651	0.339333	0.074459	0.057707	0.154655	0.379838	0.101588	0.385744	0.312753	0.641711	0.371143	0.288313	0.165438	0.330610	0.070951	0.184362	0.214360	0.279046	0.050904	0.229265	0.420253	0.371703	0.072453	0.097641	0.206476	0.463755	0.112248	0.102900	0.177306	0.192195	0.057776	0.148649	0.179496	0.344228	0.035471	0.053771	0.107439	0.170542	0.144066	0.749885	0.064955	0.275068	0.115169	0.084983	0.153632	0.205535	0.049510	0.092847	0.219545	0.269191	0.052774	0.154808	0.144942	0.260873	0.073056	0.175748	0.188760	0.348354
11	0.099515	0.161249	0.136235	0.431576	0.175733	0.241176	0.156308	0.336903	0.074654	0.058064	0.155320	0.385139	0.102554	0.424381	0.286772	0.572016	0.345429	0.269457	0.165203	0.344445	0.053524	0.153073	0.220416	0.281092	0.064036	0.167934	0.412702	0.373742	0.073259	0.090259	0.214516	0.462372	0.114600	0.121148	0.161925	0.188680	0.058749	0.156335	0.190395	0.417205	0.038267	0.082894	0.108657	0.171868	0.136053	0.766854	0.108891	0.309834	0.114131	0.081469	0.234480	0.225404	0.054423	0.103039	0.218805	0.271142	0.058601	0.135793	0.172575	0.271065	0.094143	0.215370	0.198198	0.335081
12	0.092595	0.146082	0.131740	0.429330	0.161409	0.231205	0.168905	0.338191	0.075248	0.058107	0.157803	0.391232	0.134097	0.456779	0.215124	0.595882	0.305253	0.244145	0.169828	0.352951	0.047764	0.124690	0.217490	0.287144	0.086938	0.154809	0.420075	0.374614	0.070991	0.088383	0.230332	0.447730	0.116198	0.131896	0.151235	0.187033	0.063508	0.156973	0.191370	0.467944	0.042391	0.101005	0.107391	0.179094	0.128112	0.752548	0.141330	0.348764	0.103822	0.082334	0.250641	0.224923	0.065597	0.117681	0.231726	0.346527	0.063435	0.110118	0.186497	0.284885	0.162013	0.374362	0.300932	0.354473
13	0.092320	0.143413	0.129108	0.437619	0.115033	0.151480	0.191124	0.367082	0.072841	0.060484	0.157285	0.431652	0.168275	0.457755	0.232889	0.633800	0.287345	0.230877	0.168781	0.369499	0.061347	0.106953	0.208119	0.289822	0.089966	0.132276	0.403912	0.366593	0.067417	0.092166	0.274062	0.409953	0.106996	0.127991	0.142031	0.182765	0.066601	0.160451	0.191373	0.473581	0.044586	0.107476	0.107706	0.193380	0.126864	0.725273	0.156278	0.404076	0.086693	0.089432	0.251684	0.228200	0.069071	0.123294	0.256259	0.383262	0.061898	0.085532	0.184820	0.279072	0.164205	0.387301	0.370801	0.373078
14	0.100407	0.156956	0.131064	0.472194	0.160855	0.168093	0.207719	0.418718	0.081114	0.073864	0.156350	0.546917	0.165082	0.450447	0.228428	0.599757	0.195344	0.232981	0.162515	0.377304	0.072684	0.093234	0.217576	0.353847	0.089903	0.133527	0.377787	0.356218	0.065732	0.100009	0.328395	0.372320	0.136523	0.127386	0.140136	0.176880	0.073114	0.152861	0.197210	0.469431	0.045031	0.111335	0.120252	0.181619	0.134736	0.728599	0.159387	0.403204	0.071382	0.091792	0.256467	0.235881	0.081964	0.127317	0.257204	0.384378	0.061317	0.080853	0.177725	0.254122	0.171865	0.385568	0.387450	0.425181
15	0.103372	0.159371	0.129763	0.502471	0.244402	0.239102	0.208828	0.420472	0.100313	0.090145	0.155434	0.522923	0.166405	0.413550	0.219463	0.446100	0.157582	0.234473	0.155230	0.374068	0.075780	0.086497	0.257181	0.500651	0.090574	0.148212	0.342957	0.281029	0.061350	0.107960	0.340859	0.347906	0.157890	0.139524	0.137832	0.168489	0.073266	0.158846	0.194367	0.470168	0.045027	0.112205	0.128793	0.173243	0.149260	0.682353	0.213758	0.403791	0.064685	0.086190	0.258988	0.243869	0.088999	0.134879	0.256768	0.385282	0.061293	0.079083	0.176353	0.253350	0.188552	0.384812	0.390740	0.425759
16	0.100807	0.173971	0.129013	0.517679	0.268483	0.256104	0.236272	0.445839	0.114549	0.101603	0.155747	0.501871	0.174264	0.400844	0.195656	0.444708	0.125134	0.218408	0.151028	0.402574	0.075927	0.091772	0.279793	0.529397	0.090380	0.207715	0.227873	0.265040	0.059224	0.124621	0.339816	0.340969	0.157082	0.139456	0.132555	0.158809	0.079967	0.173570	0.202782	0.461700	0.044410	0.110152	0.120859	0.171515	0.128711	0.602709	0.267983	0.414770	0.065658	0.086779	0.263427	0.253577	0.095252	0.142986	0.241496	0.391049	0.065458	0.068656	0.178610	0.245047	0.203984	0.381852	0.385621	0.436887
17	0.113306	0.236691	0.131383	0.516812	0.294636	0.259942	0.275584	0.436809	0.132958	0.106737	0.152437	0.545339	0.183555	0.427532	0.170505	0.450051	0.060371	0.172605	0.143529	0.412669	0.075958	0.092433	0.308443	0.529614	0.089451	0.244571	0.217511	0.167681	0.067344	0.131676	0.359541	0.319315	0.156838	0.144968	0.132604	0.155312	0.087047	0.177165	0.203480	0.404664	0.044654	0.109755	0.101152	0.170348	0.126673	0.588978	0.270584	0.462818	0.062714	0.111592	0.264935	0.251599	0.101623	0.152288	0.234003	0.393860	0.076498	0.058850	0.185269	0.235175	0.208607	0.396092	0.375970	0.451224
18	0.163455	0.279212	0.135771	0.516341	0.294950	0.257973	0.283376	0.418576	0.143764	0.112994	0.182604	0.571921	0.197539	0.475280	0.149628	0.400038	0.032392	0.145712	0.133477	0.406742	0.077873	0.086301	0.329667	0.528463	0.085106	0.243995	0.225719	0.133800	0.070964	0.129317	0.386175	0.289746	0.157036	0.144023	0.130163	0.109242	0.084028	0.170595	0.188875	0.412887	0.050352	0.111533	0.094028	0.161615	0.126860	0.555111	0.279253	0.483324	0.060514	0.125260	0.263234	0.258354	0.105578	0.154711	0.249699	0.375085	0.090253	0.071040	0.195368	0.231042	0.208737	0.415975	0.353910	0.425521
19	0.168448	0.293504	0.114903	0.531831	0.299956	0.255570	0.280840	0.421756	0.144808	0.113152	0.236414	0.593919	0.202194	0.479444	0.151993	0.376413	0.033141	0.146822	0.135386	0.379653	0.086360	0.085656	0.329320	0.546023	0.063663	0.247507	0.227970	0.157658	0.074133	0.125461	0.396423	0.309499	0.157287	0.143711	0.126949	0.104822	0.074287	0.145583	0.148251	0.398355	0.053411	0.113502	0.096534	0.152258	0.121404	0.426381	0.308946	0.473782	0.061008	0.124615	0.267900	0.238560	0.107156	0.154503	0.257321	0.338260	0.109515	0.084687	0.214931	0.229470	0.209413	0.475347	0.387816	0.415963
20	0.210133	0.374744	0.114764	0.499766	0.313065	0.257422	0.287899	0.423241	0.152575	0.113987	0.263877	0.605734	0.201879	0.524405	0.155760	0.370511	0.032057	0.151188	0.136814	0.352324	0.092479	0.103250	0.331304	0.595839	0.056314	0.260865	0.262437	0.200819	0.066266	0.113617	0.389023	0.356867	0.158165	0.145992	0.125518	0.093141	0.072678	0.130881	0.153176	0.327459	0.055167	0.114037	0.095842	0.151948	0.119770	0.360110	0.316782	0.487998	0.061590	0.124376	0.270432	0.210142	0.102677	0.150081	0.264185	0.318343	0.342046	0.106826	0.227317	0.228368	0.211145	0.508005	0.423671	0.449775
21	0.301156	0.430440	0.113929	0.450449	0.328484	0.264076	0.282640	0.399127	0.158715	0.115972	0.265287	0.604030	0.194447	0.517003	0.160589	0.354061	0.030807	0.153408	0.119663	0.347170	0.090654	0.106591	0.319597	0.595087	0.058965	0.264897	0.299610	0.226757	0.067585	0.107693	0.386672	0.387125	0.158717	0.147967	0.109615	0.096525	0.075406	0.145183	0.169359	0.217015	0.059147	0.116658	0.095237	0.159274	0.118640	0.348733	0.307597	0.482226	0.061107	0.124431	0.271170	0.205341	0.099320	0.140653	0.270622	0.315290	0.532807	0.121371	0.225202	0.191052	0.196700	0.469707	0.413357	0.461580
22	0.427332	0.483748	0.110145	0.448997	0.330704	0.263768	0.280131	0.379837	0.161955	0.118777	0.255121	0.599266	0.165596	0.525365	0.154506	0.267031	0.041959	0.154196	0.126702	0.331876	0.090473	0.118322	0.313101	0.599585	0.059433	0.259513	0.301867	0.225140	0.067876	0.115842	0.378974	0.399232	0.157008	0.144771	0.096821	0.106464	0.086355	0.190824	0.171504	0.162692	0.063389	0.124484	0.094834	0.158614	0.121861	0.350258	0.310921	0.425462	0.058943	0.124374	0.259508	0.190004	0.093907	0.135460	0.274295	0.264874	0.612434	0.137372	0.266693	0.180153	0.183721	0.478915	0.328879	0.454266
23	0.488350	0.505156	0.115733	0.452895	0.329092	0.263920	0.269035	0.381307	0.167282	0.120547	0.255366	0.596843	0.159144	0.559278	0.195419	0.268302	0.055813	0.153916	0.126740	0.317382	0.087946	0.144179	0.363714	0.601156	0.060519	0.250761	0.303249	0.223595	0.067295	0.128415	0.373316	0.400018	0.166710	0.129669	0.088928	0.115535	0.085908	0.215895	0.182940	0.164059	0.066299	0.126790	0.094787	0.155755	0.132944	0.343882	0.343647	0.401440	0.059857	0.124192	0.189424	0.176154	0.089332	0.125082	0.249100	0.146009	0.647160	0.150515	0.408615	0.157363	0.185283	0.498359	0.284231	0.407936
24	0.495222	0.512347	0.117288	0.466327	0.329135	0.262707	0.259536	0.362478	0.172139	0.121015	0.255231	0.595021	0.161405	0.577059	0.224710	0.279059	0.059555	0.151946	0.120584	0.307690	0.084267	0.153808	0.390667	0.595882	0.060851	0.268589	0.293017	0.229427	0.067350	0.128972	0.352326	0.408412	0.176250	0.110799	0.090711	0.144411	0.099426	0.298120	0.207400	0.169441	0.071482	0.136405	0.106588	0.146213	0.123191	0.291864	0.356309	0.405685	0.061645	0.119015	0.173704	0.185949	0.081499	0.123412	0.229802	0.117344	0.675116	0.251608	0.494966	0.139640	0.171333	0.502090	0.290122	0.364507
25	0.502734	0.526077	0.126188	0.498923	0.325578	0.257838	0.247128	0.339813	0.173826	0.121282	0.254979	0.589183	0.150563	0.592661	0.235534	0.271058	0.060396	0.150748	0.120405	0.280154	0.077348	0.153828	0.400327	0.598249	0.060999	0.327789	0.278676	0.232758	0.064909	0.140433	0.309879	0.438292	0.189796	0.141774	0.121691	0.188622	0.102152	0.328963	0.226154	0.190478	0.076364	0.139036	0.124608	0.117644	0.111667	0.254254	0.308706	0.410779	0.062384	0.111805	0.193499	0.188760	0.073404	0.115241	0.236973	0.122956	0.861658	0.427235	0.506594	0.227856	0.156149	0.512040	0.302411	0.381900
26	0.513324	0.531642	0.141942	0.501544	0.300268	0.233121	0.233065	0.262199	0.173734	0.123339	0.257870	0.584926	0.146950	0.589278	0.282486	0.251576	0.061960	0.129293	0.112169	0.209440	0.070509	0.164774	0.388144	0.542768	0.060518	0.353455	0.406875	0.269407	0.064983	0.163731	0.265142	0.438060	0.178182	0.229877	0.137688	0.226364	0.094793	0.327520	0.217963	0.207699	0.092114	0.136139	0.119972	0.168505	0.115299	0.282133	0.294344	0.368973	0.065004	0.117998	0.209163	0.218387	0.074834	0.105320	0.270269	0.120898	0.909876	0.438015	0.508902	0.242951	0.140892	0.508953	0.312631	0.373394
27	0.604477	0.582750	0.152111	0.473324	0.244875	0.163785	0.233452	0.256146	0.171788	0.126053	0.263842	0.489785	0.137281	0.567959	0.393732	0.263150	0.061818	0.106363	0.119188	0.196195	0.073638	0.178194	0.364381	0.435415	0.049452	0.349457	0.541427	0.348287	0.069424	0.164755	0.260388	0.433690	0.165703	0.241159	0.161606	0.226154	0.092414	0.326500	0.215929	0.198304	0.095944	0.134687	0.110951	0.210207	0.122779	0.293572	0.298034	0.312850	0.058706	0.127186	0.224832	0.267055	0.083645	0.103218	0.302068	0.109323	0.929826	0.439374	0.534400	0.246884	0.139787	0.504934	0.313236	0.379311
28	0.665846	0.602606	0.191745	0.459160	0.213510	0.126893	0.226641	0.207254	0.161345	0.128099	0.269286	0.387863	0.129519	0.550421	0.422111	0.267335	0.061633	0.094412	0.166437	0.127855	0.076561	0.184963	0.351609	0.432208	0.060760	0.353018	0.523030	0.395531	0.082264	0.163743	0.243138	0.434309	0.187249	0.240269	0.165717	0.226953	0.092785	0.326343	0.216038	0.251592	0.096544	0.135958	0.109815	0.252673	0.126764	0.287188	0.278325	0.314016	0.054477	0.133361	0.225545	0.281477	0.085410	0.109485	0.340993	0.121558	0.942596	0.439634	0.571525	0.246023	0.137576	0.477066	0.309299	0.374969
29	0.668087	0.583122	0.230664	0.468784	0.176334	0.119279	0.198199	0.181913	0.148809	0.127108	0.292270	0.389601	0.126508	0.492925	0.449043	0.267255	0.061017	0.096269	0.183797	0.077315	0.079626	0.186865	0.331112	0.442671	0.083694	0.381698	0.570297	0.479344	0.084702	0.228723	0.163110	0.434976	0.196325	0.238379	0.165766	0.235785	0.097911	0.326912	0.210634	0.288441	0.098898	0.140261	0.141929	0.263107	0.123411	0.275466	0.260550	0.238284	0.068458	0.132361	0.222619	0.285475	0.090811	0.125789	0.338181	0.125005	0.942533	0.443093	0.584618	0.261988	0.135107	0.420976	0.263289	0.353858
30	0.654986	0.557330	0.240838	0.580032	0.174751	0.123981	0.190640	0.181297	0.133982	0.122827	0.312843	0.360537	0.127471	0.451369	0.452814	0.263977	0.061820	0.106548	0.190506	0.094880	0.075938	0.187241	0.323828	0.441291	0.101005	0.402474	0.673279	0.536828	0.082419	0.243906	0.080032	0.420304	0.199491	0.238564	0.173168	0.237310	0.099059	0.326444	0.195099	0.313254	0.103015	0.140365	0.249257	0.284103	0.122238	0.272614	0.248281	0.200894	0.085042	0.145642	0.234114	0.309996	0.092361	0.131375	0.327373	0.135406	0.941612	0.447824	0.579472	0.301276	0.127577	0.403103	0.250984	0.287682
31	0.658530	0.552785	0.241222	0.648172	0.167379	0.124886	0.182552	0.180808	0.118246	0.123152	0.309968	0.310619	0.124129	0.457981	0.452091	0.274782	0.066150	0.127890	0.194806	0.142003	0.065243	0.180688	0.325033	0.399461	0.109643	0.370599	0.704090	0.538416	0.082813	0.243668	0.044444	0.350736	0.200794	0.243550	0.181253	0.253385	0.089451	0.311392	0.195483	0.331968	0.102381	0.141320	0.305855	0.284622	0.124399	0.272205	0.253747	0.205534	0.085704	0.159266	0.239545	0.340631	0.092049	0.130574	0.341931	0.176558	0.937133	0.456663	0.573185	0.336283	0.110899	0.373451	0.249927	0.275183
32	0.660517	0.508806	0.247274	0.611947	0.149480	0.128692	0.167155	0.190320	0.113633	0.119629	0.279142	0.263670	0.127766	0.406755	0.438832	0.282566	0.070963	0.154777	0.191782	0.176556	0.056731	0.173713	0.326481	0.304871	0.115633	0.302872	0.706914	0.551380	0.083780	0.244257	0.056842	0.280804	0.202918	0.245531	0.211756	0.258729	0.085207	0.301724	0.199691	0.331859	0.112668	0.155054	0.316016	0.281586	0.113268	0.249810	0.219052	0.235350	0.091659	0.161242	0.244529	0.343219	0.092266	0.130390	0.338953	0.237932	0.860533	0.454287	0.572966	0.347156	0.086768	0.250739	0.256172	0.302865
33	0.630647	0.462879	0.299273	0.590330	0.153929	0.131169	0.190919	0.205153	0.108560	0.119852	0.240481	0.237269	0.136152	0.387464	0.442307	0.281471	0.084027	0.188803	0.207303	0.177679	0.059813	0.184830	0.328895	0.275690	0.117821	0.250771	0.687936	0.574613	0.083151	0.243116	0.113302	0.248608	0.202514	0.249787	0.233384	0.287653	0.071734	0.255595	0.184897	0.343092	0.115096	0.158524	0.322027	0.272238	0.094187	0.253175	0.169278	0.220733	0.118521	0.187984	0.244442	0.342780	0.093791	0.126867	0.347454	0.241366	0.766908	0.453098	0.573427	0.343350	0.095622	0.250754	0.244950	0.315515
34	0.559493	0.412737	0.387924	0.584540	0.215957	0.154807	0.213921	0.197638	0.092896	0.121839	0.223386	0.270623	0.137375	0.353647	0.449036	0.277336	0.083413	0.207430	0.226350	0.176501	0.067295	0.190027	0.319630	0.279373	0.117132	0.234555	0.561922	0.530743	0.083298	0.236647	0.134198	0.235449	0.208331	0.261196	0.233885	0.364697	0.072081	0.158462	0.144312	0.367883	0.112305	0.153942	0.337819	0.275538	0.087529	0.226150	0.159049	0.256196	0.146534	0.235166	0.264909	0.345543	0.093863	0.148231	0.368785	0.280024	0.715028	0.447633	0.535628	0.352018	0.120624	0.266173	0.228031	0.353097
35	0.503628	0.383436	0.430913	0.608252	0.255392	0.157678	0.232084	0.201638	0.085952	0.135657	0.233724	0.331928	0.132897	0.342441	0.448751	0.264896	0.077401	0.204234	0.236012	0.199607	0.073581	0.190492	0.274866	0.276511	0.114590	0.239335	0.514726	0.508033	0.083249	0.234408	0.137524	0.231512	0.212145	0.278657	0.233545	0.381261	0.074261	0.149227	0.137809	0.362923	0.109320	0.143567	0.342796	0.279365	0.086514	0.215416	0.228712	0.338571	0.156097	0.272829	0.319542	0.341935	0.091834	0.182906	0.381401	0.308254	0.690244	0.442142	0.420702	0.357323	0.121969	0.239701	0.216451	0.318886
36	0.498600	0.375226	0.437822	0.681623	0.266458	0.158070	0.238313	0.328260	0.073367	0.140940	0.238998	0.365225	0.116537	0.325077	0.366071	0.268216	0.077157	0.211763	0.252381	0.209303	0.092261	0.186667	0.242589	0.276613	0.103242	0.205112	0.501236	0.431720	0.084794	0.232494	0.161984	0.159478	0.202477	0.285795	0.233873	0.371782	0.079467	0.147643	0.153067	0.352255	0.103060	0.122035	0.339374	0.295792	0.076809	0.178826	0.341255	0.345576	0.156705	0.290731	0.359655	0.410553	0.090018	0.204455	0.373323	0.309136	0.628325	0.361795	0.338617	0.355502	0.121260	0.227870	0.228350	0.330540
37	0.490844	0.356488	0.436260	0.713231	0.306192	0.224996	0.329086	0.384225	0.060405	0.139810	0.237948	0.369225	0.111559	0.328028	0.323126	0.284471	0.076665	0.243240	0.260400	0.217775	0.135447	0.186148	0.256942	0.262285	0.082972	0.133209	0.370371	0.390980	0.085717	0.213077	0.190400	0.114315	0.183909	0.282120	0.218951	0.365854	0.086207	0.151187	0.171740	0.340293	0.099682	0.111255	0.334085	0.310345	0.056157	0.172373	0.400574	0.376306	0.159715	0.291081	0.386734	0.538006	0.095087	0.203075	0.354562	0.336743	0.342872	0.192318	0.331398	0.299022	0.122607	0.213054	0.241270	0.360268
38	0.483547	0.345219	0.439440	0.711812	0.350854	0.251563	0.485838	0.414553	0.051079	0.148178	0.239398	0.372233	0.111172	0.351639	0.280107	0.303537	0.077181	0.288539	0.263329	0.223652	0.182484	0.184266	0.280684	0.246534	0.080794	0.209878	0.264756	0.407486	0.085275	0.196886	0.202165	0.161984	0.179145	0.223903	0.206033	0.346213	0.084092	0.153471	0.180415	0.314164	0.084569	0.110006	0.332928	0.308088	0.072462	0.164723	0.420034	0.395076	0.172027	0.286102	0.381034	0.595667	0.115961	0.216713	0.332932	0.336418	0.260087	0.220001	0.322340	0.289956	0.125016	0.195912	0.278302	0.421149
39	0.373159	0.255859	0.437968	0.712255	0.376655	0.256916	0.606211	0.421538	0.048533	0.168660	0.245142	0.391809	0.108971	0.351280	0.255221	0.304588	0.078345	0.306236	0.259716	0.306208	0.192216	0.172079	0.284591	0.230662	0.075797	0.237112	0.260169	0.394523	0.074756	0.194398	0.202279	0.207807	0.173719	0.180413	0.197680	0.361645	0.094777	0.161622	0.186607	0.317432	0.081197	0.109710	0.332424	0.305280	0.079699	0.166379	0.475427	0.398496	0.184610	0.286205	0.405398	0.581632	0.119944	0.216349	0.298547	0.335156	0.173236	0.251513	0.275483	0.288027	0.124698	0.184110	0.264396	0.461449
40	0.229035	0.175210	0.425227	0.766656	0.387361	0.260972	0.610859	0.429579	0.052665	0.169184	0.250466	0.464948	0.104911	0.307108	0.254228	0.302918	0.083519	0.307693	0.239628	0.385182	0.192922	0.164960	0.276629	0.197109	0.074881	0.345895	0.306474	0.393241	0.059576	0.155167	0.201895	0.210100	0.148998	0.181752	0.186327	0.369685	0.114129	0.225242	0.180193	0.306165	0.081217	0.108006	0.334719	0.274792	0.080777	0.170174	0.486005	0.428664	0.186181	0.286393	0.462193	0.579862	0.125130	0.212937	0.304217	0.331544	0.119541	0.262361	0.192772	0.307398	0.117513	0.184853	0.276521	0.479908
41	0.211302	0.175835	0.421732	0.826802	0.408269	0.270577	0.616644	0.430527	0.061069	0.166308	0.252514	0.552631	0.094017	0.302581	0.255860	0.282739	0.083473	0.308093	0.230505	0.396244	0.191821	0.162828	0.266149	0.193265	0.077734	0.354592	0.315634	0.364600	0.056014	0.046495	0.201804	0.210010	0.131867	0.182745	0.190737	0.371905	0.115814	0.239225	0.168784	0.322049	0.079207	0.111245	0.328852	0.295331	0.079327	0.169051	0.481966	0.455349	0.181739	0.280570	0.488306	0.645470	0.128375	0.212381	0.287514	0.329634	0.121151	0.257799	0.159115	0.313071	0.127175	0.194551	0.311747	0.481569
42	0.210885	0.176688	0.445591	0.778637	0.414662	0.268993	0.677498	0.433547	0.062714	0.163989	0.242605	0.565738	0.077034	0.279321	0.234254	0.271971	0.083027	0.305486	0.236251	0.395130	0.192908	0.160163	0.261098	0.239577	0.088357	0.389158	0.374830	0.361366	0.054077	0.049314	0.201567	0.210599	0.123651	0.182095	0.204685	0.375183	0.115473	0.231718	0.160168	0.350819	0.070294	0.116043	0.277480	0.294055	0.080197	0.167629	0.481751	0.448028	0.177888	0.267693	0.491217	0.703108	0.130390	0.222927	0.273478	0.286948	0.117008	0.243363	0.158684	0.305159	0.138663	0.191935	0.321961	0.479435
43	0.197263	0.161080	0.448955	0.717682	0.416642	0.268799	0.771568	0.454074	0.065106	0.162878	0.287132	0.562993	0.064997	0.299770	0.267766	0.263638	0.080718	0.296307	0.239323	0.388549	0.227979	0.168135	0.261509	0.261060	0.096753	0.393757	0.455470	0.371745	0.044438	0.056174	0.200345	0.209427	0.122515	0.176293	0.206633	0.379114	0.106792	0.226700	0.159487	0.320656	0.068800	0.123720	0.255289	0.298649	0.082923	0.153633	0.484144	0.457007	0.179013	0.261653	0.485805	0.754522	0.132282	0.239883	0.269211	0.268208	0.110142	0.239179	0.151664	0.275704	0.134679	0.170065	0.322617	0.463688
44	0.153137	0.139579	0.455362	0.709227	0.418363	0.275860	0.845335	0.470945	0.074620	0.159684	0.332175	0.595026	0.066543	0.305466	0.305531	0.250494	0.081363	0.281892	0.239776	0.374358	0.247808	0.166818	0.254844	0.264006	0.095764	0.396606	0.455228	0.383202	0.038738	0.055953	0.189344	0.214173	0.117321	0.173084	0.200473	0.379840	0.105913	0.223673	0.158008	0.301803	0.050455	0.112815	0.255473	0.331035	0.086256	0.118386	0.478780	0.425621	0.176586	0.261551	0.498939	0.775568	0.131696	0.242483	0.252820	0.259651	0.112016	0.251540	0.162014	0.280714	0.123786	0.135147	0.328452	0.452605
45	0.132279	0.146209	0.447029	0.707815	0.417275	0.294795	0.877431	0.479634	0.099578	0.158110	0.337912	0.730210	0.080902	0.326275	0.313079	0.233103	0.068976	0.259074	0.230270	0.381201	0.247454	0.153691	0.236549	0.240721	0.086430	0.384099	0.437029	0.288378	0.037187	0.055874	0.161081	0.208529	0.121838	0.169571	0.164747	0.375137	0.104362	0.219986	0.148560	0.305042	0.037631	0.104315	0.256862	0.366814	0.085532	0.107519	0.431030	0.407238	0.167995	0.249525	0.524312	0.776095	0.131648	0.229473	0.231814	0.200035	0.112561	0.263525	0.165369	0.288024	0.123711	0.138943	0.337401	0.467738
46	0.122360	0.142131	0.384936	0.711283	0.392922	0.290943	0.880562	0.498256	0.111632	0.158218	0.344791	0.816979	0.088534	0.351429	0.349934	0.227697	0.061703	0.239928	0.221209	0.394643	0.246690	0.148276	0.205575	0.221701	0.081732	0.341451	0.420181	0.301110	0.040075	0.054686	0.159929	0.217885	0.120170	0.156070	0.176036	0.356873	0.100496	0.217835	0.133618	0.318076	0.047162	0.101749	0.240204	0.388341	0.083375	0.123664	0.351650	0.398523	0.149364	0.212432	0.521871	0.775130	0.131850	0.210822	0.213945	0.193361	0.114148	0.278828	0.168488	0.315377	0.123107	0.146828	0.333360	0.459881
47	0.103134	0.132172	0.333349	0.695498	0.368633	0.289556	0.876328	0.513791	0.115704	0.156969	0.351349	0.831708	0.082400	0.319359	0.380705	0.189588	0.058106	0.238422	0.301650	0.450730	0.263281	0.151399	0.193278	0.221004	0.075244	0.282567	0.406215	0.296912	0.042195	0.051350	0.151279	0.230329	0.099386	0.125292	0.199918	0.304805	0.103328	0.222228	0.134658	0.278512	0.048283	0.103151	0.245929	0.437564	0.072815	0.137718	0.333004	0.352420	0.144292	0.166692	0.493327	0.774695	0.126770	0.210718	0.213870	0.170344	0.119648	0.282134	0.235611	0.369586	0.120839	0.189713	0.299590	0.428715
48	0.094573	0.133200	0.329282	0.630686	0.360172	0.288409	0.877011	0.494581	0.117185	0.149968	0.345010	0.811693	0.081537	0.314411	0.387403	0.186279	0.055228	0.232139	0.436871	0.492758	0.275316	0.155586	0.187217	0.232548	0.073461	0.212976	0.387260	0.293771	0.042906	0.050956	0.118933	0.231373	0.087549	0.092735	0.225452	0.310283	0.097455	0.222748	0.123445	0.274693	0.049936	0.115748	0.314531	0.447990	0.052801	0.152435	0.254954	0.357129	0.147505	0.135673	0.477581	0.751039	0.099131	0.202033	0.187162	0.134600	0.117918	0.280118	0.352885	0.559917	0.117372	0.211745	0.277375	0.394656
49	0.089052	0.121939	0.355122	0.594548	0.327420	0.239892	0.877413	0.460607	0.117533	0.141310	0.335381	0.799112	0.081663	0.317878	0.391427	0.185916	0.055562	0.203792	0.525570	0.494439	0.279645	0.153921	0.141143	0.256695	0.065346	0.189217	0.376919	0.349740	0.047875	0.051769	0.072787	0.215000	0.091914	0.076637	0.243389	0.309419	0.073008	0.176555	0.127462	0.247547	0.050436	0.132634	0.390731	0.452198	0.049101	0.158900	0.206115	0.335747	0.147206	0.134455	0.471573	0.669106	0.077789	0.184110	0.169113	0.141541	0.109085	0.268408	0.362725	0.673134	0.111834	0.214757	0.283409	0.343341
50	0.086847	0.120166	0.378127	0.600820	0.281348	0.206949	0.861125	0.481843	0.120474	0.165584	0.337029	0.844013	0.083399	0.324241	0.393174	0.172335	0.052816	0.141350	0.565967	0.501666	0.258816	0.147644	0.090829	0.258223	0.047042	0.091189	0.304134	0.360281	0.048210	0.062325	0.071064	0.168748	0.104749	0.074578	0.244127	0.310578	0.063292	0.135606	0.130705	0.242165	0.051722	0.143304	0.415993	0.439232	0.046939	0.165137	0.228885	0.275964	0.135232	0.135748	0.478271	0.601902	0.067470	0.174495	0.162675	0.155882	0.104120	0.243868	0.387118	0.673834	0.109144	0.198897	0.323735	0.331567
51	0.083080	0.123742	0.412584	0.604327	0.235933	0.198472	0.834143	0.633928	0.126030	0.187280	0.343682	0.903886	0.085461	0.319123	0.387997	0.168314	0.074907	0.096447	0.572113	0.477276	0.255418	0.167230	0.136077	0.261451	0.036314	0.081000	0.233417	0.321847	0.048150	0.080657	0.072164	0.146563	0.105972	0.073893	0.240649	0.292530	0.065705	0.143885	0.150333	0.191078	0.052377	0.146278	0.428876	0.420435	0.049215	0.164731	0.291965	0.262668	0.134176	0.143614	0.455112	0.595775	0.061816	0.172219	0.169250	0.183845	0.106327	0.225386	0.418709	0.673639	0.101724	0.196678	0.348316	0.305979
52	0.090394	0.132330	0.432877	0.544601	0.217483	0.194008	0.835563	0.682473	0.128603	0.187528	0.340820	0.914717	0.084950	0.282142	0.358595	0.147034	0.124976	0.135042	0.574945	0.474445	0.257795	0.184026	0.281158	0.269534	0.055823	0.080704	0.233116	0.318944	0.046200	0.112693	0.088323	0.151484	0.105430	0.067802	0.242983	0.302321	0.072825	0.234187	0.167221	0.205806	0.057812	0.146238	0.429844	0.420866	0.044794	0.159415	0.359520	0.321524	0.144586	0.156237	0.392707	0.590880	0.068183	0.167562	0.234950	0.193654	0.132426	0.228392	0.509086	0.694244	0.089741	0.229198	0.343533	0.301650
53	0.098789	0.137102	0.418184	0.529741	0.173314	0.179771	0.834911	0.687268	0.127872	0.179713	0.335470	0.897620	0.084091	0.263358	0.294259	0.136175	0.148550	0.153758	0.591477	0.468699	0.260452	0.193630	0.339415	0.262444	0.061944	0.079016	0.228194	0.323879	0.053353	0.141396	0.111098	0.155351	0.133407	0.077323	0.250893	0.299790	0.070152	0.248071	0.171428	0.221119	0.068291	0.143795	0.436414	0.399606	0.036404	0.188574	0.362752	0.306088	0.153720	0.167978	0.356561	0.521280	0.060260	0.147106	0.301446	0.194274	0.183286	0.237597	0.563763	0.793640	0.078904	0.300353	0.356190	0.292648
54	0.100290	0.135881	0.397063	0.573502	0.156944	0.181133	0.827035	0.686511	0.125650	0.179837	0.335571	0.869333	0.074501	0.259518	0.285099	0.132697	0.157406	0.160912	0.623493	0.468466	0.257940	0.198054	0.346048	0.225405	0.058862	0.093042	0.223034	0.303398	0.059679	0.149834	0.133433	0.161790	0.177140	0.093046	0.256693	0.296915	0.067483	0.329950	0.172423	0.221005	0.074894	0.144862	0.442897	0.384505	0.036383	0.190857	0.356762	0.283165	0.157293	0.172187	0.340670	0.439581	0.060172	0.136083	0.309227	0.195119	0.188864	0.239331	0.569229	0.873477	0.080997	0.320369	0.359039	0.286185
55	0.102361	0.136372	0.400049	0.565088	0.149620	0.181299	0.765354	0.670963	0.124250	0.171658	0.335356	0.861365	0.047876	0.167136	0.248087	0.111579	0.157194	0.168823	0.682695	0.509140	0.222265	0.191768	0.346132	0.203071	0.058775	0.111143	0.207505	0.274038	0.060129	0.150681	0.135844	0.156255	0.215471	0.096550	0.251742	0.285384	0.070358	0.370316	0.193887	0.212000	0.078436	0.143334	0.438352	0.378169	0.040380	0.190033	0.363093	0.316788	0.155952	0.168531	0.339421	0.338274	0.086598	0.124720	0.314513	0.214341	0.197122	0.250449	0.570021	0.900050	0.082111	0.320878	0.346466	0.286671
56	0.122940	0.159855	0.392932	0.569385	0.151135	0.170145	0.682312	0.656697	0.123998	0.166378	0.316917	0.856341	0.061443	0.184346	0.176139	0.089938	0.162833	0.182687	0.718229	0.552061	0.209629	0.189808	0.376644	0.207370	0.063031	0.127453	0.180127	0.252602	0.063253	0.150355	0.141276	0.170014	0.223808	0.096847	0.241983	0.273128	0.078055	0.368299	0.221146	0.348917	0.078621	0.139752	0.438410	0.353764	0.043725	0.187139	0.380051	0.347181	0.159352	0.170004	0.320770	0.281203	0.101114	0.116895	0.329760	0.237711	0.225266	0.283243	0.566103	0.900334	0.083091	0.302948	0.346529	0.266127
57	0.184002	0.195643	0.370882	0.577360	0.131635	0.124592	0.639527	0.644311	0.121450	0.166266	0.233941	0.850238	0.068614	0.229934	0.152423	0.084131	0.167555	0.186957	0.728977	0.550303	0.210029	0.187954	0.427486	0.248978	0.066387	0.129533	0.147382	0.160814	0.062969	0.160125	0.141475	0.182968	0.223677	0.108510	0.237179	0.275435	0.105178	0.394020	0.231799	0.429474	0.076255	0.140548	0.437018	0.317111	0.043495	0.184502	0.382033	0.349044	0.152964	0.172028	0.275595	0.364802	0.177499	0.128910	0.334680	0.240726	0.296638	0.350609	0.565906	0.902184	0.083607	0.289070	0.346155	0.220230
58	0.247883	0.223755	0.357202	0.573387	0.111492	0.098465	0.633065	0.628224	0.108306	0.167873	0.199761	0.770816	0.076909	0.285666	0.142518	0.088039	0.168590	0.188533	0.727666	0.554425	0.210779	0.180262	0.449507	0.331984	0.071330	0.128359	0.120592	0.158245	0.063694	0.194365	0.135936	0.174490	0.228431	0.125225	0.233213	0.340341	0.105017	0.408200	0.280621	0.433776	0.070853	0.142632	0.434861	0.300734	0.043454	0.193379	0.377755	0.391455	0.147348	0.172112	0.264975	0.473214	0.196448	0.124642	0.349828	0.238626	0.357491	0.396763	0.564411	0.908288	0.092334	0.281803	0.341816	0.266452
59	0.281224	0.233107	0.350671	0.574865	0.105460	0.093047	0.632570	0.612845	0.088688	0.170702	0.197460	0.647344	0.088780	0.275305	0.129776	0.110873	0.174358	0.192524	0.699214	0.547318	0.188223	0.174893	0.461491	0.342495	0.067285	0.141802	0.156642	0.174280	0.066541	0.199741	0.140796	0.183212	0.284129	0.164619	0.231628	0.382681	0.109456	0.442251	0.304682	0.456041	0.069811	0.138513	0.429345	0.223308	0.043846	0.194116	0.365606	0.412035	0.144641	0.180294	0.265120	0.517082	0.197706	0.120410	0.367912	0.255267	0.365663	0.409497	0.522989	0.887672	0.092936	0.292276	0.315346	0.292724
60	0.285837	0.252186	0.355009	0.566475	0.100314	0.085757	0.629780	0.583797	0.091849	0.170936	0.197480	0.587194	0.104335	0.271032	0.143218	0.112374	0.184895	0.193813	0.619420	0.570099	0.190935	0.208226	0.465446	0.333929	0.049449	0.164314	0.190252	0.169569	0.062693	0.199696	0.151086	0.176172	0.324059	0.177835	0.248905	0.439200	0.113255	0.452678	0.324263	0.473546	0.073089	0.129582	0.390477	0.175679	0.043136	0.194915	0.341955	0.418390	0.142308	0.193916	0.236766	0.514566	0.197432	0.121776	0.376811	0.260077	0.370059	0.410781	0.464232	0.764612	0.091980	0.306001	0.238461	0.353395
61	0.329918	0.313150	0.331479	0.552558	0.101246	0.087612	0.601177	0.572001	0.099405	0.170062	0.237615	0.583599	0.105240	0.323433	0.172630	0.125810	0.191198	0.191907	0.538763	0.614038	0.225469	0.244553	0.466377	0.343261	0.055063	0.162356	0.199517	0.168246	0.063599	0.200291	0.193490	0.173668	0.326366	0.178378	0.245990	0.443599	0.123400	0.424642	0.314694	0.510560	0.074916	0.113149	0.315261	0.140476	0.038433	0.198957	0.286754	0.469312	0.141042	0.204661	0.181126	0.506617	0.194582	0.124774	0.370792	0.254494	0.378307	0.410502	0.455799	0.703615	0.082117	0.292858	0.258637	0.404050
62	0.374141	0.335434	0.318244	0.511160	0.100665	0.087150	0.523280	0.556160	0.097835	0.167293	0.248727	0.579406	0.108183	0.336999	0.177979	0.120432	0.193418	0.186133	0.491777	0.625402	0.237883	0.250930	0.465922	0.387719	0.056348	0.160276	0.273406	0.174424	0.068341	0.196881	0.225748	0.187463	0.323712	0.178725	0.269223	0.525563	0.136016	0.439888	0.310160	0.504216	0.080443	0.099004	0.278783	0.297315	0.044249	0.190875	0.239570	0.454247	0.141475	0.205412	0.156913	0.511350	0.191238	0.134560	0.369941	0.271293	0.408987	0.424224	0.442779	0.703558	0.094945	0.272725	0.269419	0.409944
63	0.423226	0.356601	0.308007	0.523023	0.101906	0.080000	0.418030	0.454234	0.097327	0.152132	0.253433	0.541750	0.111384	0.343561	0.172215	0.114834	0.189688	0.183052	0.482201	0.620659	0.236919	0.237436	0.444076	0.430182	0.054453	0.147946	0.358093	0.169291	0.074155	0.188120	0.225506	0.197169	0.321497	0.186561	0.279185	0.628928	0.139907	0.457503	0.325703	0.503360	0.084256	0.102133	0.267501	0.435445	0.043313	0.163491	0.244601	0.452170	0.169137	0.212419	0.203337	0.532247	0.190796	0.145164	0.367386	0.327466	0.443425	0.439328	0.407373	0.701911	0.105641	0.221074	0.258355	0.404609
64	0.432492	0.359846	0.297639	0.548963	0.100177	0.074978	0.397934	0.432081	0.088889	0.118271	0.254293	0.454562	0.121428	0.341613	0.168603	0.112634	0.161983	0.154928	0.477706	0.574657	0.234057	0.226055	0.376306	0.458063	0.049468	0.140398	0.391347	0.219695	0.075280	0.167028	0.229310	0.202535	0.323038	0.210769	0.276491	0.676470	0.139470	0.408945	0.337178	0.500675	0.106102	0.105661	0.271867	0.441598	0.037889	0.148725	0.238750	0.440656	0.181588	0.221003	0.217048	0.543462	0.190746	0.149441	0.392053	0.393681	0.450822	0.446626	0.272819	0.650814	0.102919	0.255565	0.245075	0.382017
65	0.432707	0.358060	0.310622	0.487298	0.099335	0.072070	0.396052	0.465336	0.081968	0.097112	0.299370	0.445350	0.125441	0.320688	0.165118	0.112762	0.138904	0.132875	0.455713	0.578107	0.241930	0.241096	0.359704	0.466064	0.055199	0.146221	0.390709	0.217400	0.067481	0.149525	0.236088	0.216842	0.317472	0.226559	0.284889	0.683994	0.140380	0.405242	0.311232	0.469960	0.130341	0.117333	0.289515	0.449294	0.036490	0.145400	0.202735	0.407308	0.187265	0.228182	0.216459	0.548602	0.187344	0.149511	0.399020	0.409003	0.440503	0.449928	0.177683	0.493106	0.129560	0.296926	0.243823	0.374264
66	0.432042	0.358645	0.295191	0.425663	0.096697	0.064198	0.315055	0.472271	0.080571	0.110672	0.340848	0.489245	0.117615	0.304559	0.150561	0.114233	0.127660	0.122427	0.407722	0.639713	0.264305	0.260129	0.368237	0.467405	0.060856	0.151009	0.368166	0.223995	0.066451	0.156037	0.253552	0.231936	0.301835	0.228241	0.299702	0.699094	0.115865	0.403157	0.306122	0.347301	0.147264	0.144786	0.293016	0.458309	0.037027	0.148442	0.188655	0.401263	0.196409	0.234758	0.216889	0.543208	0.184490	0.149290	0.385800	0.391096	0.441491	0.448649	0.176334	0.348233	0.136785	0.373129	0.243945	0.381331
67	0.432309	0.363192	0.279619	0.417909	0.098080	0.064860	0.238308	0.480032	0.080185	0.131346	0.338568	0.479117	0.116651	0.250535	0.161505	0.174750	0.128784	0.143924	0.293434	0.672082	0.283645	0.274833	0.365851	0.466740	0.063916	0.121316	0.358457	0.220720	0.064413	0.175672	0.254635	0.227160	0.273564	0.227199	0.340583	0.730967	0.111962	0.403256	0.274959	0.323455	0.146808	0.156675	0.271054	0.476403	0.040134	0.133482	0.191972	0.395802	0.227332	0.239886	0.213681	0.527804	0.169011	0.147139	0.382158	0.405527	0.436395	0.431241	0.171328	0.286326	0.139134	0.409954	0.249760	0.395011
68	0.428767	0.356514	0.276773	0.511322	0.087129	0.064281	0.231356	0.502829	0.087047	0.143774	0.342281	0.426401	0.107098	0.231213	0.182268	0.171280	0.124514	0.184691	0.186439	0.660107	0.286200	0.284565	0.328929	0.460476	0.061197	0.103160	0.344753	0.235123	0.062975	0.196177	0.254465	0.212740	0.258852	0.227491	0.356795	0.747143	0.108877	0.384702	0.230082	0.285016	0.152080	0.165716	0.254375	0.503959	0.041734	0.133173	0.192596	0.373086	0.276920	0.262397	0.235293	0.529456	0.091989	0.139194	0.384559	0.431584	0.416024	0.393489	0.167906	0.286489	0.137826	0.404363	0.254646	0.379114
69	0.406982	0.333475	0.294922	0.595688	0.055987	0.052183	0.209969	0.529383	0.098209	0.182485	0.340408	0.433428	0.090343	0.231643	0.178242	0.174544	0.131540	0.381348	0.171590	0.658131	0.288890	0.292664	0.282679	0.428685	0.058264	0.092959	0.354023	0.240136	0.062969	0.192488	0.254041	0.211974	0.257625	0.223889	0.388950	0.794300	0.107662	0.396348	0.194153	0.276045	0.172258	0.180700	0.300115	0.573681	0.041472	0.122423	0.185285	0.379825	0.301403	0.266077	0.288387	0.485184	0.100006	0.153005	0.366240	0.431785	0.362212	0.321181	0.170152	0.288613	0.137592	0.390903	0.248285	0.393511
70	0.372498	0.307031	0.312606	0.603317	0.044682	0.047094	0.185613	0.546946	0.099906	0.199070	0.331516	0.459883	0.093306	0.213929	0.159397	0.165290	0.139657	0.427887	0.170290	0.652328	0.287331	0.293641	0.256068	0.430755	0.063916	0.095939	0.299954	0.248111	0.059006	0.184286	0.252386	0.194973	0.254100	0.222212	0.459961	0.778126	0.111677	0.425565	0.174105	0.283255	0.197600	0.193813	0.419927	0.604472	0.042283	0.122273	0.146898	0.337224	0.307551	0.262444	0.301901	0.382411	0.130809	0.179207	0.358981	0.426179	0.313681	0.259393	0.175397	0.260598	0.137131	0.386690	0.210199	0.327689
71	0.346349	0.293714	0.318600	0.608588	0.045358	0.047349	0.181509	0.551425	0.099346	0.199795	0.336031	0.486126	0.111983	0.166880	0.168332	0.182881	0.133740	0.428056	0.183838	0.623331	0.286701	0.292024	0.239558	0.490581	0.066829	0.107213	0.218180	0.229609	0.055206	0.184727	0.249631	0.238579	0.228469	0.217541	0.461408	0.753790	0.112513	0.451382	0.177729	0.279455	0.211778	0.202465	0.507564	0.632024	0.040170	0.120619	0.136018	0.243217	0.307073	0.261684	0.309348	0.312997	0.163517	0.208122	0.356718	0.415267	0.307319	0.246523	0.179792	0.233836	0.133857	0.392855	0.227735	0.295817
72	0.350073	0.282121	0.314909	0.602774	0.046151	0.045466	0.182347	0.561099	0.100726	0.199678	0.347082	0.500313	0.110575	0.163626	0.178648	0.216007	0.118058	0.435693	0.214966	0.567005	0.250560	0.263088	0.243989	0.492968	0.063573	0.118000	0.299620	0.272427	0.055470	0.184035	0.233881	0.340139	0.138899	0.222492	0.460942	0.769314	0.105835	0.453444	0.158984	0.280476	0.216666	0.204874	0.583364	0.643357	0.036441	0.133533	0.138910	0.244169	0.311751	0.264302	0.314476	0.301119	0.183943	0.221437	0.353064	0.410693	0.302518	0.244778	0.181087	0.226872	0.121499	0.392005	0.260080	0.303683
73	0.332133	0.229777	0.312955	0.589872	0.043129	0.042865	0.189139	0.584302	0.097933	0.202095	0.356512	0.504069	0.105864	0.161325	0.176870	0.217031	0.109342	0.459812	0.252937	0.511220	0.196740	0.233581	0.261244	0.471953	0.053468	0.114947	0.431330	0.274514	0.050635	0.183631	0.189627	0.362941	0.143746	0.257233	0.458839	0.773430	0.103261	0.437304	0.122479	0.282750	0.217646	0.205123	0.601276	0.646795	0.036562	0.141735	0.106681	0.236511	0.324883	0.270592	0.316370	0.301738	0.200301	0.223570	0.323879	0.376610	0.284405	0.236914	0.177664	0.228520	0.122226	0.348229	0.255775	0.315710
74	0.336410	0.231804	0.299493	0.591307	0.042378	0.046086	0.239236	0.578844	0.083400	0.209518	0.331121	0.497736	0.096173	0.160626	0.244839	0.238767	0.104641	0.484659	0.257246	0.491353	0.189118	0.226070	0.271598	0.435012	0.046481	0.119335	0.459470	0.402588	0.042431	0.196581	0.182972	0.356208	0.144116	0.270371	0.450439	0.761977	0.101146	0.440191	0.103111	0.287516	0.216463	0.229240	0.627477	0.601798	0.034698	0.174232	0.096152	0.230052	0.334765	0.277702	0.326340	0.295465	0.206257	0.222771	0.257027	0.310028	0.231136	0.197350	0.144592	0.255597	0.112413	0.332638	0.257724	0.337207
75	0.335835	0.228945	0.260481	0.585722	0.041220	0.053208	0.285164	0.518285	0.074411	0.218815	0.330214	0.515191	0.094723	0.159847	0.333409	0.242989	0.100217	0.500101	0.258261	0.516017	0.192225	0.228217	0.275189	0.397891	0.046514	0.122270	0.519912	0.480083	0.032393	0.197699	0.177159	0.364981	0.156288	0.277421	0.451482	0.722377	0.099519	0.445571	0.107126	0.302559	0.217559	0.269220	0.719887	0.514663	0.035058	0.179120	0.089121	0.230897	0.318757	0.267234	0.313966	0.244351	0.207755	0.219830	0.220083	0.266884	0.170420	0.157358	0.121588	0.327461	0.103761	0.291667	0.274202	0.443922
76	0.394288	0.243721	0.275474	0.562263	0.041972	0.055433	0.276665	0.467826	0.073148	0.225277	0.365118	0.521729	0.093587	0.159113	0.340331	0.231125	0.096242	0.507820	0.273894	0.558098	0.195118	0.224792	0.257747	0.376359	0.058654	0.122513	0.671902	0.502534	0.032297	0.217173	0.155082	0.363022	0.158668	0.268054	0.472073	0.682441	0.100014	0.425625	0.092614	0.323578	0.209501	0.275433	0.762438	0.507526	0.031037	0.177319	0.093262	0.218086	0.309216	0.249833	0.306058	0.207640	0.229576	0.219386	0.219017	0.269204	0.207821	0.139320	0.144091	0.334940	0.099790	0.170529	0.283826	0.470725
77	0.409514	0.243782	0.290170	0.547488	0.056276	0.059848	0.261597	0.490587	0.073842	0.231203	0.380726	0.537380	0.092608	0.154914	0.326128	0.229499	0.096986	0.514213	0.343924	0.578549	0.179323	0.197448	0.231608	0.368584	0.063325	0.117758	0.803927	0.538849	0.041059	0.270036	0.115670	0.353336	0.174499	0.251457	0.473207	0.659166	0.106802	0.420263	0.084004	0.358251	0.203029	0.271926	0.765260	0.522876	0.031770	0.177639	0.115081	0.175930	0.316211	0.243938	0.305774	0.193263	0.238399	0.218039	0.217826	0.262187	0.277833	0.144743	0.166172	0.348781	0.100182	0.157402	0.278943	0.460776
78	0.450076	0.300137	0.287504	0.522427	0.062190	0.062800	0.259342	0.553366	0.074292	0.238358	0.371614	0.500285	0.102187	0.153518	0.370200	0.292953	0.097270	0.517305	0.397886	0.545328	0.145536	0.172730	0.218348	0.367442	0.084664	0.124252	0.808774	0.615325	0.045170	0.309669	0.081235	0.377781	0.199070	0.249499	0.464205	0.679481	0.108606	0.401275	0.083966	0.376330	0.191155	0.260717	0.755606	0.524056	0.032674	0.177423	0.158588	0.139198	0.318722	0.255218	0.304553	0.200731	0.253334	0.211767	0.231978	0.211295	0.305868	0.147523	0.162498	0.351904	0.097990	0.157534	0.273766	0.445484
79	0.548407	0.376824	0.312049	0.519639	0.060328	0.060221	0.293108	0.570201	0.076146	0.232825	0.325605	0.468195	0.099354	0.154162	0.451364	0.407174	0.097944	0.511171	0.446697	0.471490	0.117774	0.152026	0.215774	0.367792	0.107328	0.132261	0.804577	0.656755	0.043134	0.312399	0.088982	0.415162	0.250238	0.267326	0.434539	0.691033	0.094217	0.360627	0.089309	0.327932	0.190633	0.266551	0.752134	0.510408	0.036818	0.175820	0.164332	0.131158	0.302382	0.258883	0.302363	0.204126	0.286589	0.207302	0.263056	0.179855	0.316359	0.185902	0.163557	0.380806	0.098602	0.156662	0.277175	0.432393
80	0.558771	0.379336	0.409024	0.442864	0.061872	0.057089	0.337847	0.556904	0.105397	0.219020	0.345728	0.502522	0.081793	0.141237	0.469324	0.412427	0.093131	0.497100	0.448447	0.500100	0.111822	0.133570	0.198430	0.369961	0.111815	0.137327	0.795977	0.664767	0.041790	0.303002	0.089236	0.420699	0.352779	0.317883	0.421855	0.728422	0.071173	0.322454	0.107674	0.297039	0.187456	0.263793	0.750630	0.484062	0.039845	0.173583	0.189551	0.138329	0.261336	0.235918	0.276942	0.195020	0.289124	0.193274	0.299123	0.180165	0.322850	0.187322	0.163284	0.397697	0.101729	0.160889	0.281944	0.424912
81	0.589030	0.387860	0.461726	0.293725	0.067300	0.053485	0.407698	0.533512	0.149934	0.209115	0.358628	0.535140	0.067478	0.103575	0.467700	0.409378	0.072932	0.380613	0.444621	0.692597	0.105208	0.115777	0.177842	0.369179	0.119021	0.128694	0.779471	0.674162	0.042040	0.293233	0.111945	0.419278	0.403156	0.365385	0.438697	0.727635	0.057131	0.204853	0.105303	0.314195	0.172642	0.257226	0.736421	0.405499	0.040092	0.169824	0.208046	0.141923	0.233192	0.233438	0.230223	0.181079	0.272247	0.162647	0.326674	0.178973	0.325423	0.191298	0.198957	0.379537	0.100926	0.186799	0.227937	0.419697
82	0.623621	0.394658	0.461797	0.302982	0.067811	0.054002	0.465603	0.516507	0.157679	0.194778	0.359793	0.531745	0.066361	0.113329	0.467785	0.421875	0.062991	0.314229	0.463537	0.871173	0.098944	0.106144	0.178321	0.291137	0.135188	0.127187	0.775656	0.556169	0.044207	0.303052	0.133001	0.422003	0.414057	0.366241	0.441922	0.718853	0.054815	0.165974	0.108378	0.312439	0.145601	0.248121	0.676535	0.340064	0.040792	0.160548	0.225571	0.142191	0.223898	0.236690	0.204639	0.193404	0.256462	0.132774	0.331056	0.177166	0.345141	0.204942	0.210363	0.363920	0.097856	0.195210	0.201849	0.410401
83	0.643058	0.394903	0.461629	0.348716	0.072686	0.056073	0.473426	0.517369	0.170669	0.153032	0.386835	0.509427	0.066020	0.126477	0.463161	0.425051	0.074155	0.315584	0.477271	1.018128	0.094488	0.096148	0.175429	0.213289	0.147590	0.138134	0.699950	0.544593	0.045951	0.316849	0.134053	0.368654	0.439951	0.361218	0.440678	0.720799	0.055488	0.162574	0.106390	0.311988	0.140834	0.248066	0.616420	0.296900	0.047257	0.142279	0.230658	0.137212	0.224357	0.229577	0.193876	0.217120	0.244556	0.124332	0.323478	0.186225	0.356237	0.207542	0.225951	0.386532	0.088807	0.198913	0.225920	0.403665
84	0.657566	0.411961	0.462262	0.351063	0.080872	0.064311	0.473524	0.503265	0.176743	0.151798	0.411349	0.500948	0.060187	0.134934	0.396512	0.414712	0.078294	0.305309	0.505110	1.078037	0.096569	0.095188	0.155331	0.215194	0.145846	0.139152	0.491493	0.617612	0.048594	0.324840	0.135043	0.307041	0.458100	0.349452	0.430523	0.697932	0.055215	0.137999	0.097012	0.301102	0.142006	0.248401	0.552088	0.276597	0.047892	0.102452	0.231215	0.132714	0.219903	0.213460	0.184344	0.220299	0.233191	0.108707	0.335015	0.252498	0.429944	0.219149	0.268234	0.415730	0.092723	0.202896	0.251981	0.355763
85	0.652283	0.407311	0.471347	0.358537	0.105847	0.095242	0.479415	0.464998	0.178240	0.151593	0.429053	0.535955	0.058994	0.129224	0.381915	0.413816	0.075509	0.277009	0.534404	1.096639	0.101449	0.098334	0.129817	0.228596	0.143177	0.141589	0.402302	0.754264	0.049382	0.322038	0.137963	0.307190	0.513814	0.362417	0.431869	0.662990	0.060918	0.117207	0.111654	0.285252	0.141245	0.247814	0.544010	0.345860	0.050058	0.091937	0.241634	0.130778	0.205758	0.190249	0.185763	0.228172	0.234020	0.100320	0.354794	0.307906	0.444000	0.219888	0.287803	0.421828	0.086144	0.182139	0.237240	0.211639
86	0.631774	0.393067	0.471373	0.374585	0.114430	0.118205	0.522566	0.460641	0.180298	0.153632	0.422372	0.552917	0.061601	0.123505	0.385404	0.402790	0.091600	0.266905	0.556361	1.170713	0.099543	0.096434	0.112132	0.226544	0.132765	0.130347	0.403807	0.712594	0.050279	0.321003	0.143558	0.303528	0.622989	0.416473	0.426155	0.663560	0.059772	0.112896	0.119549	0.264317	0.154534	0.229069	0.524242	0.386846	0.053233	0.090548	0.298659	0.128593	0.192218	0.175591	0.232405	0.232608	0.224677	0.099002	0.364461	0.307983	0.464054	0.222246	0.306970	0.452687	0.086750	0.186919	0.238523	0.208909
87	0.605834	0.387091	0.469991	0.364273	0.113513	0.130360	0.547848	0.486714	0.185497	0.145175	0.422135	0.571414	0.058543	0.129213	0.379929	0.403614	0.135539	0.308753	0.568467	1.240694	0.090031	0.102463	0.141558	0.250324	0.146017	0.145147	0.349394	0.731049	0.049900	0.319283	0.143296	0.304351	0.676520	0.433926	0.422619	0.633578	0.050941	0.126598	0.120465	0.230954	0.166938	0.175858	0.390931	0.371885	0.060622	0.098123	0.314084	0.112459	0.192261	0.174043	0.274369	0.249677	0.198462	0.097103	0.364772	0.301189	0.489243	0.256296	0.309471	0.455063	0.080552	0.245292	0.273298	0.181391
88	0.578789	0.400142	0.448596	0.355246	0.113256	0.137094	0.548702	0.512818	0.190159	0.140962	0.421310	0.643603	0.042109	0.129533	0.279035	0.272471	0.162225	0.355724	0.641245	1.279029	0.084463	0.112284	0.183139	0.237088	0.149052	0.144088	0.258759	0.759983	0.045107	0.286288	0.144479	0.315426	0.696833	0.434097	0.396875	0.584659	0.047085	0.123544	0.123952	0.215909	0.166245	0.160954	0.315534	0.367637	0.062713	0.093885	0.311079	0.113272	0.184990	0.177044	0.279916	0.247120	0.185539	0.091415	0.353558	0.311595	0.460612	0.250132	0.305315	0.452845	0.081320	0.249728	0.309148	0.162285
89	0.564323	0.412056	0.425085	0.357629	0.109860	0.137775	0.548914	0.462273	0.191251	0.149576	0.397564	0.662170	0.042151	0.125082	0.202150	0.286199	0.164803	0.372510	0.668738	1.283093	0.077612	0.109215	0.187358	0.243060	0.137595	0.144119	0.279791	0.760418	0.038367	0.235718	0.142966	0.301446	0.701135	0.433399	0.388077	0.581493	0.048030	0.145105	0.132632	0.207154	0.152331	0.168167	0.286237	0.337344	0.059285	0.099037	0.339997	0.103188	0.173136	0.166832	0.279897	0.250119	0.140435	0.088817	0.330570	0.321835	0.421894	0.264034	0.299485	0.471031	0.082678	0.250159	0.306645	0.147827
90	0.542323	0.384409	0.423764	0.350509	0.115608	0.148980	0.548732	0.378305	0.191478	0.174024	0.376033	0.656330	0.041409	0.112803	0.173177	0.270186	0.164657	0.376570	0.655937	1.270993	0.067781	0.104070	0.185879	0.253064	0.116472	0.133270	0.363673	0.759781	0.036565	0.195097	0.137271	0.249449	0.693755	0.431999	0.384386	0.557796	0.046255	0.153905	0.143216	0.160777	0.149602	0.170100	0.280210	0.336186	0.058223	0.105071	0.359527	0.101846	0.157302	0.132682	0.279884	0.227944	0.078631	0.082714	0.289507	0.314656	0.437175	0.270125	0.303464	0.520546	0.093806	0.232424	0.316579	0.148799
91	0.436093	0.320684	0.410185	0.360297	0.124083	0.167127	0.533322	0.336574	0.198148	0.211359	0.378357	0.642508	0.050007	0.135371	0.173462	0.241647	0.166756	0.377205	0.626541	1.267932	0.063423	0.104366	0.203697	0.262282	0.111505	0.126106	0.381101	0.757724	0.036690	0.211829	0.134970	0.205189	0.684095	0.426097	0.386620	0.512879	0.046662	0.164233	0.142634	0.143230	0.147327	0.147541	0.283366	0.335192	0.069743	0.112445	0.354262	0.094165	0.167835	0.115961	0.280984	0.225904	0.069339	0.081035	0.246701	0.314655	0.429389	0.252012	0.306060	0.538985	0.098810	0.216412	0.366676	0.156529
92	0.423068	0.316201	0.322547	0.360456	0.124337	0.177560	0.508264	0.327740	0.204990	0.245805	0.380028	0.640984	0.048926	0.173798	0.173441	0.245589	0.180852	0.375381	0.622508	1.245468	0.065072	0.103996	0.235194	0.261399	0.115741	0.132131	0.412787	0.561090	0.035003	0.233647	0.128341	0.202508	0.649542	0.403698	0.398435	0.452109	0.046613	0.171345	0.145874	0.152268	0.148335	0.139926	0.290622	0.337051	0.083160	0.119625	0.351187	0.106956	0.156381	0.121506	0.282088	0.228710	0.071355	0.077293	0.228442	0.314539	0.426656	0.253034	0.309667	0.547845	0.098938	0.222765	0.403405	0.156655
93	0.400915	0.317336	0.212830	0.373907	0.124249	0.183625	0.455662	0.320374	0.205416	0.266594	0.374662	0.615068	0.050543	0.173001	0.167877	0.246225	0.192484	0.373703	0.615802	1.153455	0.066123	0.105227	0.239623	0.248062	0.120076	0.156566	0.445400	0.472617	0.033095	0.244385	0.102990	0.199780	0.602600	0.357981	0.383181	0.377210	0.046527	0.183865	0.148734	0.159957	0.145961	0.138663	0.304405	0.347858	0.087751	0.122767	0.354109	0.106994	0.158145	0.120708	0.275637	0.229058	0.073201	0.065458	0.228248	0.313482	0.432440	0.253445	0.295650	0.559516	0.097718	0.220099	0.399757	0.208343
94	0.386410	0.331412	0.246908	0.409827	0.124186	0.183749	0.387828	0.316044	0.177932	0.268778	0.346452	0.575995	0.071641	0.168684	0.168250	0.248165	0.194147	0.370579	0.598470	1.026053	0.066396	0.122925	0.237245	0.245704	0.100633	0.141465	0.456208	0.458725	0.028706	0.238911	0.087830	0.178290	0.590252	0.347481	0.308608	0.329163	0.045712	0.191606	0.141952	0.161647	0.144182	0.135890	0.307203	0.355407	0.086388	0.121903	0.353969	0.108337	0.163329	0.123529	0.271204	0.218868	0.073203	0.045779	0.212846	0.284315	0.439175	0.248914	0.302608	0.562602	0.087992	0.218708	0.386615	0.266987
95	0.361566	0.337911	0.314193	0.360926	0.121607	0.183366	0.377252	0.305637	0.152862	0.269508	0.348826	0.623886	0.074992	0.172325	0.168811	0.248701	0.189808	0.368287	0.591671	0.875164	0.066917	0.140652	0.236920	0.237495	0.072705	0.120287	0.452329	0.358654	0.025429	0.232577	0.087046	0.170959	0.582405	0.352065	0.242101	0.340891	0.034815	0.199637	0.133728	0.143803	0.163663	0.146067	0.303028	0.353561	0.086064	0.120205	0.320757	0.110317	0.164577	0.132375	0.269932	0.189205	0.072600	0.040885	0.154703	0.217473	0.428657	0.248624	0.283275	0.541283	0.088093	0.219241	0.385537	0.264565
96	0.337733	0.327396	0.319607	0.363923	0.122328	0.183510	0.376607	0.305257	0.143295	0.269628	0.330347	0.692805	0.071701	0.210718	0.159342	0.234581	0.188379	0.367536	0.570995	0.791850	0.066056	0.142138	0.237652	0.231465	0.073879	0.118755	0.453478	0.315934	0.019028	0.228914	0.080657	0.166313	0.566449	0.355411	0.238188	0.318009	0.030263	0.199547	0.163021	0.160488	0.226238	0.157752	0.294109	0.365262	0.080298	0.125863	0.269554	0.124871	0.165945	0.137378	0.270396	0.187517	0.066082	0.041593	0.101747	0.149478	0.368355	0.254524	0.248426	0.530437	0.091837	0.195482	0.377723	0.244299
97	0.336570	0.330800	0.305003	0.371846	0.112601	0.171330	0.365912	0.312480	0.128099	0.270682	0.339893	0.742369	0.076258	0.247495	0.146452	0.231293	0.191482	0.362901	0.527669	0.780088	0.064357	0.153630	0.234267	0.234188	0.075259	0.126358	0.340927	0.308030	0.018034	0.226354	0.058407	0.153930	0.566097	0.345490	0.213635	0.299459	0.031039	0.191502	0.166549	0.164892	0.307748	0.182485	0.284376	0.325852	0.077390	0.140545	0.260855	0.153528	0.165008	0.140762	0.269238	0.179915	0.062112	0.041708	0.077950	0.148836	0.387388	0.270840	0.224405	0.544346	0.092081	0.124773	0.358132	0.244574
98	0.342445	0.348519	0.304966	0.364698	0.105813	0.178151	0.269621	0.313425	0.129047	0.272497	0.410291	0.769281	0.075836	0.246473	0.147440	0.182674	0.188263	0.339259	0.499355	0.675665	0.063830	0.189420	0.231871	0.227525	0.077394	0.134636	0.331645	0.329864	0.019640	0.225615	0.049492	0.131467	0.449494	0.264650	0.196302	0.291988	0.026767	0.177390	0.167788	0.166186	0.383548	0.208672	0.292426	0.268089	0.074929	0.141718	0.239008	0.146133	0.163152	0.145268	0.219656	0.175305	0.053471	0.040418	0.078354	0.141818	0.398662	0.278007	0.203356	0.504236	0.092211	0.148930	0.347115	0.251721
99	0.372635	0.346295	0.315036	0.352440	0.105564	0.206196	0.115192	0.287463	0.123801	0.271269	0.415046	0.761427	0.075630	0.251052	0.165802	0.138672	0.165389	0.280496	0.496915	0.521996	0.061467	0.188442	0.201111	0.194734	0.077626	0.133172	0.314853	0.337135	0.029081	0.223975	0.053343	0.089188	0.356927	0.201850	0.188071	0.264876	0.028423	0.158801	0.165038	0.203624	0.422080	0.223091	0.287606	0.298066	0.075272	0.147666	0.176185	0.156407	0.180156	0.148392	0.123390	0.149922	0.045125	0.047676	0.104908	0.106836	0.406839	0.257861	0.195107	0.492279	0.085712	0.155451	0.397013	0.258504
100	0.467406	0.311632	0.319615	0.367092	0.108792	0.201315	0.076643	0.206097	0.121613	0.283139	0.415767	0.767861	0.071678	0.252778	0.167019	0.137768	0.145188	0.206974	0.406376	0.369436	0.058196	0.195033	0.169721	0.185279	0.050053	0.100792	0.357721	0.370851	0.031898	0.221110	0.050938	0.080923	0.309959	0.192056	0.185891	0.265785	0.032918	0.152173	0.169068	0.260693	0.425484	0.234709	0.247853	0.311681	0.071603	0.139363	0.143246	0.170774	0.208153	0.143512	0.090707	0.149777	0.041542	0.060467	0.162683	0.143246	0.462559	0.297933	0.184165	0.489581	0.078003	0.158796	0.380172	0.280033
101	0.491491	0.344604	0.319810	0.387599	0.112990	0.205972	0.077387	0.191730	0.144282	0.305704	0.434638	0.722630	0.071563	0.227622	0.172164	0.121090	0.144982	0.163899	0.298966	0.345455	0.057806	0.205664	0.162780	0.178682	0.077205	0.093194	0.398738	0.374324	0.031992	0.213247	0.068305	0.078383	0.306053	0.198069	0.183612	0.250981	0.033455	0.142087	0.167919	0.267731	0.460025	0.263772	0.237767	0.312028	0.052576	0.140563	0.141177	0.164356	0.224826	0.142172	0.099910	0.145158	0.042902	0.064556	0.181662	0.158296	0.533056	0.328651	0.176372	0.459492	0.076086	0.149614	0.380257	0.283280
