	164_P_T3_sh_L_ND_A_02.c3d	164_P_T3_sh_L_ND_A_02.c3d	164_P_T3_sh_L_ND_A_02.c3d	164_P_T3_sh_L_ND_A_02.c3d	164_P_T3_sh_L_ND_A_02.c3d	164_P_T3_sh_L_ND_A_02.c3d	164_P_T3_sh_L_ND_A_02.c3d	164_P_T3_sh_L_ND_A_02.c3d	164_P_T3_sh_L_ND_A_03.c3d	164_P_T3_sh_L_ND_A_03.c3d	164_P_T3_sh_L_ND_A_03.c3d	164_P_T3_sh_L_ND_A_03.c3d	164_P_T3_sh_L_ND_A_03.c3d	164_P_T3_sh_L_ND_A_03.c3d	164_P_T3_sh_L_ND_A_03.c3d	164_P_T3_sh_L_ND_A_03.c3d	164_P_T3_sh_L_ND_A_04.c3d	164_P_T3_sh_L_ND_A_04.c3d	164_P_T3_sh_L_ND_A_04.c3d	164_P_T3_sh_L_ND_A_04.c3d	164_P_T3_sh_L_ND_A_04.c3d	164_P_T3_sh_L_ND_A_04.c3d	164_P_T3_sh_L_ND_A_04.c3d	164_P_T3_sh_L_ND_A_04.c3d	164_P_T3_sh_L_ND_A_05.c3d	164_P_T3_sh_L_ND_A_05.c3d	164_P_T3_sh_L_ND_A_05.c3d	164_P_T3_sh_L_ND_A_05.c3d	164_P_T3_sh_L_ND_A_05.c3d	164_P_T3_sh_L_ND_A_05.c3d	164_P_T3_sh_L_ND_A_05.c3d	164_P_T3_sh_L_ND_A_05.c3d	164_P_T3_sh_L_ND_A_06.c3d	164_P_T3_sh_L_ND_A_06.c3d	164_P_T3_sh_L_ND_A_06.c3d	164_P_T3_sh_L_ND_A_06.c3d	164_P_T3_sh_L_ND_A_06.c3d	164_P_T3_sh_L_ND_A_06.c3d	164_P_T3_sh_L_ND_A_06.c3d	164_P_T3_sh_L_ND_A_06.c3d	164_P_T3_sh_L_ND_A_07.c3d	164_P_T3_sh_L_ND_A_07.c3d	164_P_T3_sh_L_ND_A_07.c3d	164_P_T3_sh_L_ND_A_07.c3d	164_P_T3_sh_L_ND_A_07.c3d	164_P_T3_sh_L_ND_A_07.c3d	164_P_T3_sh_L_ND_A_07.c3d	164_P_T3_sh_L_ND_A_07.c3d	164_P_T3_sh_L_ND_A_08.c3d	164_P_T3_sh_L_ND_A_08.c3d	164_P_T3_sh_L_ND_A_08.c3d	164_P_T3_sh_L_ND_A_08.c3d	164_P_T3_sh_L_ND_A_08.c3d	164_P_T3_sh_L_ND_A_08.c3d	164_P_T3_sh_L_ND_A_08.c3d	164_P_T3_sh_L_ND_A_08.c3d	164_P_T3_sh_L_ND_A_09.c3d	164_P_T3_sh_L_ND_A_09.c3d	164_P_T3_sh_L_ND_A_09.c3d	164_P_T3_sh_L_ND_A_09.c3d	164_P_T3_sh_L_ND_A_09.c3d	164_P_T3_sh_L_ND_A_09.c3d	164_P_T3_sh_L_ND_A_09.c3d	164_P_T3_sh_L_ND_A_09.c3d	164_P_T3_sh_L_ND_A_10.c3d	164_P_T3_sh_L_ND_A_10.c3d	164_P_T3_sh_L_ND_A_10.c3d	164_P_T3_sh_L_ND_A_10.c3d	164_P_T3_sh_L_ND_A_10.c3d	164_P_T3_sh_L_ND_A_10.c3d	164_P_T3_sh_L_ND_A_10.c3d	164_P_T3_sh_L_ND_A_10.c3d
	Biceps femoris_lat	Semitendinosus_lat	Vastus lateralis_lat	Vastus medialis_lat	Biceps femoris_med	Semitendinosus_med	Vastus lateralis_med	Vastus medialis_med	Biceps femoris_lat	Semitendinosus_lat	Vastus lateralis_lat	Vastus medialis_lat	Biceps femoris_med	Semitendinosus_med	Vastus lateralis_med	Vastus medialis_med	Biceps femoris_lat	Semitendinosus_lat	Vastus lateralis_lat	Vastus medialis_lat	Biceps femoris_med	Semitendinosus_med	Vastus lateralis_med	Vastus medialis_med	Biceps femoris_lat	Semitendinosus_lat	Vastus lateralis_lat	Vastus medialis_lat	Biceps femoris_med	Semitendinosus_med	Vastus lateralis_med	Vastus medialis_med	Biceps femoris_lat	Semitendinosus_lat	Vastus lateralis_lat	Vastus medialis_lat	Biceps femoris_med	Semitendinosus_med	Vastus lateralis_med	Vastus medialis_med	Biceps femoris_lat	Semitendinosus_lat	Vastus lateralis_lat	Vastus medialis_lat	Biceps femoris_med	Semitendinosus_med	Vastus lateralis_med	Vastus medialis_med	Biceps femoris_lat	Semitendinosus_lat	Vastus lateralis_lat	Vastus medialis_lat	Biceps femoris_med	Semitendinosus_med	Vastus lateralis_med	Vastus medialis_med	Biceps femoris_lat	Semitendinosus_lat	Vastus lateralis_lat	Vastus medialis_lat	Biceps femoris_med	Semitendinosus_med	Vastus lateralis_med	Vastus medialis_med	Biceps femoris_lat	Semitendinosus_lat	Vastus lateralis_lat	Vastus medialis_lat	Biceps femoris_med	Semitendinosus_med	Vastus lateralis_med	Vastus medialis_med
	P2D	P2D	P2D	P2D	P2D	P2D	P2D	P2D	P2D	P2D	P2D	P2D	P2D	P2D	P2D	P2D	P2D	P2D	P2D	P2D	P2D	P2D	P2D	P2D	P2D	P2D	P2D	P2D	P2D	P2D	P2D	P2D	P2D	P2D	P2D	P2D	P2D	P2D	P2D	P2D	P2D	P2D	P2D	P2D	P2D	P2D	P2D	P2D	P2D	P2D	P2D	P2D	P2D	P2D	P2D	P2D	P2D	P2D	P2D	P2D	P2D	P2D	P2D	P2D	P2D	P2D	P2D	P2D	P2D	P2D	P2D	P2D
	EMG_lat	EMG_lat	EMG_lat	EMG_lat	EMG_med	EMG_med	EMG_med	EMG_med	EMG_lat	EMG_lat	EMG_lat	EMG_lat	EMG_med	EMG_med	EMG_med	EMG_med	EMG_lat	EMG_lat	EMG_lat	EMG_lat	EMG_med	EMG_med	EMG_med	EMG_med	EMG_lat	EMG_lat	EMG_lat	EMG_lat	EMG_med	EMG_med	EMG_med	EMG_med	EMG_lat	EMG_lat	EMG_lat	EMG_lat	EMG_med	EMG_med	EMG_med	EMG_med	EMG_lat	EMG_lat	EMG_lat	EMG_lat	EMG_med	EMG_med	EMG_med	EMG_med	EMG_lat	EMG_lat	EMG_lat	EMG_lat	EMG_med	EMG_med	EMG_med	EMG_med	EMG_lat	EMG_lat	EMG_lat	EMG_lat	EMG_med	EMG_med	EMG_med	EMG_med	EMG_lat	EMG_lat	EMG_lat	EMG_lat	EMG_med	EMG_med	EMG_med	EMG_med
ITEM	Y	Y	Y	Y	Y	Y	Y	Y	Y	Y	Y	Y	Y	Y	Y	Y	Y	Y	Y	Y	Y	Y	Y	Y	Y	Y	Y	Y	Y	Y	Y	Y	Y	Y	Y	Y	Y	Y	Y	Y	Y	Y	Y	Y	Y	Y	Y	Y	Y	Y	Y	Y	Y	Y	Y	Y	Y	Y	Y	Y	Y	Y	Y	Y	Y	Y	Y	Y	Y	Y	Y	Y
1	0.617434	0.167605	0.353205	0.285192	0.349601	0.581093	0.257245	0.389002	0.452470	0.596422	0.163410	0.151944	0.372963	0.641604	0.254251	0.432727	0.479275	0.372854	0.311839	0.364794	0.228457	0.140094	0.425900	0.565905	0.401465	0.428209	0.104262	0.070654	0.188445	0.738310	0.228495	0.207102	0.410181	0.308315	0.133060	0.259393	0.422969	0.309436	0.236862	0.171678	0.605322	0.406138	0.259774	0.192888	0.258705	0.633859	0.209521	0.260326	0.363157	0.560476	0.155162	0.327522	0.199279	0.528385	0.521782	0.346237	0.133859	0.209284	0.280464	0.214621	0.169974	0.295476	0.451636	0.263427	0.217372	0.219213	0.287795	0.443850	0.089011	0.083600	0.176529	0.296011
2	0.609800	0.181251	0.326786	0.285500	0.342035	0.556854	0.244292	0.404959	0.372365	0.384827	0.181912	0.160700	0.369242	0.657481	0.274272	0.431643	0.466573	0.362704	0.306166	0.371859	0.229797	0.142875	0.416927	0.591173	0.390346	0.437339	0.102083	0.072604	0.188664	0.737472	0.208591	0.202309	0.392572	0.300207	0.159594	0.249673	0.398081	0.248305	0.236389	0.170562	0.564549	0.273896	0.278445	0.192348	0.256390	0.632686	0.217145	0.271687	0.363132	0.348736	0.163323	0.322013	0.200020	0.478188	0.464360	0.339817	0.115642	0.198900	0.288918	0.219602	0.167175	0.293840	0.453632	0.275472	0.211798	0.207670	0.271164	0.466215	0.089873	0.072808	0.175347	0.289697
3	0.572950	0.180128	0.320856	0.280739	0.339266	0.473676	0.223147	0.417168	0.362058	0.137153	0.210231	0.161802	0.316592	0.634685	0.251739	0.431323	0.442322	0.258831	0.311362	0.350460	0.175361	0.168390	0.434321	0.590041	0.393322	0.443788	0.102186	0.091468	0.186857	0.724934	0.190786	0.198316	0.393228	0.306418	0.171473	0.225938	0.271822	0.250942	0.247874	0.171683	0.539008	0.193761	0.288671	0.195896	0.246490	0.629659	0.225081	0.270956	0.371883	0.208669	0.160648	0.328419	0.196487	0.438569	0.374760	0.335644	0.133494	0.185988	0.289274	0.218025	0.184459	0.292893	0.449948	0.338774	0.213101	0.180420	0.289654	0.472699	0.089677	0.065011	0.175787	0.295859
4	0.549946	0.173291	0.325857	0.278523	0.338347	0.444221	0.220190	0.414241	0.360195	0.133458	0.214886	0.169012	0.256797	0.632645	0.227420	0.430416	0.356518	0.184983	0.367619	0.324142	0.173397	0.167432	0.473601	0.584175	0.395748	0.437617	0.099426	0.205692	0.185825	0.575399	0.185118	0.201585	0.399955	0.311084	0.173910	0.197927	0.248499	0.253145	0.241309	0.179565	0.544641	0.205686	0.299223	0.209555	0.238298	0.627582	0.247142	0.283472	0.362527	0.186110	0.175273	0.334695	0.157317	0.411952	0.337340	0.283966	0.183860	0.184576	0.307682	0.214467	0.203239	0.291746	0.462897	0.417026	0.216188	0.119511	0.323866	0.474652	0.091318	0.063650	0.160126	0.312733
5	0.547915	0.172620	0.333837	0.280171	0.316748	0.281925	0.230928	0.399881	0.360918	0.111465	0.222920	0.170095	0.228082	0.631135	0.247140	0.311646	0.339657	0.084399	0.453980	0.354010	0.155601	0.170882	0.507590	0.584341	0.396305	0.398214	0.118257	0.222065	0.174219	0.521081	0.184371	0.203379	0.363294	0.277335	0.173437	0.185623	0.249139	0.240936	0.199524	0.272670	0.543298	0.221426	0.292637	0.215882	0.253383	0.611118	0.249028	0.291115	0.327684	0.187827	0.213842	0.347266	0.149780	0.287445	0.336658	0.235816	0.244855	0.158422	0.331499	0.213055	0.202796	0.273066	0.497126	0.449523	0.208366	0.096714	0.323568	0.462356	0.104622	0.071353	0.138480	0.323705
6	0.469818	0.161813	0.335642	0.269756	0.299437	0.156262	0.255515	0.338741	0.325254	0.110586	0.225531	0.155575	0.228551	0.645862	0.280958	0.192292	0.286224	0.074417	0.493071	0.368406	0.151356	0.264981	0.522772	0.571339	0.385037	0.390945	0.127631	0.235240	0.164551	0.366007	0.197376	0.191956	0.354409	0.244449	0.173396	0.173567	0.238397	0.229808	0.183727	0.286251	0.509219	0.216522	0.272439	0.227957	0.263158	0.610143	0.270765	0.270566	0.312891	0.182666	0.227083	0.366096	0.174857	0.292883	0.322866	0.229859	0.274223	0.114664	0.317685	0.207307	0.210466	0.204201	0.498555	0.447473	0.203419	0.108687	0.331391	0.458429	0.149341	0.098443	0.220540	0.319562
7	0.296564	0.146255	0.328172	0.226754	0.199178	0.144730	0.242058	0.270125	0.302574	0.100642	0.219692	0.172019	0.230881	0.651936	0.293514	0.194631	0.240643	0.073061	0.498409	0.391995	0.156237	0.299792	0.523738	0.412699	0.353677	0.381769	0.130022	0.270143	0.159640	0.292422	0.207068	0.159771	0.352395	0.209378	0.167258	0.178954	0.237110	0.225336	0.182520	0.284969	0.460596	0.215335	0.257360	0.223037	0.273904	0.607785	0.292203	0.227133	0.255876	0.158882	0.221104	0.379563	0.182239	0.274104	0.311899	0.202776	0.296628	0.097578	0.287203	0.230483	0.204056	0.191296	0.495018	0.434661	0.207505	0.107155	0.364191	0.448832	0.169299	0.161603	0.267116	0.265854
8	0.247429	0.144650	0.352718	0.191060	0.136159	0.125337	0.240989	0.269599	0.283727	0.096181	0.219994	0.210014	0.221936	0.525293	0.272036	0.178640	0.224329	0.077090	0.507795	0.442546	0.152403	0.312558	0.525759	0.393532	0.332799	0.361650	0.135020	0.279205	0.175176	0.284579	0.206816	0.153549	0.313882	0.187500	0.158882	0.169493	0.218432	0.161364	0.188528	0.279857	0.443645	0.210342	0.257361	0.213093	0.268740	0.550047	0.313900	0.224643	0.261628	0.149817	0.231691	0.385583	0.184100	0.256270	0.299875	0.156184	0.315756	0.092890	0.266520	0.239279	0.202174	0.190892	0.494348	0.438145	0.203034	0.094420	0.369471	0.471506	0.176937	0.179981	0.262986	0.246064
9	0.235536	0.144177	0.425055	0.189013	0.117192	0.124996	0.239691	0.242820	0.200770	0.094817	0.226048	0.296775	0.200933	0.475879	0.267560	0.172052	0.176519	0.089647	0.545514	0.471314	0.159391	0.327839	0.495825	0.345533	0.332431	0.320454	0.146065	0.279284	0.180243	0.255666	0.172667	0.144234	0.219316	0.143251	0.161234	0.175629	0.202949	0.131192	0.197266	0.278309	0.439043	0.208414	0.261487	0.215545	0.272371	0.508773	0.303226	0.216687	0.295644	0.135427	0.254075	0.385800	0.187802	0.242867	0.294996	0.105111	0.334568	0.093323	0.262476	0.272641	0.184790	0.119252	0.461321	0.434657	0.199569	0.090249	0.363559	0.473943	0.177421	0.198704	0.262774	0.246692
10	0.238751	0.144615	0.473365	0.241757	0.121495	0.096613	0.228436	0.210738	0.207005	0.080761	0.233018	0.306943	0.199720	0.461804	0.285024	0.195219	0.121986	0.094370	0.558692	0.477314	0.162249	0.325378	0.430141	0.336606	0.329416	0.253908	0.232757	0.278497	0.204573	0.256823	0.136692	0.134356	0.205517	0.129126	0.242357	0.173101	0.207577	0.123342	0.207303	0.276761	0.375034	0.207399	0.270278	0.239646	0.234690	0.473731	0.301644	0.213122	0.314451	0.136996	0.258760	0.389130	0.173249	0.226552	0.288756	0.128166	0.338649	0.094120	0.264901	0.303686	0.169056	0.064193	0.362125	0.441825	0.212382	0.090782	0.346931	0.473659	0.186511	0.202494	0.257502	0.267187
11	0.235536	0.145429	0.554213	0.234969	0.123482	0.082350	0.233839	0.209318	0.207533	0.078850	0.228478	0.330128	0.201662	0.406741	0.283266	0.174654	0.138098	0.088453	0.567066	0.476994	0.172423	0.321282	0.384292	0.341782	0.302612	0.250934	0.300722	0.278236	0.215088	0.257034	0.144878	0.138901	0.192316	0.128770	0.351696	0.223745	0.211367	0.126686	0.190265	0.266655	0.289921	0.219142	0.272600	0.278617	0.197482	0.364039	0.294808	0.217617	0.315362	0.149675	0.257261	0.362387	0.172831	0.268587	0.282899	0.142064	0.339100	0.125537	0.279127	0.313185	0.165173	0.065314	0.284628	0.432952	0.236999	0.091083	0.326600	0.466706	0.191599	0.205080	0.260257	0.271974
12	0.266015	0.156531	0.581738	0.241136	0.123255	0.078611	0.237717	0.207147	0.235999	0.078477	0.235145	0.328977	0.195472	0.369616	0.280532	0.217991	0.145667	0.083634	0.580692	0.467047	0.182832	0.319529	0.385911	0.323947	0.267079	0.232621	0.335544	0.282233	0.216742	0.295194	0.175309	0.192585	0.183568	0.127546	0.385442	0.285116	0.202271	0.155456	0.184717	0.273406	0.259906	0.219712	0.275547	0.302395	0.204597	0.387123	0.286980	0.212786	0.317053	0.154349	0.274450	0.319279	0.176852	0.271044	0.281935	0.143485	0.353417	0.173197	0.285036	0.359504	0.164856	0.059103	0.280681	0.433478	0.237200	0.091744	0.324375	0.468105	0.217223	0.206338	0.270737	0.267898
13	0.347023	0.164804	0.584916	0.248829	0.122860	0.080147	0.228193	0.196843	0.243800	0.066842	0.247540	0.329113	0.164804	0.324441	0.262382	0.273051	0.141592	0.083630	0.599347	0.395511	0.182697	0.316143	0.365021	0.291107	0.261118	0.224827	0.338883	0.296433	0.217653	0.309046	0.176991	0.287987	0.183731	0.126639	0.375928	0.300890	0.195838	0.161011	0.162408	0.295576	0.249411	0.197941	0.280079	0.316802	0.252561	0.405013	0.269679	0.203386	0.315335	0.151772	0.297974	0.447353	0.181929	0.266282	0.281939	0.159613	0.359922	0.174418	0.275356	0.394989	0.158397	0.055507	0.284165	0.407847	0.234354	0.096420	0.313430	0.417805	0.249827	0.206380	0.306322	0.275140
14	0.371480	0.145369	0.585912	0.253236	0.128956	0.094933	0.214878	0.149484	0.245059	0.061168	0.239177	0.336425	0.165242	0.321831	0.260206	0.286236	0.157117	0.081348	0.624185	0.385590	0.188095	0.336556	0.297876	0.336998	0.264913	0.220072	0.345245	0.300437	0.220451	0.305514	0.178438	0.326391	0.256136	0.106350	0.388444	0.335631	0.158617	0.166962	0.152957	0.322757	0.254004	0.191078	0.293476	0.357007	0.318550	0.428731	0.254183	0.211623	0.308608	0.145274	0.301552	0.548764	0.179352	0.262596	0.295891	0.194570	0.358963	0.173139	0.266217	0.400724	0.119977	0.071233	0.284256	0.334124	0.234888	0.099529	0.306583	0.292883	0.256677	0.206053	0.322895	0.274860
15	0.371526	0.130034	0.602851	0.263566	0.126803	0.101350	0.198051	0.118548	0.247387	0.056104	0.261305	0.335627	0.148878	0.341297	0.260659	0.292684	0.163648	0.081892	0.632439	0.383762	0.209069	0.338016	0.220313	0.355531	0.259686	0.181243	0.349336	0.318063	0.198415	0.269137	0.173016	0.335418	0.258683	0.093777	0.405455	0.339629	0.141058	0.166096	0.159410	0.314336	0.240145	0.189079	0.298989	0.359497	0.350700	0.545375	0.242146	0.205638	0.293192	0.145794	0.322282	0.569552	0.174971	0.255726	0.320794	0.270288	0.359317	0.191912	0.275607	0.406441	0.097876	0.092470	0.216745	0.248793	0.240113	0.100791	0.291806	0.279112	0.262775	0.208205	0.323699	0.288606
16	0.375252	0.136806	0.617130	0.319005	0.141110	0.104928	0.196492	0.125289	0.247486	0.055994	0.301439	0.345206	0.138165	0.353419	0.242504	0.297664	0.173638	0.085725	0.589116	0.380814	0.203013	0.270659	0.181322	0.358018	0.247996	0.142165	0.349443	0.327692	0.188052	0.232170	0.161831	0.348461	0.243845	0.105994	0.443304	0.347468	0.143980	0.168523	0.138644	0.286213	0.176708	0.190571	0.321671	0.363838	0.346044	0.563989	0.238169	0.221637	0.289030	0.151343	0.344259	0.571138	0.165090	0.252668	0.337859	0.275767	0.349904	0.199230	0.278845	0.412565	0.125127	0.092526	0.139879	0.231416	0.255498	0.109850	0.251031	0.258808	0.252726	0.205364	0.303429	0.280465
17	0.380135	0.140415	0.625705	0.381181	0.240247	0.104353	0.172919	0.247420	0.238082	0.051348	0.301007	0.345290	0.153726	0.357105	0.199762	0.305274	0.179410	0.088041	0.495477	0.354845	0.205649	0.225012	0.192852	0.356556	0.206096	0.102050	0.349484	0.278696	0.208100	0.222119	0.156455	0.401992	0.241231	0.114917	0.465951	0.348792	0.138209	0.181912	0.136361	0.295769	0.157114	0.172427	0.320582	0.366171	0.344107	0.563891	0.213866	0.225445	0.264217	0.158270	0.347131	0.580890	0.145884	0.234436	0.339647	0.280481	0.333635	0.211411	0.250647	0.413241	0.194817	0.097889	0.122538	0.229849	0.254026	0.114451	0.218918	0.227175	0.232963	0.172685	0.252148	0.301404
18	0.383461	0.144929	0.638106	0.409366	0.358008	0.097735	0.130737	0.434755	0.229182	0.048191	0.301822	0.329924	0.159055	0.345409	0.163409	0.299310	0.278176	0.107489	0.423485	0.335779	0.209385	0.210593	0.180910	0.347598	0.188513	0.073873	0.342885	0.275685	0.193222	0.221066	0.161048	0.459300	0.241909	0.117579	0.469491	0.347699	0.126218	0.188109	0.122238	0.321928	0.201989	0.151761	0.320409	0.368469	0.335618	0.561535	0.186240	0.227464	0.238579	0.161623	0.341791	0.621682	0.139350	0.222724	0.336120	0.282099	0.302073	0.217638	0.217551	0.415863	0.278791	0.111902	0.134575	0.228746	0.231554	0.112110	0.217111	0.225767	0.223068	0.138727	0.230184	0.296235
19	0.375273	0.144982	0.666203	0.419628	0.453922	0.094709	0.111707	0.716829	0.233997	0.047772	0.305380	0.295794	0.161150	0.341175	0.170704	0.297166	0.322616	0.119236	0.410901	0.313964	0.203929	0.176569	0.146305	0.333669	0.224049	0.096844	0.366493	0.259262	0.182004	0.202248	0.206213	0.468395	0.263112	0.118991	0.473153	0.350146	0.128127	0.190942	0.115667	0.440645	0.200540	0.144875	0.324456	0.362175	0.334869	0.561284	0.143579	0.237437	0.243902	0.153708	0.326370	0.652961	0.131199	0.210671	0.286815	0.279616	0.276726	0.219261	0.211307	0.423418	0.401559	0.112773	0.139009	0.242132	0.222870	0.102270	0.188909	0.230251	0.217312	0.129860	0.231033	0.310509
20	0.357713	0.145054	0.685165	0.415692	0.474362	0.112204	0.118062	0.926221	0.275469	0.053797	0.307121	0.242557	0.161042	0.299573	0.169515	0.294584	0.326475	0.123155	0.417424	0.253007	0.200003	0.179429	0.141396	0.309389	0.229102	0.101386	0.386417	0.246628	0.160714	0.197604	0.252347	0.481636	0.273292	0.119397	0.464179	0.348295	0.127019	0.192715	0.082727	0.545464	0.199527	0.128055	0.325865	0.365639	0.329113	0.559682	0.139390	0.219648	0.244456	0.145521	0.320124	0.657614	0.124324	0.210764	0.261636	0.335535	0.254544	0.219841	0.210966	0.409644	0.475601	0.127077	0.138245	0.246758	0.238154	0.097863	0.095113	0.209394	0.215781	0.109367	0.233071	0.346249
21	0.350727	0.145068	0.677902	0.407189	0.723549	0.225295	0.205989	0.983854	0.409482	0.074253	0.310222	0.222029	0.160232	0.291762	0.129791	0.282066	0.329226	0.123230	0.408110	0.318010	0.182450	0.179428	0.130069	0.285761	0.227865	0.101442	0.387614	0.393840	0.175890	0.193936	0.236233	0.486823	0.297732	0.121387	0.411545	0.346193	0.121190	0.192526	0.079362	0.580790	0.229561	0.128099	0.328371	0.375601	0.320013	0.516322	0.144378	0.212032	0.244308	0.141780	0.318540	0.650416	0.126378	0.149021	0.266764	0.344545	0.236892	0.220125	0.221320	0.408013	0.476378	0.126779	0.143448	0.202634	0.264026	0.096472	0.064293	0.183372	0.211570	0.109499	0.242314	0.359633
22	0.345461	0.144742	0.632174	0.400826	0.800398	0.254569	0.308501	0.996599	0.551839	0.088080	0.309513	0.193346	0.159108	0.292665	0.118308	0.288223	0.328315	0.121194	0.427302	0.550654	0.153965	0.190035	0.118276	0.283493	0.228381	0.102353	0.376409	0.456927	0.197080	0.124169	0.241918	0.450194	0.310345	0.120736	0.326806	0.304740	0.119371	0.175880	0.078602	0.588664	0.283436	0.128192	0.325376	0.368909	0.325276	0.466113	0.142480	0.207517	0.225224	0.141149	0.305238	0.649720	0.125894	0.080504	0.265541	0.363201	0.230248	0.219846	0.268525	0.372293	0.489515	0.134899	0.162702	0.179440	0.305919	0.095304	0.081126	0.284426	0.204002	0.103759	0.234679	0.359133
23	0.336766	0.144060	0.584173	0.371597	0.803983	0.254975	0.343374	1.105646	0.600554	0.092640	0.288194	0.190110	0.161519	0.288532	0.122383	0.318847	0.323650	0.119408	0.424213	0.678274	0.180402	0.183410	0.118970	0.297383	0.228156	0.104645	0.323375	0.463019	0.207465	0.133214	0.254311	0.434857	0.313231	0.123076	0.301625	0.288065	0.158224	0.164261	0.101130	0.615078	0.344608	0.120560	0.319113	0.337750	0.340121	0.432692	0.139804	0.194297	0.176341	0.136256	0.296017	0.667394	0.114623	0.085496	0.266921	0.406848	0.248814	0.217982	0.353679	0.436287	0.517208	0.144780	0.162054	0.178272	0.345495	0.097437	0.125595	0.354875	0.173566	0.110132	0.209442	0.365154
24	0.339835	0.144944	0.489093	0.366640	0.803872	0.260071	0.342575	1.228578	0.602890	0.108878	0.270722	0.180199	0.155676	0.278319	0.119296	0.311321	0.321566	0.122182	0.429159	0.691536	0.273924	0.138665	0.115251	0.238088	0.229786	0.109484	0.266206	0.492633	0.237061	0.132787	0.253763	0.418765	0.345867	0.141900	0.293502	0.251276	0.172310	0.150651	0.101610	0.643640	0.407498	0.086542	0.317411	0.298144	0.350125	0.413854	0.143118	0.231117	0.162791	0.134703	0.300476	0.669556	0.108038	0.079077	0.267425	0.404064	0.266408	0.191836	0.356625	0.486058	0.530215	0.151268	0.146445	0.188799	0.381539	0.099399	0.156650	0.359528	0.216395	0.144603	0.155863	0.382328
25	0.337736	0.134840	0.439258	0.362066	0.803483	0.267224	0.341848	1.298482	0.613312	0.141431	0.264202	0.172397	0.153013	0.274174	0.116478	0.311237	0.344279	0.123196	0.451702	0.693076	0.339871	0.120134	0.112492	0.215716	0.242394	0.117937	0.237946	0.505662	0.316815	0.122732	0.252206	0.419202	0.311402	0.132337	0.274392	0.215609	0.177966	0.135837	0.086577	0.637123	0.430085	0.075980	0.315928	0.282544	0.329384	0.382891	0.138261	0.344914	0.287230	0.124871	0.298216	0.673759	0.107834	0.075306	0.248759	0.402746	0.266138	0.157804	0.350802	0.455035	0.541159	0.145214	0.141194	0.216148	0.407267	0.096885	0.162712	0.387823	0.367190	0.176956	0.141408	0.365031
26	0.281452	0.113506	0.433641	0.357584	0.804250	0.270570	0.343147	1.329846	0.616678	0.248332	0.217982	0.153263	0.189265	0.255490	0.133385	0.313561	0.398961	0.133416	0.433847	0.698957	0.354751	0.121095	0.110306	0.210018	0.246976	0.119521	0.259882	0.499342	0.324792	0.124841	0.247700	0.398069	0.305421	0.129372	0.257889	0.206370	0.199233	0.138927	0.081359	0.632158	0.460735	0.068716	0.309411	0.263893	0.329896	0.185388	0.118997	0.379520	0.454072	0.136111	0.280054	0.676386	0.105671	0.082485	0.216190	0.391113	0.275889	0.155519	0.353764	0.435153	0.548432	0.137900	0.139773	0.269552	0.409825	0.095412	0.161727	0.443408	0.490726	0.179523	0.135286	0.343441
27	0.233213	0.106969	0.428742	0.350407	0.820457	0.287354	0.346880	1.340760	0.651850	0.285036	0.168623	0.145844	0.315527	0.249514	0.162669	0.332443	0.493900	0.158027	0.423857	0.747243	0.377296	0.131233	0.088886	0.311413	0.277660	0.124070	0.251041	0.498415	0.318755	0.127269	0.249142	0.338190	0.306197	0.116172	0.215942	0.231559	0.280058	0.136624	0.082567	0.629776	0.485676	0.068058	0.299230	0.245669	0.338835	0.124445	0.114506	0.364600	0.564051	0.144847	0.267930	0.584527	0.091875	0.117965	0.203109	0.388542	0.320916	0.150932	0.346494	0.451923	0.538480	0.136931	0.139774	0.286173	0.434717	0.096602	0.158888	0.469370	0.547061	0.188090	0.117147	0.338317
28	0.232267	0.102448	0.393638	0.348533	0.880262	0.300852	0.352104	1.345073	0.754817	0.359257	0.165975	0.141441	0.360830	0.230781	0.164612	0.333615	0.523158	0.180508	0.430033	0.817858	0.399206	0.142898	0.098132	0.427017	0.311158	0.123906	0.248109	0.485753	0.315525	0.186425	0.240443	0.320917	0.317921	0.114905	0.191532	0.252515	0.436017	0.229491	0.084196	0.622870	0.518927	0.083344	0.281906	0.241223	0.381734	0.122366	0.111228	0.376358	0.616441	0.145852	0.273785	0.509522	0.076246	0.151994	0.185776	0.389901	0.380304	0.151227	0.336511	0.493848	0.512394	0.128513	0.134472	0.289257	0.444043	0.094636	0.165300	0.469029	0.558837	0.212187	0.103145	0.339917
29	0.227242	0.088891	0.354465	0.344739	0.924736	0.300964	0.355406	1.317982	0.792835	0.442175	0.159044	0.113963	0.364555	0.216254	0.164011	0.338677	0.544941	0.199590	0.457820	0.872991	0.399595	0.148470	0.092288	0.452021	0.334580	0.124028	0.247277	0.474579	0.320712	0.195345	0.183771	0.353402	0.354854	0.132958	0.187558	0.254875	0.525178	0.261732	0.089281	0.552528	0.551130	0.095625	0.235308	0.221267	0.429221	0.121289	0.100750	0.393002	0.627638	0.134551	0.239182	0.488208	0.082993	0.151884	0.159399	0.389235	0.425930	0.160278	0.351502	0.520582	0.464573	0.156660	0.125914	0.281034	0.447341	0.082966	0.165403	0.466365	0.559975	0.287894	0.100340	0.353573
30	0.225423	0.076498	0.333712	0.346656	0.906525	0.309760	0.359359	1.264491	0.806011	0.449089	0.142036	0.097302	0.365330	0.224514	0.155493	0.342630	0.533691	0.209671	0.485576	0.907481	0.404722	0.151543	0.132667	0.544795	0.360769	0.123539	0.251421	0.474331	0.321039	0.195624	0.141192	0.396703	0.403939	0.145904	0.179146	0.264731	0.540923	0.279158	0.108852	0.448759	0.552530	0.097933	0.198160	0.208775	0.542042	0.120188	0.090809	0.397358	0.627012	0.125638	0.211976	0.484081	0.128932	0.166370	0.147652	0.388379	0.428536	0.151485	0.369352	0.538271	0.356656	0.170379	0.127109	0.270896	0.491677	0.076444	0.165775	0.463392	0.584281	0.288614	0.098660	0.317883
31	0.218762	0.061444	0.351038	0.318479	0.867777	0.333878	0.363086	1.102943	0.816128	0.447867	0.108905	0.128043	0.368689	0.241995	0.151193	0.340646	0.515909	0.208807	0.511162	0.923272	0.424312	0.182617	0.150688	0.572482	0.367899	0.115483	0.257374	0.473655	0.307092	0.189175	0.129807	0.409508	0.409679	0.150693	0.189767	0.293602	0.546284	0.486369	0.110877	0.378354	0.592123	0.107997	0.180330	0.201300	0.730966	0.106374	0.084792	0.407658	0.631407	0.125973	0.236011	0.464087	0.150301	0.249160	0.147606	0.338522	0.428267	0.144478	0.374839	0.545386	0.343577	0.172118	0.126142	0.299587	0.546254	0.069683	0.166429	0.461726	0.611943	0.307472	0.072452	0.273685
32	0.222282	0.061314	0.367070	0.314295	0.861524	0.320994	0.376080	0.985447	0.838290	0.445160	0.111090	0.326978	0.386439	0.258804	0.151589	0.329373	0.516608	0.205793	0.514099	0.923004	0.442501	0.191719	0.150753	0.555239	0.411283	0.118014	0.234785	0.480747	0.299047	0.185505	0.119399	0.414223	0.416893	0.151554	0.225098	0.303895	0.601255	0.502978	0.110994	0.397933	0.665449	0.122028	0.185984	0.216454	0.918084	0.106375	0.084800	0.411025	0.641149	0.136008	0.235968	0.405767	0.160532	0.253941	0.137141	0.333405	0.437227	0.143136	0.376059	0.541524	0.341433	0.219784	0.105381	0.304711	0.592005	0.083602	0.171343	0.459338	0.622115	0.309738	0.056796	0.262127
33	0.253115	0.088320	0.371160	0.377133	0.634698	0.249835	0.335337	0.953026	0.842028	0.444765	0.128646	0.360326	0.392122	0.276759	0.141559	0.327861	0.525785	0.201550	0.489789	0.893500	0.439883	0.187478	0.158232	0.543988	0.474485	0.136890	0.220711	0.461998	0.298657	0.170575	0.150790	0.397922	0.407415	0.152250	0.228492	0.275974	0.649597	0.501675	0.098013	0.363092	0.690678	0.121984	0.201631	0.231666	0.954452	0.109262	0.083999	0.430662	0.640509	0.140757	0.231704	0.346487	0.170168	0.255231	0.142463	0.293989	0.446043	0.142332	0.375001	0.541876	0.340937	0.225818	0.078188	0.302211	0.647461	0.098385	0.189667	0.457117	0.629999	0.315625	0.039157	0.257958
34	0.255106	0.090469	0.364908	0.430172	0.592595	0.241405	0.247547	0.929866	0.852165	0.444123	0.183158	0.363727	0.391814	0.331793	0.143613	0.274140	0.527101	0.197964	0.454317	0.769141	0.400701	0.203101	0.187847	0.543548	0.507662	0.154497	0.220935	0.337201	0.278686	0.168002	0.154674	0.416124	0.404297	0.148792	0.227950	0.271693	0.681853	0.501381	0.110940	0.293118	0.696835	0.122024	0.209403	0.232138	0.948827	0.117938	0.081050	0.456483	0.653778	0.140207	0.254827	0.319296	0.171127	0.253566	0.136322	0.249293	0.448777	0.143019	0.364643	0.536327	0.318383	0.232639	0.075303	0.291498	0.687722	0.099869	0.221841	0.438895	0.638847	0.307873	0.031143	0.225466
35	0.255629	0.097503	0.388445	0.439593	0.590521	0.254101	0.213143	0.773286	0.851088	0.442179	0.201665	0.379349	0.400774	0.395316	0.146940	0.239957	0.532713	0.199032	0.449814	0.649112	0.339972	0.228703	0.190546	0.541259	0.511660	0.163539	0.220780	0.294753	0.229240	0.168321	0.173560	0.470655	0.358355	0.125918	0.228014	0.274281	0.718906	0.499843	0.123216	0.251158	0.687345	0.123985	0.207089	0.254244	0.944818	0.117431	0.074936	0.441075	0.674278	0.139646	0.271273	0.332622	0.180129	0.254045	0.132680	0.244656	0.449909	0.142911	0.315364	0.516695	0.310661	0.231114	0.068491	0.288512	0.681210	0.098407	0.227684	0.376636	0.625633	0.289973	0.035175	0.209192
36	0.253690	0.099490	0.403031	0.532363	0.595317	0.248669	0.235061	0.587163	0.855933	0.426013	0.205244	0.391849	0.432429	0.394058	0.149137	0.230535	0.583929	0.207168	0.430833	0.631229	0.322414	0.252819	0.200027	0.564301	0.550505	0.165412	0.222214	0.279747	0.272455	0.164852	0.178702	0.484924	0.359176	0.123897	0.222741	0.281318	0.781141	0.500178	0.123690	0.265609	0.673869	0.128780	0.208171	0.351430	0.973283	0.109475	0.068621	0.353786	0.682083	0.139110	0.275316	0.342291	0.203433	0.254802	0.123139	0.190045	0.451719	0.142664	0.216901	0.435481	0.290687	0.229744	0.059640	0.240640	0.657468	0.095196	0.207290	0.335134	0.575583	0.280586	0.046866	0.216559
37	0.254281	0.097440	0.405749	0.626514	0.608292	0.239914	0.242151	0.433571	0.880659	0.367506	0.218183	0.439780	0.446937	0.389675	0.134365	0.220057	0.694661	0.230982	0.405610	0.632669	0.292205	0.281923	0.210175	0.538036	0.747436	0.198631	0.246087	0.226074	0.326566	0.146522	0.180731	0.461155	0.377623	0.127720	0.204818	0.290415	0.814106	0.498099	0.147296	0.267581	0.658272	0.133294	0.210387	0.374411	1.000049	0.125725	0.061986	0.314393	0.689992	0.139053	0.265344	0.307660	0.238188	0.259596	0.119648	0.188158	0.456832	0.143586	0.202730	0.386050	0.276474	0.229579	0.056295	0.219793	0.633664	0.095010	0.189363	0.330547	0.554873	0.278189	0.063739	0.227117
38	0.235529	0.095943	0.418575	0.677105	0.632489	0.227763	0.241009	0.364203	0.865421	0.350218	0.218005	0.444899	0.392236	0.382403	0.094238	0.187012	0.785873	0.241629	0.455129	0.681246	0.252433	0.292622	0.204694	0.456942	0.893690	0.219708	0.249105	0.205450	0.361946	0.071425	0.180859	0.436112	0.407382	0.133179	0.175905	0.251563	0.789265	0.473908	0.156851	0.277336	0.665829	0.142992	0.217456	0.381418	1.031977	0.126280	0.074591	0.317283	0.699504	0.142369	0.264977	0.329354	0.266209	0.242490	0.120855	0.216548	0.467449	0.146818	0.195446	0.386705	0.284327	0.230096	0.056582	0.223512	0.627325	0.099928	0.192726	0.276691	0.552238	0.272553	0.074707	0.222489
39	0.229353	0.095315	0.436038	0.701053	0.673087	0.201120	0.235934	0.342104	0.843412	0.252095	0.228144	0.454109	0.371959	0.360374	0.128004	0.185822	0.862780	0.237914	0.549827	0.658438	0.252413	0.292371	0.238240	0.450381	1.011440	0.227245	0.242068	0.213215	0.380788	0.069116	0.182567	0.388374	0.421962	0.123771	0.172011	0.287158	0.743571	0.441130	0.183885	0.288229	0.697074	0.158266	0.232896	0.384171	1.047577	0.155949	0.092266	0.299429	0.678706	0.145207	0.262654	0.341738	0.272202	0.233274	0.102109	0.252457	0.474218	0.150070	0.205782	0.391104	0.295842	0.223024	0.053872	0.219372	0.630157	0.106199	0.227519	0.174184	0.563819	0.200559	0.091765	0.179173
40	0.282384	0.095253	0.441278	0.710688	0.685866	0.186366	0.234083	0.336765	0.856723	0.137010	0.286805	0.487840	0.389151	0.351815	0.189553	0.192039	0.941813	0.230590	0.591784	0.572114	0.246832	0.289661	0.261983	0.390870	1.087608	0.230027	0.260304	0.275095	0.392558	0.065183	0.187541	0.331456	0.421780	0.108325	0.189114	0.725566	0.731153	0.440073	0.187881	0.295568	0.718280	0.160038	0.254253	0.377065	1.054185	0.174477	0.105609	0.318510	0.618652	0.141397	0.258503	0.402179	0.263011	0.237255	0.094488	0.260202	0.446479	0.139062	0.227500	0.365677	0.292384	0.196800	0.042108	0.219891	0.618857	0.113103	0.283262	0.156315	0.556055	0.164208	0.091925	0.168119
41	0.337303	0.094541	0.442917	0.712754	0.714880	0.187221	0.232724	0.337987	0.845429	0.132327	0.317612	0.511737	0.393375	0.348071	0.294218	0.205810	0.951785	0.219511	0.580856	0.483699	0.218842	0.273599	0.256351	0.346280	1.107549	0.233917	0.282040	0.337076	0.395350	0.069580	0.187651	0.317103	0.394630	0.090136	0.232862	0.879052	0.728418	0.241890	0.198619	0.292323	0.699962	0.155209	0.250395	0.381631	1.016693	0.181631	0.159775	0.311670	0.563566	0.134033	0.245344	0.478780	0.251906	0.209666	0.106429	0.247691	0.401416	0.113781	0.274261	0.387635	0.299287	0.194799	0.050104	0.188601	0.619359	0.118827	0.324886	0.347853	0.524355	0.134982	0.092548	0.168533
42	0.387326	0.091798	0.443248	0.695434	0.759862	0.164017	0.228376	0.341487	0.793822	0.131406	0.356612	0.496261	0.391114	0.350813	0.326745	0.226659	0.939371	0.206402	0.557686	0.431276	0.177856	0.260358	0.262610	0.350523	1.100516	0.234819	0.291149	0.353205	0.392555	0.103573	0.152117	0.307164	0.397620	0.086416	0.263624	0.898684	0.696107	0.093803	0.208441	0.250767	0.681061	0.153877	0.264746	0.392930	0.898374	0.230477	0.174642	0.302506	0.553859	0.129959	0.247074	0.481587	0.261943	0.138598	0.136493	0.264486	0.356879	0.102901	0.265544	0.435009	0.322143	0.142964	0.053948	0.156284	0.627330	0.119120	0.329202	0.471993	0.501387	0.107267	0.103176	0.166390
43	0.422133	0.089755	0.440840	0.661571	0.792297	0.118353	0.218291	0.325768	0.680374	0.129026	0.443121	0.509386	0.372586	0.335408	0.353450	0.235489	0.934273	0.198330	0.547862	0.438993	0.163328	0.258337	0.259035	0.353799	1.090235	0.232729	0.285222	0.354376	0.392839	0.112848	0.132716	0.307740	0.378463	0.082718	0.306134	0.903805	0.646698	0.085454	0.211357	0.253427	0.679456	0.157808	0.277250	0.392212	0.721449	0.243874	0.174102	0.297535	0.600698	0.128206	0.306782	0.550806	0.274293	0.142894	0.148042	0.262244	0.350925	0.108773	0.246747	0.418509	0.330603	0.117157	0.053738	0.158885	0.611889	0.119212	0.338345	0.521074	0.495875	0.106914	0.104358	0.166850
44	0.433162	0.086819	0.412431	0.653947	0.795367	0.115989	0.180101	0.280666	0.583434	0.123162	0.437346	0.640158	0.365702	0.321651	0.358670	0.237806	0.945291	0.198062	0.568380	0.447639	0.123996	0.245022	0.270372	0.368996	1.083328	0.230909	0.271827	0.370019	0.396522	0.124624	0.140931	0.235115	0.389982	0.090592	0.317621	0.961894	0.619322	0.085398	0.206579	0.283627	0.626142	0.149156	0.273279	0.392064	0.675916	0.240951	0.174024	0.299645	0.682878	0.130662	0.381620	0.570597	0.308871	0.143093	0.142035	0.257508	0.349641	0.109059	0.259658	0.419619	0.327899	0.094337	0.073144	0.158105	0.587463	0.119523	0.347475	0.527960	0.490074	0.104081	0.104466	0.174679
45	0.434132	0.085043	0.349149	0.650592	0.791165	0.116369	0.165109	0.247465	0.560357	0.119879	0.433106	0.646451	0.363435	0.261242	0.416750	0.255398	0.956587	0.199835	0.613515	0.452251	0.104542	0.228661	0.304543	0.371054	1.057958	0.224249	0.246194	0.368633	0.398763	0.120098	0.144080	0.127754	0.414059	0.102844	0.325772	1.030453	0.608180	0.087390	0.212225	0.297152	0.575360	0.143854	0.263165	0.376127	0.674519	0.238609	0.177681	0.327322	0.728817	0.122583	0.390355	0.571540	0.355344	0.143640	0.142405	0.252403	0.337598	0.110055	0.263435	0.432635	0.328278	0.049483	0.087398	0.156378	0.547864	0.104600	0.376347	0.532184	0.483133	0.116733	0.106115	0.174125
46	0.431670	0.064746	0.370437	0.695216	0.789172	0.091143	0.170999	0.253568	0.558019	0.124446	0.434184	0.710621	0.354037	0.160627	0.464597	0.251358	0.969496	0.201374	0.639968	0.479342	0.111285	0.198436	0.302546	0.336467	1.036723	0.213472	0.244135	0.359355	0.390659	0.125944	0.139395	0.104426	0.446292	0.110774	0.375631	1.055068	0.567519	0.076691	0.231558	0.294033	0.572069	0.144116	0.247625	0.375135	0.656510	0.236937	0.200676	0.324224	0.729357	0.107744	0.391260	0.569012	0.407801	0.141961	0.150334	0.255005	0.328608	0.109697	0.274530	0.433843	0.333030	0.053758	0.090140	0.159423	0.471186	0.094469	0.442727	0.545760	0.452485	0.149799	0.112456	0.154684
47	0.494109	0.076704	0.474233	1.005687	0.793982	0.057379	0.161945	0.263208	0.530608	0.119060	0.432788	0.713409	0.323704	0.154202	0.472479	0.249692	0.977283	0.199400	0.642908	0.481579	0.120206	0.150932	0.290627	0.305557	1.029837	0.202246	0.277610	0.361113	0.375999	0.126331	0.146140	0.106827	0.479690	0.121276	0.444917	1.060199	0.524364	0.070187	0.231575	0.301883	0.555190	0.143057	0.237858	0.380705	0.593131	0.234639	0.204819	0.328334	0.728996	0.102283	0.403334	0.575101	0.434434	0.135225	0.153531	0.251834	0.321419	0.110602	0.276250	0.437842	0.337311	0.055479	0.090129	0.145655	0.418744	0.094315	0.451074	0.585430	0.390153	0.160527	0.105233	0.151581
48	0.554827	0.073048	0.479353	1.145027	0.806981	0.055503	0.130591	0.239225	0.478335	0.117951	0.437986	0.691233	0.293225	0.154372	0.478142	0.262701	0.969369	0.198020	0.643783	0.481146	0.143089	0.148782	0.288797	0.292242	1.032605	0.196035	0.283778	0.363249	0.375966	0.133062	0.178825	0.109239	0.495854	0.122271	0.502065	1.063174	0.497665	0.071651	0.226311	0.307711	0.542978	0.139772	0.242631	0.351878	0.529164	0.226585	0.204454	0.330860	0.725014	0.099916	0.393075	0.578476	0.439759	0.115134	0.153504	0.221076	0.306664	0.113794	0.279601	0.446390	0.331336	0.055337	0.090197	0.110418	0.411364	0.096120	0.448130	0.604898	0.336462	0.179321	0.125452	0.122400
49	0.561806	0.084242	0.467186	1.113121	0.817787	0.054854	0.116390	0.236935	0.389982	0.113942	0.459556	0.692447	0.268790	0.156816	0.484346	0.288375	0.908031	0.180256	0.643820	0.481862	0.169653	0.292874	0.262503	0.269353	0.994131	0.188157	0.297658	0.371806	0.379407	0.141478	0.180871	0.111873	0.475192	0.116534	0.525864	1.068319	0.481293	0.103223	0.209107	0.315457	0.528093	0.135784	0.295543	0.289431	0.455547	0.226198	0.200878	0.332228	0.744437	0.098722	0.390835	0.589054	0.436774	0.114943	0.150416	0.193478	0.286978	0.127002	0.285786	0.451615	0.313221	0.049357	0.092164	0.108378	0.412999	0.095705	0.459450	0.615068	0.322579	0.186565	0.128645	0.111605
50	0.557705	0.121574	0.466289	1.065390	0.815237	0.054337	0.167730	0.216189	0.274685	0.096565	0.451534	0.688197	0.244744	0.156599	0.477785	0.288420	0.824740	0.161870	0.611312	0.412400	0.239038	0.347314	0.216304	0.170975	0.862981	0.152906	0.353188	0.399610	0.385533	0.141282	0.181313	0.115392	0.450114	0.113251	0.533301	1.022221	0.481494	0.167266	0.202029	0.310469	0.511878	0.130981	0.369234	0.318443	0.386292	0.234551	0.198140	0.340974	0.791134	0.098621	0.393998	0.593561	0.436834	0.118183	0.161765	0.146748	0.253235	0.143110	0.346871	0.450014	0.310356	0.048299	0.094013	0.109281	0.411501	0.094934	0.534754	0.619355	0.323496	0.185121	0.126451	0.111098
51	0.560177	0.135813	0.465262	1.039047	0.778460	0.055087	0.279676	0.194090	0.188470	0.082073	0.415429	0.664913	0.243838	0.144039	0.456187	0.277556	0.703207	0.149120	0.522483	0.378316	0.274173	0.397996	0.210295	0.160413	0.731988	0.128801	0.374010	0.406024	0.395654	0.134535	0.198914	0.117381	0.420852	0.111429	0.523365	0.752689	0.500960	0.213699	0.194700	0.311424	0.478298	0.117619	0.384756	0.302884	0.340182	0.274935	0.195700	0.308321	0.864933	0.103796	0.401283	0.634196	0.434948	0.108622	0.162404	0.160875	0.208747	0.159646	0.430870	0.463348	0.309911	0.045488	0.094479	0.101986	0.404430	0.098854	0.618387	0.619193	0.333728	0.190247	0.129940	0.110617
52	0.601793	0.150766	0.447169	1.049926	0.701186	0.047673	0.330632	0.206761	0.162307	0.081952	0.405091	0.652395	0.271595	0.134464	0.397125	0.262490	0.570658	0.136402	0.463063	0.395705	0.279803	0.444440	0.201152	0.151519	0.578474	0.122770	0.381444	0.395270	0.397035	0.121545	0.203847	0.084963	0.399327	0.110977	0.506297	0.619545	0.504861	0.293630	0.186038	0.321676	0.386658	0.103956	0.372851	0.289169	0.336449	0.281686	0.159364	0.301292	0.903019	0.099621	0.414291	0.708672	0.427908	0.104600	0.152421	0.151211	0.166886	0.167513	0.477550	0.497395	0.302229	0.043859	0.092404	0.092991	0.394161	0.103018	0.664841	0.619066	0.338324	0.194143	0.127455	0.112067
53	0.602645	0.158381	0.443428	1.108189	0.609264	0.060286	0.332907	0.250103	0.140425	0.083041	0.339091	0.630975	0.299154	0.083622	0.371618	0.243557	0.530544	0.125681	0.462048	0.410138	0.291396	0.448105	0.199906	0.148429	0.455438	0.115500	0.370819	0.342819	0.376866	0.109054	0.204831	0.073172	0.394517	0.113537	0.473569	0.597202	0.503870	0.432121	0.187698	0.317597	0.324326	0.106335	0.407330	0.287391	0.320765	0.272476	0.144477	0.298768	0.906576	0.090616	0.414972	0.729445	0.423909	0.092299	0.119907	0.135972	0.144424	0.167720	0.471706	0.509143	0.287401	0.042596	0.094026	0.083839	0.382706	0.101940	0.680357	0.601766	0.334327	0.206130	0.122266	0.109978
54	0.587336	0.159476	0.465349	1.157573	0.547691	0.079251	0.346294	0.266632	0.141788	0.080820	0.257847	0.511016	0.321340	0.080028	0.346260	0.236405	0.531148	0.118404	0.475896	0.395040	0.292573	0.453314	0.156060	0.107938	0.429998	0.109510	0.353279	0.310726	0.354218	0.105416	0.188497	0.079251	0.418092	0.123190	0.445588	0.569909	0.492510	0.462890	0.191974	0.267095	0.315501	0.094723	0.452715	0.275906	0.294360	0.262330	0.139980	0.301882	0.894421	0.084244	0.418976	0.678082	0.418199	0.081275	0.111947	0.138254	0.139804	0.162627	0.449120	0.448127	0.278251	0.043446	0.091101	0.078941	0.363686	0.103549	0.682332	0.495436	0.327618	0.197023	0.125496	0.095012
55	0.561580	0.160176	0.494715	1.163624	0.518613	0.082102	0.379098	0.270644	0.159880	0.077598	0.261905	0.380753	0.332762	0.078352	0.339002	0.222846	0.527818	0.118941	0.477458	0.359675	0.306211	0.450511	0.056259	0.098025	0.441991	0.108836	0.349244	0.304934	0.332862	0.099821	0.178167	0.081690	0.404185	0.113226	0.447451	0.440628	0.468431	0.464023	0.180302	0.239265	0.322480	0.082491	0.455673	0.287381	0.286270	0.280309	0.143577	0.263770	0.883096	0.082709	0.426604	0.691231	0.400175	0.078319	0.111780	0.138698	0.176574	0.151814	0.478595	0.398970	0.274953	0.038660	0.072980	0.077991	0.325340	0.112122	0.686539	0.399990	0.311517	0.208354	0.135177	0.089144
56	0.535510	0.162312	0.509706	1.177939	0.514360	0.083109	0.404319	0.267219	0.193193	0.072058	0.241666	0.359254	0.338092	0.072342	0.258592	0.193185	0.511927	0.120648	0.444041	0.332182	0.323663	0.454496	0.066239	0.103982	0.448972	0.108310	0.355831	0.303960	0.300179	0.096372	0.193857	0.080473	0.378437	0.100232	0.471213	0.289611	0.439199	0.467038	0.154771	0.218591	0.322634	0.089565	0.468768	0.325882	0.286798	0.317081	0.139104	0.171380	0.863410	0.082645	0.419204	0.734098	0.369557	0.107134	0.111192	0.138522	0.266586	0.150831	0.501790	0.397323	0.265859	0.038477	0.060943	0.066848	0.278308	0.114547	0.685151	0.355741	0.269742	0.207384	0.129517	0.071491
57	0.520892	0.162904	0.507648	1.183750	0.522645	0.085172	0.408168	0.264642	0.221245	0.071803	0.241238	0.214781	0.338391	0.069401	0.160404	0.191993	0.480023	0.117299	0.372793	0.326943	0.356466	0.474323	0.089972	0.118428	0.442554	0.102931	0.381280	0.284035	0.281374	0.082918	0.179686	0.077987	0.342136	0.091476	0.458589	0.242184	0.407086	0.467220	0.138089	0.184311	0.314320	0.104164	0.492133	0.342427	0.292574	0.352716	0.105265	0.161471	0.826731	0.083886	0.374470	0.687513	0.312342	0.108927	0.098555	0.145977	0.294848	0.152051	0.493629	0.375692	0.258330	0.052958	0.061129	0.055220	0.227168	0.113201	0.678510	0.353110	0.260734	0.222042	0.141509	0.070181
58	0.520716	0.163397	0.505468	1.191265	0.531438	0.095969	0.405119	0.264982	0.233489	0.080135	0.260690	0.305259	0.329191	0.100882	0.135578	0.193380	0.446919	0.117255	0.315486	0.295340	0.357690	0.474208	0.097944	0.139291	0.444757	0.096234	0.404787	0.312821	0.252859	0.074384	0.158706	0.076393	0.380118	0.094253	0.415762	0.217343	0.381209	0.468895	0.123254	0.174563	0.276154	0.111305	0.501915	0.346142	0.293234	0.369881	0.104668	0.153038	0.765745	0.089677	0.318485	0.676188	0.286814	0.109290	0.102436	0.177407	0.307890	0.155850	0.496395	0.376013	0.256814	0.057283	0.062163	0.053006	0.302593	0.129819	0.653518	0.355666	0.308991	0.212053	0.144482	0.092430
59	0.515303	0.161388	0.461036	1.197425	0.525809	0.102627	0.404235	0.275080	0.240696	0.073517	0.355573	0.364872	0.320380	0.121302	0.109580	0.170161	0.423027	0.119914	0.303922	0.345728	0.349479	0.453694	0.100903	0.138792	0.443877	0.101267	0.401890	0.320447	0.239864	0.079063	0.157581	0.077277	0.358097	0.102270	0.359791	0.203372	0.361572	0.464568	0.121719	0.143646	0.242271	0.116116	0.504399	0.334438	0.291063	0.381133	0.106753	0.155651	0.723933	0.101492	0.334001	0.676285	0.295657	0.107317	0.104172	0.189608	0.307486	0.162338	0.500704	0.371774	0.256876	0.061657	0.062615	0.069550	0.393227	0.144967	0.613109	0.329270	0.312037	0.207331	0.132705	0.095386
60	0.468928	0.154338	0.346849	0.981776	0.500613	0.104177	0.404204	0.288162	0.237730	0.076895	0.422911	0.468714	0.321737	0.130017	0.077820	0.121688	0.380375	0.109428	0.339626	0.387603	0.316654	0.423982	0.109093	0.159288	0.438812	0.106641	0.381631	0.357792	0.224353	0.082418	0.144764	0.078424	0.360373	0.109376	0.339846	0.213814	0.346712	0.446547	0.112521	0.132679	0.248325	0.122420	0.505317	0.341767	0.283597	0.384345	0.115025	0.176748	0.716340	0.107564	0.369168	0.670829	0.344419	0.100818	0.086167	0.233448	0.306281	0.165779	0.500739	0.368053	0.252390	0.070175	0.063959	0.091736	0.402672	0.144812	0.604585	0.249697	0.304953	0.207815	0.136614	0.108167
61	0.410676	0.151450	0.304610	0.797273	0.466999	0.111396	0.404457	0.293331	0.230598	0.078296	0.460895	0.474833	0.331190	0.128198	0.065678	0.112131	0.328277	0.098642	0.423865	0.422499	0.296497	0.380073	0.109420	0.184497	0.429643	0.108334	0.396052	0.379361	0.215686	0.078736	0.123530	0.095486	0.354960	0.109333	0.346603	0.218771	0.319768	0.428172	0.095675	0.127797	0.252745	0.130121	0.500332	0.337339	0.265672	0.370954	0.115354	0.184425	0.720363	0.115782	0.402561	0.663624	0.409227	0.096508	0.091111	0.262913	0.325159	0.164699	0.500547	0.361486	0.239056	0.076245	0.069940	0.092729	0.411061	0.143128	0.604770	0.201890	0.297523	0.217989	0.136648	0.115504
62	0.421056	0.146268	0.316292	0.788561	0.420931	0.138736	0.374063	0.295254	0.235159	0.083230	0.509564	0.478917	0.335703	0.129885	0.060835	0.116158	0.327423	0.127810	0.430276	0.418683	0.294248	0.328996	0.133045	0.203742	0.406663	0.104186	0.385239	0.362721	0.268645	0.074029	0.115329	0.135411	0.369381	0.110158	0.355380	0.222775	0.308857	0.377525	0.090786	0.113517	0.257174	0.131599	0.457971	0.307881	0.222752	0.336299	0.112901	0.177423	0.719629	0.123777	0.447967	0.661894	0.446200	0.100484	0.121515	0.260515	0.349919	0.155833	0.507313	0.420394	0.220586	0.077173	0.076203	0.094057	0.420424	0.144973	0.588403	0.166310	0.288797	0.217355	0.132502	0.113665
63	0.452449	0.121133	0.321966	0.817613	0.365581	0.150632	0.294354	0.293424	0.238341	0.115741	0.524733	0.484197	0.323656	0.136011	0.060064	0.118693	0.342073	0.161603	0.429377	0.409041	0.283780	0.358038	0.163695	0.205831	0.375744	0.100429	0.324255	0.330719	0.413454	0.099588	0.112642	0.212744	0.386575	0.111212	0.357389	0.249982	0.299894	0.273223	0.083416	0.118537	0.249895	0.130254	0.411591	0.287456	0.127782	0.327384	0.140496	0.202040	0.706354	0.126137	0.462709	0.646054	0.463264	0.122252	0.142398	0.258699	0.367314	0.143436	0.516140	0.499102	0.202197	0.084177	0.077444	0.208353	0.429264	0.147104	0.518353	0.167273	0.288977	0.208482	0.132464	0.118515
64	0.483036	0.101931	0.346858	0.836690	0.359509	0.151025	0.247489	0.271187	0.239621	0.122404	0.529470	0.492494	0.313384	0.143658	0.085289	0.121867	0.346144	0.186311	0.431784	0.414718	0.299326	0.361294	0.169035	0.221095	0.347495	0.106492	0.307922	0.328237	0.499276	0.116655	0.120332	0.256565	0.388465	0.111189	0.371648	0.258161	0.298268	0.095473	0.071000	0.117231	0.259319	0.134604	0.403647	0.287940	0.082332	0.303304	0.142780	0.272271	0.679348	0.126646	0.460850	0.644411	0.457983	0.124753	0.148675	0.256610	0.375413	0.134346	0.593681	0.495160	0.182427	0.101328	0.097493	0.236990	0.430640	0.139510	0.511479	0.240744	0.287540	0.205542	0.141339	0.124628
65	0.453961	0.083889	0.358490	0.808605	0.395564	0.143497	0.243932	0.237979	0.241406	0.211692	0.589100	0.509639	0.304817	0.147379	0.110732	0.140388	0.349446	0.193838	0.419231	0.434913	0.293517	0.367783	0.172320	0.222832	0.320153	0.111090	0.301545	0.324588	0.505070	0.118788	0.112949	0.331026	0.377536	0.106135	0.377862	0.258032	0.287255	0.093850	0.064524	0.117586	0.284499	0.140492	0.392764	0.326675	0.081056	0.302982	0.148903	0.282800	0.611337	0.121077	0.468735	0.590802	0.447773	0.125592	0.148940	0.263769	0.376552	0.145081	0.662691	0.489651	0.162403	0.138091	0.103310	0.277388	0.431975	0.130835	0.514786	0.293964	0.278330	0.213401	0.152513	0.126460
66	0.446057	0.063940	0.358357	0.744462	0.431760	0.134826	0.214858	0.215833	0.237273	0.416218	0.663046	0.551203	0.295937	0.152046	0.113132	0.165637	0.347824	0.195263	0.408899	0.442036	0.314687	0.374736	0.173584	0.317211	0.286014	0.109683	0.311457	0.317762	0.641934	0.153793	0.109179	0.395777	0.377880	0.106765	0.368327	0.255979	0.264542	0.080421	0.063725	0.124723	0.286178	0.140373	0.378170	0.359501	0.082024	0.283510	0.154824	0.283266	0.603478	0.122472	0.489808	0.481325	0.439471	0.121242	0.150810	0.276931	0.377004	0.156010	0.685546	0.488089	0.162005	0.138455	0.104162	0.326248	0.433753	0.126693	0.523580	0.298205	0.273888	0.219239	0.172904	0.136458
67	0.457901	0.067556	0.334227	0.710400	0.445308	0.134480	0.145153	0.206518	0.353878	0.490848	0.686352	0.587037	0.291440	0.153719	0.111337	0.163412	0.344357	0.208349	0.394286	0.438991	0.337991	0.386227	0.185853	0.349392	0.259280	0.108819	0.319277	0.302525	0.718609	0.157711	0.120951	0.396965	0.378541	0.106591	0.317728	0.227633	0.240602	0.084836	0.067973	0.125504	0.286952	0.141740	0.372207	0.367417	0.080702	0.241704	0.158055	0.283262	0.654045	0.123126	0.522614	0.462139	0.442706	0.100804	0.153495	0.283773	0.377749	0.157624	0.679363	0.481018	0.170902	0.146359	0.121474	0.339612	0.437359	0.121693	0.508577	0.297820	0.276907	0.193338	0.197075	0.146629
68	0.472370	0.096757	0.290745	0.730746	0.438929	0.138018	0.074804	0.214945	0.423271	0.595921	0.703045	0.560628	0.291854	0.160890	0.111040	0.162083	0.334975	0.229918	0.394428	0.460159	0.390083	0.376062	0.189346	0.358928	0.235424	0.108824	0.322533	0.296348	0.725495	0.167513	0.125697	0.395500	0.356643	0.100193	0.274968	0.209808	0.210719	0.130054	0.075806	0.125027	0.287319	0.143250	0.382016	0.354516	0.053955	0.215335	0.160630	0.283695	0.746972	0.126356	0.550875	0.453924	0.463040	0.100652	0.155349	0.276705	0.360326	0.160945	0.706924	0.482395	0.170456	0.149033	0.123995	0.372257	0.438789	0.114820	0.521115	0.319859	0.240256	0.186068	0.191548	0.131769
69	0.469040	0.115624	0.256062	0.742041	0.429495	0.144027	0.095904	0.223399	0.430743	0.611029	0.692402	0.540421	0.292743	0.144272	0.138627	0.171555	0.343877	0.269570	0.398397	0.472824	0.457235	0.317060	0.200667	0.400430	0.221341	0.109857	0.311918	0.295306	0.728366	0.171915	0.130375	0.399256	0.251323	0.086109	0.235201	0.210780	0.180324	0.132379	0.078328	0.115390	0.292159	0.142525	0.359417	0.563007	0.052826	0.320897	0.193290	0.283730	0.806420	0.137674	0.606104	0.355524	0.484167	0.104752	0.154846	0.269941	0.328870	0.171595	0.834501	0.483480	0.169453	0.158684	0.126914	0.377828	0.437572	0.113604	0.523514	0.403068	0.190988	0.174725	0.186840	0.130239
70	0.469355	0.132795	0.251914	0.741280	0.420993	0.139281	0.116042	0.198207	0.437462	0.613282	0.640562	0.471451	0.291127	0.133136	0.164205	0.181109	0.354160	0.312640	0.400402	0.470058	0.488094	0.300575	0.245573	0.495272	0.218939	0.109870	0.276867	0.278211	0.740453	0.175089	0.132547	0.399263	0.244010	0.079764	0.231398	0.190395	0.166894	0.183713	0.086140	0.117900	0.327440	0.145754	0.333709	0.726712	0.098375	0.314031	0.208742	0.278011	0.806157	0.141148	0.643154	0.245782	0.513254	0.106454	0.162029	0.256334	0.327634	0.187684	0.950389	0.486223	0.165583	0.167021	0.133124	0.372852	0.436449	0.116509	0.529401	0.577922	0.169098	0.175631	0.179101	0.124372
71	0.471961	0.143090	0.286751	0.733994	0.431907	0.138890	0.158120	0.176044	0.441714	0.617507	0.601169	0.394890	0.275821	0.247635	0.167287	0.187551	0.377672	0.326784	0.415226	0.438637	0.497207	0.297605	0.339813	0.495394	0.209569	0.106392	0.245437	0.249345	0.745710	0.176710	0.135126	0.395440	0.250422	0.078067	0.220371	0.173251	0.153995	0.188325	0.141161	0.117554	0.360088	0.141126	0.350398	0.740475	0.120295	0.354527	0.208813	0.261316	0.820965	0.141086	0.642621	0.240846	0.556109	0.105941	0.160223	0.207306	0.336830	0.204044	1.005704	0.497844	0.158103	0.164470	0.156310	0.377610	0.349268	0.108271	0.572079	0.599276	0.150365	0.164722	0.176734	0.115345
72	0.472065	0.149196	0.402799	0.704126	0.445664	0.141483	0.188983	0.186271	0.443813	0.660933	0.569875	0.390518	0.243460	0.405822	0.166149	0.184250	0.575750	0.327102	0.396039	0.450982	0.496763	0.289626	0.371074	0.489395	0.190884	0.099844	0.240371	0.226117	0.710593	0.184938	0.179812	0.365380	0.273933	0.077574	0.217281	0.163525	0.151877	0.192055	0.168181	0.145220	0.360530	0.146008	0.387937	0.820523	0.124872	0.357946	0.214438	0.242134	0.902355	0.133639	0.635416	0.292811	0.573891	0.107470	0.151029	0.209097	0.344511	0.212376	1.027427	0.525243	0.147578	0.167540	0.160193	0.399617	0.277306	0.108666	0.595347	0.645281	0.156685	0.166975	0.200019	0.113368
73	0.469204	0.155983	0.542845	0.688974	0.462807	0.202442	0.188764	0.221674	0.437382	0.718473	0.530930	0.392198	0.221558	0.480989	0.167337	0.182865	0.792096	0.326002	0.312191	0.420235	0.504947	0.247165	0.395005	0.512388	0.182958	0.094039	0.234853	0.147014	0.632743	0.209190	0.188222	0.330478	0.329184	0.086701	0.396520	0.211341	0.157167	0.191983	0.167226	0.141105	0.357261	0.154513	0.394989	0.904350	0.128234	0.360975	0.213856	0.238849	1.013799	0.123660	0.616112	0.460348	0.561315	0.090117	0.134514	0.251839	0.341019	0.213219	1.030838	0.540337	0.141731	0.168317	0.164101	0.406179	0.258874	0.110913	0.597100	0.701328	0.159527	0.170399	0.214073	0.119118
74	0.468577	0.161718	0.659393	0.694655	0.473648	0.339823	0.203365	0.226243	0.442517	0.715699	0.524150	0.389537	0.249445	0.569907	0.167763	0.181757	0.889400	0.314582	0.360996	0.497427	0.516543	0.229694	0.468156	0.536139	0.287927	0.093678	0.201334	0.135391	0.591327	0.313906	0.185641	0.309602	0.407818	0.098835	0.552853	0.207419	0.157154	0.193227	0.167088	0.147605	0.350254	0.164561	0.395217	0.920468	0.144853	0.375761	0.192866	0.214493	1.091181	0.120198	0.590111	0.514771	0.553081	0.067562	0.141042	0.271970	0.322481	0.216597	1.045715	0.537051	0.143366	0.162147	0.158071	0.380750	0.245358	0.111411	0.626686	0.713438	0.158743	0.167838	0.226529	0.116079
75	0.496093	0.161308	0.672258	0.692425	0.465497	0.422589	0.223962	0.261908	0.463114	0.721378	0.499566	0.388783	0.230999	0.643311	0.161272	0.183384	0.887853	0.298685	0.413527	0.668394	0.538701	0.219006	0.495416	0.538078	0.412298	0.094720	0.212333	0.159981	0.568918	0.430161	0.179114	0.159416	0.490972	0.108425	0.569002	0.224304	0.166849	0.200415	0.194679	0.269763	0.340155	0.169027	0.406838	0.922038	0.149733	0.393247	0.191225	0.105028	1.093492	0.120959	0.558916	0.511793	0.567308	0.082502	0.153449	0.277321	0.303877	0.220786	1.077586	0.473464	0.146737	0.137458	0.155589	0.374194	0.230446	0.105921	0.649562	0.724297	0.168157	0.154514	0.221900	0.119897
76	0.525717	0.160034	0.690946	0.657708	0.435216	0.513537	0.242777	0.294634	0.473290	0.735178	0.456818	0.356552	0.232490	0.645632	0.165030	0.282131	0.876757	0.281735	0.462925	0.739854	0.551553	0.203338	0.519545	0.489542	0.423274	0.099137	0.319628	0.299466	0.396625	0.542797	0.176456	0.095682	0.569395	0.133384	0.582354	0.260681	0.235736	0.211326	0.197524	0.314921	0.410199	0.174369	0.438827	0.921766	0.147459	0.422772	0.208932	0.081494	1.084303	0.117152	0.527820	0.515970	0.573394	0.086862	0.156056	0.279282	0.287271	0.218922	1.054363	0.469835	0.133410	0.133999	0.172306	0.334423	0.225772	0.101687	0.641509	0.741212	0.183130	0.131149	0.208436	0.115250
77	0.557976	0.162555	0.753616	0.625957	0.393914	0.541519	0.267990	0.303117	0.490800	0.669328	0.590900	0.661003	0.326770	0.652950	0.186472	0.336650	0.919230	0.278917	0.528053	0.737029	0.547509	0.114319	0.538681	0.460999	0.423052	0.097048	0.416372	0.462694	0.322124	0.700228	0.178557	0.168309	0.602861	0.144521	0.582376	0.452205	0.267152	0.214640	0.226764	0.321717	0.469610	0.176700	0.484697	0.919941	0.146962	0.435487	0.235530	0.124702	1.068661	0.115871	0.510833	0.512647	0.568801	0.088136	0.155002	0.294567	0.292562	0.211836	0.987827	0.445787	0.117792	0.140212	0.177449	0.329099	0.247663	0.099699	0.570691	0.743194	0.201546	0.099773	0.186520	0.097874
78	0.586194	0.169377	0.854951	0.619494	0.344124	0.544268	0.273818	0.298117	0.395690	0.621385	0.697516	0.917147	0.413155	0.673819	0.202583	0.337200	1.009215	0.283433	0.565504	0.735419	0.534025	0.106455	0.544000	0.448407	0.444684	0.091335	0.580522	0.542092	0.356883	0.703786	0.174946	0.173022	0.606126	0.145209	0.591487	0.494248	0.271306	0.187533	0.242636	0.341653	0.469188	0.169501	0.500196	0.911516	0.145648	0.438614	0.274398	0.198241	1.056043	0.120758	0.509292	0.508741	0.560536	0.090677	0.164011	0.294380	0.423458	0.218365	0.935341	0.438900	0.139362	0.122572	0.181872	0.318716	0.262836	0.097387	0.504944	0.739818	0.195009	0.094342	0.171208	0.093614
79	0.597310	0.175371	0.937331	0.604048	0.320389	0.547555	0.280326	0.331187	0.347834	0.559445	0.768935	0.926075	0.463039	0.679473	0.202152	0.335710	1.096547	0.276125	0.577951	0.752566	0.508340	0.091040	0.540076	0.433479	0.540647	0.102993	0.682046	0.686288	0.366287	0.707355	0.185123	0.162978	0.615211	0.150829	0.649226	0.507907	0.412718	0.207332	0.260700	0.435909	0.470434	0.168018	0.459211	0.911904	0.145632	0.420897	0.302916	0.241100	1.036807	0.122032	0.497091	0.555384	0.543879	0.085523	0.167950	0.288678	0.485933	0.221137	0.932807	0.412615	0.168816	0.117366	0.178606	0.336939	0.302305	0.095242	0.492447	0.739440	0.195202	0.092998	0.172965	0.091508
80	0.596850	0.180891	0.957682	0.536601	0.330443	0.554577	0.284037	0.371324	0.350668	0.633694	0.774972	0.940435	0.493937	0.681636	0.185081	0.332459	1.129710	0.260668	0.596622	0.783647	0.502711	0.114750	0.523358	0.351307	0.653903	0.132936	0.691114	0.787673	0.378463	0.709679	0.188481	0.162580	0.691737	0.172034	0.716969	0.531829	0.466965	0.184413	0.258749	0.484309	0.467814	0.166845	0.446928	0.909535	0.146342	0.331777	0.289704	0.241812	1.001475	0.119464	0.496303	0.640673	0.512572	0.089419	0.208705	0.283837	0.512223	0.226562	0.933525	0.411968	0.205030	0.100084	0.180291	0.358130	0.299981	0.101222	0.502342	0.743693	0.204170	0.092601	0.173536	0.094989
81	0.588134	0.177817	0.961405	0.491495	0.342084	0.554232	0.286054	0.367521	0.397697	0.635199	0.768685	0.958901	0.496447	0.680114	0.187684	0.347496	1.126708	0.244201	0.806932	0.957159	0.500312	0.147294	0.486321	0.343547	0.693812	0.141538	0.739257	0.799869	0.416342	0.708459	0.211028	0.163740	0.846167	0.209334	0.786578	0.554009	0.471529	0.167886	0.243788	0.485273	0.469829	0.163025	0.438693	0.892265	0.127821	0.327386	0.286026	0.240316	0.943617	0.114174	0.488429	0.695758	0.447348	0.094615	0.230332	0.292483	0.527192	0.227961	0.879996	0.415366	0.236019	0.089475	0.165345	0.369931	0.299860	0.111080	0.485134	0.752331	0.217351	0.087397	0.178130	0.096153
82	0.589893	0.180594	0.961416	0.449159	0.353836	0.555448	0.294420	0.381857	0.427504	0.624109	0.800139	0.977211	0.496910	0.643134	0.189021	0.347378	1.123951	0.222348	0.993747	1.087717	0.504550	0.164906	0.468290	0.346427	0.700216	0.145526	0.792993	0.858370	0.438999	0.704466	0.190293	0.164126	0.989643	0.253751	0.825465	0.602579	0.471079	0.174092	0.219543	0.479546	0.486733	0.159571	0.456009	0.730084	0.119115	0.279956	0.293853	0.254837	0.855321	0.106385	0.471263	0.727429	0.334857	0.095280	0.231160	0.294885	0.521443	0.216680	0.747851	0.422385	0.258957	0.093388	0.146878	0.358429	0.301135	0.112522	0.489077	0.759524	0.226077	0.075650	0.170105	0.095114
83	0.590437	0.178897	0.961273	0.428535	0.366431	0.555875	0.329125	0.385423	0.428607	0.558703	0.825795	0.984444	0.501738	0.556137	0.199949	0.397366	1.119507	0.236865	1.066002	1.097657	0.498350	0.171428	0.441428	0.315910	0.712184	0.147394	0.794439	0.945704	0.456627	0.686888	0.193872	0.162142	1.040527	0.266074	0.818852	0.641704	0.469385	0.210568	0.218042	0.478669	0.491751	0.159075	0.454266	0.617212	0.124897	0.275466	0.287841	0.295832	0.798241	0.104417	0.470299	0.734825	0.270421	0.094239	0.233043	0.244251	0.507235	0.201061	0.633304	0.416492	0.270281	0.132253	0.142154	0.343407	0.307802	0.105070	0.475881	0.683587	0.228694	0.062866	0.140457	0.124105
84	0.586761	0.171714	0.954137	0.426637	0.388201	0.553767	0.403620	0.375620	0.451668	0.516101	0.870451	0.988067	0.519842	0.496082	0.203642	0.460392	1.045377	0.258147	1.089948	1.086705	0.474925	0.176206	0.361522	0.263441	0.778133	0.166093	0.796749	1.060574	0.464109	0.609647	0.200176	0.162378	1.020977	0.261961	0.714583	0.643591	0.467623	0.220511	0.221225	0.488631	0.484152	0.159976	0.437319	0.652520	0.141676	0.271771	0.289460	0.323046	0.794586	0.107318	0.502114	0.743374	0.259971	0.095617	0.226484	0.221893	0.493982	0.180629	0.563414	0.396026	0.266675	0.267302	0.136589	0.302580	0.295124	0.084612	0.411741	0.696009	0.232539	0.057717	0.127623	0.125074
85	0.584069	0.166131	0.914388	0.382655	0.396681	0.523959	0.486118	0.362990	0.443692	0.515587	0.954987	1.019972	0.546983	0.378817	0.203726	0.476977	0.894027	0.267477	1.084719	1.099618	0.444224	0.186548	0.322698	0.269426	0.867967	0.188010	0.820500	1.137042	0.451868	0.579301	0.200271	0.162039	0.983815	0.264383	0.640527	0.658891	0.468495	0.259510	0.199324	0.447672	0.484304	0.150716	0.453831	0.570268	0.140654	0.254247	0.299121	0.326351	0.767127	0.106455	0.515559	0.745979	0.252792	0.091234	0.212122	0.192841	0.491546	0.169635	0.533464	0.360337	0.270229	0.292211	0.134787	0.320930	0.287331	0.073171	0.392295	0.640469	0.231487	0.081232	0.100203	0.118431
86	0.579450	0.160523	0.840309	0.300890	0.419433	0.422492	0.492813	0.355634	0.455061	0.509954	1.013658	1.034592	0.600136	0.247542	0.199689	0.507597	0.792242	0.268147	1.087762	1.082022	0.401938	0.194786	0.276767	0.270656	0.930042	0.194813	0.836360	1.175414	0.425174	0.329750	0.189281	0.132723	0.941308	0.257754	0.640761	0.772724	0.475829	0.252554	0.193865	0.400810	0.478409	0.135028	0.488101	0.457619	0.148041	0.228010	0.320481	0.326166	0.655270	0.106222	0.512074	0.720369	0.221965	0.071889	0.203815	0.189661	0.494360	0.169280	0.525681	0.348977	0.289208	0.386489	0.118010	0.357265	0.279678	0.073314	0.381502	0.587844	0.220536	0.081006	0.096869	0.120404
87	0.581909	0.155508	0.749626	0.221699	0.431122	0.367696	0.495226	0.329507	0.459927	0.390713	0.981911	1.026038	0.635743	0.239204	0.199019	0.495230	0.781871	0.268965	1.088028	1.011766	0.366186	0.202906	0.218202	0.269733	0.898160	0.196139	0.837948	1.192171	0.410852	0.138348	0.189760	0.074366	0.901190	0.246340	0.645368	0.833089	0.466724	0.249690	0.167125	0.393430	0.475940	0.118905	0.515023	0.457032	0.150260	0.176521	0.318669	0.322310	0.474531	0.108464	0.547339	0.637874	0.211857	0.068923	0.205071	0.153241	0.490914	0.163885	0.480369	0.380337	0.292020	0.468743	0.092150	0.371379	0.297802	0.082443	0.328074	0.589352	0.190244	0.076640	0.096739	0.123970
88	0.572551	0.162369	0.734470	0.240532	0.435027	0.207891	0.532489	0.307275	0.422764	0.366245	0.860609	0.737790	0.620988	0.214962	0.199900	0.460392	0.792128	0.273695	1.071060	0.959954	0.331655	0.212356	0.196514	0.268642	0.869139	0.196752	0.825156	1.190418	0.367332	0.135271	0.188141	0.085828	0.904837	0.253287	0.646012	0.758436	0.471435	0.259119	0.138182	0.390661	0.473484	0.115122	0.513858	0.448181	0.176883	0.146896	0.296969	0.307543	0.331890	0.113511	0.580425	0.629036	0.208137	0.065263	0.203419	0.115909	0.487314	0.156681	0.403746	0.404000	0.286313	0.468197	0.062401	0.352383	0.335093	0.083641	0.352733	0.619917	0.186714	0.076998	0.091435	0.123953
89	0.585592	0.178714	0.759315	0.295332	0.425278	0.171165	0.584306	0.302626	0.413452	0.364650	0.824268	0.737492	0.588311	0.134831	0.203389	0.493312	0.746500	0.275836	1.051890	0.950182	0.307594	0.261997	0.195675	0.239798	0.898953	0.190400	0.785636	1.152976	0.337082	0.114129	0.176481	0.083371	0.920664	0.264376	0.671729	0.753819	0.392707	0.245365	0.118662	0.306000	0.396862	0.100425	0.494375	0.449512	0.201666	0.147238	0.258299	0.265316	0.352636	0.110775	0.585344	0.637568	0.187937	0.063330	0.193738	0.103049	0.500942	0.166476	0.471219	0.375030	0.277190	0.467945	0.063978	0.323418	0.331860	0.091213	0.410522	0.630854	0.177455	0.077384	0.083478	0.122438
90	0.625939	0.206132	0.747314	0.303505	0.422843	0.183305	0.621608	0.302124	0.422385	0.303668	0.944878	0.808561	0.559351	0.123635	0.205210	0.515924	0.622095	0.276090	1.059407	0.974625	0.262111	0.261043	0.189442	0.179739	0.926745	0.184976	0.725700	1.112142	0.283748	0.107236	0.163793	0.077564	0.915972	0.264610	0.682171	0.777370	0.284991	0.235774	0.109424	0.167078	0.345601	0.089595	0.471474	0.449775	0.212368	0.158209	0.222088	0.229022	0.366943	0.107577	0.585750	0.647648	0.158323	0.063123	0.195646	0.107916	0.507535	0.181238	0.594132	0.362910	0.264672	0.467848	0.058933	0.290548	0.314900	0.101791	0.436502	0.607366	0.157722	0.077342	0.076997	0.120205
91	0.652171	0.224851	0.696535	0.303416	0.423648	0.185027	0.628450	0.247710	0.404577	0.138839	1.070353	0.791055	0.535255	0.160282	0.202039	0.514470	0.446597	0.276564	1.071123	0.993511	0.232044	0.256727	0.147306	0.165941	0.922072	0.184467	0.589389	1.177705	0.226759	0.107206	0.109454	0.074871	0.832867	0.244155	0.620440	0.788962	0.264837	0.237100	0.115833	0.163946	0.340466	0.091583	0.456068	0.439002	0.212807	0.161219	0.210044	0.228340	0.363078	0.110095	0.603438	0.651158	0.145427	0.052040	0.157464	0.101306	0.425258	0.168016	0.644756	0.340016	0.242679	0.468343	0.051425	0.269827	0.296829	0.107200	0.430727	0.602418	0.139809	0.077277	0.065915	0.114698
92	0.666188	0.238714	0.704669	0.303898	0.425077	0.185518	0.630054	0.201635	0.396715	0.144789	1.086302	0.780592	0.532451	0.179560	0.178406	0.499597	0.334741	0.278753	1.078822	0.980656	0.237772	0.276763	0.106704	0.151577	0.862253	0.172766	0.498286	1.198176	0.188010	0.107409	0.104173	0.074211	0.662363	0.205377	0.535860	0.769541	0.264373	0.232448	0.114695	0.159126	0.337849	0.098419	0.461326	0.436227	0.208054	0.181971	0.199105	0.227816	0.351734	0.113140	0.638679	0.684076	0.137167	0.041439	0.136153	0.075361	0.379666	0.161348	0.643862	0.339569	0.231586	0.468109	0.043865	0.253358	0.255766	0.108807	0.397426	0.605526	0.123314	0.076431	0.059163	0.114715
93	0.672929	0.244916	0.771202	0.314685	0.431881	0.196192	0.622719	0.197896	0.408650	0.144911	1.059150	0.783367	0.532888	0.240275	0.173757	0.495882	0.333040	0.268419	0.961236	0.837050	0.271930	0.293743	0.114415	0.137973	0.798420	0.155315	0.490332	1.160808	0.164496	0.107336	0.083865	0.075024	0.441236	0.153203	0.491340	0.761011	0.264151	0.204088	0.111569	0.162797	0.336581	0.102476	0.486591	0.527721	0.205995	0.183538	0.186341	0.208087	0.356518	0.117235	0.650186	0.680929	0.117817	0.044244	0.148030	0.136823	0.341873	0.151777	0.641577	0.338335	0.227761	0.465002	0.043330	0.249981	0.252313	0.101755	0.388116	0.618788	0.131014	0.068511	0.057494	0.119623
94	0.666044	0.238205	0.789108	0.379031	0.435285	0.200558	0.612403	0.166967	0.405200	0.144403	1.081121	0.801831	0.527786	0.243308	0.161370	0.455307	0.334986	0.242745	0.757819	0.655217	0.314216	0.414733	0.108541	0.133481	0.775135	0.151380	0.376038	1.160199	0.165499	0.106012	0.089792	0.073723	0.364167	0.148591	0.491583	0.758151	0.263534	0.181840	0.103670	0.140751	0.317522	0.101731	0.481678	0.656137	0.205582	0.218063	0.196985	0.145664	0.363217	0.117150	0.638020	0.603662	0.096484	0.049043	0.138637	0.196883	0.308268	0.143726	0.627303	0.337016	0.229508	0.426929	0.043260	0.249735	0.254663	0.095491	0.384024	0.609998	0.135911	0.068743	0.051770	0.098393
95	0.663054	0.230905	0.805784	0.392504	0.424827	0.203899	0.578557	0.158611	0.381265	0.131497	1.088500	0.817419	0.499088	0.244215	0.155898	0.393109	0.347347	0.201016	0.638830	0.631941	0.319455	0.413217	0.099805	0.102883	0.772918	0.152201	0.296997	1.113945	0.177815	0.101998	0.098969	0.074058	0.345128	0.158827	0.540376	0.751878	0.263714	0.133932	0.101647	0.153594	0.258102	0.086937	0.470304	0.714239	0.196388	0.219434	0.211621	0.071952	0.376308	0.117075	0.653191	0.583628	0.092394	0.046412	0.138002	0.204859	0.301139	0.144883	0.612920	0.337508	0.226883	0.376148	0.042392	0.240850	0.249422	0.094616	0.378801	0.543037	0.133872	0.044601	0.049065	0.107317
96	0.670792	0.229768	0.873360	0.389127	0.407400	0.206555	0.515670	0.122610	0.378248	0.141132	1.033785	0.780889	0.445491	0.247726	0.156068	0.375779	0.382284	0.169586	0.595627	0.625497	0.320738	0.409096	0.099838	0.094948	0.749813	0.151081	0.300607	1.029271	0.191070	0.091171	0.093893	0.072190	0.345128	0.154378	0.572862	0.752588	0.214299	0.102480	0.100157	0.166551	0.186180	0.074775	0.475136	0.723209	0.192644	0.217553	0.222187	0.067543	0.375730	0.113497	0.676854	0.651438	0.091075	0.043832	0.138568	0.223226	0.304863	0.147249	0.594291	0.339080	0.205032	0.363697	0.038449	0.174762	0.244690	0.098244	0.376811	0.504850	0.131814	0.037153	0.048493	0.118421
97	0.682289	0.240920	0.929924	0.389170	0.397444	0.209094	0.448937	0.123377	0.330364	0.149794	1.003517	0.785299	0.376179	0.249309	0.160456	0.326632	0.424323	0.154432	0.610508	0.591558	0.308573	0.409796	0.099326	0.093803	0.673198	0.126544	0.287404	0.922221	0.204442	0.072580	0.092134	0.052119	0.341452	0.154935	0.589813	0.631090	0.157421	0.099567	0.102999	0.165678	0.191764	0.080939	0.497610	0.666031	0.188054	0.215168	0.210238	0.089812	0.374504	0.102308	0.626912	0.661880	0.091989	0.044358	0.136649	0.244399	0.305550	0.151088	0.588833	0.368653	0.179906	0.098151	0.035686	0.074716	0.262602	0.106373	0.376266	0.486561	0.134833	0.037988	0.047990	0.120045
98	0.689393	0.247360	0.964043	0.398639	0.387450	0.210775	0.443113	0.127530	0.316643	0.159945	0.996365	0.843085	0.308944	0.253084	0.144626	0.260531	0.467284	0.169103	0.612980	0.576999	0.303662	0.408012	0.105417	0.098312	0.572718	0.093866	0.202640	0.845283	0.217288	0.054627	0.088792	0.048143	0.324967	0.151931	0.625037	0.580026	0.131828	0.062521	0.099529	0.166316	0.208312	0.088988	0.472723	0.669193	0.188091	0.205892	0.191555	0.104055	0.374506	0.103881	0.592381	0.672386	0.099485	0.046902	0.134882	0.251637	0.312570	0.151537	0.592874	0.382142	0.183364	0.036105	0.035943	0.041038	0.280291	0.116228	0.375914	0.488071	0.135283	0.053473	0.047650	0.121780
99	0.695137	0.252156	1.008350	0.434743	0.388503	0.214821	0.422566	0.121271	0.306142	0.162708	0.992672	0.834341	0.256391	0.252559	0.110693	0.250194	0.512883	0.179091	0.610635	0.579627	0.282054	0.377823	0.107050	0.111849	0.531597	0.089211	0.160100	0.799874	0.226025	0.053218	0.090004	0.067869	0.261813	0.129371	0.632749	0.570302	0.112391	0.052383	0.073171	0.160967	0.217664	0.094654	0.441500	0.680606	0.163852	0.203213	0.192344	0.104668	0.389919	0.117358	0.667791	0.688365	0.104874	0.050406	0.135962	0.254704	0.317692	0.145754	0.598302	0.387923	0.187582	0.037001	0.027968	0.038454	0.281589	0.114335	0.374751	0.489325	0.134262	0.072868	0.044989	0.119966
100	0.688963	0.254213	1.030054	0.439613	0.389970	0.249025	0.356642	0.113277	0.300521	0.165061	0.915237	0.634957	0.223406	0.252015	0.072660	0.181830	0.543824	0.173272	0.602219	0.634576	0.274533	0.372937	0.121496	0.110957	0.565585	0.079993	0.179252	0.776232	0.227082	0.056841	0.089601	0.086948	0.217039	0.110198	0.553101	0.578383	0.097140	0.048261	0.070447	0.161020	0.213565	0.094019	0.436135	0.678298	0.132447	0.194078	0.196278	0.104955	0.383724	0.117484	0.741551	0.691210	0.105134	0.051188	0.135577	0.253773	0.318224	0.145158	0.643328	0.343131	0.181817	0.036729	0.020336	0.038209	0.251721	0.114604	0.362798	0.465534	0.134380	0.090215	0.041709	0.120007
101	0.690340	0.257157	1.034907	0.425291	0.389167	0.249381	0.239885	0.105440	0.286144	0.160264	0.704897	0.595918	0.214537	0.235702	0.066598	0.113164	0.570205	0.166186	0.590432	0.625761	0.271890	0.370283	0.124534	0.122972	0.555252	0.081675	0.186397	0.776771	0.218326	0.058524	0.119267	0.143698	0.215887	0.114345	0.537634	0.540213	0.090445	0.038506	0.055880	0.155133	0.206795	0.094261	0.439332	0.690796	0.116533	0.185303	0.199679	0.103920	0.377718	0.121208	0.754967	0.674819	0.103920	0.051048	0.103228	0.252332	0.313303	0.144105	0.671990	0.324153	0.177054	0.030349	0.022787	0.047991	0.254190	0.121460	0.311355	0.390988	0.134419	0.098008	0.041404	0.119947
