	165_P_T1_sh_L_ND_A_01.c3d	165_P_T1_sh_L_ND_A_01.c3d	165_P_T1_sh_L_ND_A_01.c3d	165_P_T1_sh_L_ND_A_01.c3d	165_P_T1_sh_L_ND_A_01.c3d	165_P_T1_sh_L_ND_A_01.c3d	165_P_T1_sh_L_ND_A_01.c3d	165_P_T1_sh_L_ND_A_01.c3d	165_P_T1_sh_L_ND_A_02.c3d	165_P_T1_sh_L_ND_A_02.c3d	165_P_T1_sh_L_ND_A_02.c3d	165_P_T1_sh_L_ND_A_02.c3d	165_P_T1_sh_L_ND_A_02.c3d	165_P_T1_sh_L_ND_A_02.c3d	165_P_T1_sh_L_ND_A_02.c3d	165_P_T1_sh_L_ND_A_02.c3d	165_P_T1_sh_L_ND_A_03.c3d	165_P_T1_sh_L_ND_A_03.c3d	165_P_T1_sh_L_ND_A_03.c3d	165_P_T1_sh_L_ND_A_03.c3d	165_P_T1_sh_L_ND_A_03.c3d	165_P_T1_sh_L_ND_A_03.c3d	165_P_T1_sh_L_ND_A_03.c3d	165_P_T1_sh_L_ND_A_03.c3d	165_P_T1_sh_L_ND_A_04.c3d	165_P_T1_sh_L_ND_A_04.c3d	165_P_T1_sh_L_ND_A_04.c3d	165_P_T1_sh_L_ND_A_04.c3d	165_P_T1_sh_L_ND_A_04.c3d	165_P_T1_sh_L_ND_A_04.c3d	165_P_T1_sh_L_ND_A_04.c3d	165_P_T1_sh_L_ND_A_04.c3d	165_P_T1_sh_L_ND_A_05.c3d	165_P_T1_sh_L_ND_A_05.c3d	165_P_T1_sh_L_ND_A_05.c3d	165_P_T1_sh_L_ND_A_05.c3d	165_P_T1_sh_L_ND_A_05.c3d	165_P_T1_sh_L_ND_A_05.c3d	165_P_T1_sh_L_ND_A_05.c3d	165_P_T1_sh_L_ND_A_05.c3d	165_P_T1_sh_L_ND_A_06.c3d	165_P_T1_sh_L_ND_A_06.c3d	165_P_T1_sh_L_ND_A_06.c3d	165_P_T1_sh_L_ND_A_06.c3d	165_P_T1_sh_L_ND_A_06.c3d	165_P_T1_sh_L_ND_A_06.c3d	165_P_T1_sh_L_ND_A_06.c3d	165_P_T1_sh_L_ND_A_06.c3d	165_P_T1_sh_L_ND_A_07.c3d	165_P_T1_sh_L_ND_A_07.c3d	165_P_T1_sh_L_ND_A_07.c3d	165_P_T1_sh_L_ND_A_07.c3d	165_P_T1_sh_L_ND_A_07.c3d	165_P_T1_sh_L_ND_A_07.c3d	165_P_T1_sh_L_ND_A_07.c3d	165_P_T1_sh_L_ND_A_07.c3d	165_P_T1_sh_L_ND_A_08.c3d	165_P_T1_sh_L_ND_A_08.c3d	165_P_T1_sh_L_ND_A_08.c3d	165_P_T1_sh_L_ND_A_08.c3d	165_P_T1_sh_L_ND_A_08.c3d	165_P_T1_sh_L_ND_A_08.c3d	165_P_T1_sh_L_ND_A_08.c3d	165_P_T1_sh_L_ND_A_08.c3d	165_P_T1_sh_L_ND_A_09.c3d	165_P_T1_sh_L_ND_A_09.c3d	165_P_T1_sh_L_ND_A_09.c3d	165_P_T1_sh_L_ND_A_09.c3d	165_P_T1_sh_L_ND_A_09.c3d	165_P_T1_sh_L_ND_A_09.c3d	165_P_T1_sh_L_ND_A_09.c3d	165_P_T1_sh_L_ND_A_09.c3d
	Biceps femoris_lat	Semitendinosus_lat	Vastus lateralis_lat	Vastus medialis_lat	Biceps femoris_med	Semitendinosus_med	Vastus lateralis_med	Vastus medialis_med	Biceps femoris_lat	Semitendinosus_lat	Vastus lateralis_lat	Vastus medialis_lat	Biceps femoris_med	Semitendinosus_med	Vastus lateralis_med	Vastus medialis_med	Biceps femoris_lat	Semitendinosus_lat	Vastus lateralis_lat	Vastus medialis_lat	Biceps femoris_med	Semitendinosus_med	Vastus lateralis_med	Vastus medialis_med	Biceps femoris_lat	Semitendinosus_lat	Vastus lateralis_lat	Vastus medialis_lat	Biceps femoris_med	Semitendinosus_med	Vastus lateralis_med	Vastus medialis_med	Biceps femoris_lat	Semitendinosus_lat	Vastus lateralis_lat	Vastus medialis_lat	Biceps femoris_med	Semitendinosus_med	Vastus lateralis_med	Vastus medialis_med	Biceps femoris_lat	Semitendinosus_lat	Vastus lateralis_lat	Vastus medialis_lat	Biceps femoris_med	Semitendinosus_med	Vastus lateralis_med	Vastus medialis_med	Biceps femoris_lat	Semitendinosus_lat	Vastus lateralis_lat	Vastus medialis_lat	Biceps femoris_med	Semitendinosus_med	Vastus lateralis_med	Vastus medialis_med	Biceps femoris_lat	Semitendinosus_lat	Vastus lateralis_lat	Vastus medialis_lat	Biceps femoris_med	Semitendinosus_med	Vastus lateralis_med	Vastus medialis_med	Biceps femoris_lat	Semitendinosus_lat	Vastus lateralis_lat	Vastus medialis_lat	Biceps femoris_med	Semitendinosus_med	Vastus lateralis_med	Vastus medialis_med
	P2D	P2D	P2D	P2D	P2D	P2D	P2D	P2D	P2D	P2D	P2D	P2D	P2D	P2D	P2D	P2D	P2D	P2D	P2D	P2D	P2D	P2D	P2D	P2D	P2D	P2D	P2D	P2D	P2D	P2D	P2D	P2D	P2D	P2D	P2D	P2D	P2D	P2D	P2D	P2D	P2D	P2D	P2D	P2D	P2D	P2D	P2D	P2D	P2D	P2D	P2D	P2D	P2D	P2D	P2D	P2D	P2D	P2D	P2D	P2D	P2D	P2D	P2D	P2D	P2D	P2D	P2D	P2D	P2D	P2D	P2D	P2D
	EMG_lat	EMG_lat	EMG_lat	EMG_lat	EMG_med	EMG_med	EMG_med	EMG_med	EMG_lat	EMG_lat	EMG_lat	EMG_lat	EMG_med	EMG_med	EMG_med	EMG_med	EMG_lat	EMG_lat	EMG_lat	EMG_lat	EMG_med	EMG_med	EMG_med	EMG_med	EMG_lat	EMG_lat	EMG_lat	EMG_lat	EMG_med	EMG_med	EMG_med	EMG_med	EMG_lat	EMG_lat	EMG_lat	EMG_lat	EMG_med	EMG_med	EMG_med	EMG_med	EMG_lat	EMG_lat	EMG_lat	EMG_lat	EMG_med	EMG_med	EMG_med	EMG_med	EMG_lat	EMG_lat	EMG_lat	EMG_lat	EMG_med	EMG_med	EMG_med	EMG_med	EMG_lat	EMG_lat	EMG_lat	EMG_lat	EMG_med	EMG_med	EMG_med	EMG_med	EMG_lat	EMG_lat	EMG_lat	EMG_lat	EMG_med	EMG_med	EMG_med	EMG_med
ITEM	Y	Y	Y	Y	Y	Y	Y	Y	Y	Y	Y	Y	Y	Y	Y	Y	Y	Y	Y	Y	Y	Y	Y	Y	Y	Y	Y	Y	Y	Y	Y	Y	Y	Y	Y	Y	Y	Y	Y	Y	Y	Y	Y	Y	Y	Y	Y	Y	Y	Y	Y	Y	Y	Y	Y	Y	Y	Y	Y	Y	Y	Y	Y	Y	Y	Y	Y	Y	Y	Y	Y	Y
1	0.120540	0.275898	0.235849	0.186953	0.060081	0.199529	0.211455	0.171699	0.192704	0.358837	0.188488	0.176979	0.267454	0.159920	0.250775	0.287826	0.084830	0.169270	0.300074	0.215081	0.535064	0.666370	0.133465	0.225003	0.551569	0.649425	0.089247	0.101380	0.106383	0.189768	0.202806	0.096527	0.079859	0.078146	0.111621	0.251078	0.299326	0.314208	0.124802	0.328005	0.112664	0.599958	0.160263	0.181136	0.288623	0.241128	0.225044	0.342716	0.033540	0.055058	0.268502	0.148693	0.056860	0.163659	0.174257	0.110626	0.374131	0.363626	0.286053	0.234194	0.124185	0.219165	0.189528	0.161772	0.167994	0.190184	0.097277	0.303997	0.184955	0.509788	0.241389	0.267420
2	0.116506	0.270182	0.247955	0.186143	0.057844	0.201216	0.204767	0.200336	0.171393	0.335667	0.162715	0.184091	0.259425	0.161790	0.249634	0.278353	0.083524	0.173579	0.332465	0.177541	0.485189	0.658980	0.126541	0.243279	0.547180	0.646510	0.080200	0.099264	0.097560	0.189862	0.207273	0.092175	0.072679	0.064764	0.108736	0.261471	0.299452	0.335059	0.128321	0.309309	0.113387	0.589775	0.160626	0.162417	0.211627	0.181957	0.236778	0.343326	0.031099	0.069792	0.275482	0.148713	0.054727	0.166071	0.195479	0.113729	0.273194	0.304975	0.297165	0.259279	0.119117	0.188245	0.109373	0.153609	0.173712	0.213195	0.100654	0.275568	0.190371	0.516782	0.237224	0.271223
3	0.096369	0.260826	0.275794	0.172887	0.054153	0.202497	0.191274	0.204664	0.162165	0.266661	0.153972	0.205929	0.254235	0.158351	0.242958	0.250368	0.083628	0.178834	0.328203	0.177687	0.444900	0.613644	0.129993	0.243734	0.543672	0.641656	0.079853	0.092977	0.095274	0.184887	0.203828	0.089049	0.066083	0.062492	0.120228	0.253491	0.304469	0.338792	0.122706	0.308933	0.116100	0.479472	0.162262	0.140083	0.152242	0.145320	0.212801	0.346919	0.028216	0.068107	0.261026	0.132278	0.059001	0.219268	0.207688	0.106765	0.252903	0.293238	0.329177	0.270891	0.102160	0.185089	0.097443	0.154262	0.189460	0.265498	0.199283	0.245980	0.198972	0.519984	0.244942	0.270717
4	0.075227	0.211028	0.282952	0.132033	0.064508	0.196680	0.192436	0.224222	0.161195	0.255362	0.154397	0.226259	0.247928	0.150585	0.212231	0.239370	0.076487	0.172238	0.297083	0.176774	0.188584	0.429906	0.152074	0.256458	0.546058	0.629811	0.092361	0.088384	0.091839	0.178703	0.203576	0.089880	0.067436	0.084058	0.135890	0.237232	0.306154	0.336301	0.157230	0.281350	0.115138	0.424207	0.163794	0.137132	0.114418	0.128754	0.215299	0.354466	0.025278	0.066783	0.246467	0.111315	0.076015	0.258045	0.241762	0.097928	0.199406	0.253134	0.426541	0.317090	0.098839	0.179975	0.127048	0.152369	0.176689	0.272805	0.235664	0.262181	0.197785	0.521707	0.236498	0.290564
5	0.071223	0.179056	0.339669	0.120801	0.070917	0.183844	0.197001	0.282888	0.161256	0.197992	0.143321	0.239383	0.249467	0.186179	0.157413	0.242812	0.068613	0.149375	0.312776	0.169159	0.061544	0.245086	0.177232	0.269564	0.503021	0.558386	0.103485	0.082075	0.091757	0.180938	0.196683	0.093227	0.066618	0.117534	0.132984	0.234216	0.286875	0.314328	0.189341	0.198358	0.070292	0.331867	0.147270	0.138008	0.096550	0.125511	0.223374	0.374899	0.019023	0.068914	0.320362	0.112868	0.164915	0.501040	0.247053	0.120287	0.154458	0.151633	0.486823	0.372153	0.098810	0.138406	0.220778	0.167587	0.174915	0.260949	0.256037	0.306363	0.196874	0.521502	0.229405	0.303933
6	0.067171	0.165315	0.376763	0.115620	0.084746	0.190619	0.197093	0.334707	0.122573	0.151831	0.143064	0.238331	0.227939	0.280621	0.133089	0.227065	0.065869	0.122860	0.310956	0.138372	0.048539	0.234612	0.175456	0.270907	0.455815	0.515126	0.122219	0.075757	0.094544	0.184769	0.171286	0.110657	0.083862	0.139152	0.153259	0.279063	0.262674	0.295634	0.196852	0.164372	0.055015	0.204008	0.143746	0.137073	0.089469	0.150416	0.274422	0.402904	0.017041	0.071012	0.353219	0.102483	0.180512	0.508537	0.272534	0.132405	0.100716	0.124810	0.494779	0.390953	0.101212	0.161080	0.239133	0.239669	0.163356	0.242779	0.286428	0.313402	0.212882	0.524543	0.242000	0.319692
7	0.052603	0.117947	0.372965	0.103911	0.088351	0.205779	0.228576	0.346959	0.120479	0.161246	0.134345	0.219539	0.221994	0.371096	0.171633	0.165894	0.041400	0.122128	0.313215	0.134132	0.060884	0.222092	0.174055	0.262059	0.423708	0.448840	0.194657	0.117121	0.092077	0.170424	0.175687	0.111280	0.124944	0.187804	0.204475	0.330472	0.249309	0.298016	0.200193	0.176452	0.048143	0.173842	0.137012	0.115126	0.096953	0.166393	0.276925	0.409132	0.050609	0.099484	0.359523	0.099828	0.186111	0.511081	0.292710	0.156230	0.089048	0.127328	0.491329	0.392571	0.110596	0.218363	0.237766	0.297762	0.154627	0.243414	0.318457	0.298065	0.260937	0.557653	0.262756	0.388111
8	0.041916	0.089842	0.359591	0.117150	0.084070	0.204777	0.226059	0.346776	0.106153	0.163658	0.156905	0.193052	0.265911	0.402822	0.250759	0.146397	0.030233	0.121893	0.314156	0.130703	0.060382	0.218210	0.168981	0.272981	0.227723	0.241058	0.199079	0.191989	0.084413	0.176593	0.179475	0.106611	0.129905	0.251827	0.220366	0.329890	0.246882	0.389218	0.225341	0.217134	0.046879	0.164884	0.135442	0.086290	0.097566	0.155300	0.280785	0.408757	0.059477	0.110119	0.479803	0.106641	0.189160	0.510984	0.289674	0.174937	0.082340	0.124892	0.500860	0.405251	0.116105	0.231134	0.319295	0.306656	0.144596	0.245759	0.417074	0.335263	0.287115	0.554171	0.284162	0.429652
9	0.055637	0.089668	0.359480	0.228439	0.084875	0.190810	0.280712	0.346892	0.091641	0.146055	0.378152	0.215042	0.320954	0.506088	0.277457	0.273056	0.041270	0.120070	0.284520	0.128912	0.060839	0.172667	0.201505	0.288415	0.178275	0.169526	0.235557	0.271868	0.082431	0.176005	0.172607	0.149941	0.126449	0.265435	0.286075	0.327297	0.175078	0.383897	0.296670	0.238823	0.047917	0.151502	0.136203	0.079181	0.102653	0.153671	0.312187	0.406098	0.061876	0.109367	0.557515	0.123449	0.191162	0.501102	0.296163	0.175466	0.079429	0.124258	0.557175	0.387550	0.134171	0.245665	0.399567	0.363932	0.128389	0.230501	0.437127	0.376854	0.324187	0.536318	0.315335	0.413362
10	0.080363	0.098139	0.371381	0.347766	0.105474	0.193763	0.363927	0.354342	0.097648	0.145499	0.395864	0.240116	0.340809	0.527566	0.312099	0.380260	0.065987	0.195425	0.277846	0.127246	0.061523	0.127180	0.229674	0.282992	0.167395	0.145823	0.290436	0.312120	0.083458	0.165089	0.228492	0.172471	0.131782	0.265264	0.318174	0.372256	0.107959	0.349208	0.314479	0.228055	0.048067	0.119286	0.145534	0.082682	0.117390	0.178340	0.344364	0.383864	0.077840	0.105446	0.560613	0.128976	0.196749	0.502166	0.323616	0.200765	0.079109	0.124521	0.580818	0.347023	0.140022	0.255670	0.408369	0.381746	0.133689	0.205365	0.423215	0.392675	0.334451	0.388076	0.333744	0.464551
11	0.084949	0.105498	0.405723	0.378292	0.135518	0.196492	0.360740	0.388095	0.101331	0.155691	0.493513	0.237000	0.341950	0.527914	0.392882	0.409770	0.076876	0.192742	0.263434	0.127019	0.064515	0.125291	0.228639	0.263602	0.167707	0.125662	0.293552	0.315791	0.100381	0.162358	0.267823	0.176817	0.142973	0.267301	0.333076	0.415686	0.108334	0.346840	0.353420	0.236508	0.047219	0.107188	0.147408	0.090526	0.134235	0.280359	0.368975	0.376209	0.089982	0.123346	0.586612	0.166353	0.199572	0.502356	0.319485	0.265791	0.077780	0.125452	0.576725	0.348312	0.142638	0.276616	0.404819	0.379180	0.104581	0.160111	0.381577	0.390765	0.347725	0.389411	0.403140	0.545407
12	0.100656	0.110960	0.388544	0.389185	0.157652	0.200245	0.389056	0.422867	0.099056	0.146278	0.540950	0.234832	0.341185	0.554973	0.446362	0.412447	0.077109	0.190976	0.268924	0.124670	0.073959	0.128952	0.288106	0.238755	0.168901	0.127512	0.294825	0.340875	0.117822	0.169606	0.270666	0.198859	0.154107	0.264158	0.327439	0.427346	0.109064	0.328760	0.433318	0.294538	0.036480	0.105472	0.162257	0.122417	0.134540	0.304989	0.380119	0.382894	0.101277	0.141782	0.592440	0.174828	0.202071	0.474785	0.297253	0.295008	0.073470	0.126091	0.538895	0.335811	0.142415	0.315464	0.397866	0.377677	0.102849	0.146700	0.378202	0.361620	0.353385	0.420738	0.410541	0.574475
13	0.115098	0.113233	0.367943	0.437916	0.188486	0.261185	0.445100	0.438930	0.098203	0.133848	0.558050	0.247202	0.336725	0.633353	0.494429	0.419102	0.082105	0.191936	0.268693	0.110476	0.093410	0.152160	0.327487	0.220998	0.197682	0.182764	0.302073	0.393259	0.119638	0.179393	0.266910	0.229168	0.157022	0.253022	0.336688	0.425306	0.096367	0.322782	0.442603	0.371781	0.026788	0.095706	0.154610	0.148671	0.159039	0.334518	0.371554	0.395301	0.101610	0.144549	0.567659	0.171235	0.164315	0.358279	0.280718	0.298755	0.063482	0.118342	0.459061	0.286533	0.141199	0.349998	0.359583	0.356481	0.099550	0.141416	0.351735	0.301384	0.353872	0.433950	0.393013	0.567112
14	0.114273	0.115798	0.363101	0.486426	0.193595	0.291710	0.493541	0.436380	0.085612	0.120199	0.566778	0.257979	0.327037	0.627713	0.504680	0.486797	0.082212	0.192769	0.307849	0.127532	0.093594	0.162857	0.326132	0.221408	0.201218	0.243389	0.299197	0.450006	0.118093	0.171771	0.264945	0.243276	0.147074	0.254408	0.326906	0.396084	0.076538	0.313664	0.465818	0.414283	0.021334	0.080388	0.156675	0.156729	0.172989	0.346638	0.392713	0.402931	0.100816	0.142686	0.556001	0.170684	0.129722	0.164147	0.249463	0.298497	0.043465	0.092501	0.418110	0.232598	0.124109	0.328283	0.365954	0.295020	0.098426	0.143226	0.361939	0.284480	0.354851	0.436879	0.392105	0.546914
15	0.114550	0.111721	0.305181	0.505542	0.209735	0.301259	0.499615	0.425045	0.078113	0.110736	0.570043	0.256572	0.324446	0.618519	0.518960	0.544389	0.083977	0.191261	0.326998	0.141051	0.093430	0.161913	0.315426	0.224832	0.195687	0.291520	0.298375	0.493110	0.115996	0.169556	0.260426	0.243100	0.121757	0.228762	0.301127	0.361277	0.096480	0.319666	0.477933	0.422739	0.029513	0.069868	0.182105	0.155790	0.176486	0.350672	0.419728	0.395801	0.088798	0.129069	0.549798	0.169835	0.104531	0.159941	0.225635	0.290978	0.029395	0.060323	0.403258	0.224761	0.120005	0.293211	0.357860	0.278477	0.094662	0.132426	0.275877	0.292257	0.354024	0.437510	0.390713	0.543049
16	0.114506	0.108699	0.264382	0.511904	0.210901	0.297723	0.508747	0.426628	0.074158	0.095859	0.579900	0.277685	0.307448	0.561832	0.525760	0.562998	0.088112	0.176159	0.329919	0.139040	0.109154	0.161747	0.306043	0.264898	0.197275	0.318199	0.298537	0.502367	0.110656	0.166396	0.258316	0.237440	0.126865	0.155128	0.292518	0.411353	0.111191	0.325238	0.492111	0.415143	0.034299	0.051303	0.199252	0.161750	0.178126	0.352370	0.419398	0.368858	0.084801	0.391903	0.414167	0.174188	0.104019	0.170936	0.244119	0.277303	0.025625	0.044233	0.421398	0.222437	0.106487	0.293917	0.246884	0.268735	0.088104	0.116654	0.165411	0.258314	0.332682	0.421266	0.379588	0.502076
17	0.114274	0.107847	0.270833	0.512123	0.212564	0.285856	0.510636	0.439304	0.073236	0.085348	0.580653	0.321101	0.300632	0.539689	0.504990	0.566624	0.085050	0.173727	0.321920	0.157736	0.115869	0.158722	0.313539	0.316494	0.191786	0.319188	0.262584	0.493827	0.108030	0.170403	0.269128	0.245430	0.136514	0.177026	0.244465	0.437451	0.114947	0.315708	0.501715	0.405219	0.034754	0.059445	0.199182	0.179269	0.178747	0.347538	0.401377	0.325712	0.088282	0.509259	0.294089	0.171663	0.103527	0.173238	0.269355	0.270043	0.026839	0.105970	0.400907	0.192775	0.098908	0.289313	0.196149	0.246465	0.049847	0.073650	0.184620	0.219623	0.302277	0.369474	0.362407	0.461763
18	0.113956	0.110268	0.262800	0.509886	0.214719	0.277442	0.504457	0.446511	0.087467	0.112908	0.514354	0.366662	0.226512	0.477717	0.462666	0.551146	0.066770	0.133437	0.283156	0.183710	0.111704	0.137824	0.321038	0.352137	0.182830	0.321884	0.262442	0.473394	0.101430	0.164858	0.274418	0.271447	0.130194	0.246596	0.248902	0.394306	0.110628	0.190128	0.507196	0.389521	0.035786	0.083666	0.198542	0.195231	0.173202	0.336867	0.391561	0.306060	0.150433	0.672027	0.282984	0.170097	0.105976	0.186471	0.229683	0.272741	0.028847	0.166117	0.272737	0.175638	0.112320	0.308687	0.196306	0.286265	0.046911	0.051525	0.188356	0.205792	0.270585	0.365723	0.350206	0.499581
19	0.109832	0.110969	0.264752	0.465815	0.216650	0.273575	0.485260	0.449346	0.091035	0.143110	0.448014	0.369934	0.172918	0.401473	0.456584	0.481122	0.056829	0.173375	0.349856	0.187117	0.113076	0.133045	0.320725	0.348351	0.183641	0.338456	0.232357	0.437069	0.103604	0.162543	0.278617	0.261739	0.117992	0.281991	0.223388	0.368937	0.110254	0.152449	0.497034	0.387757	0.041111	0.105737	0.190018	0.211786	0.172554	0.338449	0.390078	0.297413	0.152164	0.742611	0.218719	0.141950	0.099975	0.217428	0.207269	0.242113	0.029815	0.179489	0.221677	0.166964	0.116646	0.306298	0.215329	0.293423	0.044291	0.054696	0.185166	0.234350	0.191063	0.344488	0.367988	0.506199
20	0.093836	0.102790	0.245612	0.400238	0.212300	0.265785	0.404314	0.443015	0.086022	0.136284	0.404410	0.367883	0.153721	0.383926	0.419031	0.421652	0.083817	0.185829	0.414521	0.187372	0.111957	0.133313	0.306905	0.332500	0.184262	0.351009	0.154025	0.413507	0.103663	0.163974	0.276786	0.247053	0.103983	0.293392	0.218743	0.369045	0.111963	0.154523	0.488355	0.412718	0.041457	0.130470	0.180042	0.222331	0.171117	0.335311	0.382802	0.302260	0.147868	0.742595	0.212018	0.130847	0.096552	0.238135	0.212179	0.206114	0.029379	0.221331	0.219274	0.157619	0.117006	0.291164	0.215326	0.304605	0.044348	0.060082	0.184093	0.260987	0.152476	0.311108	0.307078	0.421212
21	0.093129	0.098580	0.224625	0.392857	0.192814	0.251625	0.386462	0.407269	0.103536	0.209668	0.308717	0.400494	0.147892	0.382474	0.358578	0.405603	0.094712	0.200331	0.416670	0.182659	0.111617	0.132284	0.293196	0.320251	0.193523	0.359493	0.142392	0.416571	0.085729	0.161504	0.257753	0.247776	0.101750	0.306214	0.214846	0.367669	0.116013	0.159393	0.464249	0.429966	0.047847	0.137975	0.174573	0.217515	0.162966	0.331974	0.375570	0.307834	0.149234	0.746090	0.193331	0.157064	0.089083	0.241920	0.251282	0.190691	0.031693	0.239147	0.252182	0.153983	0.121945	0.232935	0.229468	0.335829	0.046179	0.061760	0.171301	0.274891	0.120354	0.261975	0.260196	0.367784
22	0.072229	0.093663	0.242422	0.377129	0.177715	0.269387	0.373187	0.350342	0.110092	0.413483	0.272768	0.439296	0.142515	0.277567	0.279100	0.405949	0.101528	0.222031	0.388633	0.180296	0.113350	0.130434	0.313556	0.316398	0.194004	0.359914	0.135572	0.397553	0.056908	0.134976	0.267107	0.243667	0.122973	0.318240	0.206631	0.370383	0.121553	0.160891	0.391300	0.409392	0.059424	0.172532	0.166509	0.199297	0.147471	0.271568	0.358466	0.290453	0.159337	0.746681	0.181315	0.155317	0.085119	0.243153	0.272978	0.177486	0.049797	0.249795	0.249378	0.168304	0.110185	0.227646	0.262208	0.385513	0.049734	0.065707	0.216241	0.260183	0.108283	0.222911	0.299527	0.372339
23	0.064485	0.110311	0.241423	0.316535	0.158035	0.235801	0.321823	0.314284	0.111036	0.456846	0.302305	0.464852	0.140360	0.199394	0.239255	0.382323	0.103547	0.255224	0.375917	0.164200	0.109297	0.126548	0.274337	0.316529	0.165100	0.335607	0.127265	0.345211	0.054478	0.137485	0.319535	0.249666	0.174148	0.348681	0.203134	0.353410	0.125874	0.176327	0.395328	0.342115	0.067467	0.208112	0.179044	0.184776	0.145663	0.216996	0.354367	0.268616	0.161906	0.745375	0.183715	0.167023	0.080945	0.234029	0.281544	0.170693	0.073769	0.263321	0.246271	0.186417	0.110054	0.222805	0.253078	0.386865	0.049118	0.067043	0.217928	0.223488	0.107128	0.221354	0.351572	0.392760
24	0.066669	0.163002	0.254739	0.254530	0.176292	0.248241	0.252752	0.307756	0.135830	0.606021	0.389578	0.469892	0.120038	0.205476	0.200113	0.268105	0.102116	0.284352	0.421609	0.236440	0.098610	0.099925	0.235164	0.316387	0.138100	0.289448	0.224621	0.267627	0.067506	0.156093	0.349517	0.275261	0.185451	0.391703	0.207668	0.275619	0.135596	0.186915	0.376889	0.294356	0.068193	0.216764	0.176904	0.194600	0.116084	0.171143	0.357468	0.258328	0.163410	0.644142	0.225961	0.164417	0.076516	0.214712	0.303512	0.170223	0.073071	0.267315	0.243131	0.182054	0.104815	0.216223	0.263082	0.354927	0.056393	0.117712	0.233214	0.218620	0.091440	0.230231	0.359803	0.404993
25	0.066811	0.185867	0.276586	0.243695	0.153729	0.241506	0.220682	0.304656	0.139446	0.628854	0.396073	0.465417	0.066412	0.195262	0.172069	0.171814	0.102957	0.293533	0.469910	0.365636	0.102435	0.087618	0.235780	0.316208	0.121084	0.238745	0.337076	0.174191	0.089795	0.193798	0.373003	0.285594	0.190702	0.393036	0.195469	0.219950	0.149890	0.251128	0.343519	0.290842	0.068391	0.220122	0.147569	0.249995	0.086395	0.128415	0.344833	0.241545	0.160870	0.557060	0.346386	0.165061	0.069593	0.212564	0.368142	0.170766	0.074359	0.266292	0.216405	0.184318	0.094133	0.207436	0.270763	0.321366	0.062116	0.148011	0.228338	0.225858	0.067729	0.269355	0.369553	0.413057
26	0.066676	0.188095	0.280157	0.254548	0.143802	0.241953	0.212579	0.263713	0.141448	0.630467	0.438657	0.445374	0.048604	0.190658	0.189022	0.134892	0.101215	0.286770	0.474705	0.380609	0.101834	0.089202	0.236143	0.313242	0.108560	0.198201	0.347329	0.142935	0.093512	0.192841	0.439645	0.284305	0.212796	0.458707	0.136313	0.220097	0.142798	0.268190	0.329249	0.294321	0.070766	0.220925	0.170206	0.329921	0.072367	0.114128	0.290792	0.240720	0.095920	0.337660	0.392095	0.178632	0.061099	0.211583	0.395219	0.178274	0.078983	0.244592	0.212784	0.195075	0.071276	0.092632	0.274979	0.307750	0.068876	0.165072	0.239222	0.227027	0.052808	0.255269	0.371995	0.408243
27	0.068997	0.198126	0.269897	0.260115	0.137390	0.291591	0.201842	0.223623	0.141182	0.633975	0.527112	0.428236	0.036048	0.194970	0.233342	0.120894	0.104251	0.252231	0.446595	0.423762	0.087285	0.094627	0.240451	0.285623	0.107038	0.188440	0.347942	0.150280	0.091892	0.185185	0.458427	0.278763	0.214858	0.443911	0.144122	0.203648	0.158210	0.285863	0.312148	0.301112	0.074940	0.232695	0.165258	0.368005	0.071629	0.127779	0.287929	0.238274	0.099793	0.118059	0.492056	0.256706	0.045031	0.173811	0.404811	0.168673	0.085749	0.213626	0.271505	0.194565	0.087445	0.120828	0.288617	0.357689	0.073194	0.171211	0.241876	0.240504	0.065586	0.288628	0.357977	0.369196
28	0.072524	0.208980	0.265250	0.248261	0.132669	0.298093	0.210421	0.203848	0.134490	0.629634	0.544152	0.431344	0.035959	0.196884	0.242941	0.113461	0.097498	0.243015	0.371274	0.515620	0.087741	0.092462	0.233312	0.252944	0.105184	0.177929	0.348701	0.140525	0.093059	0.190963	0.453091	0.263421	0.222627	0.443547	0.147466	0.248284	0.164943	0.295486	0.287815	0.308668	0.072890	0.235666	0.165415	0.360395	0.080255	0.190884	0.288993	0.275916	0.109992	0.107611	0.498320	0.326907	0.037972	0.117984	0.431054	0.150792	0.090254	0.202060	0.290148	0.181776	0.104093	0.154062	0.300071	0.507460	0.094772	0.175959	0.246990	0.354697	0.065560	0.286525	0.339216	0.323397
29	0.078828	0.239288	0.274851	0.227648	0.128652	0.299867	0.224581	0.198053	0.136942	0.626681	0.561358	0.444311	0.038731	0.196418	0.236844	0.114231	0.089581	0.258739	0.342251	0.561731	0.099161	0.110161	0.224295	0.231964	0.092559	0.142245	0.347923	0.129598	0.088429	0.189318	0.460651	0.267603	0.226890	0.437949	0.287743	0.316290	0.169345	0.294944	0.254519	0.293183	0.072886	0.231792	0.184636	0.357796	0.084440	0.214465	0.296770	0.315930	0.115458	0.094647	0.522914	0.385618	0.035571	0.091098	0.451384	0.134590	0.102821	0.172105	0.289231	0.200347	0.103198	0.172282	0.302590	0.554172	0.096637	0.174084	0.227118	0.440258	0.060823	0.266135	0.331652	0.298679
30	0.077663	0.244128	0.388017	0.219973	0.128017	0.302455	0.238971	0.204851	0.141001	0.622982	0.573475	0.434745	0.045572	0.194911	0.223783	0.117515	0.085349	0.250554	0.345877	0.570578	0.104045	0.134115	0.233131	0.263086	0.080744	0.106651	0.355093	0.114847	0.087904	0.197563	0.461998	0.269286	0.218753	0.421903	0.481771	0.361903	0.172626	0.291485	0.251793	0.256661	0.076988	0.233698	0.227495	0.400147	0.095978	0.224214	0.296308	0.332609	0.103466	0.096108	0.532366	0.392598	0.037728	0.092377	0.445866	0.144754	0.105047	0.174299	0.282958	0.209049	0.107964	0.184069	0.324431	0.543253	0.104204	0.178663	0.188389	0.447620	0.068165	0.271488	0.327024	0.316762
31	0.077471	0.251901	0.441568	0.296147	0.126933	0.301256	0.243943	0.206275	0.131306	0.549395	0.616503	0.428831	0.048041	0.185328	0.212299	0.116760	0.085049	0.215923	0.346519	0.568482	0.109427	0.142155	0.250509	0.315131	0.051341	0.072265	0.393717	0.091821	0.087901	0.213307	0.449671	0.267326	0.176022	0.393960	0.501159	0.369405	0.176069	0.296041	0.323657	0.224610	0.083874	0.243039	0.232193	0.458510	0.097183	0.225837	0.286242	0.330826	0.108158	0.127281	0.535431	0.447353	0.054219	0.110182	0.461124	0.311373	0.094743	0.156982	0.314631	0.295140	0.115156	0.217758	0.323761	0.603468	0.119781	0.190983	0.223662	0.502123	0.068819	0.271900	0.315650	0.320141
32	0.073086	0.251954	0.462208	0.366939	0.133009	0.284155	0.263532	0.206199	0.141887	0.464238	0.669569	0.413576	0.048038	0.166291	0.214439	0.110545	0.102330	0.176156	0.352823	0.570472	0.111956	0.148331	0.305122	0.330204	0.048676	0.059739	0.469228	0.114563	0.089033	0.218723	0.443072	0.258560	0.152974	0.351452	0.540987	0.390506	0.172960	0.297767	0.381670	0.208287	0.075625	0.217128	0.239768	0.496204	0.095629	0.226097	0.244508	0.340851	0.119159	0.160006	0.520731	0.553724	0.060630	0.119729	0.449858	0.488338	0.087317	0.136195	0.361814	0.383213	0.119024	0.246049	0.307564	0.655444	0.114707	0.168108	0.290027	0.578442	0.100937	0.305443	0.369563	0.343154
33	0.070647	0.239434	0.525744	0.386660	0.124734	0.281888	0.261484	0.216446	0.140730	0.385770	0.624490	0.397581	0.044810	0.140396	0.216913	0.142482	0.135424	0.196288	0.381371	0.523669	0.110167	0.149862	0.305411	0.335069	0.055404	0.076094	0.493477	0.202269	0.088799	0.216379	0.410434	0.227262	0.148215	0.335959	0.548239	0.482997	0.167639	0.292587	0.370810	0.209345	0.080937	0.212436	0.313283	0.497772	0.099547	0.224438	0.209644	0.380029	0.125057	0.179530	0.494978	0.617303	0.076537	0.123025	0.433892	0.517271	0.109085	0.141974	0.372871	0.412642	0.118868	0.253636	0.302860	0.684436	0.119007	0.160812	0.285487	0.606423	0.151413	0.330329	0.359403	0.463894
34	0.080139	0.204554	0.528582	0.384205	0.078118	0.216613	0.237927	0.234749	0.131654	0.182323	0.599077	0.400826	0.057280	0.140529	0.223027	0.166670	0.142909	0.195515	0.379562	0.519678	0.133216	0.170070	0.293679	0.386667	0.056874	0.084084	0.467990	0.246130	0.083270	0.208716	0.383213	0.184749	0.124321	0.186135	0.607770	0.547469	0.161899	0.289924	0.352999	0.234351	0.083161	0.223363	0.357312	0.502202	0.128983	0.257568	0.220079	0.394765	0.137863	0.193179	0.519911	0.630520	0.087236	0.133619	0.367411	0.559911	0.132652	0.174611	0.377971	0.414821	0.113931	0.252041	0.273071	0.685238	0.115237	0.151374	0.287146	0.609730	0.202176	0.339895	0.352503	0.556414
35	0.087809	0.198613	0.519140	0.426813	0.075775	0.208752	0.233384	0.231596	0.129925	0.182939	0.595288	0.407708	0.064143	0.143326	0.256984	0.161974	0.152191	0.198205	0.417604	0.520099	0.151830	0.176033	0.290261	0.468771	0.052973	0.081994	0.400277	0.250022	0.079138	0.187957	0.373878	0.184474	0.123170	0.172888	0.607538	0.545322	0.140188	0.227485	0.347259	0.259615	0.086917	0.224742	0.356864	0.494113	0.136236	0.314389	0.261562	0.415392	0.131100	0.194730	0.442991	0.601723	0.109150	0.173009	0.373549	0.654379	0.132496	0.182491	0.376097	0.447076	0.096543	0.236913	0.264899	0.606996	0.107714	0.143938	0.285198	0.571628	0.234218	0.338542	0.386425	0.580676
36	0.092955	0.226877	0.528104	0.486324	0.076378	0.218959	0.241803	0.205312	0.147183	0.174495	0.519465	0.470928	0.066621	0.144741	0.233806	0.169049	0.153931	0.200015	0.423123	0.435133	0.159582	0.174406	0.313593	0.540545	0.056886	0.084520	0.395646	0.264899	0.091549	0.219949	0.347298	0.231675	0.108365	0.150847	0.607235	0.524044	0.137189	0.190555	0.336880	0.261325	0.089138	0.223847	0.356041	0.445461	0.137649	0.364633	0.281362	0.440048	0.121271	0.189427	0.427135	0.563271	0.123168	0.194641	0.394814	0.723422	0.130164	0.182006	0.349909	0.515369	0.083009	0.212929	0.238453	0.479665	0.094235	0.139665	0.279030	0.488784	0.252739	0.324708	0.390273	0.601288
37	0.094641	0.303879	0.549801	0.506570	0.069931	0.156294	0.255704	0.171503	0.170870	0.179811	0.472680	0.517621	0.074359	0.142349	0.213374	0.188686	0.149121	0.184990	0.433781	0.358219	0.161956	0.177539	0.315776	0.554119	0.060768	0.086240	0.435810	0.261206	0.095466	0.234069	0.322764	0.328012	0.101119	0.139406	0.549361	0.498081	0.120491	0.173632	0.349863	0.256221	0.093636	0.197385	0.413760	0.428118	0.140325	0.387724	0.286436	0.437891	0.114174	0.180341	0.387082	0.518538	0.126102	0.204802	0.391209	0.755908	0.132282	0.182846	0.357125	0.574782	0.082190	0.213592	0.165356	0.454868	0.103477	0.141384	0.276958	0.456799	0.277625	0.384945	0.389135	0.665605
38	0.090752	0.319945	0.592737	0.509125	0.078851	0.123190	0.262912	0.161318	0.197259	0.196941	0.453909	0.555018	0.103624	0.155516	0.222265	0.277516	0.141861	0.167839	0.444627	0.352621	0.159797	0.173782	0.307613	0.547330	0.063672	0.087894	0.472362	0.260723	0.093214	0.229966	0.373128	0.382339	0.095555	0.139180	0.395012	0.465149	0.124479	0.178336	0.355269	0.252214	0.093104	0.190883	0.481787	0.444285	0.146404	0.387077	0.294000	0.458665	0.111947	0.180255	0.368806	0.514152	0.126078	0.204538	0.376733	0.760943	0.148898	0.187909	0.400323	0.606617	0.065988	0.215075	0.145285	0.414799	0.088798	0.123278	0.272402	0.435866	0.294212	0.422645	0.373487	0.739598
39	0.128369	0.378844	0.586936	0.528482	0.095773	0.133680	0.271097	0.218814	0.190092	0.198269	0.443021	0.613950	0.128947	0.181673	0.233371	0.390291	0.149618	0.172430	0.441416	0.383263	0.161952	0.211651	0.326493	0.541370	0.068567	0.089024	0.489350	0.259450	0.096093	0.234200	0.424423	0.408762	0.101267	0.153037	0.369220	0.475980	0.127025	0.179374	0.342734	0.250734	0.093681	0.186419	0.487122	0.443727	0.142397	0.362733	0.289980	0.506877	0.105363	0.260880	0.363082	0.465181	0.128339	0.203042	0.364430	0.752318	0.159934	0.192632	0.452080	0.613956	0.056078	0.175691	0.178014	0.300532	0.085220	0.107016	0.166766	0.326058	0.295887	0.419355	0.413235	0.791908
40	0.146658	0.431328	0.543024	0.564249	0.121607	0.154173	0.312860	0.352826	0.186375	0.191386	0.516283	0.614196	0.129913	0.183851	0.333833	0.416126	0.141759	0.168414	0.434918	0.398003	0.167258	0.225726	0.412039	0.558494	0.068014	0.085000	0.484544	0.262221	0.102841	0.231584	0.428068	0.409419	0.105473	0.160823	0.315930	0.471920	0.125709	0.202881	0.374897	0.252105	0.085418	0.166511	0.475437	0.401829	0.149563	0.350012	0.281193	0.564324	0.099833	0.271686	0.359608	0.333215	0.127121	0.204784	0.358010	0.692115	0.164683	0.195295	0.433723	0.554595	0.060429	0.164376	0.218029	0.235315	0.120131	0.116056	0.149749	0.225368	0.296036	0.418930	0.476463	0.801915
41	0.153437	0.438177	0.656883	0.575540	0.130997	0.153642	0.376729	0.463849	0.182133	0.174851	0.420022	0.591698	0.143747	0.207686	0.345795	0.463118	0.113350	0.133397	0.298543	0.377409	0.169583	0.211333	0.461839	0.589060	0.074604	0.084635	0.462252	0.292977	0.131447	0.219462	0.432644	0.446598	0.090123	0.142365	0.405523	0.376423	0.127182	0.218991	0.327587	0.282956	0.080541	0.167794	0.477814	0.336673	0.144248	0.349778	0.281922	0.623907	0.123429	0.359967	0.293795	0.190468	0.125777	0.204672	0.354224	0.619830	0.162380	0.196746	0.436964	0.507240	0.102353	0.167446	0.211766	0.223333	0.120626	0.139881	0.193937	0.195475	0.290214	0.401085	0.413381	0.793382
42	0.153697	0.445563	0.742734	0.575419	0.130819	0.154912	0.414760	0.494068	0.169249	0.157985	0.399869	0.646412	0.174464	0.257951	0.359086	0.591913	0.095991	0.110389	0.282972	0.331358	0.169709	0.207408	0.498668	0.636720	0.079659	0.090733	0.389649	0.322897	0.139266	0.226754	0.472452	0.528526	0.074849	0.118343	0.319833	0.298565	0.126022	0.214630	0.272485	0.383459	0.079011	0.186003	0.456147	0.310533	0.144893	0.350490	0.284593	0.635218	0.106840	0.355292	0.230431	0.166259	0.117881	0.206749	0.312096	0.613344	0.143096	0.207689	0.437742	0.508163	0.143289	0.208519	0.245742	0.239699	0.146493	0.290624	0.184407	0.210132	0.271243	0.372993	0.398283	0.731781
43	0.155592	0.447410	0.741389	0.568822	0.128837	0.156254	0.423119	0.500214	0.170633	0.158151	0.411213	0.745561	0.179065	0.276150	0.377795	0.639606	0.082867	0.126257	0.229326	0.286665	0.169725	0.214909	0.460543	0.669915	0.076249	0.095775	0.381964	0.301413	0.161791	0.252884	0.470991	0.600448	0.074112	0.110804	0.336533	0.309626	0.126661	0.211079	0.271524	0.501860	0.072533	0.207398	0.414286	0.313185	0.151983	0.349178	0.315656	0.633945	0.109561	0.363834	0.242818	0.228922	0.116197	0.292587	0.314350	0.548295	0.127067	0.193637	0.432089	0.514792	0.154014	0.251894	0.300310	0.298576	0.155541	0.332335	0.231536	0.225886	0.233584	0.333847	0.393643	0.649790
44	0.148938	0.446842	0.758542	0.584353	0.135803	0.162197	0.431585	0.539607	0.173902	0.159592	0.425570	0.806973	0.176287	0.269290	0.395228	0.640343	0.069230	0.116716	0.201944	0.280703	0.168558	0.220501	0.479187	0.673487	0.076624	0.092173	0.419621	0.270318	0.172129	0.278786	0.472573	0.650886	0.087446	0.149761	0.344684	0.296399	0.125110	0.202261	0.447954	0.537212	0.087548	0.226920	0.391102	0.272385	0.153866	0.348711	0.338880	0.636159	0.120893	0.402093	0.233978	0.248967	0.102327	0.327284	0.295447	0.439061	0.130567	0.192991	0.436559	0.470502	0.151211	0.256127	0.328832	0.367294	0.155071	0.346243	0.245848	0.225142	0.208498	0.320490	0.370047	0.616527
45	0.147672	0.441762	0.830339	0.565808	0.147329	0.178318	0.450409	0.599538	0.166264	0.156953	0.430425	0.799854	0.174913	0.261783	0.377428	0.642185	0.068064	0.171183	0.253598	0.283417	0.148888	0.206670	0.523240	0.646080	0.077202	0.101518	0.623347	0.345736	0.167768	0.308513	0.489667	0.670030	0.114188	0.188735	0.349497	0.274932	0.116906	0.200804	0.602617	0.523376	0.168927	0.261434	0.388895	0.235854	0.138277	0.331981	0.330898	0.640366	0.122685	0.412833	0.239937	0.249316	0.159302	0.437564	0.219796	0.352320	0.137822	0.196546	0.425330	0.390557	0.157236	0.235109	0.361448	0.402257	0.149379	0.345172	0.245450	0.240005	0.172142	0.299558	0.345521	0.620999
46	0.145573	0.422722	0.885860	0.546688	0.165226	0.199539	0.453788	0.648850	0.141068	0.142465	0.479880	0.753527	0.173902	0.260825	0.379843	0.642328	0.068569	0.321441	0.279441	0.299350	0.128216	0.219704	0.538666	0.609627	0.088815	0.112135	0.643898	0.391296	0.160958	0.292678	0.455876	0.660092	0.129195	0.211657	0.368223	0.286841	0.120072	0.204731	0.614165	0.549447	0.205122	0.269469	0.372890	0.234512	0.143539	0.329372	0.276929	0.643981	0.126855	0.414296	0.250030	0.272402	0.175830	0.516559	0.178234	0.321475	0.137428	0.197642	0.413096	0.341261	0.196634	0.261795	0.575474	0.410922	0.150395	0.347377	0.245489	0.263186	0.143484	0.244037	0.339804	0.564018
47	0.146660	0.370312	0.879214	0.560497	0.169214	0.200088	0.485319	0.656590	0.098341	0.113639	0.479997	0.708370	0.168136	0.258576	0.384623	0.633088	0.082723	0.347309	0.287617	0.336216	0.137746	0.256550	0.538100	0.600053	0.131580	0.126200	0.756104	0.394587	0.170088	0.289239	0.444970	0.616772	0.124521	0.198821	0.383688	0.262574	0.129566	0.203131	0.668356	0.637675	0.211993	0.272114	0.284405	0.222909	0.141690	0.310829	0.283600	0.646156	0.131800	0.362716	0.257688	0.294155	0.178893	0.517196	0.174313	0.347616	0.113084	0.225854	0.381723	0.369939	0.208056	0.300700	0.610094	0.478082	0.144849	0.349264	0.236597	0.268728	0.097689	0.147420	0.340401	0.474984
48	0.143953	0.361258	0.857050	0.573076	0.166396	0.198859	0.516655	0.662279	0.081687	0.097556	0.490636	0.655894	0.145073	0.245534	0.399263	0.606893	0.127524	0.535443	0.289394	0.398057	0.155537	0.269495	0.555875	0.646319	0.144602	0.150167	0.768692	0.416603	0.177730	0.298794	0.404338	0.580318	0.120629	0.216391	0.396445	0.229913	0.141323	0.195663	0.704615	0.750023	0.285707	0.382002	0.268741	0.202960	0.149562	0.284272	0.304831	0.654689	0.124442	0.343522	0.259130	0.291065	0.175172	0.514373	0.206424	0.334102	0.139844	0.364596	0.361997	0.470174	0.206732	0.305912	0.616899	0.520626	0.138614	0.355635	0.203681	0.259747	0.084186	0.184664	0.323540	0.374842
49	0.100416	0.276324	0.853582	0.551932	0.160550	0.190064	0.507772	0.665289	0.081948	0.099355	0.399095	0.632970	0.133853	0.233524	0.379515	0.574597	0.132407	0.546802	0.288769	0.423657	0.157791	0.269881	0.612269	0.667724	0.195206	0.259319	0.759058	0.447457	0.179556	0.293891	0.335230	0.558919	0.120255	0.240367	0.290158	0.250133	0.149408	0.196800	0.719457	0.827154	0.335680	0.510167	0.285299	0.233735	0.156713	0.391932	0.305688	0.650158	0.097583	0.237722	0.256831	0.288337	0.173193	0.510550	0.205228	0.297528	0.205727	0.732653	0.390495	0.524072	0.173989	0.309046	0.626819	0.506408	0.135959	0.352446	0.178774	0.241616	0.087701	0.203122	0.206319	0.312380
50	0.088760	0.243777	0.810349	0.503211	0.141284	0.179366	0.535681	0.616922	0.084286	0.107000	0.371939	0.645670	0.130118	0.231226	0.315164	0.571027	0.139169	0.555835	0.290132	0.442361	0.148459	0.236490	0.643652	0.664255	0.335388	0.377456	0.778693	0.461299	0.178251	0.288836	0.289020	0.562043	0.122109	0.257636	0.281937	0.247367	0.146565	0.171837	0.707174	0.848575	0.363637	0.541527	0.286299	0.275699	0.154562	0.418333	0.302138	0.611176	0.099614	0.234873	0.197591	0.265433	0.177843	0.510777	0.210959	0.292808	0.210829	0.742809	0.435691	0.520953	0.158971	0.326379	0.625590	0.509343	0.103439	0.271651	0.192889	0.266722	0.099912	0.287010	0.139717	0.305821
51	0.109542	0.223432	0.695590	0.434055	0.129726	0.200325	0.547463	0.557149	0.088631	0.114061	0.353203	0.622124	0.092621	0.190963	0.307971	0.490828	0.154720	0.555444	0.292557	0.534825	0.134694	0.217981	0.591958	0.639987	0.399920	0.397828	0.792491	0.444570	0.158751	0.285659	0.294563	0.534711	0.149297	0.264105	0.264058	0.240258	0.138266	0.128954	0.705135	0.839789	0.373568	0.553273	0.290110	0.296475	0.157485	0.419181	0.290060	0.545016	0.088976	0.217586	0.163027	0.209992	0.178747	0.501184	0.222261	0.327813	0.235261	0.739029	0.434532	0.573901	0.152426	0.328076	0.600361	0.505041	0.129156	0.295050	0.293450	0.327290	0.107426	0.352817	0.120545	0.339132
52	0.111563	0.307689	0.598428	0.394947	0.125248	0.212381	0.533635	0.553798	0.085847	0.111606	0.347009	0.528701	0.050064	0.132212	0.314433	0.341857	0.161444	0.558743	0.314206	0.594926	0.125831	0.222707	0.551813	0.596037	0.401781	0.418568	0.795499	0.433452	0.151025	0.274479	0.226989	0.455214	0.160189	0.260162	0.254100	0.256068	0.137693	0.125891	0.702451	0.797331	0.373398	0.545347	0.310125	0.290935	0.158758	0.410843	0.284938	0.461941	0.070903	0.133280	0.180946	0.186349	0.176097	0.426917	0.281067	0.367688	0.252270	0.741431	0.458355	0.652966	0.155134	0.326620	0.611113	0.477787	0.136744	0.289709	0.370727	0.371911	0.123265	0.351886	0.126647	0.368786
53	0.113551	0.418039	0.573432	0.403166	0.125162	0.211095	0.521852	0.557754	0.075835	0.109535	0.330136	0.392720	0.039329	0.102578	0.276235	0.299863	0.161682	0.554904	0.296389	0.607008	0.121760	0.240482	0.510053	0.520092	0.405339	0.420034	0.786041	0.428520	0.126347	0.245909	0.224239	0.354490	0.144489	0.235997	0.254509	0.262158	0.138937	0.140217	0.700434	0.728876	0.372883	0.533596	0.329320	0.286632	0.158313	0.406317	0.282078	0.434521	0.077112	0.098273	0.173175	0.203688	0.158926	0.411885	0.313626	0.372677	0.257509	0.749654	0.462286	0.707150	0.123145	0.321689	0.524342	0.460085	0.140283	0.288678	0.406515	0.358210	0.130861	0.351412	0.150531	0.374840
54	0.134196	0.484010	0.528809	0.388201	0.119056	0.213076	0.522799	0.519610	0.077213	0.108430	0.355298	0.330539	0.039569	0.114899	0.266871	0.320068	0.161729	0.509404	0.212762	0.596959	0.121083	0.298590	0.510842	0.471017	0.420435	0.421370	0.765753	0.428204	0.115704	0.216144	0.232873	0.250489	0.132672	0.218265	0.269660	0.247589	0.149247	0.226876	0.607849	0.691237	0.362341	0.541343	0.328732	0.289546	0.153671	0.407170	0.254921	0.430660	0.080975	0.087529	0.173247	0.254238	0.109636	0.185318	0.329838	0.418114	0.257011	0.753325	0.475427	0.726577	0.079266	0.314396	0.323578	0.433052	0.135086	0.286448	0.449119	0.360276	0.132065	0.350055	0.287968	0.358877
55	0.153508	0.548713	0.389704	0.363977	0.104463	0.241658	0.503844	0.449926	0.073105	0.106761	0.373852	0.307385	0.047707	0.133499	0.249517	0.319082	0.159011	0.488755	0.188870	0.563483	0.121478	0.302775	0.481539	0.463063	0.432662	0.428053	0.603144	0.408101	0.132340	0.209606	0.183928	0.197972	0.133044	0.222069	0.265151	0.227409	0.152080	0.247266	0.448624	0.687317	0.331962	0.527008	0.339788	0.288845	0.150761	0.409313	0.214025	0.395614	0.096278	0.073811	0.187739	0.298363	0.125838	0.176136	0.329612	0.448333	0.254873	0.759638	0.525041	0.707546	0.086259	0.306683	0.300116	0.327005	0.159429	0.307285	0.463879	0.420430	0.120319	0.341885	0.315021	0.333418
56	0.417395	0.620556	0.264159	0.314686	0.085279	0.216847	0.512572	0.367496	0.082783	0.149150	0.352373	0.304827	0.061600	0.142382	0.225885	0.317881	0.128495	0.394550	0.176536	0.500075	0.120935	0.305727	0.432477	0.461151	0.455483	0.435500	0.580797	0.401238	0.141076	0.241835	0.186460	0.221417	0.133042	0.203178	0.287186	0.240292	0.151385	0.262715	0.430483	0.666995	0.317874	0.525852	0.338646	0.295539	0.144057	0.412082	0.209843	0.355977	0.099833	0.070757	0.201683	0.310154	0.128412	0.182704	0.330526	0.429902	0.258682	0.758802	0.560407	0.657200	0.113847	0.329977	0.320506	0.309888	0.161756	0.296958	0.533487	0.525771	0.130652	0.347656	0.389511	0.354181
57	0.510275	0.633578	0.245968	0.267014	0.128420	0.222915	0.488489	0.350758	0.219439	0.402064	0.359429	0.312987	0.061560	0.312194	0.219923	0.294925	0.121079	0.342009	0.158937	0.450591	0.119008	0.292603	0.418110	0.439529	0.532079	0.461871	0.393470	0.413487	0.130465	0.232579	0.197780	0.239990	0.141078	0.189733	0.410208	0.277512	0.138839	0.261955	0.331530	0.587552	0.303650	0.519915	0.332358	0.331253	0.128524	0.398565	0.222074	0.350230	0.115847	0.113767	0.218568	0.408701	0.142370	0.206163	0.313387	0.466193	0.225708	0.603523	0.556384	0.587914	0.117237	0.302118	0.344405	0.317267	0.164467	0.290152	0.552072	0.577052	0.146561	0.345632	0.467063	0.371283
58	0.521307	0.628227	0.241957	0.253871	0.162082	0.233054	0.437296	0.384128	0.310970	0.538992	0.359341	0.311530	0.109605	0.355720	0.193223	0.241731	0.119351	0.334262	0.224996	0.465738	0.090767	0.260505	0.403248	0.378815	0.533816	0.462350	0.345244	0.395023	0.127759	0.217999	0.196590	0.239339	0.170853	0.181704	0.450513	0.411053	0.115882	0.258343	0.238859	0.435046	0.226253	0.401310	0.276381	0.355735	0.149800	0.364935	0.291459	0.369024	0.152372	0.164083	0.264412	0.490602	0.142475	0.213959	0.329950	0.479586	0.184852	0.310397	0.516164	0.557579	0.118283	0.284052	0.326162	0.257339	0.161422	0.273872	0.530704	0.559517	0.172776	0.344801	0.493775	0.387664
59	0.523020	0.631784	0.254976	0.266463	0.164399	0.323821	0.448436	0.395297	0.331294	0.555019	0.347704	0.282987	0.199915	0.718300	0.202959	0.213856	0.102715	0.323528	0.228915	0.414623	0.058664	0.245446	0.378163	0.273213	0.521992	0.438118	0.680775	0.376352	0.124824	0.218521	0.205979	0.254155	0.193543	0.276407	0.448973	0.518335	0.097011	0.263777	0.196346	0.264289	0.175713	0.309141	0.273431	0.356559	0.196696	0.420434	0.311923	0.430894	0.160896	0.180557	0.349748	0.518723	0.133204	0.210993	0.341695	0.470955	0.174264	0.307076	0.467683	0.544387	0.116792	0.267374	0.313328	0.202136	0.153728	0.264020	0.436453	0.526444	0.172280	0.322188	0.530599	0.414821
60	0.596746	0.717844	0.272025	0.273625	0.166722	0.356641	0.452365	0.422251	0.365721	0.579014	0.345491	0.249334	0.208588	0.729014	0.198137	0.265513	0.094695	0.318227	0.216317	0.312998	0.087647	0.253535	0.274135	0.225961	0.451738	0.365948	0.861269	0.444002	0.121831	0.218278	0.234023	0.259088	0.204373	0.304982	0.477642	0.542115	0.126207	0.277673	0.178890	0.206454	0.112853	0.290130	0.306844	0.340458	0.214541	0.416469	0.416337	0.547301	0.162306	0.182698	0.425688	0.525460	0.134451	0.208307	0.309041	0.437222	0.137796	0.313455	0.474069	0.467574	0.161161	0.333579	0.345949	0.313573	0.154193	0.296134	0.433074	0.532384	0.169825	0.213225	0.545555	0.407324
61	0.716953	0.781753	0.233999	0.276179	0.174095	0.345525	0.403273	0.415100	0.443098	0.632971	0.345911	0.205822	0.217828	0.727805	0.199086	0.306836	0.110316	0.324241	0.207542	0.277873	0.120944	0.258954	0.220956	0.255548	0.396006	0.352216	0.875895	0.526386	0.128275	0.226767	0.229820	0.258882	0.202688	0.305055	0.489540	0.560939	0.158430	0.310351	0.164620	0.219667	0.104393	0.271526	0.341204	0.332486	0.226694	0.412275	0.606383	0.651122	0.159370	0.181281	0.432907	0.522093	0.134856	0.205878	0.310096	0.432255	0.124168	0.317959	0.472325	0.403287	0.207305	0.408703	0.409451	0.470334	0.155449	0.308346	0.358641	0.568958	0.171031	0.288240	0.548319	0.386123
62	0.721311	0.736443	0.191798	0.275105	0.180748	0.338262	0.367034	0.359568	0.480228	0.679879	0.348888	0.170551	0.218240	0.728148	0.247086	0.340063	0.143169	0.323846	0.208687	0.314569	0.156084	0.284275	0.232330	0.303834	0.403094	0.333393	0.953098	0.555743	0.136819	0.235190	0.311029	0.297050	0.210616	0.312000	0.476294	0.659580	0.165228	0.313155	0.182584	0.246433	0.106563	0.269710	0.306800	0.332109	0.223470	0.412580	0.684120	0.684889	0.158205	0.182357	0.450903	0.497405	0.126352	0.197224	0.283766	0.430390	0.116363	0.310551	0.455163	0.382925	0.216930	0.404295	0.501497	0.500083	0.156378	0.308889	0.397807	0.610842	0.182827	0.300403	0.555577	0.429141
63	0.723765	0.696949	0.207503	0.279175	0.189300	0.367362	0.356227	0.341891	0.560738	0.721644	0.379579	0.158711	0.220489	0.727835	0.320004	0.335007	0.142310	0.298936	0.232810	0.331122	0.199960	0.349441	0.244269	0.331384	0.401206	0.329236	0.953745	0.550255	0.146552	0.235023	0.313464	0.426610	0.244379	0.356856	0.468304	0.756130	0.164821	0.307080	0.252433	0.278910	0.105762	0.245947	0.317840	0.332095	0.218915	0.413252	0.724606	0.681246	0.150253	0.183864	0.459301	0.477917	0.110359	0.162322	0.297889	0.358014	0.141389	0.320665	0.434040	0.404911	0.266941	0.417123	0.612231	0.512271	0.165714	0.358041	0.374469	0.579744	0.202769	0.321077	0.508703	0.499418
64	0.722540	0.634777	0.221099	0.266880	0.197165	0.383372	0.354177	0.347001	0.585578	0.725632	0.306144	0.164901	0.231587	0.729173	0.319029	0.366323	0.136079	0.235077	0.261932	0.351787	0.211429	0.370164	0.242005	0.352082	0.392593	0.343193	0.952901	0.548231	0.155242	0.236412	0.305994	0.525707	0.269471	0.435164	0.433716	0.800883	0.154570	0.251253	0.263648	0.311120	0.094920	0.218269	0.308415	0.329370	0.223334	0.416284	0.739319	0.681271	0.148736	0.271640	0.461757	0.480332	0.113625	0.150239	0.291288	0.380431	0.160832	0.317644	0.358706	0.431785	0.293016	0.472823	0.585275	0.662778	0.163516	0.365354	0.293815	0.488303	0.226975	0.355956	0.485919	0.545635
65	0.715251	0.604416	0.373835	0.301489	0.197174	0.363248	0.377651	0.356476	0.585244	0.723092	0.284621	0.180846	0.235209	0.733993	0.329361	0.447171	0.138129	0.167470	0.274424	0.414387	0.225907	0.335929	0.244579	0.370751	0.389096	0.339882	0.967082	0.521299	0.137433	0.194938	0.317404	0.557704	0.309464	0.718595	0.322670	0.799346	0.155737	0.231480	0.329455	0.317809	0.091717	0.218357	0.298149	0.329240	0.233437	0.430180	0.759161	0.716522	0.136221	0.337992	0.457416	0.403005	0.108512	0.157379	0.291546	0.475481	0.155835	0.283400	0.315271	0.473694	0.300954	0.486683	0.602892	0.781207	0.170408	0.345505	0.400280	0.467513	0.226778	0.369112	0.453907	0.535725
66	0.582200	0.526652	0.613841	0.379007	0.194044	0.356640	0.388105	0.362121	0.571807	0.675700	0.288167	0.203205	0.238267	0.725334	0.344155	0.482595	0.139889	0.177171	0.238518	0.443849	0.229890	0.343941	0.244206	0.374740	0.380169	0.334140	0.978008	0.484519	0.136669	0.139076	0.350658	0.554082	0.337494	0.949936	0.269965	0.737246	0.176174	0.233674	0.372930	0.315233	0.085137	0.215550	0.298953	0.312209	0.250468	0.456678	0.782746	0.786445	0.112925	0.397087	0.434233	0.322265	0.096528	0.134466	0.285350	0.473540	0.154557	0.256479	0.302988	0.473936	0.302876	0.487828	0.607488	0.811755	0.181580	0.336895	0.409890	0.513828	0.216154	0.371321	0.363295	0.509837
67	0.531202	0.520026	0.676462	0.402246	0.169229	0.355955	0.383550	0.354721	0.523454	0.533872	0.284046	0.254789	0.238515	0.678565	0.368665	0.490151	0.138278	0.177104	0.236070	0.408943	0.239421	0.352263	0.245024	0.410246	0.245351	0.298044	0.973376	0.469999	0.172127	0.179539	0.350987	0.642397	0.314068	0.957190	0.269303	0.661005	0.188680	0.244378	0.378407	0.327400	0.080134	0.220411	0.289244	0.275418	0.270348	0.488484	0.791434	0.872608	0.102501	0.404910	0.359048	0.295141	0.099012	0.129447	0.269473	0.472867	0.155709	0.258923	0.352103	0.484998	0.297862	0.486407	0.599362	0.805481	0.182797	0.311943	0.483140	0.504063	0.197424	0.359868	0.329399	0.521141
68	0.526361	0.522271	0.689641	0.398765	0.127215	0.378473	0.387464	0.319839	0.501934	0.504187	0.271459	0.286305	0.195085	0.559875	0.368381	0.492469	0.138180	0.176970	0.226876	0.441710	0.262092	0.379322	0.252539	0.478459	0.252185	0.299696	0.965744	0.483222	0.181176	0.210514	0.361459	0.752406	0.300197	1.027900	0.220200	0.643252	0.190839	0.248758	0.373828	0.364379	0.079636	0.239141	0.275086	0.229965	0.284473	0.508607	0.811083	0.921561	0.104313	0.404312	0.266159	0.285471	0.099989	0.129752	0.276284	0.472068	0.162320	0.271454	0.387695	0.503607	0.259954	0.395496	0.557738	0.727841	0.181529	0.303448	0.629130	0.483178	0.197360	0.378021	0.259572	0.517639
69	0.533363	0.496913	0.767478	0.414877	0.119818	0.358173	0.370591	0.273824	0.485532	0.493798	0.330278	0.285424	0.153510	0.248224	0.366520	0.487627	0.135125	0.175665	0.254457	0.556659	0.282174	0.412701	0.289079	0.526922	0.260976	0.287884	0.780650	0.521226	0.188890	0.269426	0.366310	0.786846	0.341631	1.086605	0.204473	0.659637	0.190156	0.244434	0.368406	0.393955	0.074746	0.216064	0.267675	0.193795	0.283920	0.520225	0.825673	0.928874	0.102602	0.407232	0.289814	0.289932	0.097226	0.127909	0.243451	0.455655	0.163421	0.265205	0.425946	0.520998	0.243549	0.361902	0.543943	0.675785	0.179438	0.280568	0.634108	0.424419	0.197562	0.384169	0.208539	0.510824
70	0.404569	0.355170	0.863967	0.462422	0.123596	0.319758	0.323704	0.219344	0.431328	0.438603	0.386604	0.293895	0.133636	0.250817	0.373977	0.462065	0.100836	0.142280	0.254576	0.583895	0.287474	0.423551	0.291646	0.532830	0.273839	0.282560	0.540711	0.504049	0.192686	0.304840	0.344626	0.792557	0.429171	1.142136	0.230200	0.659291	0.172640	0.229469	0.363620	0.391915	0.067779	0.194064	0.224419	0.187636	0.257545	0.499764	0.818965	0.907269	0.101185	0.411608	0.267127	0.293707	0.099833	0.140785	0.232057	0.431294	0.159170	0.253305	0.497241	0.539591	0.208601	0.362837	0.377825	0.674829	0.150944	0.234507	0.629919	0.340580	0.189301	0.336411	0.204468	0.509361
71	0.216437	0.255568	0.922888	0.509033	0.116955	0.345807	0.280169	0.173303	0.416683	0.364789	0.498344	0.319430	0.130790	0.249184	0.365001	0.432073	0.092658	0.168001	0.245450	0.568817	0.278702	0.418290	0.294585	0.531835	0.276751	0.277829	0.504837	0.452293	0.189448	0.300817	0.333949	0.794449	0.439187	1.146935	0.279637	0.674754	0.141413	0.178041	0.375363	0.378653	0.066847	0.205822	0.275648	0.201625	0.225330	0.417747	0.811796	0.847401	0.107984	0.429842	0.264633	0.301071	0.108762	0.157319	0.260641	0.422395	0.163521	0.253176	0.502146	0.552350	0.141088	0.284990	0.407521	0.610830	0.129877	0.098191	0.651328	0.318300	0.168311	0.319915	0.184605	0.482990
72	0.203832	0.254845	0.935449	0.532484	0.107920	0.345443	0.277370	0.164397	0.373980	0.355572	0.641125	0.330289	0.130339	0.250716	0.282747	0.402368	0.093482	0.227501	0.213539	0.562762	0.266203	0.415389	0.264548	0.521889	0.261567	0.268641	0.329666	0.419525	0.182861	0.311038	0.255974	0.781070	0.430896	1.123272	0.293835	0.703603	0.131578	0.171581	0.360892	0.360802	0.062074	0.208450	0.272582	0.240793	0.211448	0.381242	0.689494	0.762925	0.113454	0.390037	0.255155	0.309712	0.106786	0.179490	0.357591	0.419245	0.150501	0.273707	0.502551	0.534926	0.121471	0.220964	0.404665	0.444685	0.132503	0.085173	0.611834	0.314784	0.154655	0.314180	0.195004	0.429378
73	0.199802	0.261454	0.945679	0.523472	0.088253	0.326732	0.273475	0.161584	0.390229	0.476486	0.651962	0.329527	0.123204	0.243173	0.253885	0.396778	0.107476	0.259196	0.205487	0.526498	0.249722	0.396483	0.275200	0.495923	0.259531	0.265204	0.328634	0.414475	0.175518	0.333731	0.251277	0.719542	0.399948	0.961531	0.320474	0.697552	0.130738	0.169341	0.319031	0.332206	0.070851	0.213304	0.368416	0.300083	0.203806	0.363610	0.593322	0.719402	0.112865	0.331129	0.259110	0.324776	0.089218	0.153196	0.385418	0.341123	0.133458	0.268653	0.483342	0.506302	0.131920	0.242298	0.424684	0.367736	0.103594	0.078148	0.679627	0.237522	0.123825	0.276635	0.199080	0.371358
74	0.198160	0.258320	0.946521	0.516680	0.067385	0.301214	0.261382	0.147194	0.428794	0.518531	0.701079	0.324288	0.115467	0.229005	0.264614	0.321551	0.120926	0.367379	0.224833	0.474761	0.217735	0.336127	0.261124	0.480340	0.247394	0.242724	0.328389	0.414478	0.164576	0.331772	0.256614	0.647656	0.364466	0.735241	0.373559	0.771092	0.130013	0.169414	0.311094	0.301767	0.071707	0.218156	0.395650	0.317623	0.206261	0.363624	0.542822	0.721115	0.092130	0.227441	0.413959	0.323431	0.083579	0.139178	0.435108	0.223198	0.131491	0.266350	0.462495	0.470673	0.129964	0.242203	0.429280	0.397052	0.086377	0.074309	0.674313	0.196816	0.117158	0.267455	0.183300	0.336748
75	0.184872	0.247182	0.883921	0.481573	0.082901	0.305611	0.246960	0.144041	0.431775	0.519954	0.734390	0.323846	0.105515	0.211000	0.257470	0.216560	0.120036	0.371680	0.246393	0.469113	0.212846	0.308716	0.259822	0.479774	0.233140	0.231689	0.293867	0.416500	0.165410	0.335353	0.240541	0.611523	0.365227	0.699081	0.397314	0.898814	0.132750	0.169895	0.241108	0.299807	0.071476	0.218089	0.402884	0.323139	0.205471	0.365067	0.520983	0.729398	0.090724	0.208166	0.459458	0.319466	0.081152	0.154727	0.465837	0.233602	0.131326	0.268766	0.481062	0.467535	0.132645	0.241528	0.438287	0.414084	0.069106	0.068402	0.676863	0.194353	0.114591	0.249716	0.154333	0.332926
76	0.181083	0.241589	0.756345	0.460682	0.097984	0.318746	0.202949	0.159212	0.429541	0.533553	0.790446	0.305317	0.094023	0.187864	0.213473	0.176299	0.134749	0.381551	0.347846	0.460200	0.198650	0.314733	0.252856	0.479269	0.224472	0.224738	0.309056	0.435204	0.158337	0.342238	0.182226	0.602999	0.371603	0.581752	0.443079	0.933274	0.106143	0.140082	0.163786	0.316546	0.072892	0.209098	0.403426	0.350969	0.194326	0.354618	0.517253	0.709478	0.112509	0.233554	0.454374	0.382145	0.088914	0.157793	0.465372	0.243922	0.134860	0.300605	0.433110	0.454172	0.133631	0.227213	0.447840	0.414816	0.101489	0.088413	0.643245	0.172421	0.120079	0.235694	0.147782	0.291796
77	0.182491	0.240446	0.781035	0.507756	0.100192	0.323809	0.192311	0.166821	0.467461	0.547849	0.857931	0.261518	0.089342	0.170194	0.174492	0.171953	0.135798	0.389307	0.373268	0.384299	0.193785	0.307913	0.250151	0.479890	0.273045	0.229755	0.409705	0.494304	0.116521	0.343411	0.217408	0.502813	0.346937	0.473713	0.432074	0.919894	0.080934	0.104485	0.143947	0.313706	0.076553	0.232685	0.403255	0.381145	0.175557	0.332244	0.481564	0.647251	0.139518	0.249276	0.436723	0.419706	0.098744	0.203770	0.459215	0.255970	0.138109	0.320930	0.454437	0.444357	0.134832	0.222519	0.420821	0.441195	0.104917	0.092711	0.638075	0.213873	0.108122	0.208817	0.143989	0.246557
78	0.175646	0.229168	0.922266	0.537071	0.112601	0.307793	0.176507	0.166431	0.478891	0.529787	0.926134	0.257966	0.078877	0.127984	0.184152	0.165670	0.139932	0.384213	0.377974	0.345444	0.185631	0.306735	0.247915	0.446588	0.288632	0.256531	0.413475	0.559350	0.109342	0.333245	0.224523	0.320956	0.238879	0.321216	0.418503	0.854687	0.094495	0.086491	0.160392	0.261518	0.093919	0.342670	0.407169	0.420604	0.141739	0.292720	0.475465	0.521910	0.140445	0.247611	0.448680	0.434724	0.094862	0.214057	0.467876	0.263643	0.156729	0.331689	0.401836	0.445554	0.143119	0.238818	0.380041	0.521398	0.114222	0.099777	0.642716	0.214640	0.101044	0.175217	0.150102	0.223679
79	0.153634	0.203412	0.867892	0.516017	0.121388	0.276649	0.173784	0.189892	0.494047	0.528627	0.904973	0.259975	0.076740	0.107287	0.167943	0.148682	0.146287	0.376561	0.463999	0.396821	0.155335	0.283180	0.231705	0.362290	0.280527	0.263502	0.407259	0.564153	0.162643	0.333393	0.223749	0.270993	0.190861	0.252638	0.411324	0.757420	0.096122	0.068344	0.190888	0.199194	0.104490	0.377463	0.404606	0.461347	0.116117	0.286061	0.451897	0.392921	0.128792	0.212572	0.449009	0.422960	0.097942	0.217371	0.470876	0.278964	0.197858	0.355504	0.340628	0.428419	0.128084	0.211980	0.341437	0.546504	0.116185	0.087904	0.698219	0.218579	0.102700	0.176344	0.194836	0.214761
80	0.126714	0.162138	0.802900	0.473632	0.116841	0.259981	0.193760	0.214473	0.508453	0.528147	0.883707	0.247651	0.076651	0.137342	0.155435	0.139187	0.160584	0.342295	0.474196	0.401123	0.121323	0.233208	0.181867	0.269252	0.282536	0.233579	0.416696	0.530937	0.212272	0.435531	0.272894	0.351631	0.174916	0.228699	0.446748	0.677718	0.095798	0.068910	0.190774	0.182651	0.105741	0.371252	0.365416	0.477376	0.128752	0.388436	0.382345	0.302614	0.129361	0.190937	0.468515	0.410022	0.103047	0.192095	0.403771	0.304571	0.199068	0.353005	0.356154	0.404914	0.118587	0.189045	0.312862	0.506811	0.120347	0.093277	0.658958	0.216745	0.102818	0.170465	0.264741	0.212233
81	0.120488	0.149430	0.891135	0.421917	0.114382	0.206074	0.263026	0.217373	0.500368	0.528684	0.769441	0.232617	0.082699	0.182555	0.176074	0.146932	0.154162	0.341831	0.606083	0.421736	0.107349	0.213790	0.177239	0.245401	0.280608	0.225705	0.405241	0.502465	0.219466	0.466636	0.308379	0.398027	0.176897	0.238302	0.511527	0.672010	0.099521	0.082947	0.169149	0.193883	0.108957	0.377559	0.339589	0.472002	0.133947	0.410293	0.339031	0.259594	0.128132	0.176184	0.476867	0.393744	0.103388	0.185300	0.365706	0.297685	0.198126	0.326828	0.380310	0.402171	0.107893	0.170235	0.395787	0.468032	0.125189	0.104039	0.592204	0.292964	0.102118	0.168532	0.273537	0.188200
82	0.123080	0.143827	0.929436	0.396767	0.114334	0.227582	0.304849	0.246074	0.450376	0.460030	0.743687	0.234985	0.085866	0.199549	0.191408	0.160650	0.148234	0.365893	0.621908	0.479771	0.113611	0.213712	0.169700	0.237675	0.306106	0.249536	0.416915	0.531670	0.232482	0.456507	0.338941	0.401500	0.182530	0.235590	0.540864	0.594558	0.103938	0.096281	0.178408	0.210858	0.110955	0.381373	0.307599	0.444200	0.134271	0.408127	0.297272	0.245196	0.127649	0.179702	0.352768	0.375328	0.100501	0.184169	0.307611	0.273544	0.214197	0.337805	0.446153	0.402940	0.107324	0.171031	0.397869	0.429180	0.148252	0.168346	0.544822	0.485512	0.097670	0.178820	0.309231	0.173155
83	0.109290	0.124076	0.920778	0.411757	0.121368	0.241749	0.315498	0.301416	0.391795	0.372453	0.981204	0.295939	0.073013	0.199079	0.181470	0.163977	0.149233	0.427358	0.605648	0.537316	0.114659	0.213951	0.156427	0.229241	0.309601	0.266203	0.409351	0.603669	0.241662	0.444915	0.373444	0.433944	0.185434	0.213950	0.570128	0.477902	0.102822	0.097997	0.170524	0.226973	0.106911	0.379912	0.166430	0.411967	0.139073	0.412372	0.299222	0.281889	0.127135	0.175621	0.296398	0.365469	0.103858	0.184514	0.235214	0.241442	0.215490	0.345286	0.568949	0.405651	0.103688	0.172484	0.463672	0.441589	0.135164	0.169724	0.517336	0.534136	0.083484	0.141914	0.336344	0.176591
84	0.100167	0.111678	0.919991	0.439203	0.127553	0.256610	0.356593	0.323798	0.451078	0.424242	0.983267	0.389757	0.060782	0.188748	0.171491	0.162500	0.148802	0.467649	0.591049	0.574668	0.107880	0.216173	0.139258	0.250776	0.333262	0.311493	0.417107	0.658209	0.251874	0.480535	0.374709	0.490647	0.168834	0.184947	0.609901	0.495953	0.100912	0.097648	0.164714	0.243929	0.117910	0.384048	0.158786	0.411757	0.156453	0.426802	0.321093	0.348920	0.105551	0.158422	0.306827	0.318535	0.103301	0.171055	0.200905	0.239801	0.218192	0.345087	0.550462	0.404375	0.100255	0.170512	0.467383	0.478958	0.128265	0.168030	0.511641	0.571745	0.087748	0.126994	0.358045	0.206164
85	0.109693	0.112332	0.957784	0.462435	0.120508	0.254955	0.356999	0.326017	0.504270	0.478937	0.991442	0.495099	0.061057	0.192193	0.201995	0.165816	0.148388	0.506505	0.537764	0.553017	0.146699	0.249979	0.134959	0.255287	0.343916	0.343829	0.426519	0.662529	0.257661	0.512452	0.489556	0.526632	0.135746	0.160912	0.645125	0.485233	0.092015	0.092766	0.162989	0.240568	0.220837	0.476547	0.221939	0.411720	0.171166	0.443117	0.321258	0.399740	0.083449	0.130522	0.330453	0.300067	0.089868	0.155712	0.199926	0.251609	0.224416	0.325859	0.581687	0.407555	0.077898	0.135326	0.456727	0.439873	0.142550	0.200865	0.532214	0.654321	0.093956	0.147338	0.367867	0.241662
86	0.115412	0.128642	1.005912	0.421221	0.105799	0.239429	0.356365	0.341743	0.489952	0.456848	0.940558	0.595351	0.066945	0.199891	0.247910	0.175242	0.141617	0.506966	0.538926	0.515974	0.155574	0.266480	0.135086	0.234693	0.333968	0.343760	0.388377	0.666978	0.259673	0.519864	0.619732	0.530157	0.105688	0.140126	0.641398	0.557929	0.085329	0.086897	0.167698	0.218270	0.240772	0.544850	0.416387	0.428483	0.170323	0.445713	0.327477	0.407542	0.108668	0.127690	0.360022	0.284755	0.082693	0.098447	0.202694	0.248781	0.230667	0.347888	0.573028	0.435572	0.072512	0.096408	0.465338	0.339460	0.144421	0.211897	0.511037	0.666458	0.096350	0.179362	0.368943	0.249238
87	0.116258	0.151545	0.983879	0.436469	0.105406	0.236357	0.356970	0.363840	0.460364	0.454112	0.860252	0.624695	0.068708	0.223082	0.251758	0.175382	0.139248	0.507683	0.470210	0.483150	0.167284	0.239843	0.147450	0.243676	0.288650	0.333183	0.313772	0.658931	0.270143	0.532124	0.616130	0.538256	0.099140	0.129102	0.645437	0.622238	0.085122	0.089264	0.213060	0.214491	0.242796	0.528501	0.472379	0.486130	0.184368	0.457306	0.327386	0.405093	0.124696	0.133281	0.364622	0.291068	0.082025	0.079156	0.197206	0.248768	0.215844	0.377722	0.552644	0.438040	0.046561	0.092585	0.461098	0.321241	0.140477	0.210136	0.689786	0.664997	0.122874	0.181179	0.432273	0.293587
88	0.099240	0.163206	0.850362	0.499149	0.096200	0.216131	0.361308	0.378966	0.456452	0.461227	0.829850	0.638477	0.079129	0.242682	0.239950	0.175292	0.118372	0.506376	0.505847	0.473583	0.191758	0.283965	0.167680	0.254643	0.273414	0.320280	0.346803	0.603299	0.265990	0.530748	0.611337	0.552965	0.114017	0.129096	0.669357	0.630702	0.061073	0.080237	0.223367	0.253190	0.233358	0.464920	0.474246	0.526221	0.209190	0.461263	0.318059	0.464336	0.117732	0.131794	0.344778	0.294245	0.068437	0.078727	0.209918	0.212594	0.174785	0.370365	0.555638	0.433944	0.045021	0.092765	0.391860	0.367869	0.131517	0.209319	0.720452	0.671521	0.136896	0.183789	0.471032	0.387602
89	0.096391	0.163886	0.883638	0.505720	0.083498	0.207705	0.362310	0.370428	0.415800	0.468205	0.832546	0.735072	0.145786	0.241299	0.240281	0.175186	0.116779	0.508709	0.398338	0.466658	0.203148	0.319157	0.175879	0.256010	0.264952	0.307831	0.335600	0.582917	0.232447	0.510112	0.606198	0.543076	0.128400	0.126869	0.657523	0.625655	0.054853	0.079226	0.197992	0.293020	0.237406	0.472208	0.501545	0.516113	0.226642	0.465789	0.348536	0.560695	0.120473	0.157943	0.328047	0.296505	0.056025	0.112764	0.202593	0.211297	0.172407	0.405438	0.537858	0.433238	0.056850	0.107035	0.356289	0.376408	0.114288	0.179610	0.717318	0.600740	0.145935	0.192087	0.431622	0.437001
90	0.122680	0.162526	0.871612	0.531305	0.080645	0.206122	0.359797	0.353823	0.413781	0.467235	0.836177	0.787385	0.197844	0.221049	0.250109	0.176046	0.101340	0.443258	0.338796	0.434431	0.205342	0.316718	0.212887	0.254403	0.293589	0.328294	0.326036	0.659102	0.191929	0.401468	0.633651	0.483931	0.128150	0.124752	0.635311	0.607045	0.053910	0.085682	0.202722	0.309882	0.243739	0.477243	0.536054	0.526739	0.242730	0.478134	0.381835	0.608404	0.121450	0.160964	0.378289	0.307641	0.059861	0.117372	0.201984	0.235566	0.155179	0.424520	0.528428	0.430210	0.085992	0.140577	0.296378	0.388699	0.107942	0.152797	0.686818	0.499853	0.145595	0.191309	0.451956	0.436053
91	0.158885	0.162181	0.719738	0.588220	0.084147	0.207770	0.330725	0.349572	0.380380	0.412463	0.833899	0.808140	0.202078	0.197313	0.233021	0.170187	0.127992	0.400305	0.382846	0.411568	0.210950	0.322431	0.264033	0.264069	0.295103	0.329476	0.340263	0.682422	0.196208	0.370139	0.657789	0.451593	0.117098	0.129894	0.699977	0.529633	0.048288	0.073261	0.247579	0.302971	0.241951	0.467061	0.537156	0.592489	0.241069	0.408897	0.388777	0.626460	0.126090	0.159439	0.409258	0.351367	0.059685	0.118358	0.218364	0.247471	0.139789	0.409799	0.416196	0.429468	0.102324	0.167011	0.240937	0.358403	0.111908	0.160945	0.673411	0.568352	0.136967	0.177649	0.422319	0.426252
92	0.156618	0.159281	0.718548	0.664360	0.086107	0.195149	0.279493	0.339167	0.369927	0.391498	0.653528	0.805692	0.204600	0.191990	0.229763	0.163365	0.136330	0.401317	0.369271	0.369654	0.230440	0.340117	0.273117	0.330149	0.270857	0.313081	0.321373	0.668431	0.198551	0.404434	0.646399	0.505555	0.115794	0.132048	0.651164	0.439115	0.041118	0.055786	0.274948	0.303982	0.241255	0.472393	0.538558	0.639469	0.237596	0.386897	0.383137	0.631901	0.135171	0.146222	0.407967	0.355180	0.059884	0.115905	0.210628	0.256769	0.145317	0.407387	0.329039	0.444491	0.124663	0.176007	0.487034	0.321061	0.101636	0.144102	0.665185	0.496742	0.135600	0.166827	0.417229	0.432308
93	0.159726	0.158260	0.755980	0.677949	0.077227	0.165453	0.281605	0.291064	0.341082	0.359912	0.408995	0.774401	0.209282	0.225036	0.224290	0.163458	0.113772	0.301112	0.366361	0.348812	0.237873	0.371369	0.295045	0.386075	0.269441	0.301631	0.381656	0.673463	0.194134	0.451401	0.639127	0.531370	0.118669	0.120908	0.707610	0.470858	0.042122	0.054234	0.277034	0.319286	0.241617	0.480491	0.538595	0.654012	0.237634	0.389244	0.368237	0.631589	0.127164	0.139220	0.388531	0.319894	0.059100	0.115612	0.207875	0.243626	0.152380	0.422869	0.346700	0.463571	0.139538	0.209784	0.514462	0.369523	0.110140	0.112988	0.703040	0.452422	0.134253	0.166841	0.416022	0.430496
94	0.170966	0.165418	0.756749	0.655602	0.063968	0.138023	0.228218	0.253651	0.227356	0.275560	0.336766	0.711544	0.213692	0.257722	0.211502	0.186105	0.118692	0.295483	0.370967	0.361148	0.241764	0.385242	0.302000	0.398758	0.251489	0.257297	0.409353	0.648793	0.183156	0.421097	0.640871	0.501784	0.130441	0.119577	0.724240	0.446313	0.049671	0.058404	0.281950	0.328676	0.218859	0.471074	0.546889	0.653714	0.235942	0.387598	0.354792	0.622864	0.107293	0.143160	0.337184	0.292491	0.058203	0.116837	0.200375	0.222019	0.140379	0.405647	0.381303	0.462074	0.146890	0.214555	0.546366	0.382824	0.112419	0.114498	0.486279	0.474037	0.127376	0.160633	0.411578	0.413664
95	0.163113	0.161416	0.741722	0.663441	0.062161	0.120739	0.218016	0.253204	0.203411	0.242778	0.340755	0.623980	0.217729	0.267067	0.165659	0.229193	0.122627	0.302735	0.392082	0.354507	0.242974	0.383172	0.292498	0.386865	0.238612	0.213837	0.473754	0.646633	0.183485	0.421944	0.565736	0.464407	0.153660	0.158826	0.731423	0.364145	0.048727	0.059259	0.297491	0.331557	0.133014	0.348440	0.489906	0.642884	0.229841	0.382169	0.325613	0.591808	0.120150	0.218497	0.309138	0.270318	0.061932	0.113514	0.221378	0.216579	0.141721	0.376714	0.560558	0.447111	0.149534	0.228223	0.555922	0.338103	0.117561	0.115506	0.540376	0.465287	0.123820	0.123490	0.413985	0.404892
96	0.161665	0.145986	0.723987	0.703396	0.072862	0.125082	0.212684	0.219337	0.195367	0.241434	0.396392	0.563423	0.231638	0.263892	0.157039	0.240553	0.128818	0.309719	0.359086	0.362911	0.220068	0.367618	0.290634	0.376612	0.261848	0.215295	0.514288	0.654586	0.183675	0.420872	0.422247	0.492116	0.149483	0.162706	0.712889	0.409713	0.045055	0.058721	0.299682	0.333195	0.146947	0.326623	0.350516	0.602261	0.221373	0.372652	0.325032	0.552942	0.143429	0.261047	0.305184	0.260755	0.060725	0.104571	0.239344	0.234559	0.146600	0.333040	0.583209	0.442589	0.149694	0.250511	0.551744	0.321251	0.119494	0.116066	0.596299	0.436775	0.101647	0.126508	0.369347	0.396168
97	0.166642	0.123290	0.684583	0.673604	0.076758	0.121695	0.207663	0.166619	0.197815	0.228603	0.472183	0.561723	0.386334	0.392539	0.274143	0.241430	0.130382	0.306013	0.352216	0.393336	0.209005	0.356584	0.297774	0.367609	0.342855	0.236617	0.541527	0.627578	0.170121	0.389454	0.409502	0.539659	0.134861	0.164280	0.697879	0.418730	0.050861	0.055683	0.269623	0.326287	0.206069	0.374853	0.328104	0.534993	0.233307	0.446984	0.316592	0.534616	0.164831	0.255672	0.318522	0.256923	0.052340	0.094091	0.241277	0.241904	0.160254	0.323699	0.595340	0.417073	0.150406	0.268171	0.569764	0.301369	0.147476	0.134973	0.604341	0.464862	0.094914	0.124365	0.291638	0.318781
98	0.232670	0.132511	0.676838	0.653394	0.073916	0.122924	0.194504	0.148574	0.218377	0.219136	0.476705	0.512246	0.472962	0.489335	0.318630	0.252829	0.137592	0.293721	0.360209	0.395489	0.197751	0.357121	0.298853	0.342987	0.359319	0.219058	0.534464	0.678652	0.166299	0.384252	0.448311	0.541386	0.125791	0.162127	0.672236	0.462998	0.051142	0.054618	0.254160	0.301914	0.330430	0.393296	0.342593	0.481477	0.228296	0.446723	0.298373	0.535106	0.174532	0.259294	0.267981	0.242773	0.040927	0.054898	0.249886	0.217355	0.162257	0.237967	0.601666	0.403996	0.151245	0.281834	0.567863	0.321416	0.160829	0.138768	0.600674	0.438393	0.085007	0.152411	0.281911	0.220245
99	0.247514	0.137105	0.615766	0.655595	0.085982	0.141730	0.196883	0.164609	0.229585	0.199617	0.577308	0.375597	0.455452	0.496433	0.341560	0.263211	0.151086	0.251045	0.322813	0.411152	0.174140	0.317321	0.291656	0.334335	0.368530	0.198059	0.546687	0.687169	0.164845	0.379120	0.498901	0.516315	0.127528	0.161861	0.577179	0.473015	0.051205	0.061944	0.256048	0.269750	0.422306	0.388983	0.328842	0.475667	0.203054	0.436088	0.340697	0.492560	0.183585	0.274863	0.240149	0.182113	0.040280	0.055626	0.254040	0.199493	0.210579	0.284885	0.605561	0.447389	0.147474	0.291568	0.477203	0.352940	0.165662	0.147030	0.655950	0.344748	0.085584	0.199748	0.231601	0.190118
100	0.268311	0.178902	0.615172	0.626673	0.088683	0.141029	0.228976	0.173054	0.233192	0.201018	0.640857	0.395485	0.445004	0.493849	0.385493	0.263819	0.133732	0.168021	0.314547	0.526919	0.156831	0.277385	0.287247	0.336992	0.364229	0.222141	0.636355	0.636209	0.156104	0.379561	0.450287	0.525183	0.139351	0.154686	0.658951	0.480797	0.094996	0.096430	0.255385	0.245463	0.482630	0.393412	0.375628	0.433203	0.184023	0.422468	0.380884	0.381246	0.209767	0.290667	0.251393	0.146914	0.043930	0.056909	0.253573	0.181938	0.255315	0.363709	0.604255	0.475299	0.129957	0.273819	0.336358	0.302205	0.161874	0.152080	0.634727	0.420197	0.087601	0.210735	0.245250	0.188942
101	0.323901	0.225475	0.612906	0.569622	0.085238	0.139372	0.238237	0.174327	0.293167	0.253941	0.657376	0.430663	0.444785	0.494228	0.394829	0.285695	0.148816	0.218648	0.312437	0.606630	0.154172	0.340602	0.260029	0.337643	0.389230	0.289443	0.662653	0.704946	0.137197	0.372358	0.421885	0.545075	0.136374	0.178948	0.574200	0.450804	0.124965	0.114587	0.218543	0.243043	0.518261	0.396076	0.384095	0.411517	0.161680	0.394859	0.341011	0.282467	0.235497	0.323982	0.273372	0.235939	0.037283	0.054872	0.272222	0.155914	0.290924	0.404055	0.601083	0.461164	0.114675	0.254763	0.311620	0.242397	0.156999	0.144272	0.610727	0.470155	0.094869	0.211216	0.254235	0.168405
