	170_P_T3_sh_L_D_A_01.c3d	170_P_T3_sh_L_D_A_01.c3d	170_P_T3_sh_L_D_A_01.c3d	170_P_T3_sh_L_D_A_01.c3d	170_P_T3_sh_L_D_A_01.c3d	170_P_T3_sh_L_D_A_01.c3d	170_P_T3_sh_L_D_A_01.c3d	170_P_T3_sh_L_D_A_01.c3d	170_P_T3_sh_L_D_A_02.c3d	170_P_T3_sh_L_D_A_02.c3d	170_P_T3_sh_L_D_A_02.c3d	170_P_T3_sh_L_D_A_02.c3d	170_P_T3_sh_L_D_A_02.c3d	170_P_T3_sh_L_D_A_02.c3d	170_P_T3_sh_L_D_A_02.c3d	170_P_T3_sh_L_D_A_02.c3d	170_P_T3_sh_L_D_A_03.c3d	170_P_T3_sh_L_D_A_03.c3d	170_P_T3_sh_L_D_A_03.c3d	170_P_T3_sh_L_D_A_03.c3d	170_P_T3_sh_L_D_A_03.c3d	170_P_T3_sh_L_D_A_03.c3d	170_P_T3_sh_L_D_A_03.c3d	170_P_T3_sh_L_D_A_03.c3d	170_P_T3_sh_L_D_A_04.c3d	170_P_T3_sh_L_D_A_04.c3d	170_P_T3_sh_L_D_A_04.c3d	170_P_T3_sh_L_D_A_04.c3d	170_P_T3_sh_L_D_A_04.c3d	170_P_T3_sh_L_D_A_04.c3d	170_P_T3_sh_L_D_A_04.c3d	170_P_T3_sh_L_D_A_04.c3d	170_P_T3_sh_L_D_A_05.c3d	170_P_T3_sh_L_D_A_05.c3d	170_P_T3_sh_L_D_A_05.c3d	170_P_T3_sh_L_D_A_05.c3d	170_P_T3_sh_L_D_A_05.c3d	170_P_T3_sh_L_D_A_05.c3d	170_P_T3_sh_L_D_A_05.c3d	170_P_T3_sh_L_D_A_05.c3d	170_P_T3_sh_L_D_A_06.c3d	170_P_T3_sh_L_D_A_06.c3d	170_P_T3_sh_L_D_A_06.c3d	170_P_T3_sh_L_D_A_06.c3d	170_P_T3_sh_L_D_A_06.c3d	170_P_T3_sh_L_D_A_06.c3d	170_P_T3_sh_L_D_A_06.c3d	170_P_T3_sh_L_D_A_06.c3d	170_P_T3_sh_L_D_A_07.c3d	170_P_T3_sh_L_D_A_07.c3d	170_P_T3_sh_L_D_A_07.c3d	170_P_T3_sh_L_D_A_07.c3d	170_P_T3_sh_L_D_A_07.c3d	170_P_T3_sh_L_D_A_07.c3d	170_P_T3_sh_L_D_A_07.c3d	170_P_T3_sh_L_D_A_07.c3d	170_P_T3_sh_L_D_A_08.c3d	170_P_T3_sh_L_D_A_08.c3d	170_P_T3_sh_L_D_A_08.c3d	170_P_T3_sh_L_D_A_08.c3d	170_P_T3_sh_L_D_A_08.c3d	170_P_T3_sh_L_D_A_08.c3d	170_P_T3_sh_L_D_A_08.c3d	170_P_T3_sh_L_D_A_08.c3d
	Biceps femoris_lat	Semitendinosus_lat	Vastus lateralis_lat	Vastus medialis_lat	Biceps femoris_med	Semitendinosus_med	Vastus lateralis_med	Vastus medialis_med	Biceps femoris_lat	Semitendinosus_lat	Vastus lateralis_lat	Vastus medialis_lat	Biceps femoris_med	Semitendinosus_med	Vastus lateralis_med	Vastus medialis_med	Biceps femoris_lat	Semitendinosus_lat	Vastus lateralis_lat	Vastus medialis_lat	Biceps femoris_med	Semitendinosus_med	Vastus lateralis_med	Vastus medialis_med	Biceps femoris_lat	Semitendinosus_lat	Vastus lateralis_lat	Vastus medialis_lat	Biceps femoris_med	Semitendinosus_med	Vastus lateralis_med	Vastus medialis_med	Biceps femoris_lat	Semitendinosus_lat	Vastus lateralis_lat	Vastus medialis_lat	Biceps femoris_med	Semitendinosus_med	Vastus lateralis_med	Vastus medialis_med	Biceps femoris_lat	Semitendinosus_lat	Vastus lateralis_lat	Vastus medialis_lat	Biceps femoris_med	Semitendinosus_med	Vastus lateralis_med	Vastus medialis_med	Biceps femoris_lat	Semitendinosus_lat	Vastus lateralis_lat	Vastus medialis_lat	Biceps femoris_med	Semitendinosus_med	Vastus lateralis_med	Vastus medialis_med	Biceps femoris_lat	Semitendinosus_lat	Vastus lateralis_lat	Vastus medialis_lat	Biceps femoris_med	Semitendinosus_med	Vastus lateralis_med	Vastus medialis_med
	P2D	P2D	P2D	P2D	P2D	P2D	P2D	P2D	P2D	P2D	P2D	P2D	P2D	P2D	P2D	P2D	P2D	P2D	P2D	P2D	P2D	P2D	P2D	P2D	P2D	P2D	P2D	P2D	P2D	P2D	P2D	P2D	P2D	P2D	P2D	P2D	P2D	P2D	P2D	P2D	P2D	P2D	P2D	P2D	P2D	P2D	P2D	P2D	P2D	P2D	P2D	P2D	P2D	P2D	P2D	P2D	P2D	P2D	P2D	P2D	P2D	P2D	P2D	P2D
	EMG_lat	EMG_lat	EMG_lat	EMG_lat	EMG_med	EMG_med	EMG_med	EMG_med	EMG_lat	EMG_lat	EMG_lat	EMG_lat	EMG_med	EMG_med	EMG_med	EMG_med	EMG_lat	EMG_lat	EMG_lat	EMG_lat	EMG_med	EMG_med	EMG_med	EMG_med	EMG_lat	EMG_lat	EMG_lat	EMG_lat	EMG_med	EMG_med	EMG_med	EMG_med	EMG_lat	EMG_lat	EMG_lat	EMG_lat	EMG_med	EMG_med	EMG_med	EMG_med	EMG_lat	EMG_lat	EMG_lat	EMG_lat	EMG_med	EMG_med	EMG_med	EMG_med	EMG_lat	EMG_lat	EMG_lat	EMG_lat	EMG_med	EMG_med	EMG_med	EMG_med	EMG_lat	EMG_lat	EMG_lat	EMG_lat	EMG_med	EMG_med	EMG_med	EMG_med
ITEM	Y	Y	Y	Y	Y	Y	Y	Y	Y	Y	Y	Y	Y	Y	Y	Y	Y	Y	Y	Y	Y	Y	Y	Y	Y	Y	Y	Y	Y	Y	Y	Y	Y	Y	Y	Y	Y	Y	Y	Y	Y	Y	Y	Y	Y	Y	Y	Y	Y	Y	Y	Y	Y	Y	Y	Y	Y	Y	Y	Y	Y	Y	Y	Y
1	0.384062	0.203295	0.301658	0.364590	0.533198	0.334563	0.324934	0.408869	0.080249	0.035601	0.214336	0.220584	0.173738	0.126232	0.235995	0.296299	0.330794	0.222248	0.205938	0.259796	0.755377	0.161123	0.297684	0.331839	0.225734	0.162791	0.259929	0.346769	0.564550	0.293610	0.426409	0.408330	0.247855	0.104038	0.330703	0.414599	0.442648	0.269120	0.238766	0.354616	0.225886	0.176726	0.555677	0.383114	0.286819	0.121475	0.254982	0.363028	0.207489	0.067853	0.287946	0.488966	0.397474	0.255402	0.357410	0.349539	0.242926	0.153435	0.192776	0.395628	0.478241	0.414388	0.233430	0.453678
2	0.383488	0.202321	0.314416	0.380223	0.569591	0.332992	0.338920	0.410469	0.079552	0.034135	0.215435	0.211425	0.158778	0.094070	0.227047	0.287555	0.326120	0.221203	0.193415	0.287324	0.761226	0.160925	0.301942	0.318792	0.206600	0.117320	0.270784	0.342132	0.620800	0.304809	0.425984	0.420676	0.231049	0.096973	0.359695	0.416996	0.459768	0.269306	0.237332	0.394582	0.206721	0.170553	0.557570	0.380605	0.310521	0.113722	0.252803	0.325786	0.209654	0.066342	0.289629	0.478090	0.315405	0.224921	0.365836	0.370554	0.244939	0.144429	0.186005	0.411609	0.516855	0.469497	0.228419	0.438408
3	0.381748	0.194956	0.320748	0.384638	0.619647	0.349510	0.347687	0.434736	0.079985	0.034082	0.219428	0.211012	0.176264	0.113762	0.222705	0.293831	0.312108	0.216166	0.177720	0.329922	0.754104	0.167189	0.325453	0.315452	0.203131	0.101815	0.350568	0.329374	0.645173	0.309010	0.444015	0.405131	0.234447	0.093963	0.370293	0.416286	0.482501	0.307396	0.236201	0.446652	0.226605	0.169020	0.556974	0.388081	0.312861	0.114553	0.238868	0.328416	0.206150	0.063599	0.284026	0.480031	0.278447	0.209628	0.419554	0.368333	0.248607	0.139755	0.192156	0.410856	0.547173	0.500664	0.225873	0.369763
4	0.382357	0.183110	0.325498	0.379894	0.670663	0.389473	0.322439	0.467088	0.072020	0.034933	0.217835	0.210961	0.182534	0.113820	0.225721	0.313237	0.262797	0.200986	0.177692	0.382261	0.745021	0.167292	0.327039	0.314771	0.208819	0.065611	0.375410	0.335867	0.613950	0.289450	0.469792	0.416020	0.240118	0.093270	0.355275	0.428726	0.419553	0.297122	0.222620	0.477238	0.227375	0.170911	0.558811	0.411727	0.318107	0.126820	0.246986	0.334654	0.162472	0.063891	0.245275	0.473884	0.242540	0.194836	0.422281	0.375330	0.229028	0.123544	0.193145	0.420662	0.579217	0.512102	0.225771	0.362192
5	0.375099	0.170961	0.323879	0.374959	0.679484	0.378940	0.285822	0.502509	0.077257	0.035510	0.211889	0.217104	0.178094	0.113922	0.235427	0.306791	0.217709	0.157696	0.176431	0.391289	0.711590	0.154248	0.355268	0.314078	0.223274	0.061149	0.368326	0.338978	0.569489	0.265010	0.469833	0.436224	0.237174	0.096031	0.373639	0.446276	0.377837	0.283984	0.182380	0.477980	0.227686	0.173069	0.562135	0.532335	0.320221	0.148622	0.252109	0.334827	0.123833	0.068455	0.247532	0.483899	0.236538	0.190277	0.378478	0.405819	0.195153	0.115087	0.200205	0.426749	0.589814	0.513502	0.226968	0.356338
6	0.370683	0.162917	0.327226	0.402688	0.692252	0.410096	0.283431	0.519359	0.115748	0.040193	0.197896	0.233356	0.171526	0.117006	0.271198	0.301135	0.243029	0.147194	0.173079	0.477500	0.658127	0.138971	0.409258	0.322168	0.229752	0.058805	0.371871	0.373607	0.549019	0.285193	0.447604	0.446538	0.227934	0.090697	0.376792	0.430935	0.381747	0.290931	0.177963	0.476642	0.246442	0.168994	0.558931	0.587675	0.337357	0.146296	0.247058	0.342663	0.114462	0.071323	0.242373	0.453145	0.235651	0.192140	0.335248	0.428048	0.225912	0.141428	0.239986	0.443331	0.589159	0.511678	0.163817	0.354461
7	0.301938	0.140265	0.329747	0.416372	0.755771	0.520791	0.317433	0.494604	0.132802	0.051022	0.221655	0.248180	0.168761	0.116493	0.296965	0.302727	0.280681	0.150626	0.169176	0.528771	0.650616	0.149269	0.478623	0.305922	0.221558	0.058282	0.370473	0.411983	0.540774	0.290481	0.403897	0.447522	0.227561	0.082332	0.374024	0.506902	0.345318	0.281856	0.194594	0.476716	0.255389	0.156940	0.519632	0.558732	0.338332	0.151039	0.240888	0.336364	0.116409	0.065129	0.250320	0.463829	0.234667	0.197561	0.328009	0.438639	0.265850	0.168394	0.278848	0.447148	0.584827	0.506836	0.168182	0.374690
8	0.193860	0.115886	0.330211	0.437670	0.768594	0.550832	0.349939	0.493123	0.143376	0.070726	0.228241	0.241332	0.171336	0.112044	0.308049	0.309274	0.297650	0.142178	0.191196	0.527807	0.633622	0.158902	0.506797	0.383968	0.215426	0.060663	0.374925	0.451862	0.540874	0.286511	0.386058	0.444183	0.217867	0.076187	0.390840	0.741790	0.306827	0.269075	0.218522	0.476157	0.253554	0.138769	0.468210	0.551627	0.354328	0.170975	0.240908	0.318820	0.115718	0.054885	0.254708	0.470104	0.240084	0.200219	0.308623	0.433583	0.282492	0.176171	0.288602	0.462274	0.584984	0.505357	0.193420	0.364815
9	0.193339	0.112832	0.303265	0.451520	0.750934	0.542587	0.349592	0.493632	0.145166	0.080484	0.223967	0.250958	0.169290	0.107286	0.303009	0.328504	0.314337	0.141170	0.221163	0.521962	0.566646	0.148312	0.511336	0.468480	0.201964	0.073765	0.403571	0.515812	0.535380	0.257421	0.383728	0.501750	0.212687	0.082286	0.413339	0.769035	0.278332	0.253840	0.217667	0.473240	0.252861	0.125701	0.449766	0.569364	0.365945	0.180111	0.241889	0.290414	0.111697	0.052469	0.237452	0.468533	0.279503	0.192704	0.321783	0.446962	0.287641	0.179309	0.274303	0.457129	0.581116	0.502780	0.223620	0.292573
10	0.167337	0.089074	0.275303	0.465882	0.740717	0.528952	0.318046	0.553571	0.156027	0.082831	0.214720	0.344703	0.157814	0.103054	0.306344	0.376663	0.349707	0.149208	0.228891	0.517741	0.511118	0.141049	0.505246	0.555953	0.195748	0.089294	0.449384	0.657781	0.602499	0.217229	0.520998	0.514214	0.216915	0.089315	0.438999	0.794929	0.267027	0.239992	0.207333	0.448302	0.253136	0.120795	0.443292	0.581069	0.367247	0.185284	0.235554	0.315043	0.119371	0.056300	0.240980	0.494137	0.299191	0.165377	0.374850	0.491158	0.292519	0.182236	0.273463	0.395652	0.557144	0.464399	0.228694	0.277766
11	0.198872	0.082746	0.297323	0.476205	0.740845	0.523426	0.319604	0.553549	0.168055	0.082835	0.205924	0.370419	0.153763	0.105253	0.308297	0.438833	0.352680	0.143843	0.230906	0.491431	0.529100	0.161719	0.546210	0.540347	0.198820	0.105186	0.499884	0.675886	0.630961	0.211854	0.645171	0.498785	0.208933	0.089419	0.455956	0.834665	0.265221	0.235150	0.216773	0.462076	0.254458	0.119031	0.396747	0.603008	0.371657	0.204090	0.209561	0.287737	0.182093	0.077317	0.251772	0.437277	0.288839	0.148130	0.404198	0.491477	0.294284	0.182920	0.296167	0.392868	0.501854	0.398999	0.226279	0.289222
12	0.254029	0.093915	0.319103	0.470601	0.709415	0.520651	0.324422	0.483326	0.183479	0.084938	0.226674	0.391041	0.222921	0.119659	0.373865	0.512916	0.355069	0.142969	0.232850	0.477051	0.604634	0.206370	0.639643	0.622767	0.202396	0.113086	0.522370	0.676196	0.627836	0.215179	0.668672	0.474910	0.209014	0.093399	0.458533	0.860107	0.265492	0.235610	0.243896	0.490758	0.240415	0.122296	0.341074	0.615093	0.363629	0.206166	0.209966	0.247683	0.196903	0.081870	0.254235	0.379972	0.276174	0.146934	0.405289	0.475850	0.310309	0.185837	0.316603	0.352459	0.501985	0.389070	0.210876	0.303972
13	0.289742	0.101340	0.313695	0.468360	0.682549	0.516115	0.324066	0.511777	0.214164	0.088918	0.306606	0.443993	0.304475	0.140198	0.460300	0.515627	0.345610	0.140545	0.256076	0.476075	0.692061	0.244668	0.692615	0.706338	0.219764	0.112679	0.527021	0.680312	0.628895	0.260887	0.677731	0.487043	0.199056	0.096678	0.505748	0.943113	0.266844	0.236242	0.244180	0.487769	0.229013	0.121222	0.290553	0.612187	0.373796	0.222397	0.222321	0.242552	0.199501	0.084849	0.230483	0.365590	0.262741	0.140780	0.409652	0.458666	0.316596	0.185892	0.326568	0.288877	0.442013	0.319000	0.206677	0.298369
14	0.301147	0.100407	0.305790	0.444082	0.716829	0.524277	0.363332	0.578968	0.232697	0.096225	0.422708	0.477916	0.329057	0.130691	0.486596	0.539355	0.344267	0.133439	0.289790	0.464184	0.707546	0.249602	0.688478	0.716905	0.260070	0.121478	0.531748	0.687279	0.588450	0.282418	0.671968	0.558205	0.192646	0.100446	0.527118	0.972985	0.282339	0.256570	0.245184	0.481201	0.242679	0.118999	0.262026	0.589213	0.348968	0.224392	0.246930	0.304142	0.197138	0.085977	0.217734	0.367326	0.265609	0.125889	0.415818	0.463634	0.323287	0.186171	0.324439	0.251664	0.395808	0.233481	0.255411	0.321694
15	0.310427	0.099125	0.297290	0.427682	0.685846	0.507267	0.376446	0.609263	0.233465	0.097008	0.442123	0.509342	0.343355	0.131042	0.492698	0.531852	0.348286	0.136298	0.299391	0.436203	0.707576	0.247217	0.674159	0.720956	0.286581	0.143113	0.508830	0.717327	0.588086	0.279570	0.774789	0.548789	0.192641	0.097627	0.513781	0.977805	0.256546	0.254941	0.241872	0.550225	0.242747	0.115949	0.252926	0.585019	0.321857	0.221998	0.311747	0.397531	0.203226	0.087674	0.221270	0.365299	0.303958	0.124392	0.408407	0.510660	0.350098	0.192872	0.321028	0.263215	0.352279	0.168739	0.265700	0.308918
16	0.335133	0.117075	0.295022	0.440969	0.637923	0.482964	0.375525	0.611831	0.234422	0.097766	0.445659	0.523663	0.344639	0.134111	0.495028	0.536651	0.347089	0.137550	0.297924	0.393645	0.708270	0.242879	0.669809	0.722459	0.282847	0.151871	0.480350	0.745194	0.603162	0.276324	0.806754	0.506266	0.186047	0.090949	0.507663	0.979075	0.228967	0.247622	0.250189	0.600816	0.214224	0.095865	0.259098	0.682945	0.321713	0.227730	0.342745	0.469639	0.203705	0.086134	0.216998	0.353007	0.337158	0.125616	0.416617	0.535454	0.391743	0.208218	0.326799	0.248796	0.304112	0.135790	0.268017	0.303974
17	0.373917	0.147692	0.305694	0.448597	0.647828	0.481028	0.385255	0.576364	0.244760	0.097377	0.471143	0.524401	0.376328	0.141046	0.487555	0.533833	0.346315	0.138258	0.291584	0.426125	0.707975	0.244696	0.667749	0.726655	0.267558	0.157595	0.474974	0.747720	0.614094	0.274999	0.813518	0.491494	0.180371	0.083471	0.507972	0.969375	0.257112	0.244943	0.328761	0.598580	0.201623	0.068751	0.309150	0.738632	0.317665	0.222592	0.366487	0.497598	0.210656	0.086376	0.240381	0.319780	0.345138	0.125560	0.421625	0.514863	0.392077	0.203154	0.318266	0.237307	0.285830	0.133323	0.270285	0.324803
18	0.390953	0.163529	0.314556	0.438118	0.597872	0.406918	0.423312	0.608322	0.257786	0.097027	0.540101	0.525629	0.440617	0.167277	0.489313	0.532818	0.316931	0.138660	0.317203	0.353615	0.707330	0.243529	0.653910	0.726957	0.253290	0.164921	0.478995	0.738835	0.608272	0.335858	0.815748	0.485041	0.182299	0.081599	0.481687	0.961499	0.277483	0.235812	0.378777	0.601947	0.201688	0.055703	0.338245	0.663127	0.317670	0.206924	0.410328	0.498595	0.224965	0.093050	0.273766	0.318854	0.342525	0.122423	0.422286	0.460932	0.357470	0.179185	0.286341	0.204733	0.281584	0.133094	0.265507	0.389044
19	0.392213	0.167920	0.307722	0.412287	0.532690	0.277421	0.446125	0.677475	0.264938	0.094694	0.540177	0.523917	0.460427	0.175088	0.487013	0.538536	0.306038	0.155479	0.327515	0.254749	0.709737	0.242044	0.606647	0.725123	0.259039	0.168514	0.478302	0.722270	0.605569	0.498587	0.812335	0.485464	0.191747	0.079511	0.478963	0.961926	0.286178	0.228120	0.385406	0.613469	0.196234	0.060081	0.313011	0.603896	0.298766	0.205435	0.425113	0.513161	0.226697	0.094777	0.269296	0.303015	0.337966	0.122349	0.422264	0.443149	0.323236	0.149282	0.251076	0.195053	0.296940	0.134516	0.253990	0.409689
20	0.386710	0.169810	0.312954	0.395516	0.529592	0.239763	0.439423	0.708184	0.269084	0.089674	0.526213	0.522364	0.464015	0.174970	0.489502	0.526726	0.319487	0.184215	0.342686	0.264234	0.710601	0.235407	0.563755	0.726320	0.277229	0.166222	0.478215	0.708417	0.628801	0.558458	0.801039	0.481512	0.198019	0.078530	0.472286	0.870525	0.287492	0.227239	0.370878	0.634934	0.191443	0.063160	0.288400	0.600721	0.290184	0.200045	0.432421	0.533383	0.227420	0.094154	0.251803	0.276355	0.327777	0.121915	0.420601	0.448795	0.310682	0.137513	0.233704	0.165795	0.332224	0.141383	0.233947	0.409891
21	0.377590	0.171127	0.332565	0.378196	0.530730	0.227988	0.448235	0.707448	0.267229	0.076751	0.529635	0.519162	0.464661	0.176022	0.497507	0.480181	0.315077	0.192491	0.333895	0.264885	0.722905	0.223816	0.546191	0.691357	0.298874	0.162929	0.469710	0.700629	0.595445	0.649528	0.772769	0.394499	0.192553	0.078192	0.450193	0.717689	0.286853	0.227168	0.360447	0.644290	0.183153	0.062462	0.286253	0.594818	0.253753	0.180605	0.440026	0.543184	0.227384	0.092481	0.243008	0.232686	0.297181	0.120464	0.395104	0.442624	0.305846	0.133916	0.226611	0.167232	0.351096	0.150114	0.207400	0.410555
22	0.370309	0.170995	0.336646	0.338962	0.529183	0.222749	0.445032	0.660975	0.266263	0.070797	0.536005	0.509740	0.464674	0.182977	0.498908	0.443296	0.272948	0.184165	0.324252	0.298963	0.753945	0.220315	0.556356	0.616944	0.305489	0.153712	0.415744	0.550872	0.500981	0.686357	0.652499	0.391062	0.158438	0.069953	0.424607	0.708133	0.285761	0.227203	0.361431	0.645367	0.182848	0.063622	0.285793	0.607464	0.232686	0.168898	0.443705	0.553553	0.214002	0.090797	0.234487	0.166279	0.268624	0.136358	0.342778	0.384370	0.303672	0.134871	0.221852	0.163640	0.328158	0.149358	0.207126	0.424476
23	0.369406	0.170662	0.337447	0.324160	0.543987	0.223900	0.445854	0.658046	0.260409	0.073433	0.536215	0.476433	0.457929	0.196715	0.485374	0.339723	0.260809	0.180052	0.333167	0.353685	0.762532	0.218987	0.550271	0.567291	0.304023	0.147843	0.335635	0.439166	0.512390	0.688012	0.574905	0.388165	0.125962	0.062291	0.394352	0.667840	0.291941	0.235352	0.361393	0.628610	0.189417	0.070319	0.285145	0.595452	0.224521	0.160301	0.445704	0.549487	0.164275	0.075467	0.214201	0.173375	0.273510	0.223999	0.297491	0.380135	0.298057	0.140522	0.183312	0.143858	0.281767	0.148720	0.207446	0.445062
24	0.353366	0.166223	0.316778	0.264145	0.567448	0.234087	0.442676	0.654282	0.257894	0.073184	0.540644	0.468303	0.407721	0.185874	0.386445	0.267678	0.248018	0.175564	0.338256	0.361544	0.711362	0.197824	0.484591	0.550921	0.302505	0.139061	0.276289	0.432654	0.511309	0.683523	0.556844	0.376088	0.144304	0.064070	0.382676	0.613577	0.320659	0.302219	0.335530	0.592662	0.192349	0.081838	0.284249	0.569738	0.194650	0.130875	0.444967	0.546494	0.131904	0.068345	0.204984	0.167157	0.282223	0.356071	0.285198	0.379910	0.285684	0.138360	0.141979	0.144035	0.268239	0.190934	0.205043	0.444879
25	0.332961	0.158337	0.284614	0.234566	0.585516	0.277505	0.425895	0.628464	0.249922	0.070656	0.548247	0.455471	0.363693	0.178793	0.302802	0.231646	0.247558	0.170933	0.323498	0.359771	0.616890	0.157353	0.355521	0.434981	0.287721	0.140110	0.280840	0.426750	0.483728	0.660030	0.553543	0.258312	0.157307	0.058634	0.341678	0.487840	0.363056	0.436298	0.332393	0.588485	0.208198	0.104178	0.276122	0.554605	0.179317	0.129092	0.436487	0.556814	0.129033	0.068786	0.204188	0.171991	0.344315	0.379391	0.279157	0.376421	0.315426	0.142509	0.126027	0.156944	0.272891	0.225041	0.187996	0.438154
26	0.348044	0.156781	0.261963	0.231469	0.553783	0.367373	0.372172	0.604812	0.224893	0.065605	0.518356	0.406673	0.347080	0.193617	0.278662	0.190040	0.239608	0.170865	0.297166	0.357791	0.526854	0.175718	0.258410	0.292761	0.263920	0.138122	0.267153	0.421812	0.480728	0.657138	0.447925	0.172225	0.165255	0.052127	0.207161	0.281992	0.372703	0.506519	0.332160	0.585799	0.212736	0.133658	0.259975	0.551925	0.150406	0.127458	0.425413	0.557670	0.134685	0.082235	0.203092	0.172124	0.351258	0.417131	0.260535	0.350790	0.327592	0.144121	0.126347	0.175468	0.280305	0.228184	0.119517	0.410820
27	0.347829	0.154726	0.250755	0.232042	0.535383	0.470920	0.362368	0.559435	0.202056	0.055073	0.429168	0.349550	0.365795	0.191287	0.265092	0.161889	0.231515	0.167671	0.288966	0.362222	0.503665	0.276956	0.241570	0.259563	0.205825	0.114432	0.250000	0.388202	0.463003	0.658595	0.216084	0.166293	0.165300	0.046828	0.118210	0.204560	0.404285	0.494270	0.333245	0.504861	0.193134	0.174317	0.253582	0.551429	0.248789	0.240360	0.405118	0.527904	0.127202	0.097465	0.199522	0.164836	0.344668	0.482331	0.192586	0.276212	0.302045	0.131742	0.121197	0.146057	0.295262	0.239517	0.107781	0.408559
28	0.348967	0.154026	0.242142	0.232814	0.520333	0.491952	0.369995	0.548203	0.200886	0.057197	0.400982	0.300553	0.389592	0.192094	0.260140	0.137177	0.231660	0.162164	0.289748	0.362728	0.499811	0.356701	0.236062	0.246970	0.196084	0.094968	0.225510	0.296215	0.446215	0.669400	0.146892	0.162611	0.165851	0.043651	0.112410	0.195953	0.419451	0.489186	0.332943	0.322506	0.183075	0.189512	0.254343	0.549238	0.258049	0.354855	0.355449	0.456603	0.126611	0.104262	0.195403	0.164975	0.322159	0.499567	0.100312	0.211023	0.284362	0.104418	0.102575	0.179082	0.298907	0.243403	0.122774	0.408042
29	0.332213	0.142078	0.240865	0.203385	0.536128	0.509933	0.365356	0.552994	0.205444	0.057847	0.395654	0.270660	0.334344	0.172928	0.216040	0.137180	0.233893	0.160120	0.288735	0.312425	0.508927	0.361773	0.227038	0.242051	0.195890	0.085590	0.223291	0.259660	0.425903	0.657411	0.126941	0.216741	0.172861	0.044900	0.107397	0.192412	0.436214	0.506590	0.277374	0.250181	0.181524	0.189498	0.249657	0.425510	0.258595	0.442153	0.316198	0.375392	0.126079	0.101665	0.162636	0.177257	0.334962	0.505282	0.077883	0.412208	0.317323	0.102366	0.105599	0.184279	0.300236	0.245639	0.136109	0.368808
30	0.288663	0.112395	0.222986	0.168827	0.562562	0.542274	0.308370	0.527995	0.205760	0.058009	0.370470	0.267353	0.290071	0.160423	0.179503	0.114330	0.234649	0.161216	0.256027	0.292360	0.511364	0.372675	0.203204	0.242359	0.206864	0.084233	0.204118	0.245833	0.453558	0.585727	0.144898	0.287407	0.180431	0.056611	0.087478	0.195092	0.410191	0.516325	0.170858	0.251014	0.195565	0.234279	0.185363	0.278905	0.334931	0.457481	0.289060	0.323858	0.110525	0.092926	0.084283	0.173070	0.350382	0.529163	0.133111	0.476456	0.383108	0.162750	0.109310	0.210225	0.302380	0.248868	0.138073	0.287971
31	0.263085	0.089375	0.212363	0.173390	0.544770	0.543959	0.239329	0.454420	0.212811	0.063549	0.256740	0.260684	0.272919	0.158348	0.196156	0.185241	0.213318	0.143819	0.239958	0.292427	0.522057	0.388827	0.188827	0.300779	0.211388	0.088942	0.184868	0.232035	0.465961	0.485501	0.173837	0.309935	0.178110	0.065445	0.090513	0.209584	0.396715	0.522291	0.123677	0.237026	0.196725	0.263629	0.089873	0.262010	0.407000	0.504390	0.232255	0.319935	0.120907	0.091592	0.076934	0.193434	0.350404	0.548131	0.202770	0.518672	0.385568	0.172607	0.126802	0.219379	0.281286	0.249608	0.149755	0.257795
32	0.278285	0.099747	0.223444	0.164140	0.549991	0.557275	0.218800	0.425601	0.241895	0.090895	0.215119	0.248321	0.277137	0.158493	0.205949	0.264653	0.148483	0.115952	0.198153	0.282879	0.531522	0.392087	0.225749	0.424743	0.198512	0.103005	0.182232	0.198876	0.386842	0.361748	0.208364	0.298104	0.168713	0.072117	0.088994	0.265607	0.395329	0.526381	0.108441	0.206046	0.183293	0.269340	0.082347	0.280828	0.406839	0.517071	0.245764	0.291335	0.143541	0.090925	0.078134	0.258321	0.359987	0.551644	0.225756	0.527390	0.385747	0.173579	0.114386	0.249227	0.228073	0.249760	0.224688	0.257775
33	0.288079	0.107141	0.212861	0.149972	0.554237	0.567757	0.198090	0.419364	0.253726	0.104433	0.215732	0.217632	0.279529	0.155682	0.200929	0.378726	0.129795	0.135207	0.170245	0.280900	0.537428	0.391696	0.253551	0.424401	0.165653	0.106000	0.172577	0.172933	0.377569	0.263859	0.211453	0.293745	0.174721	0.071960	0.096964	0.286643	0.397631	0.528506	0.113883	0.188516	0.164656	0.275177	0.084441	0.285644	0.406854	0.523620	0.256309	0.246062	0.158552	0.091417	0.100819	0.303239	0.370767	0.564601	0.227065	0.536379	0.384916	0.173561	0.107548	0.264499	0.205270	0.259655	0.302882	0.250763
34	0.293171	0.115746	0.175743	0.144034	0.547237	0.574756	0.186131	0.424839	0.247992	0.104893	0.205689	0.220687	0.280950	0.139662	0.202650	0.388354	0.137786	0.146458	0.161460	0.247465	0.529147	0.396457	0.249974	0.432114	0.138813	0.106238	0.156691	0.124621	0.380068	0.235946	0.208344	0.316523	0.198116	0.074143	0.128650	0.284732	0.400696	0.529548	0.140669	0.249721	0.162387	0.279277	0.102742	0.279414	0.416070	0.532914	0.253307	0.221888	0.165147	0.093398	0.109043	0.308160	0.369002	0.566081	0.238928	0.586848	0.383669	0.172199	0.114738	0.265228	0.223410	0.269145	0.327256	0.204492
35	0.301147	0.132384	0.169245	0.165080	0.522799	0.578757	0.173407	0.426298	0.249338	0.102002	0.202288	0.237573	0.280366	0.119591	0.204019	0.403457	0.153770	0.152602	0.142001	0.153602	0.470457	0.423844	0.232001	0.433955	0.148604	0.105024	0.152344	0.100590	0.305921	0.248186	0.207100	0.317670	0.217878	0.077234	0.161961	0.292463	0.404637	0.529493	0.159725	0.336993	0.161200	0.280292	0.118050	0.210236	0.432840	0.541726	0.247977	0.201607	0.175218	0.116222	0.145432	0.302861	0.365652	0.540366	0.265689	0.683173	0.383951	0.167577	0.117803	0.265952	0.222445	0.304398	0.328506	0.141692
36	0.302093	0.142515	0.206899	0.311058	0.482667	0.574740	0.172425	0.426793	0.254800	0.099299	0.206578	0.199510	0.275365	0.125312	0.209544	0.445502	0.156398	0.158947	0.147918	0.132780	0.419677	0.431752	0.234397	0.441554	0.153507	0.101888	0.127911	0.103356	0.274899	0.248449	0.228374	0.318319	0.236502	0.079486	0.174926	0.283527	0.400177	0.509510	0.177113	0.344688	0.159819	0.280451	0.121994	0.187670	0.453898	0.546357	0.241785	0.170023	0.178796	0.141867	0.158158	0.306508	0.356178	0.465229	0.290125	0.709920	0.378664	0.166710	0.117313	0.268814	0.227815	0.276275	0.335937	0.132863
37	0.304021	0.146004	0.210801	0.334884	0.421719	0.547599	0.173479	0.393898	0.250972	0.099128	0.198040	0.142094	0.289161	0.119457	0.214803	0.460536	0.152760	0.167900	0.164635	0.133154	0.372335	0.437709	0.254258	0.442468	0.152334	0.101485	0.092190	0.103322	0.286402	0.245874	0.253668	0.320255	0.244405	0.078960	0.175740	0.288463	0.394412	0.455233	0.186335	0.346700	0.173488	0.278602	0.122870	0.203112	0.455063	0.546544	0.236873	0.156425	0.206376	0.141015	0.157637	0.318455	0.305875	0.444917	0.292044	0.712592	0.352748	0.164399	0.116191	0.257186	0.224591	0.268266	0.338752	0.132791
38	0.316916	0.145934	0.211784	0.336517	0.403634	0.463679	0.167865	0.347558	0.255839	0.100431	0.151864	0.141641	0.286856	0.098319	0.217971	0.499641	0.152579	0.170049	0.175072	0.122174	0.330737	0.433134	0.257606	0.455758	0.154878	0.102844	0.082274	0.100575	0.287456	0.254465	0.255413	0.320672	0.250434	0.079454	0.177353	0.293224	0.360768	0.343761	0.185273	0.347005	0.179888	0.271253	0.119954	0.223837	0.457116	0.547123	0.235391	0.104165	0.278532	0.136008	0.168624	0.321459	0.278637	0.413704	0.298113	0.714733	0.356774	0.171887	0.116575	0.247547	0.215660	0.277315	0.340248	0.143438
39	0.304817	0.142175	0.214765	0.338338	0.422108	0.372402	0.162841	0.326443	0.278645	0.105406	0.127176	0.136237	0.235661	0.095896	0.222914	0.528695	0.161945	0.172073	0.170640	0.103750	0.323877	0.404212	0.257431	0.461769	0.154672	0.102522	0.085574	0.094838	0.288021	0.276149	0.256781	0.320034	0.250904	0.084678	0.177915	0.306836	0.331563	0.351934	0.188462	0.415854	0.209590	0.261364	0.115104	0.237544	0.452187	0.543581	0.236444	0.091332	0.300992	0.171977	0.171072	0.344521	0.250961	0.341081	0.301981	0.715788	0.357371	0.201582	0.116681	0.243759	0.197009	0.269134	0.343258	0.168688
40	0.329392	0.141708	0.222054	0.338498	0.411950	0.360225	0.162455	0.335955	0.305620	0.111572	0.123628	0.145148	0.220052	0.095683	0.225702	0.534792	0.180280	0.188707	0.164372	0.085383	0.324368	0.333070	0.257147	0.471595	0.154817	0.105108	0.090680	0.087486	0.298066	0.265981	0.262634	0.313488	0.255595	0.102371	0.177697	0.313011	0.310033	0.373708	0.187883	0.498224	0.228505	0.245142	0.111933	0.246018	0.412776	0.509434	0.236093	0.093174	0.357607	0.209521	0.184801	0.377931	0.229446	0.307248	0.305573	0.716573	0.351925	0.269379	0.116983	0.226993	0.195394	0.266976	0.333201	0.164675
41	0.394321	0.156312	0.252510	0.364019	0.376001	0.318522	0.128386	0.345924	0.335144	0.137781	0.129914	0.167869	0.234741	0.100309	0.220034	0.540290	0.216579	0.213580	0.160580	0.091651	0.324978	0.280369	0.256909	0.496108	0.159474	0.125519	0.095685	0.089801	0.291217	0.288650	0.287337	0.266710	0.277288	0.135747	0.175151	0.311590	0.297504	0.344563	0.187236	0.507097	0.251955	0.234105	0.109848	0.249158	0.455266	0.438068	0.236539	0.105313	0.376581	0.282913	0.190682	0.394038	0.198064	0.300766	0.306708	0.617981	0.306459	0.279503	0.134376	0.233641	0.201359	0.266683	0.338193	0.147069
42	0.447873	0.177296	0.276439	0.391367	0.375680	0.261505	0.141342	0.298360	0.349941	0.168091	0.134539	0.167551	0.242013	0.104327	0.217524	0.541408	0.279186	0.212562	0.164182	0.092337	0.321020	0.273006	0.258071	0.504848	0.151333	0.126745	0.096284	0.109978	0.248655	0.324672	0.317101	0.230388	0.306205	0.167677	0.189677	0.316083	0.295178	0.328801	0.218977	0.507600	0.263657	0.261027	0.107448	0.252622	0.480171	0.344750	0.241284	0.141641	0.377194	0.289482	0.186180	0.395015	0.163714	0.257307	0.289593	0.558174	0.250360	0.326689	0.197886	0.211499	0.203701	0.263198	0.350358	0.151280
43	0.478668	0.188699	0.282015	0.397519	0.415809	0.236685	0.157468	0.267924	0.347737	0.175958	0.137044	0.176480	0.247818	0.110128	0.182470	0.514908	0.276727	0.213600	0.169270	0.089202	0.318389	0.255904	0.262208	0.499578	0.140184	0.149183	0.098194	0.114388	0.278191	0.331496	0.302919	0.205581	0.337128	0.186879	0.202838	0.333721	0.294081	0.320853	0.269648	0.513156	0.280836	0.235079	0.109254	0.256696	0.474514	0.324177	0.246913	0.181232	0.378020	0.289721	0.185145	0.403254	0.163909	0.208537	0.246397	0.523278	0.276653	0.333238	0.225546	0.216014	0.200380	0.262634	0.342991	0.167836
44	0.486829	0.188444	0.285884	0.401201	0.447537	0.192250	0.160284	0.257908	0.353344	0.217314	0.136962	0.179068	0.242758	0.139963	0.161572	0.451744	0.289227	0.217146	0.169249	0.085222	0.294408	0.241533	0.246657	0.442428	0.151511	0.142650	0.104613	0.123050	0.285224	0.340878	0.321874	0.205799	0.368190	0.196042	0.225150	0.354917	0.292336	0.316812	0.279035	0.521850	0.321326	0.207781	0.138701	0.319794	0.410908	0.242916	0.229877	0.182421	0.379348	0.295045	0.192380	0.397684	0.148303	0.195795	0.238746	0.508055	0.277505	0.334342	0.224210	0.200253	0.199956	0.254331	0.300736	0.177629
45	0.482823	0.182557	0.279908	0.410045	0.478336	0.177951	0.161819	0.258075	0.319175	0.213198	0.138285	0.231817	0.242956	0.155882	0.155750	0.410176	0.371285	0.240358	0.168103	0.117239	0.275710	0.247267	0.217887	0.332490	0.159409	0.138157	0.110196	0.128865	0.295645	0.336187	0.362739	0.190869	0.389213	0.195364	0.275908	0.387731	0.287743	0.312948	0.282440	0.531362	0.345659	0.227864	0.144240	0.388009	0.415569	0.210765	0.186652	0.182060	0.381779	0.314642	0.187417	0.395267	0.111215	0.149106	0.237142	0.508479	0.287602	0.334655	0.224272	0.267445	0.199193	0.241007	0.231682	0.319759
46	0.477202	0.210453	0.272204	0.437250	0.477514	0.154554	0.164441	0.251371	0.297071	0.209457	0.136272	0.327420	0.261056	0.177304	0.153430	0.414322	0.407544	0.264235	0.165137	0.149739	0.258168	0.248661	0.195818	0.321945	0.156764	0.137244	0.125194	0.132795	0.312934	0.320617	0.421027	0.173192	0.382676	0.202518	0.275315	0.388817	0.286489	0.310707	0.274278	0.534341	0.349718	0.233556	0.149079	0.397368	0.488282	0.219860	0.161309	0.184699	0.378833	0.326451	0.187237	0.397652	0.110093	0.131393	0.226091	0.465518	0.302364	0.334580	0.240844	0.341956	0.166503	0.202798	0.210780	0.448654
47	0.485973	0.240612	0.271941	0.440982	0.477954	0.141704	0.167805	0.247697	0.306869	0.233071	0.140010	0.345795	0.279082	0.197366	0.173567	0.387613	0.404812	0.266923	0.160121	0.152222	0.223850	0.231357	0.185860	0.297665	0.168318	0.163210	0.124381	0.129990	0.300715	0.316578	0.450242	0.179813	0.380994	0.212977	0.258590	0.384712	0.293398	0.311329	0.280967	0.483889	0.350649	0.229767	0.148881	0.395645	0.584946	0.258383	0.142649	0.187195	0.374243	0.329472	0.161581	0.396928	0.111775	0.126696	0.199165	0.308825	0.349831	0.337447	0.266829	0.358555	0.144868	0.141353	0.208268	0.452587
48	0.500881	0.248981	0.262732	0.439586	0.476322	0.136606	0.194571	0.244638	0.325630	0.238203	0.174272	0.340252	0.275284	0.190971	0.227495	0.347391	0.403088	0.263296	0.140264	0.165756	0.228771	0.181959	0.192351	0.292510	0.188601	0.203786	0.126086	0.129921	0.287125	0.314336	0.442129	0.195838	0.425848	0.223330	0.240213	0.379952	0.297040	0.312587	0.287759	0.464653	0.359256	0.253761	0.161749	0.397935	0.581714	0.246880	0.139540	0.182926	0.383959	0.318293	0.145627	0.420082	0.134606	0.123272	0.164537	0.222935	0.365414	0.338043	0.266914	0.364538	0.112768	0.129985	0.199834	0.453456
49	0.524350	0.251342	0.241399	0.352162	0.463859	0.134400	0.246922	0.252260	0.391294	0.298179	0.216077	0.387821	0.292686	0.193245	0.245345	0.343103	0.405721	0.258804	0.125537	0.168858	0.218236	0.174227	0.205891	0.281966	0.190420	0.205494	0.119634	0.134957	0.275542	0.314020	0.459846	0.276167	0.471168	0.251665	0.248721	0.379347	0.284491	0.305494	0.277106	0.464662	0.357603	0.278193	0.177783	0.413829	0.565553	0.235012	0.154728	0.179107	0.385334	0.318626	0.145310	0.469726	0.128947	0.113096	0.162914	0.243896	0.357668	0.337001	0.269313	0.388530	0.111291	0.101140	0.242713	0.477977
50	0.529531	0.249724	0.257468	0.322128	0.444714	0.132891	0.256878	0.273250	0.409084	0.326130	0.257655	0.458727	0.301222	0.195114	0.250936	0.278205	0.412855	0.263114	0.108324	0.187586	0.232516	0.166835	0.204808	0.270799	0.188711	0.217165	0.122956	0.133875	0.282847	0.289280	0.475810	0.348527	0.482659	0.263734	0.303647	0.387386	0.273099	0.264548	0.286252	0.465509	0.347333	0.295468	0.196497	0.426214	0.571527	0.236719	0.186251	0.206126	0.352844	0.320510	0.132705	0.537643	0.114268	0.110473	0.152898	0.346361	0.335146	0.333524	0.270324	0.414123	0.116368	0.095133	0.249476	0.530782
51	0.517318	0.257759	0.267365	0.372813	0.444862	0.122303	0.286954	0.271712	0.408802	0.331125	0.265957	0.537301	0.292634	0.213051	0.296769	0.377528	0.437311	0.295833	0.115030	0.207419	0.248583	0.162073	0.212190	0.253823	0.187881	0.245861	0.125957	0.131692	0.292351	0.261151	0.480279	0.363109	0.478671	0.263589	0.339485	0.387707	0.269350	0.231047	0.334186	0.470008	0.342109	0.295732	0.200569	0.415045	0.571611	0.238879	0.188267	0.219640	0.341689	0.306918	0.129148	0.540995	0.118275	0.117905	0.145448	0.398401	0.316965	0.311285	0.271254	0.418571	0.128400	0.131162	0.250526	0.558040
52	0.494433	0.290863	0.267289	0.414211	0.460490	0.121983	0.279903	0.249972	0.399461	0.332377	0.269356	0.574980	0.274137	0.213024	0.406852	0.427410	0.438217	0.338040	0.116262	0.266488	0.253663	0.165098	0.236375	0.322616	0.190401	0.260750	0.165033	0.156291	0.286561	0.258082	0.479058	0.364363	0.477507	0.261973	0.354681	0.393212	0.250036	0.140502	0.346643	0.386822	0.326841	0.294450	0.224777	0.410250	0.570296	0.241368	0.206088	0.240537	0.307163	0.296800	0.114339	0.529331	0.119339	0.131225	0.145168	0.425586	0.297921	0.259780	0.271739	0.441671	0.137360	0.167795	0.262773	0.559722
53	0.468912	0.329434	0.271306	0.437234	0.455806	0.123930	0.280120	0.192894	0.383050	0.335404	0.276411	0.581612	0.258008	0.209713	0.475797	0.427289	0.426828	0.351438	0.132537	0.357606	0.258045	0.158269	0.246336	0.344534	0.198739	0.255859	0.179030	0.186203	0.285918	0.199403	0.489202	0.361239	0.474007	0.258001	0.355246	0.422328	0.200489	0.117388	0.347100	0.369408	0.312388	0.288861	0.233681	0.406992	0.567401	0.234208	0.245300	0.244258	0.287619	0.272386	0.101108	0.533486	0.119681	0.137832	0.176778	0.427126	0.295296	0.242102	0.265268	0.439822	0.164698	0.193934	0.268580	0.556971
54	0.411938	0.353609	0.255241	0.439835	0.421364	0.122863	0.287388	0.193756	0.357913	0.326785	0.298463	0.576411	0.247284	0.211833	0.475442	0.421729	0.385202	0.353277	0.156910	0.367583	0.263367	0.152961	0.298354	0.309135	0.202969	0.264493	0.178202	0.183736	0.260137	0.165813	0.501751	0.367049	0.461096	0.260828	0.356190	0.439115	0.182071	0.111257	0.348113	0.402840	0.295715	0.289791	0.239401	0.431163	0.532025	0.234204	0.285005	0.276698	0.292443	0.353586	0.109115	0.534672	0.141437	0.138623	0.220465	0.426153	0.295706	0.134499	0.217701	0.440133	0.162064	0.198483	0.281095	0.555502
55	0.349478	0.366754	0.225197	0.413382	0.373518	0.122545	0.297568	0.193136	0.345031	0.311892	0.309723	0.584333	0.250295	0.207729	0.474815	0.452802	0.412139	0.351308	0.229132	0.368736	0.264814	0.152267	0.315742	0.309298	0.287858	0.258749	0.177638	0.182947	0.231482	0.156196	0.497582	0.363349	0.436834	0.268721	0.345613	0.444925	0.190066	0.123423	0.314836	0.506315	0.282982	0.276622	0.254069	0.444535	0.523922	0.234584	0.317447	0.306725	0.315605	0.442076	0.121474	0.524497	0.171241	0.139477	0.234823	0.424741	0.287326	0.135999	0.190632	0.432347	0.161832	0.198712	0.284772	0.561816
56	0.346841	0.362293	0.227825	0.427064	0.310738	0.110548	0.296374	0.239977	0.346187	0.307864	0.310856	0.595369	0.273101	0.192768	0.474948	0.477400	0.412893	0.346078	0.267656	0.374280	0.268940	0.152581	0.329259	0.311572	0.369547	0.248993	0.178736	0.191324	0.224065	0.152572	0.469260	0.367377	0.421556	0.292001	0.370687	0.434784	0.226589	0.156051	0.344862	0.561295	0.268966	0.283033	0.254484	0.443811	0.507533	0.231409	0.318228	0.318379	0.313644	0.452889	0.131839	0.500048	0.175085	0.133035	0.225255	0.427189	0.291965	0.141195	0.195947	0.428700	0.162183	0.198210	0.287093	0.558665
57	0.358254	0.364813	0.245534	0.431212	0.289123	0.095079	0.297111	0.270871	0.334503	0.297320	0.328850	0.600365	0.284546	0.213877	0.487001	0.472419	0.343231	0.315001	0.270825	0.380216	0.275232	0.134858	0.338782	0.329581	0.382552	0.251637	0.176850	0.222420	0.171620	0.167562	0.429531	0.366108	0.435863	0.308709	0.375939	0.385253	0.244249	0.172883	0.447916	0.543402	0.233121	0.296272	0.248624	0.403050	0.512906	0.233232	0.319328	0.375165	0.308715	0.474447	0.139668	0.475747	0.187624	0.187052	0.233572	0.420011	0.286820	0.141703	0.220025	0.388253	0.162087	0.198032	0.283695	0.480795
58	0.373536	0.367477	0.250706	0.422715	0.305094	0.106709	0.298270	0.285160	0.352320	0.354791	0.345693	0.591858	0.264042	0.216695	0.490888	0.465389	0.288276	0.284982	0.272599	0.387953	0.311079	0.123848	0.339407	0.359453	0.394858	0.266889	0.194965	0.274354	0.173476	0.170347	0.372894	0.365498	0.438950	0.354941	0.345602	0.337063	0.243867	0.176090	0.464609	0.554985	0.190682	0.299642	0.245718	0.321882	0.514913	0.234900	0.315487	0.444348	0.314858	0.474108	0.153066	0.471348	0.263700	0.342990	0.239914	0.431634	0.264784	0.138335	0.207481	0.351391	0.161763	0.197698	0.287040	0.418671
59	0.405138	0.367614	0.250046	0.404180	0.312979	0.113105	0.303912	0.292464	0.359276	0.421230	0.346849	0.547809	0.306186	0.221430	0.475498	0.464808	0.283224	0.278253	0.291661	0.385357	0.351128	0.123465	0.423762	0.452005	0.404922	0.267072	0.194959	0.291914	0.184037	0.186472	0.360564	0.358640	0.486085	0.358888	0.345224	0.337454	0.242624	0.175653	0.459174	0.572469	0.188084	0.289600	0.252533	0.295848	0.472428	0.223912	0.312549	0.453020	0.315392	0.471450	0.154545	0.495344	0.284596	0.391530	0.245782	0.440503	0.213752	0.136067	0.187812	0.343813	0.182867	0.201358	0.302850	0.438983
60	0.406119	0.356765	0.253503	0.405501	0.313253	0.115518	0.286699	0.316905	0.349977	0.427439	0.345443	0.531836	0.359149	0.250947	0.460100	0.468125	0.287984	0.288239	0.313378	0.380152	0.407139	0.123460	0.497678	0.482228	0.386198	0.237870	0.214280	0.310185	0.196600	0.185568	0.335241	0.325474	0.499250	0.428199	0.346902	0.360468	0.252037	0.177983	0.441552	0.577731	0.202593	0.292429	0.247681	0.296771	0.330598	0.148584	0.330974	0.457766	0.306999	0.475366	0.155073	0.519301	0.286831	0.429741	0.250858	0.444472	0.236693	0.152119	0.186884	0.334045	0.191382	0.205556	0.322281	0.438682
61	0.383264	0.346725	0.256485	0.420716	0.311709	0.114933	0.246735	0.313615	0.336466	0.426572	0.332140	0.528897	0.345909	0.250806	0.463040	0.458394	0.297198	0.301024	0.312749	0.386721	0.480879	0.119024	0.504766	0.488300	0.382367	0.233546	0.284009	0.308844	0.199875	0.186479	0.312458	0.249942	0.443451	0.450944	0.346767	0.452633	0.290823	0.190501	0.438244	0.577956	0.239101	0.273909	0.249132	0.288911	0.309993	0.130028	0.367364	0.462637	0.303269	0.480508	0.212295	0.510253	0.296142	0.495433	0.251887	0.438621	0.258231	0.163842	0.190512	0.308139	0.200404	0.208677	0.302017	0.401900
62	0.356601	0.340663	0.272282	0.457962	0.299524	0.115954	0.238644	0.300854	0.256139	0.397754	0.319485	0.498011	0.356162	0.250863	0.455625	0.419839	0.288510	0.296692	0.307904	0.400017	0.514476	0.110171	0.492140	0.488838	0.385998	0.229894	0.314119	0.344161	0.190891	0.195825	0.300820	0.182640	0.400796	0.467026	0.328435	0.451567	0.324114	0.204189	0.437279	0.577922	0.253925	0.248012	0.268686	0.285526	0.314104	0.129488	0.399624	0.470999	0.295794	0.482215	0.258438	0.436241	0.298905	0.507734	0.252163	0.362367	0.283722	0.170447	0.195693	0.286143	0.200761	0.221843	0.300178	0.318657
63	0.367060	0.349694	0.280445	0.468017	0.284372	0.118636	0.212040	0.301980	0.227652	0.372189	0.311347	0.439340	0.359804	0.249429	0.402559	0.311349	0.251412	0.266658	0.307742	0.420527	0.540541	0.091925	0.493069	0.492173	0.399196	0.207552	0.324419	0.365192	0.172694	0.213637	0.285140	0.176158	0.399842	0.491785	0.277589	0.464422	0.335873	0.209477	0.411894	0.571762	0.252378	0.225327	0.258012	0.290884	0.341176	0.131562	0.399735	0.475143	0.288996	0.481975	0.265894	0.423437	0.297582	0.514088	0.257833	0.334866	0.307792	0.179970	0.202197	0.276636	0.199842	0.213197	0.312371	0.287802
64	0.366965	0.361599	0.293277	0.432684	0.273125	0.121353	0.208374	0.300279	0.224670	0.367185	0.321235	0.334809	0.366710	0.252983	0.283073	0.288852	0.234756	0.205605	0.307550	0.399104	0.548693	0.091639	0.491819	0.511753	0.422114	0.174932	0.350473	0.379340	0.239455	0.209105	0.288409	0.157846	0.416746	0.514338	0.265113	0.461178	0.336840	0.209936	0.393648	0.565826	0.246228	0.226564	0.255800	0.289514	0.432901	0.147949	0.411372	0.473552	0.287118	0.481328	0.265195	0.427749	0.305238	0.518581	0.301697	0.299385	0.309164	0.177387	0.207557	0.240334	0.200265	0.204728	0.298002	0.301080
65	0.366880	0.361451	0.336539	0.387535	0.263620	0.120325	0.205577	0.298888	0.240553	0.365079	0.326991	0.252014	0.365618	0.248560	0.244174	0.290553	0.224798	0.149619	0.301370	0.340691	0.546354	0.084051	0.485011	0.493690	0.426776	0.180725	0.337663	0.364145	0.282084	0.193637	0.222181	0.132844	0.420439	0.523477	0.282029	0.461257	0.339781	0.214178	0.393404	0.555635	0.270123	0.224210	0.234758	0.286980	0.480642	0.155195	0.415492	0.464415	0.273839	0.461317	0.267040	0.459456	0.308453	0.517389	0.322824	0.300313	0.304045	0.174857	0.194761	0.247876	0.177872	0.234735	0.275404	0.307931
66	0.376923	0.332333	0.360689	0.424087	0.263944	0.124596	0.181551	0.316333	0.285645	0.364563	0.358284	0.228939	0.362737	0.251983	0.253034	0.270827	0.230357	0.161530	0.291584	0.334349	0.549417	0.083474	0.474302	0.485652	0.441944	0.181977	0.343748	0.368282	0.300036	0.181904	0.220913	0.112406	0.426837	0.519589	0.291573	0.435619	0.345870	0.222155	0.392928	0.531570	0.312120	0.222865	0.232027	0.283961	0.505616	0.160478	0.396763	0.465597	0.286439	0.400030	0.283140	0.498459	0.302381	0.518788	0.300833	0.308241	0.292662	0.171608	0.223759	0.250876	0.205648	0.252844	0.252796	0.307165
67	0.381523	0.329699	0.357547	0.441410	0.259475	0.125427	0.164337	0.321375	0.312571	0.366854	0.345815	0.224658	0.368552	0.255748	0.284374	0.202461	0.180067	0.168998	0.248448	0.335346	0.556213	0.092559	0.444369	0.485396	0.430084	0.163662	0.367735	0.397870	0.297591	0.179467	0.226236	0.101088	0.450683	0.514580	0.293719	0.438695	0.354958	0.223212	0.391948	0.487346	0.315743	0.230575	0.226156	0.255712	0.522274	0.165279	0.368786	0.448270	0.293171	0.302806	0.375593	0.502223	0.286743	0.519807	0.288375	0.311905	0.288881	0.169306	0.369798	0.274992	0.223810	0.326878	0.244388	0.304049
68	0.420327	0.312411	0.354707	0.443068	0.241929	0.131166	0.168618	0.283391	0.314629	0.368574	0.336855	0.209973	0.355563	0.244792	0.301321	0.182382	0.166944	0.171164	0.202704	0.332263	0.553337	0.096072	0.434716	0.483051	0.353812	0.177637	0.376100	0.404225	0.324294	0.167500	0.263338	0.090981	0.483089	0.514377	0.332333	0.457038	0.337943	0.198398	0.389188	0.371853	0.317053	0.227371	0.216369	0.259689	0.506969	0.160775	0.348599	0.436142	0.294743	0.295013	0.394420	0.505994	0.284011	0.520292	0.282540	0.305885	0.289433	0.174866	0.420432	0.289811	0.224125	0.353378	0.233205	0.312003
69	0.432934	0.309069	0.353083	0.432139	0.217673	0.175560	0.164391	0.270632	0.316356	0.369096	0.334482	0.170514	0.369155	0.224202	0.283956	0.187374	0.172300	0.171657	0.198921	0.320123	0.561734	0.117335	0.419114	0.479297	0.305198	0.188248	0.377445	0.397161	0.327004	0.161494	0.272554	0.105178	0.490688	0.511420	0.334029	0.462322	0.322318	0.181197	0.260489	0.376403	0.327948	0.208345	0.216415	0.284620	0.492814	0.156911	0.344184	0.426187	0.287174	0.248283	0.398271	0.504064	0.310454	0.510135	0.274873	0.313090	0.289228	0.178409	0.410057	0.263504	0.225127	0.358997	0.237067	0.316552
70	0.432932	0.304803	0.375932	0.431838	0.192084	0.190817	0.159931	0.247231	0.313216	0.360927	0.327315	0.165494	0.367256	0.220637	0.280753	0.185473	0.175897	0.171566	0.207123	0.297751	0.572448	0.169324	0.409080	0.469377	0.307319	0.175822	0.371276	0.364763	0.319478	0.143736	0.274426	0.135351	0.474476	0.505145	0.386050	0.463029	0.318461	0.177147	0.211579	0.372205	0.407092	0.179667	0.231597	0.286251	0.483191	0.154278	0.343247	0.380969	0.286576	0.236627	0.391791	0.496111	0.256047	0.426256	0.269749	0.341732	0.288887	0.180901	0.408900	0.247230	0.224298	0.359954	0.232024	0.314367
71	0.428220	0.301736	0.409655	0.440831	0.181720	0.185581	0.156053	0.246375	0.293281	0.305751	0.336980	0.175100	0.292173	0.186765	0.271512	0.176602	0.179055	0.173976	0.187765	0.302703	0.552864	0.177129	0.391259	0.422726	0.295884	0.160099	0.363126	0.342749	0.322408	0.141443	0.276291	0.166156	0.463798	0.482240	0.404549	0.466264	0.324743	0.184318	0.249218	0.329079	0.447776	0.133307	0.279220	0.281174	0.483301	0.155242	0.353303	0.302053	0.297381	0.228312	0.391997	0.480064	0.226381	0.373028	0.268339	0.380927	0.276940	0.174417	0.440288	0.242225	0.201063	0.357211	0.210052	0.299282
72	0.422546	0.281421	0.412611	0.446168	0.182678	0.188074	0.159576	0.225730	0.293879	0.200703	0.367292	0.167031	0.273428	0.198315	0.259844	0.166364	0.186768	0.170751	0.145161	0.307049	0.526457	0.182865	0.270075	0.339244	0.317220	0.160725	0.360209	0.322430	0.315683	0.143648	0.266873	0.185594	0.403248	0.465065	0.408017	0.464984	0.317465	0.200035	0.266485	0.318053	0.455194	0.125302	0.286868	0.313248	0.470983	0.179585	0.363713	0.295493	0.294762	0.225525	0.403939	0.467608	0.227112	0.354637	0.262253	0.379986	0.254047	0.160066	0.456988	0.257635	0.195853	0.355609	0.178861	0.300295
73	0.424983	0.264555	0.429466	0.441813	0.188372	0.190120	0.160209	0.220735	0.308328	0.152297	0.384018	0.197302	0.300114	0.311644	0.251477	0.151360	0.178021	0.150774	0.140778	0.303988	0.471072	0.193405	0.144090	0.312180	0.324048	0.156117	0.318096	0.317853	0.323372	0.169496	0.265346	0.182630	0.393088	0.398808	0.416997	0.439967	0.281459	0.205578	0.274158	0.321236	0.452695	0.117966	0.286505	0.376395	0.468550	0.260477	0.354119	0.296334	0.280641	0.228866	0.383738	0.484493	0.208053	0.245238	0.271367	0.375650	0.240265	0.147401	0.475231	0.277987	0.200815	0.363401	0.184589	0.299109
74	0.431949	0.260544	0.437623	0.467356	0.175051	0.189914	0.150570	0.215947	0.316063	0.153502	0.381479	0.203014	0.297462	0.316635	0.231505	0.140208	0.191406	0.155367	0.149658	0.292371	0.405030	0.206804	0.124425	0.319881	0.323581	0.162592	0.266121	0.309759	0.325642	0.177071	0.263935	0.204011	0.386991	0.368932	0.433578	0.391928	0.220260	0.197731	0.281988	0.339727	0.431714	0.115198	0.286814	0.455420	0.469772	0.307558	0.318120	0.290887	0.271770	0.221498	0.367520	0.528838	0.200749	0.216659	0.274485	0.374227	0.215353	0.130308	0.490230	0.281157	0.217721	0.357967	0.182411	0.296578
75	0.426720	0.260029	0.426282	0.440487	0.170000	0.215828	0.139769	0.209562	0.314021	0.132973	0.368554	0.224128	0.295452	0.393605	0.222444	0.136724	0.191017	0.159215	0.146017	0.247238	0.364399	0.230190	0.128847	0.326024	0.324973	0.162232	0.263295	0.270657	0.328010	0.167270	0.263973	0.227784	0.383177	0.329121	0.461032	0.382212	0.199539	0.190230	0.286645	0.340659	0.420407	0.114714	0.271593	0.475484	0.468933	0.318593	0.270177	0.277135	0.261583	0.217054	0.374670	0.529842	0.200758	0.193188	0.271996	0.356075	0.218006	0.114583	0.486770	0.274895	0.221053	0.357174	0.156940	0.288350
76	0.409435	0.248529	0.410069	0.426514	0.165570	0.214122	0.140503	0.212109	0.308682	0.129416	0.348111	0.263688	0.299699	0.424168	0.217943	0.150687	0.192081	0.153750	0.151398	0.236752	0.316652	0.233117	0.118113	0.311967	0.325619	0.167196	0.229792	0.253470	0.283876	0.179143	0.233867	0.244828	0.373903	0.296368	0.490094	0.351633	0.211826	0.188879	0.287761	0.320916	0.424166	0.114451	0.305825	0.453541	0.445999	0.358196	0.245417	0.252350	0.247278	0.213149	0.375763	0.519462	0.195376	0.168014	0.224809	0.354308	0.231890	0.114369	0.493915	0.269757	0.212159	0.341550	0.156215	0.274061
77	0.411705	0.224705	0.393760	0.426801	0.212353	0.213128	0.139260	0.211885	0.306985	0.129215	0.331072	0.341569	0.302102	0.435549	0.199929	0.144716	0.198367	0.155086	0.153824	0.202030	0.329814	0.247074	0.098008	0.271769	0.348155	0.169434	0.218659	0.237249	0.259770	0.180968	0.204911	0.271172	0.362007	0.258578	0.477555	0.346379	0.213418	0.187275	0.292239	0.313103	0.435319	0.117449	0.340708	0.453980	0.361379	0.367804	0.231422	0.242407	0.241367	0.203255	0.374300	0.473705	0.201025	0.164701	0.157092	0.352244	0.232547	0.116925	0.505272	0.264016	0.213275	0.315400	0.156107	0.272709
78	0.412925	0.182617	0.364585	0.427731	0.237344	0.211262	0.133442	0.172619	0.289782	0.132507	0.334137	0.369868	0.295944	0.443404	0.189666	0.142518	0.208581	0.221672	0.152445	0.182324	0.398019	0.271714	0.125618	0.255210	0.367551	0.164403	0.215133	0.253353	0.254652	0.180650	0.199607	0.278655	0.384038	0.251026	0.487078	0.331642	0.210987	0.179250	0.296159	0.338418	0.436002	0.127489	0.342107	0.456672	0.300579	0.378692	0.232713	0.241636	0.234687	0.204181	0.364480	0.424610	0.201768	0.161041	0.139876	0.349982	0.231495	0.111967	0.497072	0.260289	0.222396	0.292889	0.151392	0.266155
79	0.406194	0.169415	0.330082	0.377722	0.243823	0.210878	0.130923	0.160691	0.243615	0.133060	0.306023	0.371650	0.279962	0.446809	0.154466	0.202728	0.202533	0.269309	0.137438	0.184904	0.419616	0.282115	0.135224	0.254627	0.375605	0.166947	0.183745	0.255567	0.233785	0.171514	0.165862	0.281823	0.394839	0.250473	0.510714	0.337008	0.194306	0.164993	0.289512	0.358577	0.423836	0.135894	0.340243	0.459923	0.293451	0.393745	0.242992	0.238277	0.226626	0.200770	0.268003	0.427482	0.199341	0.162748	0.142043	0.349732	0.228306	0.098155	0.403084	0.219065	0.253630	0.230617	0.148715	0.249630
80	0.400265	0.107700	0.325705	0.348282	0.244353	0.205513	0.132909	0.155994	0.223515	0.127042	0.311377	0.379126	0.270393	0.445265	0.188098	0.205384	0.201884	0.276900	0.143242	0.180368	0.412344	0.288150	0.167173	0.260898	0.392535	0.168391	0.193551	0.228336	0.213058	0.166372	0.121219	0.280704	0.376962	0.232828	0.532128	0.331051	0.208640	0.178935	0.284329	0.343779	0.425445	0.121766	0.340592	0.456284	0.288002	0.403821	0.254558	0.237984	0.238112	0.180618	0.223033	0.422759	0.199274	0.189082	0.159227	0.350792	0.217112	0.071399	0.369604	0.195706	0.259226	0.210474	0.148447	0.223063
81	0.363254	0.052416	0.325781	0.354528	0.249737	0.180323	0.157090	0.143381	0.241884	0.133489	0.311320	0.387585	0.251563	0.439791	0.206425	0.222504	0.209681	0.317249	0.142686	0.183748	0.424813	0.289881	0.213576	0.289789	0.404079	0.161402	0.283971	0.239491	0.214899	0.166679	0.122121	0.277982	0.346451	0.193359	0.520931	0.317777	0.221153	0.195812	0.308821	0.314019	0.424670	0.103659	0.336846	0.439886	0.316224	0.413039	0.287432	0.210975	0.238013	0.154400	0.204785	0.423564	0.164138	0.198936	0.169264	0.342189	0.215288	0.063976	0.369194	0.211545	0.282244	0.222018	0.144179	0.180753
82	0.303714	0.050518	0.326773	0.342820	0.250061	0.167197	0.183973	0.138653	0.231997	0.131315	0.310715	0.387043	0.247488	0.442613	0.210043	0.230748	0.267162	0.321427	0.128789	0.183451	0.444333	0.278017	0.276934	0.311977	0.404154	0.156200	0.338541	0.248908	0.229520	0.170140	0.111857	0.269645	0.312707	0.153962	0.499008	0.318376	0.220844	0.187198	0.315501	0.301402	0.418018	0.104176	0.340584	0.425183	0.349238	0.420105	0.311768	0.176686	0.227873	0.148126	0.203523	0.433379	0.152016	0.199703	0.171804	0.334199	0.214634	0.057767	0.357820	0.289282	0.293390	0.243719	0.143806	0.150802
83	0.276333	0.046345	0.304774	0.326545	0.256111	0.167679	0.175986	0.128471	0.228528	0.128390	0.305912	0.405595	0.259543	0.455498	0.212456	0.235640	0.276924	0.326434	0.121696	0.180974	0.445489	0.252044	0.295207	0.484924	0.394970	0.156288	0.342389	0.265198	0.235748	0.170602	0.107080	0.246998	0.294707	0.155467	0.446149	0.311437	0.217141	0.186388	0.279520	0.294408	0.331938	0.105396	0.338330	0.424300	0.386898	0.424986	0.320414	0.179562	0.215750	0.145392	0.202869	0.437096	0.159759	0.222537	0.179402	0.359430	0.203675	0.059409	0.312418	0.336147	0.293420	0.247283	0.135534	0.196421
84	0.277434	0.041577	0.253012	0.339569	0.268577	0.162714	0.177299	0.093831	0.228679	0.130666	0.274771	0.485284	0.201366	0.402440	0.234264	0.257817	0.271014	0.326704	0.120158	0.184257	0.464542	0.249548	0.298032	0.564529	0.377329	0.154409	0.346403	0.273858	0.234046	0.160521	0.116905	0.243416	0.301296	0.182117	0.439984	0.304106	0.200800	0.171240	0.273777	0.273799	0.281344	0.115669	0.301963	0.433169	0.405317	0.425570	0.310531	0.212135	0.212001	0.142818	0.186947	0.404714	0.146426	0.206632	0.195607	0.395488	0.197331	0.059178	0.298730	0.319484	0.299269	0.241008	0.114126	0.216934
85	0.268080	0.043229	0.260575	0.344169	0.285460	0.163765	0.177845	0.090209	0.213966	0.147173	0.235742	0.531789	0.187651	0.362792	0.258075	0.260053	0.266926	0.330056	0.117959	0.199200	0.476692	0.247148	0.305192	0.598276	0.366545	0.148993	0.347905	0.276308	0.228439	0.122104	0.121133	0.242878	0.310211	0.202113	0.449145	0.296133	0.194769	0.152618	0.267860	0.264261	0.275450	0.125691	0.283566	0.445645	0.406652	0.414646	0.295373	0.249254	0.216462	0.124487	0.180330	0.331461	0.147914	0.195376	0.189342	0.401263	0.189134	0.059406	0.250324	0.325918	0.307818	0.226904	0.081557	0.218369
86	0.275027	0.055602	0.328257	0.349429	0.289854	0.159121	0.210671	0.096395	0.208958	0.149086	0.217080	0.530809	0.174099	0.331281	0.266435	0.256613	0.267016	0.329567	0.116882	0.176826	0.487176	0.330965	0.314450	0.614149	0.368190	0.140314	0.351137	0.339333	0.233889	0.127146	0.111501	0.217629	0.312194	0.205185	0.473213	0.285065	0.195159	0.147344	0.263112	0.247232	0.278260	0.131853	0.288305	0.439963	0.409610	0.374118	0.295013	0.272285	0.229246	0.130539	0.156950	0.255446	0.172634	0.233588	0.185444	0.399486	0.172554	0.060032	0.229850	0.353737	0.316751	0.208370	0.072752	0.215558
87	0.289409	0.074698	0.420736	0.300399	0.285566	0.119697	0.232816	0.108760	0.223774	0.145340	0.219027	0.542892	0.158026	0.241523	0.270598	0.251118	0.266805	0.327562	0.127910	0.170663	0.530478	0.489074	0.343784	0.614444	0.374141	0.137793	0.354401	0.359317	0.204277	0.175218	0.088990	0.204746	0.320884	0.210719	0.480040	0.292509	0.202422	0.168070	0.267121	0.229242	0.277458	0.137488	0.286249	0.360656	0.424377	0.339577	0.300845	0.271702	0.241062	0.127511	0.120501	0.229176	0.184977	0.255199	0.199211	0.395251	0.140460	0.059214	0.231760	0.416589	0.347120	0.211980	0.101810	0.211865
88	0.307444	0.096823	0.496162	0.281173	0.277753	0.119394	0.238864	0.101681	0.228802	0.148030	0.219020	0.535285	0.147753	0.204707	0.269791	0.238973	0.272842	0.327280	0.129329	0.169827	0.581920	0.540198	0.361113	0.613301	0.365776	0.139464	0.345903	0.374041	0.197519	0.191666	0.093230	0.173727	0.314672	0.207322	0.455605	0.303202	0.192944	0.170743	0.267331	0.263223	0.277998	0.138236	0.288443	0.315672	0.434245	0.338191	0.301232	0.275610	0.261755	0.117261	0.118972	0.223767	0.183597	0.273280	0.204866	0.411802	0.118379	0.056354	0.231506	0.438394	0.408187	0.239929	0.125137	0.222308
89	0.313623	0.113968	0.534775	0.282764	0.237922	0.120091	0.242054	0.105812	0.232078	0.148500	0.224207	0.523298	0.166234	0.176989	0.267953	0.236723	0.270274	0.323871	0.132769	0.169056	0.603227	0.548113	0.365822	0.627626	0.342642	0.132400	0.335866	0.378598	0.215910	0.213431	0.099259	0.155619	0.311196	0.198520	0.429214	0.318323	0.211258	0.190355	0.258737	0.288902	0.276961	0.136130	0.252922	0.315635	0.440188	0.298189	0.300297	0.277436	0.294295	0.123169	0.125234	0.226193	0.175341	0.275672	0.208168	0.428568	0.118224	0.051119	0.227608	0.439232	0.458890	0.297015	0.126741	0.223817
90	0.309947	0.114909	0.537761	0.311005	0.216347	0.148508	0.240389	0.106814	0.315229	0.153650	0.239212	0.483084	0.186743	0.152118	0.255278	0.199823	0.267171	0.278875	0.135469	0.169901	0.618029	0.555192	0.367115	0.626025	0.307511	0.125107	0.334329	0.378309	0.257700	0.284969	0.101819	0.145824	0.307865	0.220218	0.421740	0.343172	0.217932	0.198249	0.254176	0.286570	0.262264	0.128673	0.201534	0.318637	0.447002	0.277258	0.294210	0.275590	0.300359	0.122467	0.125852	0.225573	0.172597	0.275181	0.208795	0.427909	0.122402	0.053781	0.196144	0.452469	0.463100	0.350598	0.125940	0.225651
91	0.333323	0.118474	0.575738	0.318536	0.211642	0.213784	0.247725	0.104924	0.342112	0.154759	0.261995	0.467781	0.196879	0.143931	0.221681	0.175906	0.276274	0.220561	0.154708	0.171909	0.617636	0.546204	0.358686	0.617465	0.274425	0.115742	0.333146	0.350880	0.267416	0.294471	0.101935	0.144626	0.331139	0.273876	0.393115	0.346077	0.219151	0.214300	0.254294	0.257656	0.232770	0.118097	0.208605	0.314558	0.458459	0.258213	0.273137	0.275063	0.270650	0.111548	0.134575	0.206917	0.181652	0.273369	0.207007	0.420858	0.153563	0.060538	0.200115	0.462662	0.450444	0.352015	0.123863	0.229744
92	0.352221	0.121529	0.638803	0.316929	0.210156	0.221526	0.257538	0.106938	0.353922	0.148047	0.274134	0.470807	0.198473	0.155463	0.189626	0.162332	0.272698	0.212156	0.171080	0.171459	0.604301	0.552524	0.354145	0.617473	0.238664	0.103354	0.322589	0.345877	0.267493	0.296064	0.096367	0.146603	0.337016	0.312091	0.357668	0.334139	0.211972	0.220049	0.252755	0.251660	0.195818	0.107526	0.208875	0.310133	0.456171	0.237280	0.257657	0.270933	0.251861	0.105686	0.138981	0.208416	0.186883	0.255849	0.195873	0.418915	0.184534	0.061552	0.196260	0.470131	0.450000	0.346779	0.123380	0.230379
93	0.366377	0.120902	0.656830	0.284888	0.203512	0.209988	0.266102	0.112275	0.349035	0.142443	0.257473	0.468441	0.209193	0.151315	0.184529	0.145321	0.270933	0.140281	0.178553	0.166706	0.604425	0.561870	0.338335	0.608368	0.216773	0.086813	0.265390	0.336781	0.256591	0.296419	0.095847	0.127329	0.320568	0.314826	0.319980	0.323593	0.189221	0.212956	0.228986	0.252247	0.186203	0.118882	0.208287	0.308389	0.455496	0.228556	0.249066	0.271241	0.253810	0.106867	0.142640	0.206911	0.189100	0.246914	0.185684	0.416609	0.203849	0.062484	0.192855	0.463630	0.443837	0.336776	0.117319	0.221688
94	0.374162	0.120328	0.657101	0.294866	0.205192	0.208856	0.259130	0.118453	0.349955	0.134002	0.250778	0.471600	0.205008	0.141695	0.180310	0.141314	0.244839	0.133949	0.180568	0.157036	0.591304	0.564166	0.301988	0.597405	0.204912	0.075325	0.148450	0.329416	0.237130	0.294450	0.095312	0.126391	0.325067	0.324636	0.307903	0.305569	0.190463	0.224206	0.186877	0.246185	0.195363	0.184391	0.205368	0.306673	0.437257	0.220467	0.195460	0.269227	0.255234	0.107358	0.143433	0.182877	0.235870	0.247851	0.182549	0.384612	0.224606	0.060284	0.190891	0.410029	0.444653	0.323961	0.116949	0.204388
95	0.377630	0.120434	0.654661	0.344027	0.196562	0.209821	0.252705	0.126649	0.350019	0.131872	0.253211	0.479099	0.219917	0.122230	0.171721	0.111900	0.260404	0.117466	0.179508	0.150576	0.566061	0.563824	0.251016	0.565668	0.206076	0.074233	0.101598	0.318047	0.225559	0.292712	0.091617	0.126330	0.344667	0.333094	0.316947	0.301198	0.214696	0.237729	0.181961	0.228330	0.211685	0.260107	0.200202	0.300336	0.441410	0.211494	0.136928	0.266861	0.255737	0.109177	0.142320	0.149883	0.259822	0.236020	0.165494	0.290202	0.224821	0.061141	0.190624	0.386600	0.459987	0.326617	0.118324	0.141255
96	0.376958	0.120780	0.645362	0.351046	0.178309	0.210904	0.253393	0.129228	0.351304	0.131922	0.250902	0.469605	0.219329	0.137475	0.126179	0.077350	0.278642	0.109739	0.181110	0.138118	0.553227	0.565317	0.239921	0.418133	0.206309	0.074255	0.092787	0.302034	0.225563	0.293116	0.068528	0.120911	0.353155	0.324106	0.317022	0.299095	0.214299	0.257303	0.162013	0.227859	0.211040	0.276274	0.183377	0.295969	0.427561	0.218077	0.121041	0.262772	0.256980	0.104382	0.131802	0.149583	0.263604	0.229788	0.143652	0.224926	0.228128	0.062097	0.189567	0.385519	0.492572	0.362947	0.118671	0.122899
97	0.372290	0.123187	0.639781	0.332738	0.157014	0.216618	0.262455	0.147506	0.350681	0.131996	0.253083	0.388266	0.216441	0.150301	0.089264	0.078662	0.295475	0.105162	0.200091	0.098836	0.534305	0.570763	0.233246	0.329822	0.210998	0.076169	0.080607	0.304642	0.214525	0.291951	0.066880	0.117024	0.344971	0.307764	0.315344	0.308872	0.216721	0.266696	0.147018	0.229543	0.192343	0.275821	0.179020	0.285064	0.401702	0.223047	0.124359	0.238154	0.261837	0.098512	0.128094	0.141363	0.262992	0.238059	0.124996	0.206498	0.225106	0.061566	0.188720	0.358614	0.493164	0.396853	0.120627	0.135158
98	0.371931	0.128416	0.635755	0.305578	0.142660	0.218647	0.240160	0.169213	0.349793	0.112104	0.253705	0.309171	0.216436	0.153810	0.076233	0.078677	0.304131	0.106801	0.207027	0.103436	0.528965	0.566405	0.222953	0.266364	0.213023	0.078661	0.077941	0.270425	0.211359	0.273209	0.064155	0.110408	0.333016	0.298392	0.282032	0.306783	0.223757	0.274294	0.148723	0.237457	0.176396	0.295856	0.176669	0.241475	0.396548	0.224953	0.125892	0.209626	0.269657	0.088881	0.120918	0.103383	0.248074	0.210143	0.121185	0.205631	0.219918	0.062000	0.187047	0.316854	0.480623	0.398557	0.128251	0.142172
99	0.362659	0.130986	0.595960	0.299052	0.127985	0.218306	0.226499	0.173435	0.341571	0.101077	0.244134	0.296697	0.234008	0.154391	0.069538	0.078965	0.303373	0.107525	0.198769	0.103883	0.508120	0.494350	0.201796	0.227125	0.210768	0.077359	0.048957	0.186371	0.205961	0.239408	0.059502	0.098767	0.329855	0.296151	0.219692	0.280883	0.215995	0.260040	0.132495	0.246146	0.172473	0.323819	0.167584	0.120516	0.394825	0.223781	0.115205	0.234539	0.279517	0.087108	0.114584	0.104013	0.240399	0.179980	0.103154	0.198948	0.256527	0.071532	0.176947	0.234354	0.457757	0.394715	0.125765	0.138481
100	0.351126	0.129740	0.539727	0.321289	0.110586	0.217565	0.217811	0.177394	0.323247	0.098105	0.233605	0.270593	0.274718	0.171149	0.073540	0.078850	0.298924	0.106922	0.192536	0.104251	0.469777	0.343243	0.138669	0.213453	0.185929	0.063195	0.066710	0.161765	0.203927	0.233408	0.052603	0.113313	0.320166	0.291368	0.188451	0.268832	0.223680	0.260592	0.110517	0.235904	0.234679	0.326181	0.153587	0.097130	0.425667	0.227641	0.104519	0.276038	0.285797	0.089495	0.109583	0.105286	0.242458	0.180528	0.080087	0.144428	0.266140	0.071082	0.139518	0.215637	0.419574	0.372954	0.118527	0.120642
101	0.334903	0.117125	0.484414	0.346444	0.114055	0.214276	0.216284	0.182898	0.320111	0.093931	0.233591	0.264633	0.276425	0.190257	0.069690	0.067655	0.297284	0.104368	0.191139	0.106707	0.465054	0.344125	0.083715	0.208244	0.162958	0.051614	0.078196	0.143765	0.133165	0.162804	0.042502	0.131507	0.315225	0.291651	0.186744	0.266438	0.219046	0.255556	0.098526	0.210736	0.307973	0.326121	0.116591	0.096633	0.640927	0.221452	0.114662	0.275520	0.276865	0.123674	0.102121	0.098119	0.243249	0.175204	0.069770	0.065013	0.283596	0.064896	0.097811	0.234662	0.364805	0.317080	0.119358	0.108800
