	174_P_T1_sh_L_ND_A_01.c3d	174_P_T1_sh_L_ND_A_01.c3d	174_P_T1_sh_L_ND_A_01.c3d	174_P_T1_sh_L_ND_A_01.c3d	174_P_T1_sh_L_ND_A_01.c3d	174_P_T1_sh_L_ND_A_01.c3d	174_P_T1_sh_L_ND_A_01.c3d	174_P_T1_sh_L_ND_A_01.c3d	174_P_T1_sh_L_ND_A_02.c3d	174_P_T1_sh_L_ND_A_02.c3d	174_P_T1_sh_L_ND_A_02.c3d	174_P_T1_sh_L_ND_A_02.c3d	174_P_T1_sh_L_ND_A_02.c3d	174_P_T1_sh_L_ND_A_02.c3d	174_P_T1_sh_L_ND_A_02.c3d	174_P_T1_sh_L_ND_A_02.c3d	174_P_T1_sh_L_ND_A_03.c3d	174_P_T1_sh_L_ND_A_03.c3d	174_P_T1_sh_L_ND_A_03.c3d	174_P_T1_sh_L_ND_A_03.c3d	174_P_T1_sh_L_ND_A_03.c3d	174_P_T1_sh_L_ND_A_03.c3d	174_P_T1_sh_L_ND_A_03.c3d	174_P_T1_sh_L_ND_A_03.c3d	174_P_T1_sh_L_ND_A_04.c3d	174_P_T1_sh_L_ND_A_04.c3d	174_P_T1_sh_L_ND_A_04.c3d	174_P_T1_sh_L_ND_A_04.c3d	174_P_T1_sh_L_ND_A_04.c3d	174_P_T1_sh_L_ND_A_04.c3d	174_P_T1_sh_L_ND_A_04.c3d	174_P_T1_sh_L_ND_A_04.c3d	174_P_T1_sh_L_ND_A_05.c3d	174_P_T1_sh_L_ND_A_05.c3d	174_P_T1_sh_L_ND_A_05.c3d	174_P_T1_sh_L_ND_A_05.c3d	174_P_T1_sh_L_ND_A_05.c3d	174_P_T1_sh_L_ND_A_05.c3d	174_P_T1_sh_L_ND_A_05.c3d	174_P_T1_sh_L_ND_A_05.c3d	174_P_T1_sh_L_ND_A_06.c3d	174_P_T1_sh_L_ND_A_06.c3d	174_P_T1_sh_L_ND_A_06.c3d	174_P_T1_sh_L_ND_A_06.c3d	174_P_T1_sh_L_ND_A_06.c3d	174_P_T1_sh_L_ND_A_06.c3d	174_P_T1_sh_L_ND_A_06.c3d	174_P_T1_sh_L_ND_A_06.c3d	174_P_T1_sh_L_ND_A_07.c3d	174_P_T1_sh_L_ND_A_07.c3d	174_P_T1_sh_L_ND_A_07.c3d	174_P_T1_sh_L_ND_A_07.c3d	174_P_T1_sh_L_ND_A_07.c3d	174_P_T1_sh_L_ND_A_07.c3d	174_P_T1_sh_L_ND_A_07.c3d	174_P_T1_sh_L_ND_A_07.c3d	174_P_T1_sh_L_ND_A_08.c3d	174_P_T1_sh_L_ND_A_08.c3d	174_P_T1_sh_L_ND_A_08.c3d	174_P_T1_sh_L_ND_A_08.c3d	174_P_T1_sh_L_ND_A_08.c3d	174_P_T1_sh_L_ND_A_08.c3d	174_P_T1_sh_L_ND_A_08.c3d	174_P_T1_sh_L_ND_A_08.c3d	174_P_T1_sh_L_ND_A_09.c3d	174_P_T1_sh_L_ND_A_09.c3d	174_P_T1_sh_L_ND_A_09.c3d	174_P_T1_sh_L_ND_A_09.c3d	174_P_T1_sh_L_ND_A_09.c3d	174_P_T1_sh_L_ND_A_09.c3d	174_P_T1_sh_L_ND_A_09.c3d	174_P_T1_sh_L_ND_A_09.c3d	174_P_T1_sh_L_ND_A_10.c3d	174_P_T1_sh_L_ND_A_10.c3d	174_P_T1_sh_L_ND_A_10.c3d	174_P_T1_sh_L_ND_A_10.c3d	174_P_T1_sh_L_ND_A_10.c3d	174_P_T1_sh_L_ND_A_10.c3d	174_P_T1_sh_L_ND_A_10.c3d	174_P_T1_sh_L_ND_A_10.c3d
	Biceps femoris_lat	Semitendinosus_lat	Vastus lateralis_lat	Vastus medialis_lat	Biceps femoris_med	Semitendinosus_med	Vastus lateralis_med	Vastus medialis_med	Biceps femoris_lat	Semitendinosus_lat	Vastus lateralis_lat	Vastus medialis_lat	Biceps femoris_med	Semitendinosus_med	Vastus lateralis_med	Vastus medialis_med	Biceps femoris_lat	Semitendinosus_lat	Vastus lateralis_lat	Vastus medialis_lat	Biceps femoris_med	Semitendinosus_med	Vastus lateralis_med	Vastus medialis_med	Biceps femoris_lat	Semitendinosus_lat	Vastus lateralis_lat	Vastus medialis_lat	Biceps femoris_med	Semitendinosus_med	Vastus lateralis_med	Vastus medialis_med	Biceps femoris_lat	Semitendinosus_lat	Vastus lateralis_lat	Vastus medialis_lat	Biceps femoris_med	Semitendinosus_med	Vastus lateralis_med	Vastus medialis_med	Biceps femoris_lat	Semitendinosus_lat	Vastus lateralis_lat	Vastus medialis_lat	Biceps femoris_med	Semitendinosus_med	Vastus lateralis_med	Vastus medialis_med	Biceps femoris_lat	Semitendinosus_lat	Vastus lateralis_lat	Vastus medialis_lat	Biceps femoris_med	Semitendinosus_med	Vastus lateralis_med	Vastus medialis_med	Biceps femoris_lat	Semitendinosus_lat	Vastus lateralis_lat	Vastus medialis_lat	Biceps femoris_med	Semitendinosus_med	Vastus lateralis_med	Vastus medialis_med	Biceps femoris_lat	Semitendinosus_lat	Vastus lateralis_lat	Vastus medialis_lat	Biceps femoris_med	Semitendinosus_med	Vastus lateralis_med	Vastus medialis_med	Biceps femoris_lat	Semitendinosus_lat	Vastus lateralis_lat	Vastus medialis_lat	Biceps femoris_med	Semitendinosus_med	Vastus lateralis_med	Vastus medialis_med
	P2D	P2D	P2D	P2D	P2D	P2D	P2D	P2D	P2D	P2D	P2D	P2D	P2D	P2D	P2D	P2D	P2D	P2D	P2D	P2D	P2D	P2D	P2D	P2D	P2D	P2D	P2D	P2D	P2D	P2D	P2D	P2D	P2D	P2D	P2D	P2D	P2D	P2D	P2D	P2D	P2D	P2D	P2D	P2D	P2D	P2D	P2D	P2D	P2D	P2D	P2D	P2D	P2D	P2D	P2D	P2D	P2D	P2D	P2D	P2D	P2D	P2D	P2D	P2D	P2D	P2D	P2D	P2D	P2D	P2D	P2D	P2D	P2D	P2D	P2D	P2D	P2D	P2D	P2D	P2D
	EMG_lat	EMG_lat	EMG_lat	EMG_lat	EMG_med	EMG_med	EMG_med	EMG_med	EMG_lat	EMG_lat	EMG_lat	EMG_lat	EMG_med	EMG_med	EMG_med	EMG_med	EMG_lat	EMG_lat	EMG_lat	EMG_lat	EMG_med	EMG_med	EMG_med	EMG_med	EMG_lat	EMG_lat	EMG_lat	EMG_lat	EMG_med	EMG_med	EMG_med	EMG_med	EMG_lat	EMG_lat	EMG_lat	EMG_lat	EMG_med	EMG_med	EMG_med	EMG_med	EMG_lat	EMG_lat	EMG_lat	EMG_lat	EMG_med	EMG_med	EMG_med	EMG_med	EMG_lat	EMG_lat	EMG_lat	EMG_lat	EMG_med	EMG_med	EMG_med	EMG_med	EMG_lat	EMG_lat	EMG_lat	EMG_lat	EMG_med	EMG_med	EMG_med	EMG_med	EMG_lat	EMG_lat	EMG_lat	EMG_lat	EMG_med	EMG_med	EMG_med	EMG_med	EMG_lat	EMG_lat	EMG_lat	EMG_lat	EMG_med	EMG_med	EMG_med	EMG_med
ITEM	Y	Y	Y	Y	Y	Y	Y	Y	Y	Y	Y	Y	Y	Y	Y	Y	Y	Y	Y	Y	Y	Y	Y	Y	Y	Y	Y	Y	Y	Y	Y	Y	Y	Y	Y	Y	Y	Y	Y	Y	Y	Y	Y	Y	Y	Y	Y	Y	Y	Y	Y	Y	Y	Y	Y	Y	Y	Y	Y	Y	Y	Y	Y	Y	Y	Y	Y	Y	Y	Y	Y	Y	Y	Y	Y	Y	Y	Y	Y	Y
1	0.235250	0.352536	0.088676	0.137259	0.561396	0.190744	0.084386	0.160824	0.312473	0.610081	0.083683	0.113246	0.591574	0.046997	0.136901	0.090233	0.318535	0.569181	0.048737	0.128780	0.579045	0.262460	0.090794	0.234577	0.149344	0.274227	0.170532	0.129195	0.512378	0.815331	0.090192	0.181611	0.210926	0.736597	0.473300	0.196450	0.409808	0.399304	0.086421	0.159762	0.214059	0.567102	0.097733	0.188156	0.306557	0.254409	0.114608	0.169775	0.168021	0.323913	0.172453	0.115224	0.328979	0.314183	0.079607	0.141076	0.624910	0.075775	0.152490	0.110464	0.704230	0.454155	0.054248	0.146026	0.178058	0.036123	0.089141	0.061599	0.244231	0.301767	0.098276	0.139298	0.166874	0.388991	0.104409	0.075990	0.150472	0.110316	0.112787	0.123817
2	0.191465	0.322119	0.100428	0.086659	0.553046	0.106482	0.091131	0.142361	0.338305	0.638421	0.174305	0.145503	0.482212	0.038980	0.132136	0.102805	0.313991	0.520831	0.048625	0.115266	0.574717	0.281476	0.090858	0.233449	0.117922	0.179221	0.155301	0.140301	0.487488	0.815798	0.089144	0.195472	0.215982	0.736995	0.409707	0.195976	0.413892	0.405206	0.093004	0.154058	0.142724	0.305838	0.091501	0.203214	0.328770	0.236790	0.120122	0.183015	0.152735	0.306449	0.175087	0.117833	0.329173	0.312607	0.079905	0.143700	0.732191	0.082515	0.155628	0.116031	0.687985	0.445243	0.054995	0.151391	0.164864	0.036276	0.093290	0.075439	0.242724	0.312477	0.102391	0.131216	0.167842	0.411749	0.104689	0.069514	0.124044	0.110123	0.115281	0.125174
3	0.157730	0.313018	0.097933	0.105199	0.553439	0.086475	0.095381	0.138864	0.430899	0.746725	0.244610	0.132263	0.237606	0.031901	0.131728	0.102287	0.229571	0.450512	0.039639	0.088158	0.571891	0.255254	0.088066	0.239202	0.114803	0.085552	0.140210	0.143617	0.423556	0.793761	0.094221	0.199962	0.216196	0.734373	0.376809	0.192106	0.416654	0.406736	0.094726	0.153907	0.099667	0.229490	0.099769	0.229849	0.336598	0.240948	0.140988	0.196627	0.144265	0.307458	0.170257	0.120329	0.328728	0.309378	0.077387	0.157617	0.924906	0.085223	0.162908	0.119106	0.654914	0.444717	0.061503	0.149914	0.149871	0.041936	0.091954	0.074999	0.236192	0.330840	0.100832	0.135763	0.164838	0.415739	0.106795	0.089091	0.174353	0.089720	0.118074	0.146954
4	0.199172	0.318173	0.112547	0.181212	0.582173	0.086290	0.135166	0.137205	0.446346	0.862590	0.268943	0.139132	0.082044	0.032097	0.134298	0.117074	0.173740	0.360943	0.045050	0.067464	0.549643	0.257045	0.091728	0.227761	0.076797	0.090685	0.127024	0.161071	0.363752	0.716231	0.089377	0.202019	0.203095	0.650337	0.386846	0.192136	0.426094	0.407017	0.108916	0.151715	0.094777	0.184464	0.115609	0.278969	0.319896	0.224198	0.158801	0.191767	0.139499	0.330389	0.153685	0.120914	0.322944	0.268546	0.061621	0.162119	0.976130	0.086742	0.149082	0.120755	0.608447	0.444887	0.068091	0.149838	0.116963	0.046250	0.085564	0.074363	0.229480	0.338746	0.075771	0.152740	0.122153	0.372405	0.114746	0.100070	0.201390	0.083396	0.127586	0.156957
5	0.176739	0.238174	0.100417	0.194765	0.614695	0.080877	0.142382	0.169639	0.410710	0.681178	0.268213	0.167694	0.088366	0.034219	0.121234	0.120156	0.155022	0.316376	0.052632	0.100205	0.496323	0.252219	0.100724	0.231457	0.081794	0.056472	0.083685	0.169735	0.271238	0.480383	0.068754	0.165695	0.196438	0.453213	0.390571	0.187663	0.445693	0.406343	0.117745	0.149876	0.096072	0.173101	0.138999	0.252771	0.310287	0.223814	0.159346	0.194733	0.137125	0.329389	0.140922	0.124076	0.304268	0.254752	0.055510	0.148843	0.989655	0.086984	0.112569	0.156342	0.567901	0.461613	0.071030	0.151776	0.101756	0.055971	0.088470	0.076719	0.226580	0.337391	0.064070	0.155118	0.126049	0.367229	0.116742	0.116485	0.204105	0.081792	0.142756	0.159240
6	0.164530	0.230877	0.101743	0.204963	0.499471	0.074215	0.181534	0.169199	0.385051	0.639877	0.271862	0.165969	0.096114	0.037302	0.115000	0.119848	0.151760	0.309466	0.067646	0.109235	0.432004	0.249915	0.102246	0.214117	0.076964	0.053170	0.105687	0.171535	0.167654	0.443433	0.068180	0.180881	0.174948	0.426441	0.330243	0.183092	0.437541	0.381787	0.120542	0.150736	0.104235	0.193882	0.139436	0.238627	0.310099	0.224202	0.156414	0.199862	0.142945	0.329898	0.144755	0.126880	0.260942	0.251576	0.066215	0.153888	1.006884	0.087769	0.104318	0.199655	0.561636	0.450179	0.072110	0.142871	0.092485	0.063091	0.133155	0.079452	0.225461	0.318781	0.063253	0.154110	0.130730	0.364111	0.117261	0.119606	0.198764	0.080553	0.142523	0.162124
7	0.164346	0.118997	0.081588	0.271021	0.454107	0.066516	0.188812	0.161773	0.282029	0.615200	0.199154	0.142994	0.096155	0.037941	0.075887	0.128453	0.102739	0.226358	0.105165	0.171413	0.393043	0.234187	0.099639	0.241305	0.079981	0.086875	0.118489	0.239864	0.186012	0.413478	0.102081	0.195327	0.096891	0.343061	0.246937	0.182558	0.404886	0.292004	0.119940	0.136316	0.105364	0.212288	0.141769	0.240403	0.283319	0.224201	0.152199	0.197780	0.169527	0.364076	0.143189	0.124253	0.225009	0.228313	0.068836	0.158036	1.052304	0.084687	0.107201	0.192594	0.567334	0.500887	0.081536	0.142130	0.091142	0.065947	0.159376	0.076464	0.221025	0.317577	0.062736	0.161382	0.127040	0.351358	0.122879	0.132410	0.198550	0.080798	0.143038	0.163568
8	0.165103	0.090139	0.087355	0.274022	0.417753	0.065662	0.250710	0.182444	0.257469	0.244819	0.175512	0.141632	0.096751	0.040515	0.057734	0.133678	0.074383	0.101279	0.123375	0.183284	0.377326	0.231141	0.098332	0.270160	0.074610	0.136277	0.153452	0.244389	0.187994	0.262857	0.195152	0.227678	0.100865	0.276629	0.211336	0.171364	0.396940	0.201521	0.122788	0.131558	0.109296	0.211452	0.148657	0.240715	0.272514	0.224143	0.151338	0.191368	0.189060	0.440747	0.142621	0.124602	0.218346	0.205682	0.073901	0.157476	1.067928	0.082431	0.116981	0.178348	0.545987	0.586403	0.100259	0.135643	0.067744	0.069009	0.172455	0.088215	0.215219	0.316834	0.061150	0.157467	0.134593	0.355408	0.116615	0.142870	0.187456	0.080754	0.143449	0.164754
9	0.129163	0.077074	0.071305	0.226986	0.407822	0.070227	0.485168	0.234350	0.192501	0.169219	0.147139	0.120114	0.107279	0.041188	0.061368	0.133342	0.067213	0.066021	0.130665	0.273063	0.347972	0.229472	0.108887	0.271088	0.076948	0.169739	0.156054	0.266158	0.202199	0.250566	0.332154	0.347002	0.100686	0.233045	0.229937	0.211561	0.396700	0.134575	0.117762	0.130342	0.110504	0.205630	0.147933	0.231882	0.314450	0.223536	0.156536	0.187396	0.188688	0.446192	0.203803	0.193190	0.211695	0.172649	0.077694	0.158149	1.049628	0.082998	0.109223	0.185353	0.514572	0.569727	0.118725	0.122055	0.078381	0.071391	0.221629	0.090284	0.194018	0.317331	0.070626	0.152688	0.167816	0.374075	0.116303	0.160525	0.184566	0.113580	0.143952	0.178937
10	0.115632	0.068725	0.075204	0.224494	0.407633	0.077500	0.508138	0.409168	0.125637	0.151168	0.138137	0.095672	0.140320	0.041212	0.064941	0.139952	0.070444	0.070464	0.145995	0.349353	0.234952	0.234473	0.143557	0.287023	0.071118	0.184621	0.163556	0.251266	0.225143	0.264160	0.348137	0.344234	0.101924	0.194101	0.235326	0.396078	0.357006	0.132282	0.114173	0.128162	0.089707	0.179335	0.179340	0.225354	0.331886	0.218445	0.160106	0.171841	0.189497	0.485294	0.212568	0.243264	0.170580	0.195237	0.081681	0.166984	1.040594	0.076381	0.106290	0.204410	0.389645	0.601036	0.126381	0.121083	0.076231	0.071517	0.251585	0.084984	0.177541	0.314335	0.077198	0.148863	0.159582	0.351153	0.117516	0.172162	0.184897	0.192083	0.144620	0.217316
11	0.098851	0.065531	0.086647	0.225486	0.365627	0.083358	0.616608	0.466636	0.119450	0.151131	0.147430	0.096600	0.141153	0.042701	0.065967	0.131773	0.119185	0.099605	0.153332	0.352900	0.147687	0.256255	0.159038	0.289731	0.078760	0.184878	0.174423	0.247569	0.241994	0.258678	0.428939	0.343652	0.102631	0.172581	0.269693	0.462139	0.352088	0.131305	0.112693	0.107337	0.075233	0.137464	0.235305	0.212879	0.336078	0.192879	0.153372	0.149386	0.180885	0.475583	0.221971	0.245153	0.102431	0.191307	0.086726	0.208501	0.950006	0.061394	0.103542	0.210615	0.301047	0.748755	0.125178	0.154271	0.071948	0.066279	0.261024	0.082184	0.084669	0.313817	0.071948	0.141467	0.156790	0.280055	0.128608	0.188950	0.189583	0.195816	0.134458	0.231151
12	0.093306	0.070490	0.088240	0.145608	0.167060	0.149018	0.700482	0.641454	0.081330	0.116732	0.127743	0.072700	0.233861	0.042794	0.067366	0.150757	0.127834	0.104290	0.158067	0.345449	0.143960	0.274780	0.160893	0.277589	0.080113	0.188382	0.161959	0.228010	0.241867	0.256813	0.485052	0.347282	0.102274	0.183642	0.292626	0.466068	0.355933	0.124241	0.118253	0.082703	0.070806	0.132660	0.246966	0.231864	0.335028	0.129571	0.148536	0.143989	0.184981	0.469753	0.230180	0.254146	0.097010	0.172808	0.118246	0.211981	0.821698	0.060136	0.092247	0.206628	0.281980	0.755107	0.125423	0.167390	0.090997	0.063633	0.260844	0.080179	0.065445	0.291936	0.100791	0.139756	0.155312	0.241295	0.158560	0.209464	0.189447	0.197893	0.128890	0.255922
13	0.081969	0.068671	0.082140	0.127722	0.175987	0.188039	0.697716	0.681047	0.083009	0.076235	0.116972	0.081754	0.330527	0.049730	0.068419	0.169908	0.136684	0.101138	0.150897	0.360129	0.155577	0.298985	0.179027	0.295183	0.078560	0.158128	0.153914	0.157052	0.268789	0.259480	0.497363	0.354478	0.117426	0.194736	0.291296	0.475783	0.343794	0.101967	0.117572	0.094666	0.057444	0.117638	0.281633	0.240213	0.309305	0.078043	0.176289	0.113678	0.202105	0.478216	0.241977	0.303435	0.114930	0.165897	0.146689	0.206423	0.648161	0.061781	0.146334	0.204451	0.285434	0.725072	0.148584	0.166762	0.162970	0.061621	0.255007	0.086702	0.059511	0.258583	0.121727	0.142903	0.154678	0.244213	0.248938	0.276577	0.188886	0.213872	0.134245	0.272116
14	0.043930	0.044624	0.075093	0.122167	0.183024	0.185668	0.695024	0.681113	0.114642	0.063017	0.119362	0.081695	0.334423	0.068455	0.071599	0.180103	0.150756	0.098486	0.128090	0.341281	0.151762	0.289483	0.211618	0.318922	0.100922	0.145203	0.170036	0.155135	0.282240	0.268533	0.501540	0.368455	0.124262	0.201597	0.288196	0.510446	0.380238	0.089154	0.115383	0.088974	0.057688	0.070471	0.282877	0.250604	0.292789	0.051991	0.220801	0.094111	0.209950	0.482544	0.251540	0.360510	0.123970	0.165211	0.158533	0.207332	0.611614	0.069743	0.169521	0.297634	0.278945	0.721701	0.166631	0.155539	0.193769	0.062057	0.244455	0.111103	0.069143	0.268515	0.119975	0.182270	0.150575	0.237824	0.246036	0.456711	0.192795	0.247665	0.151476	0.273038
15	0.049558	0.041257	0.069375	0.105710	0.183067	0.189625	0.678533	0.676664	0.119839	0.079191	0.088410	0.078950	0.331057	0.073833	0.107952	0.181697	0.153904	0.094471	0.116450	0.331289	0.141269	0.294243	0.230006	0.318796	0.114252	0.099620	0.169044	0.107148	0.274829	0.270733	0.499722	0.353065	0.171293	0.245394	0.278225	0.531854	0.424539	0.052901	0.111119	0.087932	0.050884	0.072462	0.329747	0.247261	0.295923	0.075236	0.270304	0.110420	0.216185	0.473981	0.256827	0.396329	0.151920	0.182435	0.161677	0.214926	0.550810	0.070084	0.173458	0.316895	0.277454	0.716324	0.167361	0.150163	0.202345	0.059917	0.265069	0.135986	0.079459	0.273458	0.122117	0.180236	0.177655	0.273941	0.279967	0.491783	0.196226	0.259662	0.173424	0.261543
16	0.064332	0.050497	0.134201	0.112459	0.189303	0.188367	0.539533	0.667980	0.127746	0.140888	0.117158	0.108954	0.389655	0.073116	0.122760	0.226609	0.154052	0.093559	0.123316	0.256783	0.144671	0.286133	0.231183	0.312198	0.142127	0.079412	0.151803	0.101580	0.267956	0.256489	0.482302	0.334559	0.184964	0.286763	0.249326	0.565021	0.432798	0.037000	0.110697	0.087631	0.047470	0.072376	0.369230	0.259087	0.352129	0.096970	0.275968	0.183085	0.225018	0.461519	0.264453	0.412622	0.202984	0.237728	0.169537	0.214249	0.428315	0.075716	0.173449	0.335122	0.278108	0.717005	0.164067	0.158605	0.251436	0.059054	0.258392	0.126604	0.080226	0.264983	0.146543	0.170768	0.190411	0.289457	0.291700	0.489579	0.190265	0.263428	0.176406	0.277845
17	0.095846	0.106666	0.178132	0.134842	0.188872	0.199852	0.535280	0.581446	0.125971	0.141668	0.200608	0.284339	0.458641	0.075082	0.183734	0.247611	0.148218	0.089359	0.104302	0.154286	0.187335	0.294181	0.228880	0.309414	0.160346	0.077152	0.147331	0.106987	0.261760	0.209616	0.410573	0.264664	0.206757	0.295437	0.256117	0.599745	0.424367	0.033525	0.113523	0.088484	0.057085	0.077972	0.365920	0.260458	0.390854	0.111508	0.323951	0.189133	0.274485	0.472621	0.267479	0.413322	0.209777	0.243404	0.198848	0.214155	0.307246	0.089624	0.172264	0.349493	0.269118	0.717511	0.161209	0.164417	0.255983	0.076835	0.214533	0.124521	0.084857	0.263752	0.175028	0.170982	0.187747	0.290758	0.294801	0.515808	0.218019	0.269292	0.169318	0.319260
18	0.162648	0.132426	0.198958	0.169003	0.186005	0.201262	0.430866	0.547260	0.128977	0.142430	0.224792	0.288826	0.485642	0.074382	0.189169	0.258695	0.106868	0.054410	0.089569	0.149636	0.219316	0.302927	0.238965	0.308107	0.167262	0.066568	0.168922	0.115407	0.262423	0.241249	0.376695	0.180428	0.212150	0.290520	0.262305	0.609023	0.396666	0.034811	0.120668	0.100208	0.055215	0.077964	0.326089	0.288975	0.409007	0.119611	0.396923	0.203295	0.300339	0.478923	0.262348	0.413057	0.212328	0.243365	0.206192	0.213868	0.215480	0.099154	0.170586	0.354552	0.266018	0.707577	0.161209	0.154935	0.261811	0.093079	0.186781	0.121232	0.084427	0.261665	0.187397	0.181596	0.173614	0.287308	0.297874	0.617132	0.218647	0.269761	0.174754	0.340732
19	0.175370	0.137895	0.205727	0.192951	0.158560	0.315054	0.267344	0.304021	0.125878	0.144736	0.315319	0.396474	0.492085	0.074153	0.224348	0.260247	0.093022	0.041815	0.077821	0.142927	0.235021	0.308934	0.269257	0.294760	0.180627	0.092689	0.145297	0.233190	0.286137	0.480376	0.332259	0.180103	0.267778	0.297437	0.257831	0.610582	0.394513	0.036242	0.120332	0.112949	0.054636	0.076426	0.309682	0.272531	0.420794	0.119824	0.450122	0.212905	0.287547	0.487992	0.258454	0.413341	0.219623	0.240228	0.203906	0.206675	0.196115	0.101182	0.170421	0.361355	0.265438	0.697709	0.166674	0.158595	0.268061	0.130290	0.184011	0.126055	0.087512	0.254699	0.190029	0.171874	0.160051	0.253739	0.298387	0.669528	0.219585	0.272630	0.178295	0.342490
20	0.186254	0.137868	0.207171	0.206255	0.182968	0.321617	0.247214	0.183151	0.146975	0.110575	0.330284	0.444545	0.489108	0.074377	0.258808	0.252720	0.075606	0.039221	0.112225	0.095522	0.239902	0.326633	0.278395	0.348091	0.234358	0.102994	0.149526	0.252898	0.293451	0.542067	0.198429	0.170071	0.279766	0.325687	0.234036	0.602756	0.429992	0.038883	0.123968	0.112884	0.056803	0.070365	0.273837	0.262702	0.378338	0.122225	0.465183	0.225016	0.307604	0.434706	0.239028	0.416414	0.217484	0.231280	0.203912	0.220375	0.230123	0.122062	0.172513	0.363199	0.249054	0.659963	0.164224	0.179612	0.267293	0.130034	0.186868	0.126611	0.100912	0.229264	0.191243	0.168160	0.181330	0.249887	0.297120	0.675033	0.219648	0.272631	0.178494	0.341662
21	0.194145	0.156896	0.199282	0.241140	0.212241	0.370258	0.252234	0.176946	0.165632	0.088882	0.281698	0.424068	0.478049	0.077836	0.270436	0.249762	0.053240	0.041613	0.150661	0.078197	0.244127	0.365064	0.271939	0.392930	0.227116	0.109177	0.193585	0.277744	0.322990	0.610448	0.138342	0.161305	0.282965	0.335113	0.229829	0.504332	0.461226	0.041045	0.124579	0.132179	0.054315	0.057660	0.273999	0.253211	0.360554	0.135259	0.467688	0.231557	0.337808	0.443490	0.193086	0.394386	0.215207	0.228986	0.211244	0.258916	0.256996	0.134366	0.180449	0.371345	0.243552	0.556993	0.154325	0.180084	0.254195	0.128404	0.182987	0.123966	0.122985	0.225843	0.187353	0.195869	0.193722	0.249896	0.297113	0.667772	0.218369	0.254277	0.180019	0.325389
22	0.184877	0.133782	0.175735	0.231990	0.205891	0.373535	0.253068	0.163794	0.158385	0.085803	0.303670	0.417829	0.409159	0.085107	0.271645	0.237778	0.045740	0.047341	0.147781	0.081192	0.243665	0.362424	0.257314	0.387797	0.232437	0.132480	0.232338	0.278323	0.291263	0.613364	0.109760	0.118036	0.295677	0.343379	0.193922	0.424609	0.466510	0.040463	0.135310	0.166744	0.051645	0.049422	0.233788	0.252411	0.337575	0.143459	0.466811	0.228940	0.333833	0.398158	0.192218	0.406598	0.215399	0.222368	0.218388	0.270093	0.256948	0.149371	0.174697	0.374604	0.222256	0.545387	0.140258	0.182771	0.236415	0.143183	0.161922	0.093021	0.136529	0.226424	0.187874	0.237743	0.208074	0.245988	0.232559	0.657535	0.218546	0.243556	0.177029	0.302435
23	0.137533	0.110231	0.200439	0.214607	0.201496	0.375527	0.237859	0.155406	0.165681	0.088642	0.273028	0.401459	0.390883	0.078225	0.273227	0.217688	0.080691	0.112100	0.140670	0.117097	0.248087	0.371123	0.263483	0.384289	0.218961	0.134242	0.250708	0.274431	0.279777	0.620024	0.106170	0.089734	0.306588	0.389581	0.140642	0.413177	0.466521	0.040546	0.163557	0.171667	0.057048	0.052845	0.124379	0.246330	0.344708	0.148092	0.463566	0.232249	0.333963	0.368454	0.188178	0.448957	0.218729	0.202058	0.218260	0.266696	0.231846	0.210630	0.132616	0.357459	0.182348	0.518189	0.132086	0.194627	0.235214	0.152123	0.099824	0.068109	0.139976	0.226294	0.186195	0.249188	0.213711	0.235369	0.204390	0.570496	0.216047	0.328050	0.174829	0.294026
24	0.119316	0.100657	0.209203	0.220665	0.205358	0.374461	0.196789	0.179449	0.148174	0.081532	0.231903	0.451977	0.401842	0.081211	0.270309	0.213495	0.110156	0.129407	0.143951	0.123978	0.245533	0.338081	0.275622	0.394798	0.221513	0.133507	0.246702	0.273159	0.281992	0.655038	0.105176	0.083436	0.300812	0.401335	0.132522	0.406994	0.461503	0.042975	0.185363	0.171497	0.072071	0.045141	0.106720	0.238882	0.350053	0.150255	0.450132	0.234728	0.330326	0.363338	0.179162	0.438687	0.227021	0.197872	0.216986	0.234612	0.220523	0.221267	0.127806	0.248350	0.159450	0.292556	0.131939	0.181941	0.202691	0.176952	0.089933	0.066530	0.140228	0.212563	0.167842	0.248022	0.194713	0.287953	0.156062	0.486923	0.228949	0.332861	0.171781	0.270012
25	0.091886	0.101413	0.209031	0.277107	0.208567	0.376240	0.101842	0.165419	0.169842	0.089560	0.245681	0.423891	0.389666	0.163263	0.259985	0.190315	0.110449	0.128975	0.148104	0.126415	0.238101	0.306700	0.265663	0.379295	0.201328	0.129390	0.252465	0.211315	0.283454	0.668115	0.104239	0.081660	0.304833	0.406824	0.139143	0.368026	0.437440	0.044587	0.187802	0.166845	0.102702	0.071641	0.096696	0.175590	0.357800	0.150045	0.432811	0.258197	0.320398	0.361399	0.159507	0.400712	0.233222	0.204498	0.202399	0.225108	0.220606	0.225983	0.125610	0.231191	0.149828	0.195426	0.130667	0.166715	0.219091	0.246240	0.088240	0.067219	0.139598	0.172912	0.156600	0.243599	0.172850	0.241059	0.108626	0.484781	0.231473	0.319468	0.164585	0.255406
26	0.084493	0.069356	0.200513	0.306476	0.206546	0.265055	0.092993	0.261886	0.166359	0.081012	0.225845	0.418933	0.282898	0.207096	0.233803	0.133576	0.114494	0.129218	0.153472	0.149493	0.238140	0.301695	0.241120	0.361029	0.135553	0.113919	0.220683	0.159555	0.281030	0.720948	0.096007	0.080144	0.282521	0.433357	0.138401	0.332306	0.411541	0.043048	0.186821	0.159172	0.109467	0.100312	0.083826	0.111177	0.347798	0.141414	0.428810	0.241971	0.315237	0.361441	0.151740	0.351652	0.231047	0.285442	0.181873	0.224451	0.221227	0.224433	0.118828	0.191029	0.123787	0.195728	0.106696	0.166849	0.213838	0.297050	0.067895	0.067638	0.129601	0.122481	0.155956	0.219027	0.196704	0.270706	0.091498	0.481807	0.223509	0.304541	0.141186	0.256140
27	0.119983	0.049328	0.221054	0.298422	0.163223	0.232904	0.092459	0.323663	0.187177	0.135036	0.197654	0.351457	0.239685	0.268888	0.215159	0.085688	0.115575	0.129911	0.133092	0.240802	0.240427	0.305948	0.227415	0.356102	0.139972	0.103980	0.249802	0.176449	0.235582	0.722303	0.077738	0.073693	0.272418	0.427668	0.135707	0.288006	0.378138	0.040599	0.188355	0.157975	0.112561	0.099108	0.104722	0.087522	0.294402	0.131564	0.423543	0.211048	0.311425	0.366320	0.172913	0.314915	0.226667	0.337845	0.172991	0.223618	0.219340	0.219289	0.113085	0.183019	0.117951	0.197880	0.071930	0.168219	0.207254	0.323852	0.051140	0.067176	0.127916	0.090139	0.152251	0.219053	0.206229	0.349182	0.081551	0.383393	0.200263	0.335464	0.111138	0.246841
28	0.174002	0.071774	0.230630	0.305998	0.102274	0.143178	0.080880	0.339133	0.166887	0.131407	0.147152	0.295620	0.190546	0.319215	0.196415	0.079184	0.118792	0.139135	0.120148	0.341907	0.234897	0.308457	0.224711	0.354050	0.133054	0.082286	0.195887	0.353122	0.224069	0.699475	0.071794	0.071227	0.260117	0.437933	0.118687	0.204435	0.321000	0.046191	0.189481	0.156987	0.129971	0.099014	0.144393	0.103746	0.247416	0.120136	0.375281	0.241329	0.295774	0.364472	0.183023	0.300073	0.221684	0.345393	0.171622	0.213695	0.218654	0.244820	0.111787	0.159098	0.118865	0.206722	0.065908	0.168108	0.192607	0.375600	0.044240	0.064812	0.135566	0.121313	0.124746	0.217225	0.230862	0.362347	0.074732	0.211755	0.196873	0.361719	0.088409	0.212754
29	0.204627	0.142115	0.280298	0.322082	0.103732	0.133141	0.130670	0.347922	0.142956	0.125851	0.151663	0.093364	0.182026	0.337340	0.139778	0.069550	0.122115	0.137001	0.133427	0.352819	0.200838	0.295501	0.224734	0.353035	0.137212	0.074788	0.224570	0.411323	0.146627	0.670258	0.066982	0.074531	0.262158	0.439103	0.092477	0.158542	0.300775	0.052602	0.190182	0.158439	0.133798	0.100305	0.209834	0.134168	0.214881	0.114012	0.297413	0.249507	0.248018	0.348336	0.186630	0.300632	0.177516	0.322798	0.167170	0.203560	0.190121	0.312937	0.104344	0.157361	0.110086	0.214540	0.070359	0.163927	0.174259	0.397913	0.067448	0.058281	0.155912	0.206743	0.084119	0.213970	0.235337	0.384154	0.070300	0.133660	0.177658	0.378216	0.085072	0.141749
30	0.242141	0.149059	0.280098	0.258278	0.098025	0.128799	0.142224	0.394211	0.111383	0.118697	0.159264	0.093971	0.181616	0.339476	0.114512	0.053779	0.100095	0.082238	0.131669	0.362324	0.171088	0.286618	0.207369	0.350643	0.141209	0.057435	0.222532	0.407051	0.117544	0.670210	0.071156	0.076296	0.227019	0.432233	0.089761	0.149217	0.298399	0.054556	0.185732	0.162053	0.164069	0.112056	0.215147	0.165369	0.190937	0.115693	0.225376	0.249940	0.240557	0.340393	0.187086	0.301097	0.168806	0.318555	0.132877	0.198306	0.136364	0.354650	0.098505	0.165470	0.109688	0.218635	0.074808	0.159125	0.180999	0.405551	0.072430	0.079831	0.163801	0.302895	0.060156	0.204882	0.220432	0.387954	0.059101	0.128697	0.179126	0.397411	0.067973	0.091451
31	0.286088	0.219611	0.277560	0.187327	0.088142	0.107677	0.154684	0.380140	0.091860	0.107510	0.403753	0.194415	0.176453	0.339385	0.198931	0.045528	0.091049	0.059630	0.135785	0.370647	0.165738	0.370129	0.166748	0.324924	0.138483	0.075779	0.229968	0.405758	0.116026	0.663994	0.074721	0.113079	0.209079	0.422864	0.105842	0.146891	0.297680	0.053949	0.175489	0.160416	0.170240	0.158117	0.238697	0.164077	0.184159	0.109107	0.199300	0.241438	0.254864	0.272416	0.186503	0.300101	0.165525	0.318865	0.116338	0.192671	0.115013	0.363698	0.086083	0.156255	0.106805	0.235254	0.074162	0.160472	0.173648	0.409568	0.085233	0.099559	0.189218	0.323684	0.056694	0.204295	0.206404	0.390136	0.056154	0.138319	0.194606	0.540732	0.053676	0.084723
32	0.361484	0.366828	0.255075	0.165917	0.078586	0.095100	0.206761	0.393211	0.090274	0.031409	0.411924	0.236791	0.164126	0.342390	0.262078	0.049685	0.096976	0.060787	0.388223	0.475871	0.187708	0.492315	0.159079	0.236916	0.126448	0.080909	0.251282	0.402471	0.109569	0.647334	0.186248	0.304913	0.215118	0.416075	0.126908	0.155441	0.279141	0.100448	0.174032	0.149196	0.203923	0.218464	0.309780	0.171538	0.175242	0.092569	0.196547	0.238709	0.212962	0.249018	0.185778	0.289355	0.155563	0.321613	0.114824	0.191679	0.096387	0.350132	0.066721	0.152563	0.108040	0.245115	0.060122	0.156955	0.208727	0.494717	0.136525	0.110158	0.221957	0.324963	0.052435	0.203826	0.200266	0.394844	0.099237	0.166398	0.197251	0.560314	0.053013	0.084237
33	0.354157	0.368276	0.208800	0.138720	0.074649	0.090610	0.220138	0.343521	0.108968	0.040963	0.500902	0.253932	0.139791	0.342261	0.268263	0.052437	0.091583	0.060781	0.448155	0.704100	0.221367	0.507306	0.155931	0.164718	0.139436	0.078895	0.237414	0.317849	0.105305	0.613190	0.322726	0.363539	0.286746	0.412793	0.147920	0.150194	0.213489	0.203151	0.171800	0.148325	0.220994	0.243653	0.352004	0.380130	0.163176	0.094683	0.202708	0.243415	0.192887	0.242441	0.177760	0.275077	0.153011	0.353244	0.113327	0.175016	0.088566	0.334969	0.094460	0.161085	0.109667	0.280265	0.053939	0.131240	0.196228	0.460235	0.187880	0.126511	0.211778	0.323073	0.048613	0.162481	0.201217	0.373328	0.105513	0.171489	0.197370	0.558007	0.044276	0.084165
34	0.339911	0.365646	0.111950	0.094540	0.061398	0.096466	0.219803	0.308569	0.167489	0.084000	0.516601	0.300840	0.117159	0.333379	0.275469	0.066597	0.094056	0.099459	0.497375	0.676840	0.223451	0.540912	0.142307	0.159007	0.178864	0.111321	0.217175	0.254545	0.109990	0.594228	0.343170	0.364427	0.316529	0.383662	0.161610	0.144941	0.126134	0.246503	0.170055	0.134728	0.253991	0.308099	0.405536	0.427561	0.144037	0.088518	0.238919	0.244294	0.265290	0.227378	0.173704	0.205077	0.187889	0.370025	0.094620	0.105653	0.090013	0.329986	0.098556	0.168000	0.110105	0.290769	0.055551	0.127559	0.228138	0.443024	0.194996	0.129876	0.205889	0.323599	0.038454	0.100365	0.203832	0.340636	0.111967	0.192587	0.197800	0.542116	0.035820	0.081698
35	0.314473	0.364898	0.135184	0.119467	0.078857	0.158961	0.308795	0.307374	0.189685	0.111872	0.398169	0.363633	0.114182	0.286013	0.305965	0.075985	0.119380	0.103817	0.564714	0.636867	0.213710	0.536229	0.109595	0.120132	0.323635	0.243432	0.190168	0.133697	0.132042	0.443542	0.343497	0.391667	0.322744	0.373528	0.163688	0.144510	0.094838	0.304714	0.161830	0.086355	0.295326	0.406199	0.411746	0.454014	0.128650	0.094432	0.275248	0.238728	0.277718	0.221746	0.162459	0.108029	0.205474	0.408317	0.067247	0.062218	0.092461	0.330556	0.119732	0.165346	0.112435	0.289730	0.057126	0.124897	0.247059	0.446191	0.312463	0.156209	0.204610	0.326777	0.044784	0.066712	0.186186	0.350448	0.122549	0.191919	0.194325	0.505269	0.032229	0.076777
36	0.290049	0.354873	0.152807	0.130001	0.081173	0.411121	0.350361	0.303703	0.200339	0.122802	0.335180	0.481329	0.072128	0.260227	0.336158	0.097871	0.177697	0.139922	0.610105	0.674231	0.201638	0.535460	0.103564	0.062033	0.362214	0.282606	0.179183	0.125994	0.104860	0.363001	0.367725	0.499498	0.320099	0.437426	0.158506	0.142055	0.096450	0.364720	0.136082	0.071890	0.303993	0.445086	0.426833	0.447616	0.117034	0.107920	0.253751	0.214343	0.276798	0.213610	0.202496	0.102898	0.208196	0.434543	0.059902	0.059442	0.131109	0.355160	0.148688	0.170573	0.114713	0.282113	0.056037	0.105943	0.244171	0.431821	0.417444	0.230667	0.215336	0.353579	0.075730	0.064562	0.170310	0.240526	0.149446	0.182968	0.177718	0.522843	0.067249	0.069608
37	0.178399	0.179173	0.214780	0.136499	0.121162	0.429871	0.351744	0.239193	0.193830	0.122338	0.317196	0.498892	0.065775	0.175981	0.340558	0.113400	0.182834	0.142758	0.619610	0.718905	0.203748	0.536112	0.137228	0.046108	0.411799	0.283497	0.162061	0.122901	0.097189	0.248180	0.478214	0.517533	0.338324	0.428173	0.180139	0.138655	0.104703	0.438100	0.104441	0.072788	0.351429	0.457318	0.445276	0.433700	0.116048	0.123343	0.230115	0.211359	0.283041	0.231777	0.288613	0.094286	0.207048	0.448431	0.061801	0.048894	0.174493	0.364901	0.154089	0.195865	0.128937	0.285217	0.077254	0.085175	0.241383	0.422816	0.414970	0.238574	0.215989	0.362628	0.080885	0.056676	0.141667	0.226594	0.178375	0.169804	0.172230	0.527306	0.094047	0.061902
38	0.126307	0.161906	0.256225	0.139739	0.222886	0.442712	0.421322	0.267585	0.167262	0.110155	0.153389	0.493484	0.062989	0.140375	0.350741	0.129028	0.201406	0.142922	0.618374	0.743996	0.208079	0.543654	0.151116	0.052830	0.446757	0.380204	0.090629	0.105133	0.107563	0.150798	0.547839	0.523588	0.340792	0.417619	0.186595	0.135036	0.088269	0.453977	0.092034	0.070386	0.350451	0.457375	0.436921	0.432078	0.114059	0.133333	0.249392	0.188515	0.307246	0.339343	0.329584	0.098506	0.205106	0.475439	0.063596	0.032621	0.174636	0.320734	0.179527	0.205674	0.126641	0.270086	0.104664	0.077074	0.237412	0.415621	0.447681	0.243895	0.216528	0.396551	0.105515	0.059536	0.090621	0.193176	0.187774	0.155820	0.158522	0.524237	0.095718	0.066759
39	0.110844	0.113160	0.260078	0.174748	0.227018	0.443416	0.425624	0.376001	0.136406	0.103344	0.138647	0.451220	0.063195	0.099745	0.358158	0.141914	0.254521	0.147188	0.500787	0.668044	0.206304	0.547771	0.152918	0.086432	0.433793	0.390945	0.068471	0.052829	0.117650	0.125623	0.576363	0.538666	0.342363	0.403929	0.190213	0.121386	0.084762	0.454531	0.090686	0.067239	0.329678	0.434056	0.415502	0.436086	0.121646	0.142948	0.273589	0.150105	0.314664	0.387153	0.316717	0.113388	0.213482	0.493854	0.061319	0.026690	0.177807	0.295512	0.181415	0.177630	0.126250	0.282007	0.119099	0.076812	0.230506	0.434737	0.469822	0.267573	0.219761	0.413784	0.134443	0.072528	0.083386	0.212401	0.188471	0.154894	0.125140	0.495378	0.099249	0.065269
40	0.119139	0.115536	0.560871	0.230051	0.239800	0.445332	0.414989	0.405085	0.100316	0.112552	0.127902	0.345798	0.070535	0.090911	0.347037	0.187239	0.274995	0.206765	0.458702	0.441345	0.207867	0.550474	0.151978	0.116840	0.381384	0.360763	0.091805	0.108965	0.128546	0.131201	0.571691	0.501004	0.340620	0.422718	0.197870	0.119255	0.081484	0.461205	0.087632	0.066701	0.329116	0.423689	0.351378	0.329105	0.123627	0.144265	0.285221	0.139778	0.331777	0.396295	0.307475	0.157970	0.216183	0.471984	0.060279	0.028222	0.173148	0.256037	0.182408	0.174305	0.123890	0.292497	0.119112	0.074085	0.222105	0.355049	0.504883	0.264251	0.213717	0.403721	0.136223	0.107118	0.104103	0.263501	0.253139	0.154422	0.107907	0.471327	0.117640	0.091742
41	0.142674	0.122824	0.645110	0.261039	0.252415	0.505774	0.422338	0.439838	0.090515	0.142521	0.110447	0.157760	0.080971	0.079212	0.322095	0.203415	0.297512	0.205705	0.398296	0.439679	0.207723	0.552698	0.168430	0.130473	0.310856	0.290344	0.087440	0.223331	0.136885	0.133923	0.514446	0.415177	0.329474	0.422774	0.200486	0.117429	0.082053	0.491702	0.085688	0.066854	0.341885	0.423872	0.303018	0.237096	0.124511	0.142005	0.294273	0.164855	0.339484	0.399471	0.308372	0.158062	0.211621	0.490916	0.064822	0.036205	0.167604	0.258922	0.184507	0.176881	0.115245	0.310814	0.118990	0.075939	0.232465	0.369046	0.517617	0.268120	0.200472	0.357127	0.152378	0.143077	0.106411	0.302460	0.456735	0.144396	0.105216	0.468161	0.120603	0.105569
42	0.133889	0.120182	0.701807	0.258284	0.274287	0.528504	0.369993	0.453769	0.099552	0.185188	0.060105	0.147683	0.081527	0.074943	0.357050	0.211128	0.308402	0.325117	0.289555	0.434470	0.210433	0.552405	0.196544	0.139094	0.259336	0.295025	0.081393	0.231260	0.139517	0.133847	0.480598	0.406824	0.322281	0.461171	0.196025	0.115184	0.086661	0.492294	0.109957	0.069648	0.311189	0.388790	0.264657	0.138637	0.127777	0.144381	0.299364	0.191367	0.341796	0.395002	0.318606	0.169838	0.224966	0.508912	0.063909	0.041379	0.163885	0.270137	0.218611	0.173829	0.116996	0.307796	0.118039	0.083117	0.199686	0.370071	0.535475	0.270072	0.206645	0.288266	0.159024	0.145628	0.131092	0.304396	0.540600	0.168088	0.094447	0.429773	0.126372	0.105960
43	0.131748	0.118279	0.696720	0.261257	0.283985	0.393330	0.314631	0.457390	0.220670	0.228460	0.084069	0.149291	0.087037	0.069817	0.365693	0.229989	0.286866	0.369848	0.171889	0.361605	0.207861	0.453687	0.198471	0.140396	0.128175	0.235196	0.100536	0.260906	0.121528	0.133885	0.478711	0.415764	0.321427	0.459599	0.182554	0.106163	0.087011	0.492173	0.115514	0.061056	0.300694	0.317646	0.199819	0.128271	0.130200	0.146041	0.299740	0.196497	0.354922	0.395223	0.371097	0.167291	0.232212	0.510541	0.073107	0.043322	0.163697	0.279687	0.221983	0.163729	0.124067	0.319018	0.116529	0.084216	0.185239	0.325123	0.477297	0.275584	0.167443	0.282025	0.173955	0.158645	0.133509	0.391642	0.584020	0.150615	0.056982	0.253521	0.133114	0.107719
44	0.134529	0.115165	0.695552	0.248385	0.288959	0.388594	0.307631	0.452835	0.401048	0.450923	0.101507	0.147162	0.085247	0.056413	0.347910	0.241141	0.289438	0.387037	0.139388	0.227987	0.167612	0.351069	0.223719	0.179865	0.114386	0.135354	0.131941	0.310421	0.114335	0.140217	0.487623	0.300499	0.271100	0.480737	0.164837	0.098711	0.086754	0.493983	0.108396	0.050127	0.321161	0.344186	0.104881	0.127722	0.130886	0.140318	0.293993	0.189010	0.387471	0.393915	0.408223	0.191665	0.235461	0.511786	0.079872	0.043591	0.160972	0.284613	0.309832	0.170979	0.126947	0.326045	0.126674	0.080715	0.234646	0.298335	0.426769	0.255029	0.133945	0.281113	0.185942	0.166073	0.157224	0.433591	0.596656	0.144232	0.054529	0.237192	0.133853	0.113596
45	0.133400	0.105908	0.489119	0.181863	0.226908	0.378231	0.198188	0.444701	0.411522	0.470090	0.109726	0.163489	0.082941	0.050730	0.317652	0.238771	0.343369	0.393226	0.129736	0.115322	0.130633	0.279995	0.260625	0.232896	0.126656	0.118128	0.233511	0.362947	0.115385	0.159176	0.435727	0.240243	0.195087	0.493291	0.156963	0.090471	0.086454	0.489052	0.106052	0.058923	0.299715	0.361664	0.095026	0.126996	0.130872	0.140083	0.258446	0.189844	0.408923	0.383386	0.409433	0.215966	0.237380	0.511577	0.080493	0.043898	0.158206	0.278189	0.411792	0.172868	0.116726	0.320146	0.138230	0.078890	0.309582	0.302804	0.426408	0.271028	0.150507	0.283564	0.198018	0.187815	0.208321	0.436858	0.659577	0.254043	0.053037	0.236609	0.149912	0.120244
46	0.080656	0.086103	0.385307	0.107636	0.222320	0.377156	0.184047	0.335963	0.408803	0.459443	0.128307	0.165057	0.082233	0.049903	0.313535	0.246354	0.329441	0.404948	0.096328	0.111416	0.140129	0.222113	0.275187	0.246536	0.129621	0.118639	0.269055	0.397301	0.124489	0.151217	0.323317	0.250863	0.183202	0.486222	0.277590	0.091818	0.091298	0.474425	0.108931	0.070063	0.301546	0.363977	0.086111	0.104283	0.126073	0.130649	0.222278	0.193288	0.371140	0.387056	0.417233	0.217019	0.238290	0.492637	0.148350	0.044410	0.092979	0.291294	0.417790	0.158026	0.113487	0.311931	0.155092	0.088899	0.357215	0.294501	0.385531	0.265105	0.158947	0.281852	0.247731	0.202177	0.222499	0.442943	0.756091	0.287769	0.043904	0.220329	0.158438	0.124594
47	0.096611	0.117457	0.224032	0.103846	0.210587	0.378966	0.215691	0.290457	0.402571	0.451144	0.201697	0.163763	0.078976	0.042819	0.333801	0.249098	0.328968	0.381050	0.124974	0.123525	0.149189	0.217242	0.275831	0.251995	0.132481	0.124379	0.293304	0.387067	0.138482	0.153218	0.230105	0.229248	0.181456	0.468720	0.386445	0.138425	0.092374	0.475978	0.113614	0.071083	0.296128	0.358477	0.167172	0.201320	0.111129	0.111680	0.214348	0.198909	0.375950	0.398297	0.437412	0.216688	0.216058	0.477901	0.212622	0.066013	0.095697	0.417251	0.500921	0.140543	0.138830	0.306512	0.221255	0.093642	0.367592	0.267868	0.371470	0.237355	0.157666	0.274429	0.289068	0.249459	0.225436	0.476508	0.805994	0.288164	0.036876	0.213331	0.162360	0.137074
48	0.125902	0.186747	0.153958	0.097485	0.206884	0.305410	0.201210	0.206778	0.351798	0.249106	0.213772	0.150297	0.081444	0.037759	0.324209	0.254800	0.307992	0.373802	0.205637	0.129977	0.161827	0.213303	0.262386	0.301226	0.138589	0.110009	0.389484	0.424564	0.130799	0.176432	0.215882	0.216616	0.225319	0.478170	0.413302	0.202202	0.092117	0.442470	0.112436	0.071861	0.249356	0.300605	0.190405	0.306378	0.090266	0.090708	0.207671	0.200646	0.391538	0.398536	0.418685	0.216407	0.199820	0.449124	0.215630	0.114261	0.156347	0.471364	0.600785	0.214736	0.143157	0.308214	0.230272	0.093878	0.349647	0.220331	0.297908	0.236370	0.151251	0.255716	0.302575	0.279163	0.227062	0.470036	0.830647	0.333994	0.040790	0.159511	0.172513	0.143955
49	0.267395	0.224327	0.185550	0.092060	0.179200	0.233279	0.200455	0.143939	0.140901	0.140735	0.283050	0.163182	0.118783	0.046475	0.313155	0.254000	0.281380	0.258593	0.228630	0.151102	0.184121	0.206510	0.244570	0.400686	0.172288	0.116057	0.393829	0.408953	0.181964	0.416906	0.210755	0.230358	0.236579	0.492708	0.578109	0.202275	0.101908	0.405317	0.110479	0.072252	0.238460	0.252167	0.191377	0.333585	0.075125	0.072445	0.188548	0.208613	0.387774	0.385069	0.365413	0.218271	0.198272	0.422992	0.246009	0.116957	0.226295	0.509962	0.650721	0.301420	0.144822	0.317012	0.241811	0.108416	0.351693	0.264567	0.263902	0.225302	0.156763	0.242139	0.309449	0.297631	0.243987	0.454016	0.830787	0.502436	0.044138	0.189882	0.174888	0.159508
50	0.268705	0.227079	0.168830	0.098876	0.158373	0.169816	0.208921	0.129000	0.113833	0.106990	0.303746	0.162555	0.132454	0.047184	0.326474	0.230619	0.282793	0.195193	0.237925	0.156908	0.227486	0.182866	0.244226	0.418188	0.181292	0.120924	0.381995	0.346773	0.261199	0.500760	0.209025	0.236089	0.235404	0.490863	0.622618	0.202330	0.139389	0.323047	0.108099	0.072952	0.237424	0.233550	0.194226	0.373935	0.054879	0.056367	0.161799	0.236395	0.371244	0.241708	0.343415	0.215134	0.189786	0.410666	0.280608	0.134574	0.233458	0.551761	0.667249	0.303081	0.133134	0.296012	0.255533	0.120304	0.375848	0.327553	0.219906	0.218768	0.160253	0.190111	0.301690	0.298392	0.299133	0.423913	0.770851	0.529529	0.069178	0.204075	0.175247	0.183132
51	0.279900	0.252788	0.150584	0.116896	0.123509	0.142903	0.209747	0.136172	0.107777	0.071260	0.333368	0.175317	0.133869	0.045639	0.303727	0.261305	0.273289	0.170926	0.258938	0.185311	0.270247	0.167813	0.254227	0.415151	0.234762	0.133143	0.330791	0.303316	0.297136	0.548391	0.206843	0.223314	0.229104	0.510687	0.684587	0.242107	0.190749	0.294093	0.116035	0.079975	0.181874	0.212909	0.192779	0.404154	0.051743	0.055173	0.158614	0.225261	0.369277	0.199129	0.368754	0.203752	0.184560	0.384368	0.294088	0.164012	0.276217	0.548698	0.662551	0.303395	0.137889	0.289786	0.273939	0.132463	0.382675	0.391514	0.162138	0.172913	0.154745	0.153502	0.325403	0.302294	0.341573	0.414067	0.667306	0.533912	0.077892	0.224245	0.176999	0.228393
52	0.277673	0.261624	0.184258	0.124349	0.128664	0.167999	0.220508	0.190529	0.155293	0.073243	0.307520	0.174670	0.138470	0.045283	0.279741	0.255172	0.164920	0.157560	0.289210	0.286158	0.275418	0.159793	0.284159	0.428753	0.261179	0.204497	0.307420	0.223714	0.302582	0.587798	0.200535	0.210761	0.280734	0.525127	0.842991	0.293276	0.207639	0.305955	0.123799	0.083649	0.172104	0.117035	0.197439	0.530905	0.045754	0.053041	0.148382	0.200149	0.366568	0.179550	0.495856	0.172701	0.162803	0.301703	0.295326	0.181037	0.405942	0.591682	0.660180	0.308850	0.144762	0.277687	0.323653	0.144363	0.354786	0.416893	0.142035	0.125404	0.152548	0.167139	0.344297	0.307595	0.356978	0.391918	0.637729	0.536856	0.078833	0.226945	0.170714	0.220998
53	0.377743	0.258121	0.206981	0.147259	0.131162	0.180780	0.214469	0.196733	0.155328	0.067626	0.272944	0.168069	0.156745	0.045109	0.284499	0.248780	0.132261	0.124388	0.378029	0.293345	0.273368	0.151190	0.287209	0.433627	0.288164	0.233808	0.238680	0.169976	0.300778	0.598860	0.129477	0.194253	0.317627	0.579502	0.939550	0.303333	0.224632	0.323968	0.128337	0.084945	0.221099	0.128995	0.269626	0.559565	0.036595	0.043741	0.144412	0.181706	0.353255	0.172690	0.531573	0.169146	0.162938	0.265583	0.336161	0.183528	0.436237	0.615191	0.652418	0.325051	0.146862	0.268817	0.366335	0.157738	0.291112	0.446179	0.139908	0.073458	0.150393	0.167127	0.339169	0.300278	0.363781	0.377680	0.604938	0.537021	0.078170	0.212158	0.174278	0.251219
54	0.329369	0.372187	0.189838	0.149304	0.134135	0.176145	0.177674	0.202248	0.160359	0.062360	0.224269	0.125339	0.172155	0.053598	0.283550	0.246199	0.131107	0.125434	0.410210	0.294358	0.282136	0.144897	0.274390	0.433339	0.299316	0.297617	0.088109	0.080815	0.297866	0.608055	0.096081	0.147271	0.325990	0.594444	0.991947	0.310629	0.230176	0.354364	0.150841	0.097169	0.231996	0.150148	0.264758	0.562033	0.033424	0.035270	0.145723	0.184333	0.339184	0.167738	0.521010	0.189718	0.166312	0.221337	0.380415	0.189071	0.449113	0.619902	0.595512	0.332375	0.170477	0.241964	0.383869	0.181004	0.252060	0.468591	0.125556	0.053380	0.140718	0.169739	0.337572	0.299678	0.365467	0.438107	0.579229	0.511639	0.082178	0.200435	0.170121	0.285991
55	0.326830	0.397783	0.163823	0.137514	0.120221	0.169919	0.176361	0.285571	0.218763	0.080651	0.197490	0.078383	0.183518	0.063396	0.282748	0.248678	0.143092	0.122516	0.494234	0.297860	0.348445	0.143085	0.281796	0.437068	0.300586	0.372978	0.058639	0.084108	0.288318	0.606292	0.097123	0.132661	0.327733	0.602015	1.016057	0.316346	0.276571	0.356795	0.149751	0.125018	0.230352	0.155205	0.262013	0.496880	0.049204	0.031497	0.140697	0.195533	0.318256	0.162378	0.480231	0.237939	0.142268	0.136234	0.386952	0.190012	0.462608	0.680920	0.574336	0.334943	0.196695	0.233054	0.388718	0.178789	0.240940	0.499659	0.106378	0.177467	0.143184	0.164882	0.329599	0.294642	0.352024	0.438818	0.444007	0.476348	0.095790	0.201444	0.166581	0.309087
56	0.345002	0.441550	0.162411	0.119962	0.104741	0.167743	0.173884	0.297842	0.229723	0.166513	0.072653	0.066344	0.186952	0.066715	0.253447	0.237274	0.165188	0.117526	0.550357	0.326759	0.366755	0.142812	0.320679	0.424056	0.330792	0.392719	0.102934	0.089079	0.292485	0.606046	0.124942	0.126208	0.323272	0.586573	1.019586	0.346810	0.311208	0.362400	0.156913	0.127884	0.231936	0.164723	0.266442	0.476468	0.061808	0.033865	0.140484	0.203565	0.269448	0.163971	0.485370	0.403377	0.127739	0.126954	0.395517	0.190518	0.504365	0.740086	0.543823	0.334516	0.195996	0.216314	0.390129	0.176763	0.237417	0.496744	0.092882	0.247096	0.137596	0.162955	0.329936	0.286212	0.359369	0.415977	0.290423	0.473313	0.116410	0.206888	0.164711	0.315588
57	0.374900	0.430276	0.178968	0.112387	0.102953	0.166532	0.171573	0.298242	0.237102	0.202634	0.145424	0.122179	0.187227	0.066886	0.239950	0.222445	0.280709	0.161242	0.550020	0.354089	0.367707	0.135318	0.323929	0.405616	0.304077	0.388588	0.145746	0.131834	0.300020	0.531275	0.103569	0.212769	0.335134	0.590992	1.006215	0.380076	0.341814	0.370027	0.169226	0.146853	0.230895	0.214095	0.264084	0.441996	0.063494	0.035489	0.145256	0.199630	0.229873	0.164491	0.492986	0.430295	0.122759	0.122913	0.421069	0.193447	0.505797	0.674093	0.426836	0.324291	0.191956	0.183257	0.387357	0.176592	0.224950	0.464796	0.095955	0.299353	0.118683	0.158662	0.323835	0.283320	0.370318	0.397165	0.170040	0.469873	0.133855	0.212413	0.148080	0.316317
58	0.297629	0.432958	0.163474	0.080234	0.100503	0.154485	0.179058	0.305982	0.243305	0.216820	0.368236	0.270259	0.177009	0.063488	0.236473	0.207226	0.442587	0.178344	0.541224	0.356160	0.363761	0.119155	0.319406	0.401390	0.268915	0.341834	0.159591	0.146010	0.216145	0.422180	0.281279	0.322965	0.346977	0.574371	0.977591	0.372737	0.352365	0.370780	0.186252	0.172357	0.234026	0.243801	0.260025	0.433094	0.062550	0.034811	0.154185	0.191883	0.236765	0.175564	0.507201	0.449782	0.118293	0.117926	0.437963	0.215883	0.491386	0.686350	0.299034	0.213022	0.207838	0.182534	0.392324	0.176940	0.183011	0.412079	0.090800	0.497012	0.109457	0.157684	0.283999	0.268222	0.365508	0.441009	0.119454	0.349720	0.142596	0.215009	0.143196	0.314438
59	0.249300	0.304635	0.183320	0.077437	0.075738	0.116196	0.183987	0.270314	0.211497	0.239410	0.437636	0.348799	0.169999	0.058800	0.226692	0.199667	0.493401	0.335522	0.523650	0.281936	0.358988	0.101450	0.332862	0.402309	0.243127	0.330074	0.328883	0.146903	0.201465	0.370892	0.356260	0.332621	0.329536	0.563235	1.000805	0.351716	0.361531	0.355179	0.186488	0.178735	0.258132	0.242643	0.256766	0.272591	0.062595	0.034670	0.156720	0.194841	0.224317	0.192060	0.512653	0.473166	0.114500	0.118552	0.425811	0.238054	0.489521	0.660347	0.236269	0.179031	0.231141	0.149352	0.412097	0.179286	0.175743	0.389196	0.135364	0.614653	0.106950	0.149461	0.316844	0.283329	0.355302	0.559005	0.103933	0.160912	0.146481	0.215105	0.133944	0.311237
60	0.238107	0.285168	0.208173	0.085144	0.069522	0.093677	0.139104	0.263147	0.176975	0.228352	0.512256	0.352581	0.181452	0.060313	0.185996	0.171266	0.502669	0.416849	0.473497	0.264318	0.352349	0.096830	0.339407	0.345396	0.238312	0.275445	0.354624	0.164805	0.187640	0.241447	0.373181	0.344692	0.299989	0.515370	0.979958	0.372375	0.386289	0.330303	0.183487	0.184835	0.235559	0.260444	0.193904	0.174239	0.062114	0.034776	0.135653	0.177271	0.277457	0.221677	0.519345	0.495539	0.118701	0.114667	0.434769	0.234214	0.484502	0.663790	0.209898	0.179529	0.229057	0.129871	0.396626	0.200374	0.168291	0.365741	0.155740	0.638139	0.093487	0.128207	0.391884	0.278046	0.310009	0.572676	0.105149	0.134040	0.146204	0.199807	0.117861	0.307502
61	0.208618	0.195765	0.215063	0.085176	0.084765	0.117221	0.139705	0.258113	0.175382	0.180103	0.529094	0.359667	0.187271	0.066221	0.153149	0.128988	0.495243	0.440476	0.426912	0.257172	0.334828	0.082283	0.337980	0.238207	0.161950	0.153172	0.411782	0.188559	0.201771	0.220045	0.424628	0.359770	0.301502	0.513700	0.934241	0.406273	0.389614	0.332155	0.186714	0.191182	0.287075	0.270546	0.157010	0.101408	0.063990	0.036900	0.140019	0.144321	0.363232	0.258680	0.522466	0.496359	0.120333	0.115776	0.489645	0.218388	0.417325	0.654181	0.217594	0.197486	0.225171	0.125775	0.393614	0.207360	0.166073	0.318457	0.191261	0.792317	0.084069	0.117682	0.416053	0.260337	0.281677	0.614613	0.139806	0.117044	0.144196	0.162028	0.134684	0.298471
62	0.169551	0.215623	0.188688	0.087097	0.096862	0.133513	0.141548	0.161807	0.171027	0.157504	0.512323	0.363301	0.175076	0.066930	0.139137	0.128183	0.504173	0.451186	0.277118	0.251619	0.302577	0.088793	0.337035	0.231427	0.157250	0.147565	0.478313	0.182025	0.202527	0.159719	0.476457	0.387946	0.307230	0.492143	0.912698	0.429719	0.390183	0.329297	0.196540	0.195950	0.294151	0.271156	0.155105	0.133284	0.065434	0.037124	0.132485	0.175705	0.371072	0.260579	0.552348	0.499455	0.126247	0.110735	0.509743	0.235532	0.356372	0.605039	0.191726	0.246022	0.225934	0.100207	0.390791	0.201014	0.157215	0.258944	0.211378	0.957790	0.071987	0.106856	0.423665	0.257945	0.275369	0.574998	0.269840	0.262588	0.134277	0.135420	0.144014	0.282887
63	0.178646	0.233198	0.264893	0.105205	0.144207	0.133767	0.133990	0.125253	0.175440	0.125811	0.440196	0.246292	0.168485	0.063131	0.139117	0.124453	0.502659	0.557391	0.118170	0.205622	0.268129	0.173597	0.325761	0.230715	0.159787	0.147631	0.485778	0.138701	0.227411	0.155596	0.496906	0.403160	0.290322	0.466104	0.779314	0.412537	0.377045	0.328351	0.214438	0.199060	0.298819	0.277481	0.142537	0.172340	0.067328	0.033950	0.132621	0.187415	0.367028	0.259278	0.552731	0.542498	0.134416	0.089305	0.514976	0.240129	0.380866	0.599004	0.212033	0.260083	0.232093	0.099137	0.380367	0.192737	0.141305	0.206625	0.228852	1.032643	0.079033	0.102751	0.405704	0.241833	0.259845	0.567123	0.320251	0.325033	0.133025	0.110068	0.140163	0.262950
64	0.177045	0.232031	0.283639	0.115349	0.245297	0.139236	0.111694	0.116056	0.206974	0.147391	0.341889	0.324176	0.178398	0.053204	0.172831	0.102422	0.521402	0.549060	0.106319	0.152034	0.265527	0.218245	0.300220	0.202232	0.157763	0.122832	0.476882	0.640482	0.219088	0.149974	0.499931	0.411213	0.276352	0.428710	0.646057	0.420768	0.362826	0.326611	0.240904	0.212460	0.300507	0.266007	0.148258	0.206824	0.072468	0.079685	0.144831	0.181309	0.383359	0.260701	0.445144	0.625206	0.141255	0.093421	0.519237	0.221314	0.357278	0.595408	0.264487	0.271275	0.228814	0.092412	0.363250	0.185353	0.211332	0.227420	0.234502	1.026316	0.091093	0.072626	0.438129	0.221509	0.322618	0.571156	0.344472	0.330768	0.139100	0.117212	0.134286	0.262099
65	0.225086	0.290782	0.313455	0.107279	0.278253	0.180380	0.097373	0.076848	0.210108	0.164923	0.241913	0.320108	0.173738	0.044726	0.198518	0.096377	0.451504	0.545343	0.101412	0.120241	0.262135	0.261686	0.286536	0.193106	0.142754	0.121242	0.391169	0.827798	0.210413	0.163588	0.498703	0.405553	0.284312	0.509898	0.561967	0.438962	0.407913	0.315946	0.254285	0.224603	0.327379	0.331405	0.158747	0.198604	0.071381	0.128216	0.150653	0.176953	0.396631	0.260068	0.420843	0.682720	0.145267	0.095136	0.521906	0.206901	0.344012	0.365333	0.268335	0.268453	0.225434	0.076784	0.319870	0.175693	0.301957	0.358823	0.229321	1.016533	0.086473	0.066879	0.489771	0.222467	0.368221	0.586808	0.358856	0.406664	0.147811	0.128433	0.131412	0.224816
66	0.216988	0.281842	0.307577	0.113134	0.406947	0.195695	0.047768	0.023192	0.161660	0.162630	0.232477	0.315242	0.174805	0.043385	0.197403	0.089039	0.432868	0.459425	0.241543	0.145739	0.233665	0.287782	0.286281	0.189899	0.107010	0.119758	0.390830	0.982897	0.210653	0.209421	0.482745	0.313806	0.312620	0.505386	0.503322	0.449647	0.493667	0.299574	0.257895	0.226777	0.421825	0.469552	0.165308	0.198048	0.085422	0.156163	0.149529	0.176408	0.409890	0.261491	0.425086	0.703879	0.137666	0.093517	0.500085	0.204539	0.324589	0.357672	0.268551	0.267526	0.226743	0.072934	0.269161	0.173913	0.348342	0.432528	0.232567	0.926073	0.084197	0.035652	0.513247	0.220695	0.371759	0.598766	0.482064	0.414939	0.149379	0.129889	0.132221	0.180272
67	0.201792	0.254047	0.323673	0.144776	0.423519	0.300454	0.067986	0.038506	0.162712	0.194657	0.175202	0.310331	0.177208	0.045932	0.197094	0.089228	0.440832	0.443820	0.240395	0.172175	0.112952	0.287842	0.280553	0.177426	0.099999	0.102935	0.262182	1.087379	0.201001	0.225579	0.401486	0.350365	0.315259	0.500951	0.490207	0.441876	0.530798	0.187169	0.247306	0.222747	0.518902	0.784926	0.165169	0.226992	0.091896	0.166793	0.149505	0.181373	0.415802	0.263271	0.424116	0.689959	0.125190	0.092106	0.463299	0.199457	0.326778	0.307725	0.269959	0.267654	0.216304	0.059581	0.242726	0.152464	0.385641	0.490718	0.204405	0.864730	0.084681	0.037954	0.516742	0.224001	0.372496	0.589314	0.601394	0.468029	0.140524	0.122867	0.138636	0.140929
68	0.168955	0.245137	0.304119	0.138618	0.429691	0.332044	0.068125	0.039445	0.190681	0.194275	0.094066	0.264141	0.169084	0.047271	0.193849	0.102734	0.554562	0.428838	0.248810	0.172519	0.075746	0.288092	0.211534	0.163466	0.099378	0.075332	0.184831	1.090788	0.180583	0.226170	0.397104	0.351584	0.311741	0.508555	0.489649	0.408945	0.524200	0.172740	0.237805	0.206299	0.563980	0.882066	0.162146	0.228597	0.092771	0.169703	0.145791	0.179561	0.416162	0.267376	0.408805	0.617076	0.124174	0.127978	0.457506	0.198764	0.342462	0.235349	0.284848	0.276869	0.190278	0.059375	0.248341	0.150476	0.404336	0.507840	0.197624	0.854413	0.090898	0.039246	0.514765	0.240527	0.391108	0.499109	0.656217	0.557266	0.124078	0.110856	0.150071	0.125875
69	0.210053	0.227633	0.300494	0.139996	0.436226	0.330136	0.073817	0.051735	0.340073	0.190959	0.099230	0.152859	0.153498	0.056216	0.187704	0.099983	0.558474	0.418979	0.250361	0.177333	0.081129	0.301611	0.198231	0.163564	0.115682	0.167829	0.158630	1.088417	0.153661	0.229348	0.362042	0.335969	0.304358	0.523710	0.466498	0.408132	0.511240	0.165465	0.228568	0.203793	0.557595	0.898188	0.140346	0.225059	0.093162	0.186379	0.152350	0.179034	0.413063	0.274442	0.422689	0.603175	0.121343	0.151247	0.452229	0.205361	0.374508	0.180498	0.340076	0.301467	0.185892	0.059820	0.268249	0.148478	0.476998	0.525241	0.176890	0.693270	0.094594	0.041140	0.512413	0.244289	0.450476	0.482128	0.673230	0.603823	0.106324	0.100988	0.156377	0.121561
70	0.165450	0.146440	0.296438	0.160619	0.431126	0.383209	0.076465	0.056400	0.343458	0.263473	0.105450	0.244032	0.159893	0.063476	0.167999	0.101085	0.565026	0.300557	0.411635	0.455383	0.082441	0.306352	0.190704	0.161111	0.150610	0.173775	0.138467	0.752173	0.152883	0.223038	0.282910	0.322785	0.291062	0.512755	0.413179	0.433079	0.490904	0.137907	0.221648	0.191555	0.558702	0.922037	0.112851	0.210145	0.094591	0.195113	0.212962	0.174824	0.405990	0.247050	0.395207	0.596913	0.120869	0.154390	0.437128	0.221215	0.378539	0.122585	0.358492	0.332233	0.185843	0.056813	0.269755	0.154960	0.496387	0.534405	0.157868	0.456488	0.100167	0.055618	0.511257	0.245569	0.465600	0.505759	0.672632	0.613996	0.098912	0.116108	0.157726	0.118072
71	0.190095	0.186242	0.310382	0.217844	0.384295	0.401668	0.078807	0.056040	0.457612	0.283735	0.177716	0.263021	0.170563	0.074572	0.163736	0.087083	0.494397	0.304280	0.439297	0.590937	0.083230	0.307851	0.174521	0.156287	0.159517	0.192608	0.080940	0.696736	0.142683	0.226566	0.221889	0.319532	0.287776	0.509965	0.240138	0.658778	0.505426	0.138464	0.208497	0.165451	0.563600	0.942513	0.122515	0.161987	0.094405	0.196766	0.223057	0.178314	0.400262	0.226061	0.366953	0.576617	0.132726	0.157863	0.427085	0.208807	0.375266	0.094353	0.498395	0.340245	0.168827	0.040921	0.260092	0.166902	0.494800	0.539398	0.129668	0.265117	0.101108	0.099941	0.450001	0.168993	0.469945	0.467467	0.666539	0.589821	0.094420	0.125453	0.184650	0.119620
72	0.233145	0.210471	0.293830	0.221708	0.362356	0.385936	0.091163	0.070655	0.574570	0.269488	0.228678	0.363169	0.167098	0.074703	0.164320	0.081216	0.444245	0.309160	0.446605	0.709383	0.084813	0.316320	0.192932	0.156115	0.170089	0.248370	0.087176	0.354355	0.150187	0.249159	0.198235	0.326734	0.292801	0.516086	0.206740	0.913583	0.546772	0.131243	0.206680	0.152449	0.569265	0.919140	0.149232	0.163354	0.093905	0.197605	0.219462	0.176404	0.338131	0.171303	0.366234	0.591103	0.148561	0.164505	0.431096	0.180118	0.336090	0.075921	0.517821	0.286956	0.127049	0.038415	0.222333	0.177102	0.494902	0.543526	0.134637	0.266215	0.101418	0.107403	0.392811	0.156750	0.467270	0.456425	0.624701	0.535759	0.099327	0.174775	0.217205	0.123093
73	0.266844	0.213060	0.265939	0.249729	0.235630	0.377663	0.127759	0.112379	0.541743	0.263185	0.308074	0.454149	0.156137	0.078383	0.162807	0.078331	0.429718	0.313670	0.448743	0.781224	0.094662	0.339492	0.220620	0.153508	0.236161	0.254135	0.119371	0.197459	0.165635	0.286045	0.192715	0.321785	0.294572	0.522647	0.195267	0.939767	0.540934	0.121313	0.207591	0.146310	0.524426	0.897416	0.163023	0.191205	0.092883	0.198938	0.221005	0.147520	0.256580	0.131884	0.401851	0.671814	0.150093	0.170015	0.396263	0.179355	0.377385	0.082802	0.517088	0.361796	0.096723	0.053849	0.196098	0.158051	0.453624	0.453395	0.154449	0.254207	0.101385	0.154390	0.363522	0.157255	0.426972	0.401549	0.656449	0.531205	0.109141	0.190132	0.215427	0.119618
74	0.293908	0.216420	0.223056	0.242189	0.216255	0.300603	0.169914	0.129269	0.479793	0.220925	0.369172	0.500279	0.171431	0.080133	0.114826	0.085531	0.406075	0.261620	0.533016	0.791611	0.090962	0.340476	0.235037	0.134909	0.252139	0.286734	0.185011	0.224125	0.166584	0.259353	0.201660	0.308046	0.280474	0.523084	0.201885	0.931008	0.554476	0.078739	0.210017	0.137654	0.388333	0.592812	0.225713	0.325192	0.092568	0.201782	0.216217	0.151357	0.260728	0.128337	0.394395	0.716652	0.145619	0.171894	0.322149	0.175406	0.438439	0.093586	0.507250	0.404940	0.095077	0.056584	0.226325	0.164170	0.419410	0.374647	0.150852	0.307389	0.100501	0.163637	0.360155	0.157077	0.379878	0.368169	0.740338	0.497471	0.108692	0.237610	0.211673	0.096692
75	0.397533	0.289790	0.157737	0.245933	0.195577	0.254555	0.226936	0.147526	0.483465	0.166751	0.368373	0.473891	0.212446	0.081132	0.104398	0.094038	0.260050	0.248515	0.593198	0.793754	0.092296	0.304872	0.237393	0.109739	0.239791	0.249635	0.217022	0.214785	0.163210	0.247021	0.148735	0.252898	0.252577	0.503322	0.188691	0.923074	0.584497	0.078285	0.203181	0.130700	0.224858	0.446276	0.267324	0.440152	0.087340	0.183361	0.206232	0.186073	0.248082	0.124598	0.367827	0.718368	0.136564	0.171186	0.264740	0.151526	0.440085	0.101530	0.519609	0.414904	0.091513	0.069299	0.240275	0.206945	0.380513	0.300491	0.155660	0.325542	0.092522	0.173518	0.341070	0.157139	0.347410	0.341990	0.734887	0.469928	0.107521	0.237845	0.222950	0.067993
76	0.440175	0.296034	0.110563	0.185892	0.174090	0.244078	0.302241	0.165172	0.287321	0.096458	0.377782	0.432061	0.261683	0.084537	0.126926	0.144012	0.283249	0.242064	0.597737	0.804064	0.129183	0.288862	0.237333	0.094699	0.217594	0.242780	0.372549	0.216024	0.159419	0.238508	0.115684	0.196267	0.215015	0.331438	0.182206	0.926325	0.588588	0.074022	0.186887	0.131855	0.226443	0.401669	0.277870	0.540179	0.085735	0.151495	0.205950	0.206115	0.215204	0.119019	0.422175	0.670585	0.127102	0.176177	0.211829	0.127986	0.446586	0.113373	0.670087	0.417446	0.074890	0.132979	0.244824	0.218972	0.364094	0.322358	0.196648	0.334175	0.083238	0.180295	0.273234	0.162705	0.338402	0.329932	0.659755	0.450855	0.099024	0.236784	0.242145	0.061734
77	0.418749	0.333101	0.299910	0.181940	0.152869	0.165685	0.414643	0.411158	0.172954	0.084962	0.379362	0.516888	0.356817	0.091012	0.171289	0.155884	0.320809	0.262019	0.521881	0.903669	0.152469	0.262260	0.236825	0.087849	0.216929	0.244837	0.428297	0.227986	0.151250	0.238235	0.120383	0.185925	0.171406	0.310090	0.193480	0.924530	0.583071	0.075091	0.149551	0.111423	0.233376	0.340664	0.566912	0.585288	0.050697	0.118191	0.235130	0.201135	0.194553	0.117525	0.443626	0.623620	0.122540	0.175914	0.173866	0.127544	0.450930	0.105872	0.713809	0.422761	0.087338	0.173849	0.263724	0.219431	0.236601	0.350709	0.197355	0.354382	0.125780	0.186390	0.180237	0.168315	0.325919	0.319719	0.610028	0.407880	0.087864	0.231412	0.258004	0.074895
78	0.400678	0.326853	0.325406	0.126832	0.158080	0.107701	0.423190	0.420449	0.180196	0.078241	0.340756	0.465926	0.378775	0.087574	0.170672	0.156888	0.379586	0.255540	0.579102	0.857125	0.166295	0.259445	0.233882	0.081656	0.208734	0.188299	0.426500	0.216410	0.151504	0.236810	0.128080	0.185020	0.156375	0.291004	0.264455	0.924356	0.550326	0.075212	0.119190	0.107368	0.251849	0.263169	0.706142	0.603198	0.039008	0.115879	0.256002	0.199812	0.159859	0.113926	0.460821	0.600415	0.151382	0.196291	0.161779	0.127047	0.412958	0.105904	0.834048	0.446185	0.092220	0.188590	0.273672	0.223182	0.220078	0.343475	0.201012	0.437247	0.137589	0.187899	0.119950	0.174791	0.230939	0.272551	0.588210	0.310679	0.084006	0.229065	0.263328	0.083893
79	0.392810	0.418593	0.343603	0.135783	0.165302	0.117351	0.464562	0.428722	0.176151	0.099487	0.313028	0.471279	0.377535	0.082404	0.172586	0.180234	0.399970	0.249379	0.587717	0.805676	0.167993	0.271874	0.227734	0.080287	0.170091	0.245911	0.487499	0.281345	0.142003	0.260335	0.130710	0.153524	0.146257	0.259561	0.282398	0.928946	0.467492	0.077749	0.116606	0.119110	0.251868	0.253275	0.712506	0.608966	0.039441	0.103957	0.253665	0.222816	0.148269	0.111251	0.466372	0.590694	0.159852	0.275137	0.162339	0.125988	0.412466	0.121794	0.869877	0.441767	0.092438	0.208739	0.282065	0.227669	0.216762	0.341722	0.207189	0.467338	0.167016	0.210360	0.112106	0.178670	0.124611	0.166644	0.598743	0.259325	0.103190	0.237281	0.260079	0.086634
80	0.269803	0.444652	0.419683	0.121209	0.134262	0.119388	0.463063	0.421312	0.138822	0.108993	0.323986	0.503253	0.371831	0.062336	0.173391	0.192585	0.391456	0.214893	0.540586	0.745184	0.162219	0.275287	0.256497	0.070758	0.185145	0.313627	0.462341	0.354512	0.131191	0.271231	0.130788	0.065564	0.126327	0.200736	0.308255	0.956469	0.419270	0.088707	0.116447	0.128651	0.258320	0.250182	0.750981	0.619913	0.049916	0.075748	0.236673	0.233831	0.150740	0.099825	0.458303	0.581774	0.160801	0.321411	0.162172	0.125488	0.416097	0.139938	0.875378	0.426950	0.086451	0.217887	0.282793	0.230848	0.160905	0.320644	0.344491	0.525604	0.194326	0.211624	0.110533	0.175428	0.057783	0.075666	0.587046	0.254920	0.120596	0.310659	0.253682	0.088701
81	0.184976	0.415544	0.478244	0.117619	0.111827	0.116055	0.456950	0.416010	0.248657	0.173710	0.249721	0.454051	0.380607	0.059630	0.181404	0.192752	0.423996	0.210628	0.464941	0.739632	0.154902	0.265742	0.285541	0.100988	0.187303	0.320721	0.450473	0.351467	0.097553	0.278587	0.130824	0.040292	0.123332	0.178266	0.330026	0.953415	0.399294	0.098944	0.115192	0.129762	0.255853	0.221930	0.808273	0.669914	0.048008	0.057252	0.188480	0.241296	0.152053	0.084399	0.452245	0.591621	0.162995	0.329684	0.159824	0.123711	0.417573	0.139437	0.823675	0.411041	0.083328	0.236977	0.273513	0.229443	0.144314	0.313969	0.408963	0.520583	0.191710	0.220329	0.114716	0.165880	0.049721	0.073071	0.581472	0.252876	0.124012	0.379529	0.261027	0.089381
82	0.224278	0.473739	0.405443	0.128045	0.114533	0.123710	0.431045	0.410618	0.303168	0.247123	0.339052	0.430125	0.379047	0.059423	0.178077	0.193125	0.475586	0.211661	0.409975	0.741860	0.154517	0.265495	0.285686	0.201412	0.193858	0.327077	0.338167	0.342251	0.079482	0.277211	0.115337	0.030877	0.128338	0.172116	0.412693	0.863974	0.389081	0.096616	0.114508	0.134617	0.248607	0.142195	0.814285	0.593882	0.055028	0.064401	0.199797	0.285400	0.170629	0.093022	0.452545	0.604161	0.180041	0.339726	0.147086	0.115240	0.450242	0.135705	0.814996	0.411009	0.082838	0.243851	0.251827	0.229940	0.144277	0.307419	0.467933	0.486339	0.192618	0.234207	0.121158	0.158942	0.061688	0.075840	0.592518	0.248602	0.124498	0.389523	0.277043	0.090417
83	0.229445	0.465615	0.391654	0.125352	0.125967	0.136627	0.384874	0.405073	0.354268	0.298393	0.287022	0.361730	0.373027	0.056938	0.172151	0.193346	0.466611	0.220084	0.478018	0.721781	0.157450	0.264021	0.281327	0.262094	0.195852	0.328293	0.319907	0.343902	0.074643	0.256668	0.145392	0.044513	0.120633	0.152516	0.475925	0.599297	0.390812	0.096987	0.124375	0.143153	0.238695	0.128646	0.815708	0.610354	0.062896	0.068296	0.208314	0.301170	0.176987	0.091579	0.451644	0.613501	0.186165	0.341555	0.128984	0.077083	0.392256	0.131213	0.819945	0.331570	0.081825	0.247026	0.256042	0.227629	0.139681	0.295701	0.480683	0.479862	0.201333	0.224623	0.120587	0.164361	0.098596	0.068947	0.528936	0.246858	0.127584	0.392672	0.268749	0.088307
84	0.230159	0.419888	0.411510	0.134004	0.171821	0.164558	0.254189	0.147754	0.375874	0.305073	0.321424	0.535509	0.353057	0.060093	0.171698	0.191958	0.599524	0.177490	0.451136	0.438046	0.183112	0.273562	0.268133	0.292303	0.210093	0.330339	0.304588	0.377816	0.086317	0.261075	0.220459	0.054526	0.143052	0.133723	0.483383	0.466927	0.377409	0.117106	0.125092	0.148631	0.242454	0.131346	0.735849	0.564419	0.075185	0.069455	0.202683	0.306385	0.243190	0.091905	0.455362	0.583039	0.182103	0.351524	0.088558	0.053127	0.473273	0.133375	0.832322	0.320226	0.080856	0.269883	0.268808	0.227690	0.145552	0.206480	0.495396	0.573578	0.246359	0.220018	0.122269	0.171374	0.102150	0.061322	0.458150	0.241107	0.155244	0.420658	0.238283	0.096097
85	0.260735	0.312486	0.406332	0.140068	0.167778	0.196667	0.239857	0.112843	0.380164	0.313348	0.398786	0.623399	0.356134	0.066212	0.168355	0.180627	0.606588	0.166655	0.353229	0.435555	0.198329	0.259153	0.246332	0.306722	0.175928	0.190758	0.204639	0.297748	0.098912	0.264087	0.228650	0.098383	0.169883	0.139963	0.487643	0.480925	0.308944	0.127294	0.124669	0.150417	0.207763	0.116718	0.554613	0.583021	0.076357	0.074302	0.205753	0.319610	0.298500	0.100023	0.414862	0.519366	0.190704	0.364670	0.060495	0.063656	0.510382	0.143507	0.790118	0.333912	0.085052	0.295681	0.272388	0.226205	0.154235	0.137211	0.520106	0.582226	0.254319	0.216490	0.113158	0.179266	0.107802	0.056689	0.437776	0.254828	0.172007	0.427048	0.231949	0.096378
86	0.288665	0.303231	0.329292	0.207124	0.159324	0.192318	0.144053	0.064146	0.283097	0.238630	0.506038	0.737126	0.303481	0.070619	0.121154	0.146233	0.603871	0.157866	0.389700	0.544274	0.212525	0.247193	0.233788	0.313145	0.168377	0.180049	0.214458	0.234523	0.114053	0.264661	0.276992	0.152415	0.178527	0.150463	0.521577	0.491330	0.286162	0.132791	0.123266	0.148814	0.153439	0.086748	0.521646	0.580014	0.081018	0.099652	0.210455	0.303305	0.306498	0.119395	0.389468	0.464846	0.197063	0.390492	0.160515	0.090140	0.505007	0.152816	0.730428	0.320035	0.094555	0.294477	0.268512	0.233361	0.151650	0.117078	0.662240	0.606780	0.263855	0.220562	0.105425	0.184113	0.125061	0.057315	0.426555	0.272643	0.174246	0.421746	0.231846	0.099311
87	0.276214	0.131026	0.323689	0.246355	0.154796	0.192875	0.127522	0.061826	0.249323	0.202452	0.502925	0.723326	0.251202	0.064708	0.097849	0.145272	0.634685	0.158537	0.463085	0.536987	0.212909	0.243311	0.231668	0.331206	0.175345	0.172515	0.206527	0.313183	0.127364	0.234391	0.278474	0.157671	0.171173	0.152443	0.576366	0.495797	0.260072	0.155363	0.115576	0.152095	0.119574	0.116072	0.498257	0.583855	0.089107	0.169763	0.208145	0.289771	0.316959	0.131610	0.378406	0.396830	0.195267	0.389574	0.251875	0.134614	0.510203	0.163665	0.680678	0.342898	0.106062	0.305695	0.238613	0.237784	0.141520	0.084181	0.672160	0.670488	0.263537	0.218621	0.105685	0.184515	0.152264	0.059895	0.509170	0.232766	0.173575	0.431232	0.229307	0.155303
88	0.313313	0.255776	0.322727	0.264147	0.151362	0.197513	0.099252	0.074799	0.240180	0.164217	0.506308	0.704529	0.235803	0.064702	0.096555	0.131209	0.605874	0.160635	0.556607	0.532403	0.189699	0.243367	0.231424	0.349684	0.162041	0.198061	0.245209	0.326264	0.130932	0.211309	0.278575	0.173492	0.182699	0.152213	0.738265	0.482061	0.183460	0.168966	0.115915	0.157594	0.112118	0.131778	0.541274	0.529123	0.091015	0.173894	0.172341	0.285223	0.327361	0.136036	0.326541	0.377122	0.198105	0.390320	0.307744	0.176089	0.509116	0.167694	0.542922	0.299258	0.155410	0.332107	0.214005	0.211175	0.123772	0.046158	0.622077	0.639800	0.262548	0.243401	0.106557	0.188409	0.156044	0.065737	0.613115	0.248118	0.176819	0.431172	0.226306	0.199966
89	0.310793	0.304493	0.297632	0.283433	0.155215	0.234985	0.105685	0.112101	0.207059	0.129802	0.438852	0.504954	0.237883	0.065078	0.104702	0.090964	0.563645	0.156567	0.567735	0.696750	0.200605	0.228419	0.231358	0.376763	0.194512	0.201784	0.260009	0.305997	0.146052	0.154127	0.278818	0.205971	0.193523	0.149667	0.782685	0.483529	0.161327	0.172992	0.120082	0.153431	0.149604	0.140864	0.613413	0.608568	0.100529	0.185365	0.162924	0.278183	0.328970	0.136563	0.316492	0.439627	0.206107	0.388617	0.314647	0.193397	0.518806	0.154489	0.492288	0.298288	0.187052	0.365273	0.212407	0.198635	0.130951	0.035159	0.590328	0.678404	0.241520	0.245795	0.095532	0.201876	0.181120	0.084992	0.620937	0.259880	0.176014	0.431239	0.219502	0.201923
90	0.304103	0.335700	0.229584	0.300110	0.155167	0.229239	0.110469	0.113267	0.204227	0.126398	0.373294	0.342656	0.225131	0.068420	0.110915	0.083080	0.539455	0.122225	0.526730	0.749698	0.199369	0.259819	0.230647	0.406304	0.188218	0.200120	0.371552	0.293639	0.151132	0.141966	0.280272	0.210330	0.205997	0.149997	0.819441	0.479735	0.161254	0.174469	0.118302	0.151074	0.157070	0.150769	0.622201	0.871302	0.101061	0.189979	0.167900	0.263960	0.330636	0.137654	0.310067	0.487957	0.213233	0.387281	0.326509	0.195897	0.519606	0.151955	0.483829	0.292645	0.184946	0.364661	0.194474	0.198670	0.134144	0.059832	0.579850	0.729527	0.237153	0.238475	0.089406	0.208839	0.193288	0.099428	0.666801	0.287721	0.175418	0.431949	0.213083	0.200072
91	0.265977	0.345580	0.230732	0.260208	0.102621	0.205643	0.110438	0.118798	0.234112	0.137019	0.222280	0.284425	0.228605	0.073478	0.129807	0.082434	0.333196	0.062545	0.528722	0.779801	0.200709	0.371658	0.216171	0.428234	0.186865	0.244933	0.541201	0.353585	0.151989	0.134654	0.276247	0.208936	0.217121	0.153570	0.876632	0.456684	0.161447	0.175748	0.112823	0.131744	0.141068	0.148573	0.610359	0.933199	0.097735	0.199685	0.170051	0.253210	0.338670	0.135296	0.322762	0.578497	0.201975	0.379207	0.351088	0.196018	0.496837	0.153312	0.490831	0.304470	0.193587	0.357555	0.182533	0.201800	0.146491	0.078484	0.610672	0.741099	0.205436	0.225462	0.114772	0.197828	0.194821	0.098052	0.707327	0.332015	0.160789	0.422440	0.224137	0.198819
92	0.278686	0.345731	0.209439	0.222803	0.101965	0.161634	0.115791	0.127821	0.197950	0.114649	0.284302	0.333708	0.287889	0.071875	0.136195	0.082696	0.308581	0.073153	0.549373	0.758545	0.209920	0.391433	0.146824	0.441085	0.179696	0.283050	0.656502	0.536867	0.148870	0.121233	0.225875	0.209688	0.215033	0.154613	0.874137	0.531149	0.162407	0.175200	0.102491	0.117501	0.146261	0.150751	0.606227	1.128344	0.097163	0.203002	0.168227	0.252261	0.353755	0.130155	0.316366	0.687721	0.198997	0.332598	0.384476	0.197569	0.470981	0.155616	0.562133	0.264938	0.197891	0.348340	0.169192	0.208729	0.145401	0.079560	0.632431	0.683020	0.194727	0.240604	0.146349	0.182092	0.181425	0.099431	0.680886	0.347128	0.153704	0.377833	0.237571	0.197570
93	0.382669	0.315388	0.227065	0.206865	0.105648	0.185709	0.113398	0.140983	0.168948	0.089002	0.366627	0.327740	0.310245	0.071511	0.134812	0.081873	0.294156	0.084043	0.518550	0.679030	0.216266	0.388269	0.100219	0.434351	0.231996	0.291178	0.732958	0.657588	0.143201	0.124639	0.221005	0.218795	0.215154	0.154900	0.853142	0.530900	0.156008	0.168594	0.099019	0.106024	0.155348	0.156428	0.608844	1.184575	0.093116	0.203725	0.144950	0.192571	0.354937	0.125448	0.319435	0.683267	0.198678	0.276860	0.403474	0.217218	0.425164	0.150420	0.527249	0.335767	0.202779	0.349873	0.166460	0.211668	0.151335	0.081439	0.606594	0.738991	0.195141	0.237649	0.140751	0.192151	0.179703	0.099222	0.650960	0.378474	0.151151	0.320097	0.238266	0.201923
94	0.372665	0.244127	0.279205	0.172886	0.106688	0.205250	0.125077	0.144406	0.227644	0.141884	0.495401	0.316983	0.432068	0.064596	0.143598	0.075498	0.225662	0.084065	0.449668	0.733099	0.218837	0.388406	0.106699	0.394998	0.258995	0.283684	0.848331	0.801732	0.136949	0.149855	0.167921	0.190617	0.229121	0.153115	0.814627	0.492305	0.150018	0.163302	0.101090	0.105081	0.150014	0.135557	0.615772	1.194982	0.099983	0.210921	0.138870	0.179514	0.347356	0.118735	0.317865	0.690457	0.198087	0.258575	0.409272	0.254973	0.390432	0.133661	0.518893	0.462204	0.211159	0.359322	0.165288	0.224888	0.147539	0.084001	0.452296	0.693865	0.200085	0.220473	0.137243	0.208508	0.189279	0.099006	0.656912	0.389532	0.198240	0.300463	0.219447	0.204595
95	0.507250	0.462441	0.326380	0.211158	0.110507	0.213798	0.113229	0.139793	0.222747	0.138389	0.537861	0.277380	0.438529	0.053519	0.170416	0.062815	0.219011	0.083594	0.467245	1.131130	0.215020	0.386220	0.090415	0.363841	0.252717	0.286978	0.880019	0.850959	0.124193	0.152996	0.138192	0.178268	0.213336	0.136574	0.806949	0.473033	0.153280	0.166885	0.101601	0.106697	0.158928	0.115805	0.545616	1.236026	0.107345	0.294804	0.170645	0.158983	0.341019	0.116572	0.318298	0.683291	0.190533	0.220452	0.411168	0.281579	0.506914	0.124920	0.469974	0.468184	0.213325	0.356371	0.161735	0.258592	0.145642	0.084552	0.456414	0.633366	0.182792	0.232116	0.138268	0.201636	0.182294	0.099135	0.673914	0.390509	0.244576	0.291612	0.207264	0.214772
96	0.521302	0.508620	0.375257	0.403838	0.105865	0.168161	0.103139	0.136748	0.204344	0.133762	0.581622	0.219560	0.423866	0.045174	0.175144	0.081967	0.241641	0.091616	0.499094	1.096369	0.188728	0.371593	0.072807	0.338129	0.248935	0.272739	0.805148	0.893179	0.122232	0.159319	0.246213	0.176699	0.210108	0.127555	0.811536	0.462782	0.150430	0.183428	0.105498	0.097478	0.155901	0.101506	0.301767	1.219056	0.148103	0.354498	0.189038	0.116753	0.286410	0.113322	0.291552	0.672500	0.188247	0.213228	0.414147	0.293823	0.609254	0.127375	0.383910	0.490256	0.215287	0.355035	0.151298	0.266012	0.161759	0.084155	0.454694	0.648483	0.124192	0.237046	0.139236	0.197245	0.168841	0.105517	0.644110	0.394865	0.233767	0.212931	0.213474	0.236598
97	0.533668	0.532901	0.493704	0.502950	0.093226	0.169781	0.098597	0.137218	0.212386	0.135214	0.519775	0.152405	0.434027	0.046374	0.175230	0.093267	0.258627	0.093444	0.518549	1.125383	0.171400	0.365735	0.068753	0.333685	0.254970	0.210198	0.750043	0.809995	0.107339	0.142879	0.259600	0.146161	0.281070	0.151985	0.807327	0.454377	0.127702	0.170373	0.145418	0.089027	0.148150	0.108172	0.390056	0.999430	0.186182	0.349834	0.183303	0.111723	0.245389	0.104640	0.286779	0.648190	0.196905	0.198407	0.416925	0.299751	0.606950	0.122805	0.386011	0.492510	0.221437	0.339875	0.125251	0.261907	0.210058	0.085440	0.411413	0.612052	0.112229	0.226520	0.142877	0.208153	0.165608	0.120794	0.534259	0.423310	0.282170	0.202053	0.220351	0.252477
98	0.511785	0.561776	0.523480	0.656302	0.093355	0.168695	0.100175	0.162137	0.209056	0.191288	0.507234	0.143282	0.434083	0.046545	0.168014	0.100885	0.239458	0.091436	0.511414	1.102151	0.163644	0.362742	0.070058	0.327148	0.279715	0.173875	0.820485	0.750745	0.091464	0.135600	0.268145	0.136142	0.345780	0.165785	0.844662	0.432562	0.107621	0.163385	0.163421	0.083138	0.158604	0.111136	0.382927	0.948770	0.188633	0.349671	0.181604	0.122124	0.249787	0.082938	0.272514	0.658428	0.190242	0.169094	0.418947	0.300529	0.706888	0.117656	0.443896	0.488311	0.233795	0.316842	0.111248	0.263141	0.223863	0.075703	0.405065	0.618651	0.099454	0.234375	0.145086	0.220833	0.165750	0.120788	0.505136	0.489185	0.314401	0.161097	0.217340	0.255464
99	0.529620	0.584151	0.572473	0.655629	0.107870	0.170067	0.091411	0.165619	0.521372	0.186236	0.401122	0.150815	0.431594	0.044145	0.167067	0.102339	0.176158	0.081664	0.529417	1.112797	0.168762	0.363185	0.079537	0.316614	0.236976	0.145441	0.796050	0.607458	0.097153	0.143335	0.281774	0.147328	0.352276	0.166805	0.745889	0.436320	0.123683	0.217430	0.164605	0.082708	0.158650	0.104404	0.403513	0.699301	0.188779	0.353503	0.176248	0.121669	0.287020	0.069174	0.275252	0.671670	0.188208	0.074928	0.397433	0.295679	0.780688	0.121389	0.437899	0.486707	0.244063	0.316368	0.110709	0.266157	0.243352	0.070848	0.401029	0.611823	0.107636	0.230113	0.162767	0.222768	0.142666	0.103990	0.479511	0.483225	0.315333	0.145779	0.204044	0.220043
100	0.480377	0.460008	0.593486	0.727245	0.111530	0.144903	0.086521	0.155568	0.551830	0.201094	0.464282	0.213502	0.430887	0.034809	0.203026	0.103466	0.165549	0.090269	0.574914	1.110701	0.168807	0.359397	0.110715	0.310356	0.262438	0.125232	0.815446	0.685752	0.091910	0.142123	0.287322	0.145951	0.380432	0.166344	0.674635	0.439057	0.199962	0.205934	0.163902	0.080663	0.167572	0.098366	0.399994	0.747892	0.189172	0.436005	0.166861	0.118990	0.419027	0.082150	0.272428	0.692925	0.210173	0.082364	0.345498	0.279164	0.814320	0.126827	0.482043	0.491382	0.243879	0.307759	0.111376	0.270091	0.273640	0.076788	0.374650	0.578347	0.107167	0.207256	0.182424	0.210663	0.152765	0.097205	0.413136	0.500676	0.323207	0.142101	0.184435	0.187072
101	0.452428	0.367913	0.625554	0.713637	0.109066	0.112615	0.124615	0.152112	0.549611	0.268339	0.463594	0.368373	0.410705	0.028799	0.204209	0.110166	0.179141	0.102100	0.606224	1.095495	0.141420	0.365079	0.114940	0.289596	0.294744	0.124139	0.832570	0.655139	0.090179	0.140599	0.282811	0.157411	0.481107	0.166544	0.680713	0.437996	0.320979	0.196256	0.160393	0.076961	0.168359	0.095356	0.398689	0.805325	0.224611	0.467933	0.161413	0.116617	0.604708	0.089755	0.270769	0.656903	0.230213	0.085412	0.294790	0.254473	0.835929	0.125711	0.431672	0.515945	0.220186	0.279775	0.109668	0.272847	0.271001	0.079194	0.433711	0.571269	0.106934	0.202619	0.191047	0.192900	0.161516	0.094776	0.403264	0.470558	0.326503	0.143468	0.174756	0.182824
