	181_P_T2_sh_R_ND_A_01.c3d	181_P_T2_sh_R_ND_A_01.c3d	181_P_T2_sh_R_ND_A_01.c3d	181_P_T2_sh_R_ND_A_01.c3d	181_P_T2_sh_R_ND_A_01.c3d	181_P_T2_sh_R_ND_A_01.c3d	181_P_T2_sh_R_ND_A_01.c3d	181_P_T2_sh_R_ND_A_01.c3d	181_P_T2_sh_R_ND_A_02.c3d	181_P_T2_sh_R_ND_A_02.c3d	181_P_T2_sh_R_ND_A_02.c3d	181_P_T2_sh_R_ND_A_02.c3d	181_P_T2_sh_R_ND_A_02.c3d	181_P_T2_sh_R_ND_A_02.c3d	181_P_T2_sh_R_ND_A_02.c3d	181_P_T2_sh_R_ND_A_02.c3d	181_P_T2_sh_R_ND_A_04.c3d	181_P_T2_sh_R_ND_A_04.c3d	181_P_T2_sh_R_ND_A_04.c3d	181_P_T2_sh_R_ND_A_04.c3d	181_P_T2_sh_R_ND_A_04.c3d	181_P_T2_sh_R_ND_A_04.c3d	181_P_T2_sh_R_ND_A_04.c3d	181_P_T2_sh_R_ND_A_04.c3d	181_P_T2_sh_R_ND_A_05.c3d	181_P_T2_sh_R_ND_A_05.c3d	181_P_T2_sh_R_ND_A_05.c3d	181_P_T2_sh_R_ND_A_05.c3d	181_P_T2_sh_R_ND_A_05.c3d	181_P_T2_sh_R_ND_A_05.c3d	181_P_T2_sh_R_ND_A_05.c3d	181_P_T2_sh_R_ND_A_05.c3d	181_P_T2_sh_R_ND_A_06.c3d	181_P_T2_sh_R_ND_A_06.c3d	181_P_T2_sh_R_ND_A_06.c3d	181_P_T2_sh_R_ND_A_06.c3d	181_P_T2_sh_R_ND_A_06.c3d	181_P_T2_sh_R_ND_A_06.c3d	181_P_T2_sh_R_ND_A_06.c3d	181_P_T2_sh_R_ND_A_06.c3d	181_P_T2_sh_R_ND_A_07.c3d	181_P_T2_sh_R_ND_A_07.c3d	181_P_T2_sh_R_ND_A_07.c3d	181_P_T2_sh_R_ND_A_07.c3d	181_P_T2_sh_R_ND_A_07.c3d	181_P_T2_sh_R_ND_A_07.c3d	181_P_T2_sh_R_ND_A_07.c3d	181_P_T2_sh_R_ND_A_07.c3d	181_P_T2_sh_R_ND_A_08.c3d	181_P_T2_sh_R_ND_A_08.c3d	181_P_T2_sh_R_ND_A_08.c3d	181_P_T2_sh_R_ND_A_08.c3d	181_P_T2_sh_R_ND_A_08.c3d	181_P_T2_sh_R_ND_A_08.c3d	181_P_T2_sh_R_ND_A_08.c3d	181_P_T2_sh_R_ND_A_08.c3d	181_P_T2_sh_R_ND_A_09.c3d	181_P_T2_sh_R_ND_A_09.c3d	181_P_T2_sh_R_ND_A_09.c3d	181_P_T2_sh_R_ND_A_09.c3d	181_P_T2_sh_R_ND_A_09.c3d	181_P_T2_sh_R_ND_A_09.c3d	181_P_T2_sh_R_ND_A_09.c3d	181_P_T2_sh_R_ND_A_09.c3d	181_P_T2_sh_R_ND_A_10.c3d	181_P_T2_sh_R_ND_A_10.c3d	181_P_T2_sh_R_ND_A_10.c3d	181_P_T2_sh_R_ND_A_10.c3d	181_P_T2_sh_R_ND_A_10.c3d	181_P_T2_sh_R_ND_A_10.c3d	181_P_T2_sh_R_ND_A_10.c3d	181_P_T2_sh_R_ND_A_10.c3d
	Biceps femoris_lat	Semitendinosus_lat	Vastus lateralis_lat	Vastus medialis_lat	Biceps femoris_med	Semitendinosus_med	Vastus lateralis_med	Vastus medialis_med	Biceps femoris_lat	Semitendinosus_lat	Vastus lateralis_lat	Vastus medialis_lat	Biceps femoris_med	Semitendinosus_med	Vastus lateralis_med	Vastus medialis_med	Biceps femoris_lat	Semitendinosus_lat	Vastus lateralis_lat	Vastus medialis_lat	Biceps femoris_med	Semitendinosus_med	Vastus lateralis_med	Vastus medialis_med	Biceps femoris_lat	Semitendinosus_lat	Vastus lateralis_lat	Vastus medialis_lat	Biceps femoris_med	Semitendinosus_med	Vastus lateralis_med	Vastus medialis_med	Biceps femoris_lat	Semitendinosus_lat	Vastus lateralis_lat	Vastus medialis_lat	Biceps femoris_med	Semitendinosus_med	Vastus lateralis_med	Vastus medialis_med	Biceps femoris_lat	Semitendinosus_lat	Vastus lateralis_lat	Vastus medialis_lat	Biceps femoris_med	Semitendinosus_med	Vastus lateralis_med	Vastus medialis_med	Biceps femoris_lat	Semitendinosus_lat	Vastus lateralis_lat	Vastus medialis_lat	Biceps femoris_med	Semitendinosus_med	Vastus lateralis_med	Vastus medialis_med	Biceps femoris_lat	Semitendinosus_lat	Vastus lateralis_lat	Vastus medialis_lat	Biceps femoris_med	Semitendinosus_med	Vastus lateralis_med	Vastus medialis_med	Biceps femoris_lat	Semitendinosus_lat	Vastus lateralis_lat	Vastus medialis_lat	Biceps femoris_med	Semitendinosus_med	Vastus lateralis_med	Vastus medialis_med
	P2D	P2D	P2D	P2D	P2D	P2D	P2D	P2D	P2D	P2D	P2D	P2D	P2D	P2D	P2D	P2D	P2D	P2D	P2D	P2D	P2D	P2D	P2D	P2D	P2D	P2D	P2D	P2D	P2D	P2D	P2D	P2D	P2D	P2D	P2D	P2D	P2D	P2D	P2D	P2D	P2D	P2D	P2D	P2D	P2D	P2D	P2D	P2D	P2D	P2D	P2D	P2D	P2D	P2D	P2D	P2D	P2D	P2D	P2D	P2D	P2D	P2D	P2D	P2D	P2D	P2D	P2D	P2D	P2D	P2D	P2D	P2D
	EMG_lat	EMG_lat	EMG_lat	EMG_lat	EMG_med	EMG_med	EMG_med	EMG_med	EMG_lat	EMG_lat	EMG_lat	EMG_lat	EMG_med	EMG_med	EMG_med	EMG_med	EMG_lat	EMG_lat	EMG_lat	EMG_lat	EMG_med	EMG_med	EMG_med	EMG_med	EMG_lat	EMG_lat	EMG_lat	EMG_lat	EMG_med	EMG_med	EMG_med	EMG_med	EMG_lat	EMG_lat	EMG_lat	EMG_lat	EMG_med	EMG_med	EMG_med	EMG_med	EMG_lat	EMG_lat	EMG_lat	EMG_lat	EMG_med	EMG_med	EMG_med	EMG_med	EMG_lat	EMG_lat	EMG_lat	EMG_lat	EMG_med	EMG_med	EMG_med	EMG_med	EMG_lat	EMG_lat	EMG_lat	EMG_lat	EMG_med	EMG_med	EMG_med	EMG_med	EMG_lat	EMG_lat	EMG_lat	EMG_lat	EMG_med	EMG_med	EMG_med	EMG_med
ITEM	Y	Y	Y	Y	Y	Y	Y	Y	Y	Y	Y	Y	Y	Y	Y	Y	Y	Y	Y	Y	Y	Y	Y	Y	Y	Y	Y	Y	Y	Y	Y	Y	Y	Y	Y	Y	Y	Y	Y	Y	Y	Y	Y	Y	Y	Y	Y	Y	Y	Y	Y	Y	Y	Y	Y	Y	Y	Y	Y	Y	Y	Y	Y	Y	Y	Y	Y	Y	Y	Y	Y	Y
1	0.084528	0.111983	0.356623	0.741947	0.060629	0.436028	0.071439	0.107272	0.313607	0.207003	0.201639	0.251204	0.022489	0.096654	0.182732	0.174689	0.115950	0.094461	0.071619	0.107458	0.190898	0.121901	0.072819	0.046997	0.505240	0.173055	0.249123	0.154155	0.084903	0.125809	0.161446	0.135629	0.076094	0.094259	0.080967	0.216523	0.132427	0.112346	0.324173	0.100009	0.080827	0.050256	0.245430	0.104171	0.073586	0.560495	0.114943	0.312450	0.475234	0.225910	0.083537	0.066971	0.053679	0.349369	0.229885	0.123398	0.135858	0.174078	0.110140	0.158678	0.059241	0.092662	0.326357	0.152121	0.035461	0.516674	0.114366	0.038762	0.057249	0.174242	0.122108	0.125829
2	0.097341	0.122393	0.357832	0.745258	0.062010	0.379054	0.085035	0.115836	0.377708	0.210073	0.182032	0.250729	0.023143	0.097372	0.171501	0.180037	0.169575	0.086817	0.167001	0.086020	0.163086	0.116745	0.059363	0.037299	0.473195	0.169758	0.286487	0.152012	0.084572	0.159884	0.150814	0.111169	0.079290	0.100000	0.088491	0.215691	0.122883	0.106756	0.333993	0.100098	0.065507	0.053725	0.245636	0.194060	0.068996	0.531713	0.096444	0.265953	0.478560	0.246188	0.084303	0.063648	0.046583	0.377158	0.232523	0.123110	0.132411	0.175635	0.135017	0.159796	0.054509	0.088212	0.310187	0.146906	0.038337	0.489075	0.100786	0.030122	0.060014	0.180468	0.144549	0.149163
3	0.101870	0.124051	0.353306	0.745494	0.060807	0.353463	0.096399	0.111968	0.381373	0.222054	0.167953	0.248677	0.022353	0.099341	0.198217	0.169171	0.173381	0.061952	0.213953	0.096836	0.099728	0.112147	0.075708	0.040101	0.467357	0.165200	0.378447	0.142278	0.076948	0.190885	0.165303	0.078617	0.078745	0.103275	0.154120	0.213153	0.108796	0.096391	0.340076	0.110254	0.049112	0.106536	0.244554	0.233510	0.069403	0.562288	0.093253	0.137495	0.496545	0.266471	0.081791	0.061686	0.062025	0.465460	0.223125	0.130121	0.129351	0.175269	0.169548	0.163923	0.052524	0.090637	0.292927	0.149489	0.036679	0.430297	0.095785	0.023643	0.060065	0.181505	0.155797	0.157827
4	0.102556	0.122969	0.315252	0.745563	0.059119	0.349625	0.093296	0.141092	0.363006	0.245705	0.142639	0.232772	0.022111	0.105260	0.221222	0.184519	0.180057	0.044679	0.291001	0.090465	0.100570	0.122328	0.089497	0.040637	0.433795	0.145365	0.399424	0.166690	0.132456	0.189939	0.239660	0.078082	0.077881	0.105223	0.190870	0.224127	0.103460	0.085170	0.333376	0.121630	0.048840	0.135097	0.281734	0.290126	0.071755	0.626749	0.088364	0.072408	0.581714	0.275647	0.080464	0.061890	0.114879	0.546092	0.218662	0.187864	0.105942	0.177381	0.211683	0.170226	0.060679	0.099997	0.275605	0.164887	0.038740	0.381352	0.103416	0.016281	0.047347	0.181282	0.181669	0.154385
5	0.104742	0.123753	0.295662	0.731552	0.059531	0.360645	0.104241	0.151549	0.359529	0.255907	0.134144	0.205482	0.024763	0.253195	0.220078	0.206848	0.190324	0.057016	0.342790	0.088673	0.098265	0.147559	0.090561	0.042084	0.354043	0.109837	0.401832	0.167228	0.146787	0.189980	0.289505	0.096912	0.075570	0.119805	0.199127	0.262212	0.103065	0.076651	0.325397	0.134856	0.065438	0.240763	0.252868	0.310002	0.068256	0.596581	0.142620	0.064678	0.573047	0.272001	0.079321	0.061514	0.119301	0.637832	0.235934	0.216677	0.102180	0.177737	0.224862	0.171916	0.062459	0.106103	0.268609	0.190735	0.043109	0.371778	0.103535	0.036235	0.039243	0.148628	0.242765	0.160073
6	0.101190	0.123030	0.289391	0.663871	0.062313	0.339401	0.115665	0.152099	0.356902	0.254145	0.153904	0.182500	0.037245	0.288298	0.210694	0.211900	0.199538	0.071420	0.377404	0.182420	0.100663	0.171526	0.096182	0.064177	0.253273	0.068423	0.378528	0.163886	0.151796	0.187069	0.322899	0.103394	0.075335	0.132180	0.255711	0.285457	0.102554	0.070011	0.326696	0.134623	0.070335	0.491112	0.228647	0.311260	0.067539	0.625613	0.163567	0.088049	0.579151	0.256219	0.079647	0.064034	0.120136	0.664853	0.349934	0.213996	0.082581	0.192847	0.224175	0.162250	0.063515	0.158697	0.236921	0.205751	0.044228	0.370719	0.104182	0.093225	0.041636	0.144179	0.271758	0.154120
7	0.089247	0.113139	0.294996	0.678715	0.053804	0.342033	0.152388	0.163807	0.337619	0.245765	0.170473	0.180211	0.057766	0.325075	0.195930	0.211772	0.199588	0.072571	0.401768	0.230923	0.100577	0.244830	0.118086	0.088859	0.235065	0.066391	0.368106	0.184535	0.162060	0.174634	0.339169	0.106011	0.074518	0.132686	0.287741	0.287538	0.102435	0.072428	0.329593	0.133998	0.126380	0.647414	0.231823	0.310838	0.061790	0.591331	0.193269	0.161228	0.544103	0.248635	0.101278	0.061696	0.122846	0.670182	0.369066	0.281588	0.066527	0.233542	0.245494	0.145465	0.062682	0.166751	0.160868	0.197695	0.043186	0.336839	0.113463	0.135201	0.040514	0.142325	0.293099	0.159596
8	0.106517	0.102275	0.210775	0.637395	0.054996	0.396613	0.167517	0.217981	0.321246	0.220647	0.156658	0.181431	0.063050	0.343992	0.213476	0.204440	0.166590	0.069293	0.606017	0.236640	0.095953	0.384998	0.128351	0.091101	0.174301	0.054842	0.393478	0.183793	0.163272	0.175206	0.399525	0.132152	0.073397	0.138863	0.416464	0.300570	0.094813	0.079579	0.330580	0.137278	0.136693	0.721815	0.233145	0.309227	0.062072	0.578613	0.197649	0.239132	0.529104	0.246251	0.105768	0.063618	0.127157	0.670032	0.372405	0.351017	0.046808	0.239139	0.261226	0.144655	0.062016	0.174173	0.138718	0.187679	0.042192	0.237476	0.114112	0.141446	0.053439	0.155170	0.346510	0.173730
9	0.116137	0.103774	0.178663	0.504327	0.053893	0.409935	0.195902	0.224230	0.316585	0.217988	0.158733	0.155630	0.064838	0.338539	0.230298	0.210678	0.144620	0.069340	0.614582	0.242872	0.103258	0.409803	0.128999	0.095586	0.087736	0.042659	0.413710	0.183405	0.162221	0.190688	0.412130	0.132011	0.076310	0.134406	0.621899	0.308466	0.073449	0.079491	0.338032	0.153788	0.141051	0.724697	0.228051	0.299592	0.074528	0.619545	0.212907	0.251120	0.466342	0.248354	0.098031	0.070977	0.128939	0.660690	0.373362	0.354286	0.052637	0.262898	0.261469	0.143691	0.064541	0.174440	0.145159	0.173486	0.043276	0.180575	0.118731	0.156358	0.061567	0.155571	0.364097	0.180056
10	0.111888	0.093138	0.174390	0.478546	0.051443	0.406151	0.221526	0.231171	0.315262	0.218102	0.256822	0.152779	0.110598	0.345437	0.234395	0.214971	0.104991	0.088284	0.598427	0.298695	0.104859	0.432926	0.135087	0.099222	0.068551	0.048360	0.412885	0.173923	0.158963	0.188524	0.443190	0.143562	0.075730	0.136437	0.659606	0.296010	0.031746	0.075564	0.301688	0.158909	0.140942	0.724409	0.348588	0.224704	0.091549	0.705431	0.250587	0.274849	0.441052	0.237954	0.105881	0.075934	0.128503	0.588114	0.373458	0.353543	0.051651	0.275429	0.268016	0.129122	0.064402	0.181357	0.155139	0.168847	0.048670	0.167056	0.121302	0.185044	0.061806	0.168975	0.360169	0.242873
11	0.099655	0.082886	0.185712	0.485979	0.053784	0.609622	0.224330	0.252272	0.314645	0.218427	0.349833	0.153696	0.140928	0.345201	0.262749	0.214617	0.087204	0.083434	0.619225	0.342217	0.113484	0.449897	0.134188	0.102657	0.069358	0.065871	0.400589	0.167161	0.164934	0.197827	0.440578	0.178866	0.070427	0.141150	0.660280	0.280828	0.022453	0.074954	0.248132	0.157493	0.140289	0.719309	0.356180	0.259161	0.093166	0.699618	0.256851	0.347432	0.429563	0.190740	0.281187	0.095772	0.128113	0.580211	0.374412	0.351622	0.047246	0.265531	0.284904	0.111894	0.065600	0.193097	0.156928	0.177648	0.051431	0.159701	0.234391	0.192305	0.059631	0.164639	0.367118	0.246272
12	0.093436	0.081623	0.186610	0.497578	0.055907	0.703225	0.245204	0.274862	0.309503	0.210631	0.372743	0.163089	0.183461	0.349596	0.317985	0.207594	0.067642	0.081656	0.613556	0.345749	0.115701	0.459704	0.153074	0.118281	0.072486	0.067263	0.319017	0.166991	0.146602	0.247286	0.420915	0.216537	0.070521	0.141206	0.660974	0.285516	0.024735	0.080135	0.227535	0.156213	0.142135	0.713836	0.362532	0.229946	0.091471	0.695502	0.270694	0.382912	0.424430	0.176875	0.572239	0.161274	0.126917	0.576602	0.366358	0.350551	0.050312	0.254341	0.329123	0.232663	0.063539	0.200201	0.162607	0.211053	0.052351	0.185038	0.273765	0.208322	0.060436	0.164967	0.362858	0.259844
13	0.090762	0.079333	0.188752	0.499945	0.061339	0.804333	0.263917	0.272237	0.272172	0.200529	0.375883	0.196932	0.200458	0.350089	0.377449	0.228010	0.072587	0.100412	0.594622	0.304964	0.115457	0.459188	0.156638	0.182365	0.074243	0.067813	0.265965	0.153023	0.112971	0.262041	0.372925	0.229363	0.070495	0.139793	0.664743	0.333174	0.026066	0.085016	0.222350	0.167681	0.139658	0.623025	0.352442	0.276553	0.094846	0.688283	0.285216	0.387712	0.306649	0.130086	0.596954	0.172948	0.123629	0.498241	0.388342	0.353624	0.059662	0.256339	0.353174	0.294814	0.060917	0.199954	0.145114	0.239674	0.050090	0.300656	0.348954	0.279460	0.061795	0.175693	0.349189	0.280709
14	0.087993	0.077607	0.186643	0.494241	0.059574	0.831698	0.270044	0.258187	0.181238	0.198677	0.381130	0.224144	0.202150	0.353963	0.403887	0.220592	0.087066	0.174024	0.421054	0.312867	0.109750	0.454202	0.149664	0.195503	0.062984	0.068127	0.259576	0.147833	0.101973	0.270949	0.375697	0.225320	0.050852	0.140453	0.666912	0.413060	0.031813	0.096492	0.233451	0.177812	0.124825	0.540609	0.348530	0.321564	0.097636	0.684081	0.286790	0.388617	0.187336	0.124892	0.639810	0.182827	0.080286	0.458144	0.390988	0.343301	0.072913	0.267475	0.372024	0.311021	0.050488	0.202573	0.137094	0.241887	0.046038	0.331353	0.419392	0.355622	0.067405	0.178133	0.353354	0.274042
15	0.087861	0.077844	0.187238	0.419322	0.058177	0.831455	0.266455	0.257959	0.149548	0.183296	0.424095	0.234781	0.202096	0.293631	0.409207	0.231243	0.085815	0.200814	0.310559	0.328368	0.108543	0.449374	0.157145	0.196331	0.057874	0.064885	0.275157	0.149992	0.091841	0.272285	0.375261	0.232813	0.054635	0.141089	0.664776	0.465446	0.036875	0.106977	0.244692	0.180713	0.090244	0.298543	0.353637	0.324833	0.098576	0.639628	0.286753	0.388840	0.117893	0.128623	0.648203	0.236852	0.065079	0.255815	0.386582	0.315412	0.077549	0.301813	0.360832	0.389588	0.039622	0.194644	0.184378	0.233655	0.048402	0.387820	0.445325	0.379380	0.072907	0.173624	0.357684	0.273761
16	0.085529	0.077076	0.182874	0.308571	0.056902	0.827184	0.254545	0.257475	0.147809	0.147692	0.497864	0.237650	0.200643	0.256212	0.422759	0.269499	0.080499	0.198786	0.312914	0.295434	0.093633	0.433649	0.203462	0.205708	0.055096	0.078992	0.300468	0.128111	0.094776	0.278860	0.343335	0.252507	0.058787	0.143781	0.650525	0.482493	0.039461	0.113278	0.270395	0.174368	0.073168	0.330879	0.354509	0.324825	0.099930	0.566864	0.286557	0.388797	0.107562	0.143618	0.669597	0.262413	0.062334	0.178212	0.295087	0.315529	0.075745	0.533640	0.401948	0.425781	0.043753	0.202835	0.193939	0.217191	0.059380	0.457582	0.449529	0.387828	0.072896	0.202006	0.335192	0.268327
17	0.046781	0.051624	0.182529	0.336895	0.056501	0.834132	0.252700	0.224666	0.118417	0.111492	0.553065	0.237889	0.196813	0.246879	0.468992	0.281812	0.079773	0.200273	0.187066	0.234902	0.087587	0.432016	0.198121	0.204721	0.054316	0.092026	0.250702	0.129371	0.159859	0.276873	0.323051	0.279065	0.058890	0.141384	0.644925	0.476805	0.038351	0.113797	0.303367	0.165556	0.071604	0.356434	0.310828	0.325028	0.101994	0.559394	0.290969	0.387754	0.119975	0.180100	0.671876	0.263865	0.061993	0.130920	0.254197	0.288384	0.086640	0.563103	0.422048	0.428878	0.054281	0.295598	0.198451	0.229272	0.058607	0.458156	0.469759	0.446560	0.063683	0.197137	0.337343	0.256454
18	0.032008	0.062134	0.159836	0.373222	0.058940	0.806104	0.266774	0.195357	0.083111	0.095667	0.555573	0.243114	0.195609	0.241065	0.496228	0.282585	0.077706	0.201372	0.126011	0.181889	0.092587	0.289630	0.191420	0.201155	0.052303	0.122710	0.184729	0.132064	0.280758	0.275219	0.275578	0.277234	0.058474	0.124701	0.639955	0.455293	0.037018	0.111673	0.304305	0.156062	0.071808	0.354950	0.206320	0.312415	0.104608	0.495749	0.345235	0.397112	0.131121	0.253793	0.672929	0.277203	0.052844	0.177282	0.266705	0.172587	0.091058	0.673498	0.417894	0.429332	0.072418	0.308237	0.205067	0.327743	0.062982	0.458316	0.485147	0.489570	0.053897	0.185177	0.436518	0.250215
19	0.030654	0.066978	0.158146	0.381824	0.063167	0.808677	0.271773	0.185943	0.083358	0.091558	0.551548	0.275165	0.198767	0.251379	0.500060	0.267149	0.069386	0.197315	0.146168	0.167609	0.111274	0.256092	0.200670	0.201778	0.048803	0.126996	0.190398	0.131563	0.283662	0.229792	0.269612	0.263255	0.058939	0.110649	0.615029	0.435948	0.036972	0.114348	0.308327	0.144271	0.071298	0.354343	0.184904	0.250297	0.106393	0.478316	0.408688	0.510888	0.127636	0.278262	0.672715	0.286302	0.042857	0.191102	0.285904	0.153584	0.162393	0.707247	0.409937	0.428012	0.090513	0.391811	0.233790	0.355331	0.065752	0.459952	0.483957	0.505117	0.053207	0.200308	0.436733	0.224129
20	0.032389	0.064049	0.149560	0.370690	0.060376	0.763196	0.301029	0.191653	0.078970	0.089092	0.548127	0.328690	0.182114	0.242628	0.496135	0.245871	0.039434	0.140653	0.171561	0.155254	0.114519	0.182117	0.240366	0.212235	0.038287	0.119848	0.196039	0.132956	0.283880	0.184186	0.277136	0.266076	0.061208	0.104710	0.605869	0.425519	0.040392	0.113615	0.311497	0.147750	0.052849	0.345767	0.161224	0.236989	0.104939	0.462090	0.412248	0.617223	0.129069	0.320965	0.666893	0.284240	0.039321	0.222852	0.296964	0.154132	0.251326	0.806636	0.409251	0.427540	0.089708	0.402506	0.239170	0.377290	0.066034	0.449924	0.486048	0.521493	0.054723	0.228672	0.435392	0.243786
21	0.037157	0.061392	0.176674	0.385684	0.057794	0.593178	0.297458	0.230362	0.074234	0.092328	0.576068	0.338963	0.161773	0.238756	0.481884	0.242525	0.033628	0.109250	0.179811	0.089640	0.122001	0.164667	0.244995	0.212294	0.031591	0.130463	0.199196	0.133432	0.348635	0.169795	0.278699	0.253848	0.059381	0.103289	0.465219	0.414858	0.045458	0.167167	0.323318	0.156670	0.051775	0.349139	0.196581	0.178478	0.101959	0.348848	0.406726	0.635188	0.130488	0.379273	0.453941	0.266971	0.037209	0.231856	0.294230	0.162010	0.270569	0.815414	0.406615	0.427441	0.096469	0.408343	0.235973	0.454881	0.066993	0.473371	0.483960	0.525608	0.054764	0.246461	0.449589	0.228890
22	0.037185	0.061915	0.203066	0.402028	0.050031	0.547565	0.278421	0.238764	0.075151	0.096934	0.594886	0.330482	0.117226	0.238302	0.448550	0.242988	0.030737	0.070737	0.187688	0.042736	0.140924	0.082361	0.240707	0.237608	0.027902	0.168059	0.200288	0.129021	0.366292	0.143579	0.251044	0.253225	0.058374	0.111988	0.194363	0.413899	0.058025	0.282499	0.315451	0.154768	0.059931	0.340000	0.185217	0.230107	0.107283	0.179125	0.389614	0.667889	0.140506	0.421759	0.360067	0.251395	0.035668	0.231259	0.300372	0.165767	0.274939	0.830303	0.395316	0.422573	0.101918	0.413840	0.249284	0.484018	0.065873	0.487396	0.482372	0.517522	0.057340	0.248576	0.446953	0.258739
23	0.037245	0.066430	0.206813	0.407923	0.047877	0.395821	0.275179	0.263217	0.073072	0.093241	0.575581	0.330012	0.083840	0.239138	0.386895	0.222999	0.029209	0.065263	0.361068	0.038547	0.143381	0.079853	0.232950	0.224351	0.026673	0.193187	0.198456	0.111352	0.373278	0.142308	0.220522	0.248726	0.059286	0.114262	0.128222	0.418845	0.063067	0.331303	0.316003	0.145920	0.049903	0.208905	0.191367	0.242273	0.108187	0.168476	0.387342	0.749767	0.141419	0.425955	0.260689	0.254624	0.036222	0.230186	0.285209	0.160689	0.285104	0.857679	0.388198	0.367518	0.105316	0.410656	0.255381	0.473057	0.064109	0.493747	0.432939	0.516656	0.057632	0.259811	0.410714	0.272859
24	0.037496	0.068392	0.223637	0.417843	0.045168	0.369110	0.280080	0.307970	0.067518	0.082318	0.570041	0.356333	0.079660	0.232938	0.343647	0.211995	0.021959	0.053863	0.487400	0.305737	0.143873	0.093326	0.252480	0.192748	0.027437	0.222990	0.181875	0.099434	0.376283	0.131279	0.194440	0.225939	0.058128	0.112796	0.123627	0.427514	0.063229	0.356757	0.319653	0.145092	0.046573	0.177331	0.199003	0.319965	0.107090	0.172908	0.382830	0.788580	0.140646	0.440056	0.224217	0.234498	0.036413	0.228949	0.294963	0.131808	0.289835	0.878166	0.389468	0.347169	0.105721	0.410664	0.250357	0.459756	0.065334	0.489922	0.423802	0.507249	0.047596	0.262108	0.394659	0.273256
25	0.038906	0.071259	0.223932	0.429220	0.044085	0.377365	0.281653	0.323735	0.056244	0.069372	0.571145	0.400663	0.079028	0.205705	0.342950	0.197379	0.034968	0.078331	0.522191	0.356933	0.144833	0.103592	0.251688	0.191627	0.031853	0.240502	0.142864	0.100879	0.361135	0.110653	0.109689	0.184191	0.058260	0.112607	0.158751	0.430834	0.067947	0.356053	0.301678	0.144493	0.046284	0.146935	0.199842	0.338164	0.105154	0.182498	0.375482	0.794555	0.131845	0.454918	0.167781	0.182790	0.034875	0.227729	0.283764	0.116973	0.289349	0.882085	0.367003	0.343616	0.105797	0.408324	0.245884	0.457891	0.066665	0.450168	0.342968	0.465475	0.046320	0.241188	0.393838	0.272934
26	0.036995	0.073054	0.260971	0.393840	0.049592	0.352483	0.277781	0.326165	0.055585	0.075209	0.579098	0.428877	0.078754	0.204909	0.333177	0.182748	0.051905	0.092763	0.732415	0.433879	0.145888	0.145831	0.231731	0.185128	0.045611	0.240103	0.276206	0.080660	0.286616	0.098808	0.111773	0.174927	0.058962	0.111647	0.192921	0.403547	0.074926	0.389211	0.300545	0.137591	0.046341	0.155925	0.204784	0.340982	0.102166	0.182845	0.374408	0.795264	0.113950	0.446354	0.108021	0.179274	0.031387	0.206352	0.277914	0.105289	0.291818	0.871924	0.363279	0.248187	0.105656	0.408173	0.212234	0.456246	0.067158	0.485388	0.280279	0.415837	0.045229	0.238273	0.326369	0.270678
27	0.029540	0.071732	0.268404	0.309087	0.049732	0.327760	0.262346	0.326400	0.059129	0.095145	0.575137	0.427175	0.077754	0.160899	0.287965	0.168486	0.057452	0.112006	0.749564	0.459360	0.144328	0.155939	0.219026	0.172406	0.052254	0.226067	0.276932	0.193847	0.259591	0.088080	0.112435	0.180576	0.058275	0.113430	0.212947	0.342042	0.074632	0.506417	0.299392	0.114835	0.046635	0.158489	0.220864	0.341197	0.099767	0.180844	0.374450	0.795231	0.094871	0.416614	0.111504	0.177760	0.025679	0.200276	0.266873	0.081429	0.292180	0.751862	0.306561	0.202887	0.102848	0.400465	0.204638	0.454439	0.063122	0.419494	0.246924	0.404783	0.044692	0.222881	0.223640	0.269297
28	0.030033	0.078303	0.267067	0.270026	0.039267	0.312802	0.204309	0.326377	0.057588	0.103669	0.519309	0.445414	0.076768	0.120381	0.277873	0.198635	0.065724	0.126212	0.746780	0.495427	0.140714	0.157428	0.216515	0.169820	0.052536	0.226623	0.274804	0.334394	0.268817	0.086071	0.105983	0.143246	0.058014	0.122005	0.215709	0.294768	0.071796	0.539080	0.283706	0.101486	0.046541	0.148531	0.196060	0.337124	0.096803	0.176063	0.369998	0.795340	0.086046	0.375749	0.103869	0.151775	0.024625	0.175217	0.267245	0.087873	0.288946	0.729442	0.287601	0.224602	0.097827	0.313425	0.198912	0.440568	0.057793	0.411647	0.240135	0.389164	0.044442	0.205151	0.409787	0.275224
29	0.027475	0.078666	0.264374	0.289390	0.040887	0.296867	0.178255	0.320378	0.049951	0.106552	0.453285	0.478908	0.067366	0.102558	0.248888	0.215917	0.077957	0.142355	0.698354	0.499690	0.126433	0.158594	0.215587	0.168474	0.058757	0.231231	0.276073	0.403828	0.244936	0.065190	0.115203	0.112416	0.066985	0.146909	0.215957	0.274783	0.071033	0.542476	0.264563	0.099207	0.032841	0.146317	0.242004	0.293223	0.093227	0.164675	0.347990	0.795340	0.082157	0.365419	0.099049	0.140230	0.022623	0.146324	0.281147	0.084952	0.287677	0.613382	0.284767	0.234369	0.084542	0.295175	0.193328	0.371516	0.063356	0.462312	0.186387	0.309996	0.048760	0.184339	0.420768	0.403733
30	0.022037	0.078762	0.258953	0.295336	0.042719	0.279873	0.120643	0.270807	0.048183	0.116727	0.443932	0.487005	0.057025	0.103677	0.243529	0.216500	0.085251	0.148168	0.618663	0.423908	0.110221	0.162205	0.176179	0.159048	0.074691	0.235818	0.303377	0.409503	0.206529	0.076821	0.121261	0.120342	0.078548	0.168901	0.235443	0.278069	0.071432	0.541369	0.203263	0.097920	0.019439	0.100517	0.246653	0.308491	0.090789	0.150361	0.251890	0.779006	0.061600	0.284912	0.092128	0.138670	0.021011	0.107598	0.282287	0.094520	0.250267	0.574236	0.283006	0.235411	0.066166	0.160824	0.154777	0.344924	0.062308	0.492616	0.157264	0.231655	0.083852	0.238984	0.446216	0.455530
31	0.022225	0.078345	0.242927	0.278139	0.043190	0.217119	0.119543	0.224728	0.051006	0.123977	0.442534	0.471703	0.045164	0.100948	0.245934	0.216014	0.085233	0.162809	0.616960	0.359468	0.106104	0.162690	0.144854	0.152210	0.077959	0.275591	0.314935	0.434396	0.247656	0.103066	0.138167	0.128069	0.081509	0.177823	0.245275	0.311756	0.072065	0.541014	0.190204	0.095641	0.029131	0.124104	0.259574	0.307420	0.089172	0.128630	0.144709	0.675702	0.051734	0.245194	0.090739	0.126256	0.017151	0.050854	0.294997	0.087349	0.160757	0.414248	0.285522	0.235413	0.064773	0.131018	0.137249	0.316777	0.059266	0.498325	0.156906	0.183486	0.082545	0.279965	0.472952	0.462939
32	0.022262	0.074737	0.239530	0.273607	0.046102	0.169416	0.100035	0.221022	0.056416	0.131353	0.442725	0.441747	0.036451	0.086061	0.246193	0.215404	0.091385	0.172263	0.346929	0.302391	0.071021	0.162928	0.150293	0.131396	0.079450	0.344994	0.357662	0.476937	0.300494	0.113719	0.191884	0.133186	0.080610	0.179623	0.244933	0.343354	0.072113	0.540972	0.193184	0.095267	0.035734	0.131204	0.296730	0.270863	0.088193	0.125778	0.138764	0.578830	0.036719	0.196196	0.090044	0.112045	0.019328	0.050110	0.292155	0.220774	0.129047	0.392401	0.305637	0.235265	0.054115	0.100314	0.132892	0.185150	0.060291	0.494220	0.147920	0.129167	0.078167	0.272797	0.488053	0.548685
33	0.024489	0.085294	0.223392	0.260159	0.047583	0.149511	0.074680	0.201695	0.059375	0.130891	0.413943	0.439651	0.029191	0.079440	0.251940	0.215681	0.090930	0.256286	0.257814	0.236799	0.047291	0.161460	0.165966	0.080297	0.081496	0.364402	0.363700	0.557067	0.310320	0.120066	0.189010	0.128820	0.078377	0.178687	0.248072	0.354025	0.071788	0.540098	0.205047	0.094190	0.037937	0.165028	0.297800	0.298862	0.067133	0.137876	0.118037	0.570919	0.038571	0.173124	0.088309	0.096552	0.017595	0.051796	0.299091	0.487781	0.118651	0.347389	0.359878	0.235508	0.042392	0.025051	0.105816	0.078517	0.057746	0.466373	0.144444	0.096309	0.092248	0.272641	0.490108	0.589868
34	0.027972	0.100894	0.215026	0.248805	0.047753	0.085509	0.177519	0.208741	0.058123	0.127584	0.351749	0.452086	0.027573	0.076619	0.265466	0.216300	0.085335	0.338317	0.257882	0.158127	0.057330	0.158243	0.158582	0.060665	0.087986	0.431889	0.368653	0.575913	0.311948	0.120077	0.192834	0.119045	0.074687	0.173460	0.247219	0.355687	0.068323	0.538003	0.213978	0.085323	0.045559	0.218956	0.293561	0.303622	0.063135	0.136857	0.120922	0.485246	0.040808	0.101979	0.089471	0.079009	0.020038	0.060149	0.293963	0.611804	0.089044	0.266245	0.377113	0.294354	0.034013	0.024881	0.178095	0.098950	0.055280	0.454713	0.141828	0.095401	0.103348	0.271207	0.495241	0.594294
35	0.028930	0.100323	0.207354	0.246041	0.042608	0.081877	0.252849	0.234462	0.057744	0.127546	0.298430	0.455020	0.027212	0.073826	0.273269	0.200907	0.102653	0.398896	0.254823	0.130609	0.064384	0.155182	0.182003	0.062660	0.095201	0.432216	0.329095	0.580600	0.312589	0.120123	0.213501	0.111188	0.072420	0.167191	0.245146	0.352130	0.063067	0.496999	0.259248	0.074672	0.052992	0.237555	0.283028	0.304357	0.101168	0.236083	0.118401	0.284871	0.043138	0.069489	0.178329	0.077103	0.042043	0.081579	0.345548	0.622786	0.065831	0.185802	0.409574	0.464738	0.034173	0.034930	0.313899	0.151666	0.054694	0.440605	0.137048	0.091652	0.106537	0.269498	0.508073	0.594599
36	0.028683	0.090981	0.277396	0.250073	0.039664	0.083918	0.278568	0.301981	0.055904	0.126549	0.270759	0.434687	0.024706	0.072772	0.436707	0.156036	0.105313	0.490148	0.212493	0.128850	0.067313	0.130769	0.188678	0.069914	0.095989	0.433625	0.349436	0.590353	0.305083	0.119825	0.213048	0.116879	0.071191	0.162739	0.244841	0.345100	0.053655	0.455577	0.309567	0.086073	0.069874	0.249484	0.244572	0.304336	0.101610	0.246952	0.088114	0.158080	0.049861	0.079778	0.286945	0.156252	0.048098	0.083578	0.421956	0.719935	0.052887	0.140139	0.428202	0.631575	0.041330	0.060177	0.331722	0.192058	0.052697	0.427387	0.165164	0.086720	0.107233	0.269508	0.489467	0.592525
37	0.028466	0.084562	0.279207	0.253043	0.040986	0.078474	0.292444	0.331872	0.053861	0.124853	0.266162	0.381299	0.018295	0.111552	0.551482	0.218606	0.114359	0.502898	0.139884	0.117360	0.086734	0.109924	0.188441	0.069907	0.096015	0.431154	0.351982	0.540007	0.286852	0.119682	0.211295	0.123287	0.072260	0.161659	0.242840	0.331453	0.054106	0.422421	0.347854	0.142189	0.082266	0.261097	0.270808	0.287234	0.106931	0.244760	0.088527	0.131991	0.057218	0.103534	0.288902	0.467401	0.051955	0.090690	0.437337	0.846094	0.026535	0.116371	0.429949	0.664439	0.051858	0.081954	0.360022	0.223558	0.051260	0.388108	0.172369	0.127075	0.107494	0.264160	0.342752	0.570318
38	0.028440	0.084183	0.270139	0.214703	0.039630	0.085880	0.306380	0.404683	0.051121	0.120127	0.242248	0.326860	0.025457	0.126947	0.548442	0.369816	0.103878	0.516189	0.142607	0.062361	0.109836	0.102105	0.221991	0.069404	0.093975	0.429303	0.387591	0.485070	0.259834	0.108226	0.207825	0.111428	0.073353	0.164160	0.208319	0.309840	0.053761	0.418836	0.376922	0.208509	0.092034	0.257517	0.402411	0.281077	0.117809	0.249618	0.095967	0.128628	0.068418	0.131714	0.303537	0.614639	0.058809	0.099802	0.434157	0.894620	0.024743	0.118782	0.522014	0.718073	0.052984	0.084680	0.402878	0.227454	0.053407	0.340940	0.162524	0.238477	0.102641	0.259718	0.319369	0.468798
39	0.028281	0.084293	0.257145	0.173506	0.041068	0.089570	0.344994	0.558953	0.046363	0.104445	0.183429	0.319513	0.065436	0.268306	0.643109	0.444973	0.108191	0.525354	0.126703	0.060810	0.118055	0.110594	0.251475	0.099182	0.085088	0.433713	0.366130	0.483082	0.207916	0.069556	0.200739	0.110604	0.073442	0.201301	0.170187	0.281364	0.046640	0.413284	0.377567	0.244265	0.089461	0.246868	0.474750	0.366462	0.123437	0.248076	0.098614	0.131094	0.100986	0.158775	0.513117	0.647270	0.066771	0.110648	0.410120	0.907687	0.040401	0.130538	0.568590	0.792248	0.051796	0.084566	0.464721	0.238696	0.055377	0.336155	0.157607	0.294628	0.077118	0.269731	0.277465	0.433638
40	0.028197	0.087034	0.259695	0.209713	0.074789	0.089508	0.365240	0.605234	0.043458	0.093408	0.163106	0.296822	0.072065	0.322166	0.725129	0.467135	0.117570	0.487387	0.222001	0.099382	0.128388	0.112715	0.263898	0.244418	0.079324	0.430795	0.357692	0.464711	0.135962	0.064376	0.165223	0.102743	0.072758	0.244502	0.163648	0.254160	0.040199	0.306080	0.379138	0.246891	0.090479	0.219219	0.493087	0.347469	0.128498	0.245893	0.106766	0.131418	0.108533	0.174530	0.630825	0.820624	0.068116	0.114817	0.396934	0.908716	0.041676	0.128391	0.622160	0.820530	0.054362	0.089756	0.495569	0.299182	0.054195	0.269015	0.160123	0.301614	0.080512	0.272926	0.221243	0.406655
41	0.028900	0.087310	0.270194	0.213098	0.076977	0.098622	0.368111	0.607867	0.043362	0.089024	0.162813	0.239249	0.077879	0.320668	0.739433	0.589284	0.111416	0.422164	0.235402	0.177154	0.192333	0.123239	0.264851	0.299936	0.077414	0.353215	0.322440	0.433103	0.184168	0.105476	0.201814	0.120598	0.067915	0.271659	0.210959	0.249436	0.045201	0.141737	0.379357	0.250041	0.087476	0.199974	0.619156	0.350429	0.131194	0.245642	0.122384	0.129514	0.135542	0.229361	0.636892	0.892455	0.068181	0.114522	0.382249	0.908187	0.042898	0.120627	0.652380	0.844653	0.061543	0.100982	0.496238	0.382785	0.048950	0.181340	0.165008	0.356739	0.088396	0.367384	0.196998	0.280320
42	0.036508	0.076539	0.280475	0.208143	0.075361	0.152849	0.382835	0.599166	0.042302	0.074145	0.154834	0.215092	0.080476	0.320434	0.741477	0.661296	0.092915	0.323954	0.237355	0.190576	0.208129	0.128788	0.270524	0.314339	0.074783	0.336741	0.305179	0.330012	0.455260	0.111211	0.271086	0.125293	0.056259	0.257603	0.296655	0.271914	0.055584	0.102636	0.379685	0.251049	0.083181	0.123365	0.662050	0.420724	0.132024	0.245639	0.129976	0.126405	0.152129	0.255257	0.644892	0.904049	0.068273	0.124465	0.387784	0.896888	0.044527	0.109368	0.654712	0.855687	0.068102	0.108039	0.500492	0.409363	0.046670	0.083579	0.164950	0.390706	0.071157	0.368818	0.195836	0.200596
43	0.081011	0.051583	0.280744	0.194428	0.092871	0.236354	0.396948	0.583067	0.037625	0.061144	0.161761	0.214396	0.080984	0.321780	0.740887	0.674833	0.080145	0.280979	0.237919	0.274934	0.208459	0.128547	0.262852	0.394404	0.071738	0.170607	0.297788	0.261313	0.520471	0.169438	0.266580	0.140777	0.040010	0.269794	0.365871	0.305832	0.061482	0.119291	0.381388	0.269015	0.082931	0.140969	0.666196	0.465122	0.132086	0.245723	0.127765	0.122297	0.157439	0.262945	0.648318	0.905679	0.069464	0.130900	0.376463	0.807342	0.048318	0.094319	0.642195	0.857644	0.070741	0.110112	0.501050	0.411353	0.046113	0.072373	0.167047	0.398364	0.055694	0.368051	0.185598	0.214616
44	0.119539	0.118999	0.229669	0.192606	0.102479	0.390449	0.360295	0.570810	0.028644	0.038509	0.217261	0.198001	0.081907	0.322335	0.736785	0.676758	0.077705	0.260441	0.245172	0.291798	0.208075	0.129753	0.259589	0.435839	0.052489	0.166452	0.276704	0.256842	0.558662	0.234770	0.272656	0.210998	0.036693	0.286079	0.365531	0.369313	0.062583	0.125562	0.427395	0.300510	0.066780	0.121972	0.661477	0.473281	0.132320	0.243239	0.129467	0.112889	0.157992	0.265018	0.648731	0.905732	0.071372	0.140245	0.368525	0.689489	0.047948	0.091573	0.610781	0.858668	0.072197	0.111279	0.501640	0.410316	0.044644	0.089706	0.172439	0.401367	0.050676	0.369037	0.163416	0.228479
45	0.126013	0.172532	0.146660	0.186916	0.102341	0.582177	0.337363	0.563170	0.024731	0.031284	0.255551	0.215869	0.084095	0.322379	0.732299	0.676570	0.065313	0.178928	0.252479	0.296287	0.203570	0.128810	0.236815	0.445209	0.040060	0.163912	0.227479	0.219214	0.586002	0.236251	0.315347	0.241243	0.048522	0.288963	0.365042	0.390339	0.062109	0.126971	0.506866	0.304834	0.051084	0.144442	0.636002	0.469514	0.131288	0.234322	0.199801	0.088685	0.156735	0.264499	0.598178	0.904793	0.065648	0.139275	0.337495	0.673792	0.047732	0.091313	0.580549	0.837516	0.072477	0.111195	0.474292	0.402490	0.044430	0.100793	0.180912	0.405997	0.050185	0.369032	0.163056	0.234611
46	0.130314	0.172318	0.154939	0.172868	0.102375	0.775406	0.333008	0.543915	0.029507	0.036606	0.276943	0.317792	0.085784	0.323880	0.649475	0.676440	0.048835	0.129656	0.252701	0.299573	0.203636	0.126445	0.218199	0.445792	0.048239	0.196328	0.285076	0.346545	0.649008	0.243580	0.347765	0.245801	0.056508	0.297796	0.366071	0.382885	0.062099	0.129284	0.574889	0.362177	0.043315	0.165028	0.551290	0.428206	0.117032	0.223864	0.238050	0.061829	0.154353	0.258434	0.591535	0.845285	0.059358	0.136620	0.228755	0.605689	0.047887	0.092639	0.539354	0.743010	0.072273	0.108192	0.396834	0.386329	0.044781	0.110752	0.199219	0.406884	0.051518	0.368906	0.183546	0.237522
47	0.131105	0.173378	0.171805	0.171179	0.103118	0.789389	0.325915	0.534171	0.031763	0.039033	0.305677	0.407925	0.086269	0.317855	0.545887	0.659192	0.037054	0.116710	0.299471	0.275763	0.197257	0.116642	0.220127	0.445287	0.048224	0.194903	0.249405	0.498932	0.678169	0.244578	0.351512	0.280976	0.075071	0.303163	0.396596	0.403446	0.062401	0.129926	0.579206	0.462418	0.047635	0.167534	0.515753	0.420759	0.093524	0.110347	0.275141	0.062536	0.151571	0.250476	0.585248	0.723634	0.056903	0.134703	0.174973	0.403175	0.047749	0.096473	0.522490	0.603484	0.068677	0.095940	0.385403	0.368416	0.045001	0.117175	0.201827	0.407891	0.054987	0.360769	0.260637	0.288112
48	0.131357	0.174388	0.275808	0.183458	0.105134	0.790266	0.327498	0.401784	0.038991	0.048356	0.311108	0.432022	0.084711	0.314193	0.572894	0.587931	0.062766	0.094051	0.335790	0.279174	0.190614	0.112083	0.262500	0.447903	0.053016	0.187203	0.250391	0.509499	0.678766	0.252312	0.371525	0.304110	0.094665	0.306086	0.478353	0.451972	0.062932	0.129679	0.571096	0.516950	0.052726	0.166835	0.457587	0.437557	0.099714	0.178121	0.286877	0.094700	0.154529	0.236188	0.534232	0.721558	0.051429	0.129097	0.171319	0.221349	0.048819	0.100793	0.518031	0.572154	0.061292	0.078634	0.361441	0.351170	0.052811	0.117894	0.206988	0.422472	0.062046	0.298497	0.299751	0.383510
49	0.131505	0.175693	0.319651	0.269987	0.093944	0.826273	0.287286	0.248765	0.046817	0.052930	0.343609	0.454804	0.059786	0.209977	0.514154	0.540562	0.068982	0.082178	0.391881	0.220041	0.179956	0.111584	0.218138	0.456150	0.055596	0.146792	0.393809	0.570371	0.671579	0.248815	0.417631	0.301182	0.105183	0.306538	0.502235	0.484376	0.061893	0.130354	0.542111	0.543481	0.057730	0.173485	0.303878	0.402815	0.100083	0.188208	0.283931	0.111318	0.163556	0.228844	0.260900	0.591260	0.041655	0.119116	0.170877	0.126706	0.048346	0.099973	0.426196	0.491244	0.060147	0.076647	0.322409	0.349411	0.054128	0.118940	0.242905	0.438592	0.059902	0.250920	0.306809	0.420997
50	0.131989	0.235735	0.316906	0.313645	0.083205	0.850933	0.279454	0.229921	0.046776	0.058142	0.401412	0.534128	0.053781	0.096512	0.416477	0.537698	0.067996	0.078494	0.399917	0.234844	0.174611	0.096642	0.208756	0.434652	0.056099	0.134774	0.458439	0.613580	0.571717	0.255171	0.391555	0.323593	0.105035	0.307426	0.519469	0.502426	0.060368	0.130981	0.515617	0.553368	0.058152	0.165841	0.267314	0.336727	0.095184	0.194174	0.282729	0.112810	0.160917	0.187530	0.214030	0.386876	0.038735	0.113454	0.177237	0.098697	0.039177	0.084129	0.356878	0.350087	0.062311	0.076494	0.226047	0.342938	0.052206	0.126699	0.297851	0.399448	0.050600	0.105430	0.328653	0.423551
51	0.129359	0.334149	0.340992	0.321393	0.084433	0.876423	0.277568	0.229792	0.047230	0.064835	0.420999	0.585292	0.055422	0.096506	0.399627	0.408298	0.069088	0.085874	0.391210	0.266649	0.132385	0.079662	0.201817	0.378571	0.056787	0.125508	0.460937	0.637697	0.446380	0.248406	0.386639	0.336037	0.104702	0.308588	0.582288	0.513824	0.059434	0.131273	0.484739	0.541404	0.058934	0.160160	0.265445	0.331502	0.088513	0.240784	0.290538	0.112158	0.192267	0.144150	0.180244	0.335004	0.039500	0.112855	0.247440	0.105060	0.039213	0.077396	0.241863	0.273512	0.065604	0.069954	0.183824	0.291886	0.053247	0.137981	0.307720	0.375666	0.052048	0.090756	0.537405	0.520374
52	0.103661	0.369331	0.364043	0.364973	0.078799	0.869911	0.241125	0.230670	0.050443	0.079180	0.421595	0.605587	0.053495	0.099408	0.497115	0.271775	0.075657	0.098458	0.369299	0.264249	0.049236	0.056427	0.202059	0.384366	0.056499	0.125225	0.461372	0.657428	0.406757	0.163895	0.407111	0.300763	0.104853	0.281780	0.614318	0.528811	0.055851	0.131171	0.471780	0.521048	0.057600	0.152415	0.262108	0.341283	0.083309	0.266909	0.291637	0.128040	0.206043	0.134636	0.164718	0.328393	0.041640	0.109799	0.380995	0.191315	0.037875	0.070568	0.147340	0.194290	0.060838	0.056195	0.193015	0.181259	0.048287	0.156278	0.316625	0.375427	0.063242	0.113210	0.623431	0.614892
53	0.067603	0.405016	0.365734	0.387654	0.053599	0.848994	0.215265	0.228589	0.059361	0.098883	0.421735	0.609904	0.053296	0.105522	0.546483	0.234270	0.075298	0.100310	0.307291	0.249112	0.034093	0.054232	0.196972	0.347693	0.056810	0.124088	0.457982	0.662071	0.364271	0.159754	0.387007	0.259691	0.108399	0.248717	0.609631	0.542338	0.054399	0.130940	0.469820	0.514695	0.059456	0.149546	0.245643	0.335932	0.085335	0.303439	0.284425	0.158418	0.206782	0.140251	0.151647	0.329517	0.048756	0.096958	0.590530	0.344250	0.035769	0.067117	0.139619	0.153788	0.058452	0.050538	0.182253	0.147689	0.045482	0.176686	0.314620	0.351843	0.071014	0.144317	0.620867	0.633922
54	0.075283	0.397263	0.372982	0.406601	0.053250	0.695038	0.187944	0.207324	0.063794	0.109583	0.422267	0.609481	0.052082	0.115690	0.559479	0.228439	0.056932	0.093867	0.291713	0.235845	0.032236	0.048207	0.261282	0.257996	0.060143	0.120720	0.452168	0.659221	0.285241	0.149971	0.367370	0.258533	0.115695	0.237564	0.591898	0.544447	0.053728	0.124890	0.474646	0.514413	0.058024	0.222340	0.197591	0.303392	0.084280	0.314497	0.284603	0.215077	0.208155	0.159668	0.135391	0.328937	0.086168	0.093803	0.614468	0.475711	0.031727	0.067037	0.141132	0.145663	0.112197	0.049752	0.187712	0.164405	0.045138	0.179450	0.339679	0.344503	0.079954	0.166978	0.622531	0.633778
55	0.075984	0.398022	0.384568	0.430963	0.053977	0.577092	0.187241	0.162975	0.065302	0.113139	0.418953	0.608975	0.051950	0.128507	0.561121	0.245818	0.043995	0.093586	0.187783	0.219590	0.037387	0.046471	0.312317	0.254512	0.058259	0.066134	0.424628	0.612395	0.126107	0.147778	0.387734	0.242030	0.121408	0.245226	0.547928	0.531892	0.043773	0.105430	0.493342	0.514654	0.053975	0.225522	0.176358	0.222929	0.085740	0.321207	0.285212	0.231962	0.218453	0.177853	0.129241	0.324683	0.133718	0.147272	0.717534	0.544801	0.039060	0.073357	0.143334	0.139793	0.118600	0.049205	0.240399	0.168337	0.046399	0.175750	0.356957	0.344484	0.084498	0.178017	0.621980	0.631762
56	0.078556	0.398033	0.398626	0.438427	0.056679	0.418702	0.208522	0.238508	0.065708	0.114647	0.392438	0.608391	0.052669	0.135601	0.563193	0.274068	0.045816	0.089292	0.152822	0.194446	0.035830	0.065345	0.330942	0.290686	0.058587	0.050406	0.411452	0.479130	0.102247	0.145336	0.422643	0.215768	0.125344	0.214687	0.531866	0.505308	0.032651	0.083289	0.529225	0.518901	0.047684	0.225042	0.130547	0.214369	0.086391	0.323460	0.308944	0.289655	0.239125	0.184917	0.116567	0.295187	0.135563	0.176311	0.826758	0.551711	0.044103	0.076386	0.167432	0.139625	0.118146	0.057630	0.277045	0.200152	0.046651	0.195236	0.360465	0.341374	0.084585	0.184829	0.585242	0.607215
57	0.086469	0.397503	0.341561	0.417800	0.054519	0.400197	0.198181	0.436434	0.064617	0.113905	0.365369	0.592843	0.053116	0.130371	0.557599	0.292747	0.047623	0.089914	0.228690	0.120629	0.035592	0.080212	0.330506	0.294904	0.054646	0.066795	0.406052	0.436490	0.101370	0.124100	0.405095	0.260870	0.126631	0.198575	0.544376	0.456690	0.026072	0.075051	0.568365	0.527153	0.046693	0.218470	0.093214	0.212374	0.090930	0.324197	0.300017	0.434367	0.244131	0.193544	0.105002	0.192546	0.135441	0.191366	0.884690	0.648470	0.048557	0.076109	0.195591	0.161386	0.117451	0.069103	0.279484	0.228342	0.046793	0.263309	0.361291	0.337065	0.078860	0.176715	0.569796	0.544297
58	0.091888	0.396182	0.317248	0.364403	0.059284	0.386291	0.220359	0.538258	0.062457	0.111876	0.333539	0.534785	0.053366	0.124329	0.510583	0.281525	0.039788	0.083012	0.263233	0.242026	0.035488	0.083521	0.314790	0.294407	0.048580	0.075531	0.297335	0.379585	0.099252	0.101460	0.374650	0.335013	0.121742	0.190880	0.554875	0.443727	0.040022	0.090662	0.543179	0.562130	0.049108	0.219101	0.045925	0.160465	0.098776	0.325584	0.288094	0.514994	0.249152	0.196833	0.078643	0.158110	0.136284	0.199090	0.917969	0.767623	0.052511	0.072642	0.245143	0.195532	0.117370	0.082289	0.285894	0.240426	0.046417	0.263051	0.365752	0.340904	0.074985	0.174555	0.567058	0.507483
59	0.092879	0.356575	0.351137	0.374831	0.082967	0.267375	0.271651	0.555696	0.061303	0.110830	0.298573	0.462083	0.055293	0.122459	0.481304	0.246824	0.037991	0.095291	0.317841	0.315355	0.042068	0.082809	0.300551	0.289135	0.047742	0.080114	0.134296	0.282208	0.087627	0.083316	0.370004	0.341282	0.116349	0.176489	0.554548	0.441456	0.053445	0.105197	0.469877	0.596982	0.043438	0.212005	0.033880	0.107024	0.101257	0.326242	0.261216	0.531993	0.239402	0.197816	0.070228	0.129625	0.146034	0.205277	0.922019	0.822046	0.052353	0.067082	0.274962	0.210707	0.117302	0.090454	0.283166	0.243907	0.045836	0.263404	0.386062	0.342505	0.074766	0.173625	0.547099	0.501943
60	0.092247	0.274867	0.319329	0.403416	0.083705	0.276934	0.274823	0.728054	0.058021	0.109163	0.293523	0.434174	0.054910	0.120744	0.480386	0.227340	0.041979	0.103065	0.376745	0.315294	0.046522	0.079987	0.316970	0.277426	0.047226	0.095332	0.153223	0.223456	0.085468	0.080314	0.394855	0.347682	0.107806	0.174600	0.522916	0.410207	0.067021	0.119028	0.426917	0.564333	0.044646	0.198788	0.088509	0.071382	0.097705	0.283827	0.256284	0.531237	0.291034	0.195419	0.063405	0.085246	0.163055	0.222889	0.922939	0.846499	0.051628	0.060058	0.272019	0.212079	0.117277	0.093672	0.281568	0.243988	0.034859	0.265354	0.388248	0.317305	0.073391	0.173322	0.337541	0.397566
61	0.098095	0.214760	0.300814	0.368955	0.081393	0.265512	0.275409	0.799113	0.052240	0.110376	0.261195	0.416473	0.046099	0.125831	0.505659	0.262698	0.047699	0.101599	0.429824	0.395854	0.050475	0.076269	0.330081	0.266542	0.046403	0.104935	0.153417	0.145633	0.078752	0.083916	0.486738	0.360881	0.091448	0.178796	0.456577	0.356554	0.073908	0.128461	0.421554	0.503016	0.041872	0.147914	0.188836	0.113002	0.089535	0.281201	0.254932	0.529089	0.420411	0.186038	0.065811	0.064276	0.170241	0.231634	0.911023	0.850565	0.050556	0.053765	0.280341	0.249064	0.115969	0.094952	0.320202	0.240699	0.033702	0.264940	0.364617	0.274007	0.065411	0.156105	0.213975	0.277707
62	0.095903	0.074840	0.312167	0.389326	0.090418	0.304907	0.274560	0.811210	0.054526	0.116722	0.166343	0.316174	0.075856	0.143324	0.423596	0.333252	0.053102	0.099981	0.479450	0.474248	0.052809	0.078372	0.334835	0.249326	0.044806	0.107710	0.149049	0.103384	0.074434	0.094889	0.516377	0.413888	0.084837	0.182718	0.441614	0.318741	0.074361	0.128777	0.441530	0.470202	0.044944	0.092687	0.223344	0.250382	0.088793	0.261116	0.258526	0.533585	0.496916	0.180620	0.070982	0.059516	0.171878	0.231440	0.881826	0.841384	0.049952	0.056865	0.318266	0.295091	0.115919	0.095894	0.309422	0.262719	0.032802	0.261502	0.361633	0.262691	0.082543	0.124249	0.212770	0.280359
63	0.081847	0.061819	0.306908	0.392452	0.097422	0.327348	0.273592	0.812517	0.057786	0.126410	0.090340	0.203584	0.099500	0.152218	0.367528	0.356935	0.056186	0.089963	0.503998	0.481600	0.052240	0.125783	0.334256	0.224240	0.040025	0.108291	0.143826	0.100858	0.080711	0.114636	0.511436	0.433324	0.085903	0.178635	0.406969	0.299312	0.076745	0.132144	0.446383	0.472493	0.054950	0.103263	0.240895	0.269336	0.088450	0.230008	0.262222	0.546222	0.560135	0.165562	0.092740	0.065187	0.170559	0.230301	0.758648	0.800259	0.052848	0.070860	0.343497	0.305518	0.116256	0.100390	0.312290	0.343356	0.029477	0.262066	0.399843	0.270808	0.094476	0.102970	0.239557	0.281645
64	0.076562	0.063443	0.282167	0.371879	0.099443	0.328006	0.266712	0.812246	0.061826	0.136610	0.089961	0.141991	0.110710	0.174840	0.398997	0.376156	0.054932	0.078358	0.592256	0.565455	0.057956	0.282768	0.319713	0.219498	0.031511	0.108672	0.146422	0.096275	0.087498	0.117944	0.612354	0.428328	0.086133	0.176784	0.305983	0.280631	0.079700	0.136919	0.446252	0.481063	0.057386	0.107500	0.362812	0.345099	0.086272	0.183041	0.284878	0.559054	0.561165	0.158468	0.099694	0.066682	0.159393	0.226959	0.709523	0.730373	0.054686	0.082232	0.346201	0.301927	0.120472	0.117614	0.317929	0.409275	0.032561	0.250588	0.399046	0.248980	0.092785	0.085849	0.272772	0.327776
65	0.073160	0.064107	0.250014	0.365602	0.097752	0.329179	0.254275	0.804973	0.064585	0.146164	0.090933	0.170841	0.121064	0.180771	0.430590	0.393334	0.064634	0.069336	0.593703	0.537979	0.061636	0.339485	0.257766	0.208300	0.029241	0.109389	0.146567	0.087666	0.087493	0.114617	0.601392	0.429681	0.085562	0.172868	0.263558	0.251366	0.081982	0.141373	0.465665	0.484018	0.057025	0.117559	0.403570	0.368376	0.088458	0.142998	0.289898	0.563863	0.558793	0.147018	0.104666	0.068539	0.119904	0.203669	0.637476	0.668877	0.055075	0.093625	0.349152	0.301126	0.089068	0.145342	0.316716	0.418230	0.035062	0.240921	0.397389	0.200308	0.107172	0.066778	0.316859	0.374204
66	0.067085	0.063087	0.241174	0.363552	0.096461	0.331313	0.242793	0.741834	0.073505	0.159552	0.166277	0.201482	0.128026	0.181112	0.445285	0.390667	0.065119	0.058921	0.614571	0.591378	0.061413	0.388121	0.208692	0.138752	0.026335	0.097809	0.157303	0.075965	0.081543	0.113278	0.597743	0.358739	0.079515	0.192989	0.264151	0.228630	0.091559	0.146327	0.521578	0.485307	0.059719	0.122241	0.411973	0.369522	0.090894	0.130328	0.300114	0.554877	0.558295	0.136077	0.119150	0.073315	0.109668	0.163984	0.478699	0.659190	0.050322	0.110103	0.349126	0.300427	0.085324	0.153120	0.277839	0.432603	0.035612	0.237111	0.376896	0.166798	0.108210	0.068351	0.324913	0.373500
67	0.064352	0.058685	0.225897	0.343122	0.096692	0.331095	0.193624	0.642750	0.079732	0.167158	0.300037	0.205100	0.144470	0.204741	0.453533	0.389587	0.070552	0.080761	0.592281	0.577933	0.063522	0.433655	0.203923	0.104143	0.021897	0.088587	0.167891	0.063379	0.068272	0.106304	0.597764	0.318769	0.067003	0.196143	0.267187	0.222251	0.096866	0.148193	0.558960	0.488651	0.061080	0.120872	0.412454	0.369357	0.089118	0.126658	0.306655	0.559162	0.551991	0.124584	0.123701	0.083639	0.109980	0.146955	0.345475	0.599797	0.117758	0.131301	0.334787	0.299593	0.086466	0.150178	0.247227	0.445087	0.032369	0.233869	0.366219	0.164726	0.108099	0.068421	0.327791	0.385944
68	0.065370	0.055756	0.161028	0.293185	0.078644	0.321823	0.141453	0.615676	0.082436	0.167532	0.347655	0.241088	0.148580	0.212004	0.451620	0.386991	0.066581	0.080272	0.540379	0.491950	0.065207	0.447968	0.204388	0.121255	0.019799	0.088678	0.167833	0.053625	0.059390	0.104687	0.586384	0.305638	0.058336	0.197253	0.260865	0.259047	0.098580	0.148215	0.563795	0.488523	0.061046	0.118803	0.387412	0.369511	0.090267	0.127270	0.285281	0.517668	0.549821	0.125412	0.179642	0.086728	0.109979	0.140506	0.202212	0.426254	0.288559	0.145579	0.314844	0.286188	0.087128	0.151741	0.245346	0.440848	0.032040	0.184886	0.364966	0.214150	0.108856	0.077084	0.333603	0.386140
69	0.064877	0.056714	0.159466	0.244706	0.070011	0.289740	0.094805	0.500417	0.082256	0.172203	0.351180	0.280934	0.148799	0.213646	0.423468	0.386851	0.061268	0.080950	0.529319	0.488131	0.068559	0.470965	0.198991	0.121303	0.023609	0.143350	0.137166	0.046761	0.058709	0.103241	0.490468	0.299036	0.050772	0.202533	0.294854	0.326777	0.098991	0.146897	0.552957	0.493869	0.061202	0.112517	0.359825	0.327172	0.085680	0.134928	0.261035	0.399202	0.537874	0.127500	0.315192	0.088070	0.102287	0.228268	0.168998	0.281176	0.396364	0.149044	0.271253	0.265206	0.087708	0.175352	0.237372	0.446146	0.033104	0.105615	0.375854	0.274598	0.109138	0.077996	0.331365	0.391516
70	0.052668	0.055161	0.151301	0.235103	0.072795	0.227962	0.073751	0.232978	0.082966	0.182474	0.360789	0.302072	0.148150	0.214029	0.392499	0.379245	0.059769	0.082930	0.377223	0.370123	0.065404	0.532842	0.202904	0.108491	0.031763	0.193432	0.137002	0.039222	0.063371	0.096316	0.438338	0.231522	0.047553	0.206900	0.341744	0.365845	0.098961	0.143914	0.507236	0.488143	0.055931	0.097358	0.341947	0.273426	0.077009	0.184901	0.251280	0.315388	0.479101	0.124364	0.390026	0.093708	0.073167	0.240381	0.162463	0.166000	0.414475	0.165972	0.239787	0.322693	0.088234	0.182967	0.237859	0.456680	0.037288	0.103331	0.423628	0.314303	0.109921	0.085852	0.320964	0.375982
71	0.044548	0.062386	0.120718	0.148836	0.068495	0.194630	0.059536	0.125104	0.083786	0.198162	0.364473	0.311388	0.147632	0.211154	0.347410	0.350213	0.050796	0.079855	0.341445	0.312653	0.066338	0.579319	0.210957	0.107160	0.033240	0.196940	0.157706	0.062091	0.057476	0.073915	0.430979	0.145832	0.055413	0.216783	0.339015	0.373765	0.095668	0.152904	0.467704	0.448776	0.038871	0.083738	0.323354	0.220186	0.069381	0.185340	0.242626	0.307731	0.297494	0.114657	0.430966	0.091473	0.054089	0.269253	0.166367	0.121416	0.483705	0.212307	0.241207	0.421658	0.094715	0.188789	0.232534	0.462344	0.047884	0.104170	0.453231	0.319125	0.089964	0.087250	0.329614	0.349088
72	0.043841	0.061962	0.107928	0.078297	0.049667	0.128438	0.059271	0.092438	0.127313	0.226391	0.366551	0.316899	0.134594	0.197619	0.328036	0.284747	0.043608	0.078662	0.220651	0.196470	0.063241	0.582513	0.212696	0.109933	0.039858	0.279532	0.162634	0.087419	0.047195	0.043544	0.333814	0.136670	0.062373	0.219887	0.404027	0.382035	0.089991	0.179302	0.449685	0.386864	0.037993	0.096801	0.214107	0.095711	0.065717	0.200625	0.242423	0.344038	0.194149	0.119403	0.467215	0.084875	0.044785	0.279045	0.153955	0.119128	0.590681	0.245191	0.228448	0.433704	0.102830	0.191820	0.220818	0.463998	0.048448	0.099394	0.506234	0.320239	0.071721	0.083377	0.300731	0.345928
73	0.043952	0.059103	0.110953	0.050312	0.041387	0.110503	0.048789	0.090101	0.234433	0.248678	0.370281	0.319203	0.117633	0.184619	0.313663	0.251480	0.037390	0.085013	0.161133	0.097138	0.060918	0.582241	0.272095	0.111870	0.087654	0.685361	0.157410	0.096575	0.047570	0.045768	0.284624	0.147702	0.059941	0.215458	0.480861	0.422209	0.081354	0.177560	0.441124	0.323171	0.029270	0.100270	0.178943	0.075477	0.066531	0.233346	0.241699	0.362061	0.129231	0.110156	0.589328	0.099792	0.045188	0.278905	0.128218	0.120363	0.611925	0.254876	0.177174	0.411784	0.101430	0.192688	0.218165	0.448941	0.048193	0.098948	0.533499	0.318466	0.069772	0.083454	0.305112	0.297303
74	0.043002	0.059491	0.298375	0.048551	0.039981	0.106055	0.043222	0.088060	0.304600	0.250916	0.388711	0.316511	0.107831	0.158044	0.240587	0.223187	0.036411	0.101101	0.135914	0.092340	0.058592	0.551360	0.305058	0.113967	0.102858	0.751018	0.174216	0.131582	0.047764	0.049039	0.289551	0.172969	0.066450	0.219806	0.549455	0.472536	0.072544	0.189994	0.442564	0.293536	0.056929	0.124190	0.206747	0.085705	0.064241	0.236145	0.235976	0.354147	0.117953	0.101318	0.632436	0.106094	0.055995	0.278625	0.137091	0.117953	0.614148	0.251360	0.135893	0.460354	0.100695	0.189062	0.205639	0.383295	0.052417	0.095607	0.519601	0.312532	0.039202	0.079938	0.300865	0.242258
75	0.035691	0.059551	0.387480	0.213203	0.041157	0.086182	0.051368	0.079771	0.319053	0.248223	0.450690	0.312128	0.098279	0.141244	0.172694	0.167923	0.038692	0.103040	0.128448	0.081286	0.050202	0.483536	0.307183	0.120729	0.107216	0.889281	0.260751	0.137270	0.061035	0.072216	0.332459	0.208371	0.081414	0.238313	0.560170	0.519359	0.070452	0.212287	0.433592	0.291047	0.071594	0.188537	0.251184	0.087760	0.063370	0.270988	0.214767	0.330116	0.073829	0.096968	0.641738	0.127178	0.056464	0.278984	0.130808	0.120398	0.615298	0.247840	0.195803	0.496211	0.091262	0.176138	0.195052	0.299483	0.050263	0.082619	0.555627	0.330860	0.037674	0.074740	0.307909	0.242307
76	0.028072	0.062696	0.415856	0.397694	0.040740	0.072833	0.055850	0.066680	0.338074	0.246708	0.483472	0.304483	0.146550	0.133106	0.126389	0.125602	0.041650	0.143918	0.107179	0.063714	0.045421	0.463794	0.307229	0.124001	0.120089	0.996345	0.383880	0.153585	0.064369	0.076923	0.360334	0.224818	0.100715	0.262492	0.581437	0.549710	0.070171	0.212486	0.419361	0.256908	0.082007	0.255092	0.260554	0.100024	0.062926	0.276030	0.180159	0.300958	0.070231	0.083633	0.645234	0.229510	0.064031	0.281124	0.136296	0.153544	0.615414	0.243920	0.203355	0.502046	0.072254	0.153555	0.190881	0.279172	0.049640	0.079466	0.585630	0.352103	0.037346	0.069844	0.312090	0.231683
77	0.033523	0.077683	0.418175	0.461479	0.034243	0.056651	0.061324	0.052816	0.373594	0.241531	0.498986	0.278624	0.163400	0.121886	0.094687	0.071680	0.060369	0.190339	0.077098	0.044798	0.046252	0.412597	0.304617	0.117441	0.120603	1.033640	0.435545	0.212535	0.067129	0.083765	0.374815	0.331640	0.118379	0.278928	0.667015	0.557536	0.065779	0.209301	0.420289	0.200660	0.083038	0.257763	0.350358	0.132740	0.058629	0.269375	0.177799	0.273991	0.065420	0.070881	0.673190	0.278908	0.099026	0.286742	0.137657	0.159211	0.615334	0.236684	0.211412	0.504620	0.065894	0.145814	0.187368	0.253399	0.057270	0.097697	0.600367	0.366554	0.034556	0.060095	0.365546	0.223317
78	0.047581	0.084529	0.534511	0.478066	0.039073	0.047786	0.223963	0.040697	0.388666	0.238439	0.486350	0.261275	0.162300	0.160131	0.096579	0.058189	0.060704	0.199337	0.055470	0.030006	0.039688	0.394612	0.301789	0.097579	0.121161	1.035554	0.434151	0.274723	0.071235	0.095464	0.397928	0.394464	0.122291	0.279255	0.724379	0.632112	0.063879	0.208097	0.417348	0.166814	0.083341	0.260605	0.406141	0.137040	0.074803	0.266727	0.145189	0.256030	0.044003	0.068098	0.647636	0.285945	0.109632	0.287082	0.137134	0.167338	0.604460	0.226422	0.253514	0.506999	0.064005	0.145418	0.181358	0.205485	0.063815	0.114957	0.602562	0.379102	0.032437	0.059471	0.418519	0.183866
79	0.052461	0.086014	0.614356	0.555039	0.061701	0.164032	0.303821	0.050636	0.389475	0.236406	0.445202	0.316939	0.210095	0.187183	0.120688	0.057675	0.058101	0.214603	0.043542	0.021714	0.035896	0.362190	0.301462	0.082597	0.121173	1.025040	0.478002	0.314386	0.083131	0.118835	0.401810	0.408504	0.124277	0.255222	0.735127	0.710613	0.056513	0.206670	0.362227	0.164458	0.084808	0.261316	0.384728	0.190994	0.121919	0.266469	0.129912	0.239615	0.051802	0.074996	0.645859	0.350818	0.111360	0.239028	0.138475	0.197952	0.542872	0.220368	0.266539	0.511263	0.063062	0.137872	0.181733	0.185970	0.067333	0.123535	0.602994	0.374883	0.024017	0.055452	0.422830	0.140415
80	0.054239	0.088432	0.647425	0.627056	0.101449	0.237369	0.379987	0.107937	0.388796	0.235268	0.412179	0.400193	0.218543	0.191117	0.154590	0.067985	0.084910	0.238751	0.042517	0.021854	0.032459	0.342215	0.286286	0.080814	0.120677	1.023997	0.634328	0.319671	0.087642	0.129544	0.372328	0.408696	0.136031	0.249821	0.733921	0.747832	0.042577	0.206639	0.276331	0.156294	0.085979	0.251402	0.380780	0.226139	0.132445	0.273737	0.094790	0.237063	0.053233	0.075821	0.615754	0.363343	0.111582	0.190952	0.138699	0.198490	0.471604	0.222733	0.266436	0.511510	0.061889	0.096117	0.180110	0.155406	0.067838	0.126924	0.600227	0.343985	0.019565	0.054560	0.414020	0.133616
81	0.061016	0.085401	0.652334	0.653960	0.108000	0.280472	0.413652	0.136202	0.388805	0.232325	0.419482	0.473097	0.232414	0.195235	0.168448	0.103607	0.087984	0.237568	0.048873	0.024863	0.050046	0.135066	0.256805	0.080313	0.122242	1.019460	0.701110	0.414028	0.088329	0.131635	0.316510	0.396134	0.148164	0.245668	0.727206	0.741858	0.036277	0.207122	0.224781	0.160207	0.111610	0.242273	0.399248	0.220626	0.146181	0.287879	0.054638	0.236950	0.052493	0.071045	0.621148	0.364158	0.112199	0.162199	0.187768	0.199772	0.458627	0.211894	0.266164	0.467286	0.061138	0.070693	0.177207	0.113030	0.067432	0.126365	0.584205	0.294850	0.017422	0.050829	0.413485	0.131940
82	0.069225	0.085130	0.656801	0.655522	0.130442	0.326980	0.547619	0.138464	0.389371	0.227276	0.457377	0.500717	0.238889	0.200930	0.170200	0.114022	0.087589	0.223536	0.055199	0.028010	0.084421	0.079835	0.265839	0.077506	0.109861	0.854567	0.711159	0.536761	0.087307	0.129125	0.316654	0.375810	0.150335	0.238633	0.730843	0.709149	0.035659	0.207472	0.186038	0.169472	0.090700	0.210297	0.457962	0.221557	0.147386	0.265856	0.041338	0.233178	0.053005	0.066806	0.532774	0.366281	0.112228	0.112278	0.198994	0.199550	0.379013	0.166051	0.268808	0.377058	0.051614	0.051431	0.164134	0.085585	0.065578	0.121224	0.527091	0.253287	0.016091	0.047890	0.384018	0.127332
83	0.078984	0.089133	0.587517	0.655356	0.151544	0.353827	0.613228	0.142200	0.389514	0.214725	0.478699	0.500508	0.239980	0.202122	0.185133	0.113354	0.075198	0.181288	0.055445	0.031378	0.107085	0.072423	0.285602	0.074875	0.090745	0.732707	0.709588	0.583440	0.081950	0.118181	0.298810	0.370309	0.150410	0.234194	0.830974	0.735147	0.033246	0.207411	0.165627	0.143007	0.086511	0.131429	0.468332	0.260577	0.147820	0.271669	0.040737	0.200096	0.049007	0.074982	0.453218	0.377046	0.116464	0.114431	0.237476	0.199393	0.179737	0.113942	0.302002	0.338310	0.035128	0.037698	0.093290	0.075893	0.060291	0.115547	0.486612	0.248933	0.015075	0.047503	0.358701	0.125859
84	0.083986	0.091274	0.537903	0.614505	0.153618	0.432285	0.629747	0.145705	0.380204	0.187144	0.496465	0.527364	0.239763	0.201356	0.202741	0.114335	0.073987	0.168514	0.121981	0.041463	0.118232	0.073488	0.340633	0.072985	0.086623	0.612550	0.718350	0.587924	0.078034	0.112847	0.251319	0.393559	0.146687	0.224569	0.860386	0.798415	0.032436	0.203599	0.147943	0.123348	0.091456	0.084856	0.503294	0.285564	0.147709	0.251208	0.041762	0.118901	0.046235	0.090319	0.422529	0.393805	0.155062	0.121357	0.261427	0.197684	0.093357	0.087906	0.335450	0.325894	0.034003	0.032928	0.078374	0.072329	0.061422	0.117592	0.416420	0.245905	0.025138	0.049522	0.346374	0.114275
85	0.084669	0.088896	0.517393	0.513914	0.154078	0.456966	0.630062	0.159093	0.328879	0.153512	0.528658	0.553265	0.238480	0.200672	0.356157	0.116596	0.071597	0.176080	0.200945	0.091301	0.123500	0.082097	0.424752	0.064459	0.071144	0.387212	0.686608	0.604639	0.077847	0.109968	0.253036	0.391509	0.146050	0.230180	0.829038	0.846171	0.032292	0.174701	0.120227	0.124580	0.095439	0.095603	0.493314	0.280099	0.144935	0.229312	0.042069	0.069234	0.150398	0.114924	0.428245	0.368563	0.231701	0.122273	0.267323	0.196411	0.076693	0.087671	0.369682	0.245070	0.069503	0.032204	0.109781	0.123037	0.061108	0.121605	0.385371	0.246229	0.027807	0.050583	0.337412	0.073647
86	0.079085	0.077648	0.526169	0.468764	0.154382	0.458273	0.630112	0.179965	0.258975	0.152171	0.542610	0.603435	0.209424	0.203097	0.437792	0.157596	0.051624	0.090688	0.212133	0.105792	0.129065	0.091125	0.449252	0.182287	0.072848	0.201861	0.660328	0.636810	0.073071	0.101080	0.198860	0.322706	0.150229	0.241551	0.779474	0.877828	0.030868	0.150702	0.113225	0.130146	0.095509	0.117993	0.494416	0.302293	0.144811	0.223181	0.044704	0.065057	0.433597	0.128691	0.390843	0.314407	0.233946	0.120353	0.300212	0.193221	0.066914	0.093117	0.344573	0.220885	0.096076	0.046227	0.112764	0.188300	0.058018	0.121982	0.345167	0.238248	0.032207	0.050580	0.260808	0.065137
87	0.076321	0.085152	0.397308	0.446503	0.153712	0.458738	0.616048	0.197485	0.240329	0.162780	0.507863	0.678207	0.183046	0.188756	0.442224	0.203712	0.048139	0.106830	0.260441	0.121719	0.132658	0.088400	0.476380	0.370299	0.096171	0.134243	0.657317	0.649068	0.057155	0.074814	0.238505	0.296902	0.152878	0.244000	0.744301	0.885087	0.030541	0.144121	0.107064	0.132871	0.096500	0.158184	0.492927	0.286151	0.144866	0.174879	0.046399	0.065051	0.584596	0.206111	0.381685	0.302425	0.236358	0.132860	0.314430	0.225186	0.072783	0.099791	0.341474	0.286667	0.124514	0.075148	0.125303	0.195575	0.059121	0.121236	0.237819	0.193333	0.034368	0.045937	0.152844	0.041296
88	0.076217	0.088797	0.296105	0.342052	0.149152	0.450407	0.575117	0.205618	0.217179	0.157115	0.570974	0.722100	0.182136	0.146491	0.441804	0.209314	0.050946	0.106055	0.351763	0.141067	0.135389	0.086884	0.478196	0.431276	0.106536	0.135131	0.668594	0.632561	0.046295	0.054258	0.317956	0.308111	0.149212	0.230185	0.740979	0.864787	0.028118	0.086842	0.093101	0.133722	0.087753	0.186590	0.502151	0.306076	0.144293	0.172669	0.046469	0.062751	0.645054	0.288361	0.311908	0.292120	0.284093	0.134705	0.313510	0.238192	0.126861	0.103351	0.340469	0.313363	0.154805	0.096208	0.129179	0.211970	0.061686	0.115577	0.161707	0.149917	0.034513	0.036333	0.124983	0.026835
89	0.079607	0.115153	0.233584	0.193742	0.131778	0.422444	0.540415	0.191948	0.144479	0.148435	0.623775	0.729354	0.126043	0.108751	0.436767	0.210374	0.054903	0.105467	0.364194	0.145127	0.138284	0.087928	0.548895	0.446714	0.107105	0.148728	0.579021	0.650599	0.043843	0.046277	0.325781	0.313977	0.138154	0.204911	0.713060	0.850303	0.026178	0.068670	0.069104	0.136552	0.071663	0.189089	0.474312	0.325716	0.141211	0.171533	0.046181	0.058862	0.655561	0.293091	0.316287	0.356950	0.312918	0.137248	0.314169	0.210133	0.156704	0.117947	0.310981	0.310929	0.161413	0.100892	0.139516	0.245079	0.057087	0.095107	0.151434	0.110237	0.034495	0.028587	0.147115	0.014200
90	0.074126	0.128868	0.233193	0.095522	0.113252	0.370827	0.558573	0.172689	0.074882	0.129995	0.729560	0.729906	0.109794	0.105655	0.432491	0.210995	0.057059	0.108761	0.421321	0.243918	0.140015	0.102097	0.592992	0.535330	0.110207	0.178369	0.451009	0.646780	0.045942	0.045047	0.359351	0.377114	0.125542	0.181464	0.639094	0.838729	0.026574	0.067360	0.052913	0.138154	0.071559	0.188145	0.414648	0.315444	0.127441	0.209254	0.045330	0.053375	0.660216	0.317350	0.396777	0.404685	0.314394	0.131273	0.315588	0.205844	0.162058	0.115513	0.321649	0.304211	0.161869	0.101684	0.137974	0.261359	0.052383	0.080664	0.277512	0.104769	0.034578	0.024966	0.174247	0.011763
91	0.066627	0.163618	0.240556	0.089701	0.109589	0.343976	0.533797	0.178016	0.059914	0.121864	0.780651	0.744728	0.078530	0.102620	0.436702	0.195994	0.060077	0.080199	0.454925	0.421213	0.143956	0.128198	0.595140	0.609970	0.117907	0.207797	0.499689	0.553904	0.045943	0.045960	0.453621	0.419679	0.124112	0.177909	0.599564	0.778710	0.031871	0.087204	0.048406	0.138391	0.113218	0.186398	0.407741	0.277756	0.088766	0.331518	0.044492	0.047146	0.743545	0.317790	0.401090	0.406579	0.319888	0.118187	0.293479	0.208503	0.183711	0.106637	0.454277	0.300851	0.162040	0.105396	0.137210	0.264454	0.050679	0.077142	0.440420	0.186756	0.034960	0.029022	0.283834	0.075234
92	0.053617	0.168812	0.244908	0.085485	0.053648	0.300074	0.415299	0.177536	0.072798	0.135621	0.779740	0.783545	0.055706	0.092641	0.441302	0.190868	0.059240	0.082456	0.474417	0.471401	0.135161	0.144141	0.596879	0.643135	0.115100	0.204713	0.637979	0.586512	0.042877	0.047103	0.469474	0.413472	0.119921	0.178724	0.595923	0.740870	0.042583	0.224878	0.046584	0.142382	0.202209	0.176215	0.312472	0.271256	0.081670	0.359416	0.043468	0.039979	0.784280	0.316550	0.410431	0.425299	0.323193	0.117722	0.286241	0.213198	0.183703	0.102309	0.493734	0.322884	0.162187	0.107621	0.136397	0.264351	0.053113	0.078822	0.469309	0.263364	0.037079	0.043017	0.329954	0.204756
93	0.047446	0.169499	0.244758	0.086456	0.038483	0.266668	0.386428	0.174206	0.084020	0.147579	0.788149	0.800127	0.049250	0.089337	0.437111	0.205931	0.058035	0.088302	0.573562	0.622398	0.131580	0.152512	0.575521	0.652613	0.126509	0.196688	0.624792	0.617913	0.044859	0.049697	0.466043	0.371010	0.106419	0.176552	0.603621	0.749902	0.046126	0.309520	0.050725	0.147139	0.207017	0.204156	0.243748	0.282402	0.079996	0.390849	0.041997	0.032116	0.792586	0.313461	0.412227	0.427701	0.323443	0.116611	0.279779	0.214656	0.182624	0.102378	0.492917	0.352817	0.161688	0.108385	0.136133	0.263982	0.058749	0.096878	0.483770	0.291657	0.043448	0.065123	0.329475	0.251566
94	0.045434	0.170259	0.240173	0.086975	0.039455	0.061662	0.379456	0.170023	0.087045	0.151004	0.851623	0.788932	0.049785	0.089273	0.429931	0.235483	0.066474	0.108388	0.533602	0.679575	0.109959	0.153254	0.542757	0.653168	0.127979	0.197449	0.594816	0.632935	0.047945	0.050152	0.469181	0.347857	0.114252	0.189989	0.603190	0.773896	0.045144	0.346988	0.055401	0.144593	0.288051	0.194785	0.258606	0.241082	0.120608	0.402816	0.039268	0.025638	0.789645	0.306078	0.442638	0.421921	0.312481	0.109921	0.235066	0.214122	0.182267	0.103168	0.471962	0.367551	0.161336	0.108305	0.134610	0.263786	0.075008	0.120458	0.632733	0.294441	0.060820	0.095122	0.422449	0.270899
95	0.044890	0.168668	0.222427	0.087158	0.038318	0.066367	0.384244	0.160587	0.087729	0.151752	0.960589	0.802607	0.051571	0.088872	0.319633	0.249128	0.063491	0.109626	0.523313	0.682324	0.105716	0.151836	0.439606	0.653149	0.129047	0.197167	0.640224	0.642509	0.048190	0.051590	0.465742	0.347902	0.155337	0.212493	0.521369	0.766850	0.046799	0.437557	0.060995	0.128170	0.291700	0.180061	0.274478	0.232053	0.129974	0.412610	0.036298	0.020691	0.737234	0.303631	0.465255	0.419726	0.258136	0.107129	0.223592	0.210000	0.181787	0.107727	0.451451	0.367878	0.159629	0.107853	0.133709	0.263334	0.083249	0.126501	0.790191	0.309206	0.061702	0.101116	0.530080	0.357465
96	0.039428	0.163293	0.303971	0.113343	0.042844	0.075906	0.382883	0.138340	0.089988	0.158089	0.978209	0.845909	0.051302	0.110558	0.182564	0.230208	0.062048	0.105861	0.476483	0.666716	0.098817	0.145650	0.422487	0.649197	0.122730	0.198781	0.774622	0.641670	0.044176	0.051436	0.410489	0.344627	0.174180	0.220204	0.321668	0.709001	0.047110	0.442003	0.066247	0.121335	0.294606	0.150075	0.291563	0.183302	0.135902	0.460659	0.035632	0.016803	0.557864	0.286291	0.502318	0.438949	0.246654	0.104869	0.184207	0.197047	0.181798	0.108443	0.422722	0.358912	0.146226	0.107650	0.114492	0.242498	0.083364	0.126159	0.813746	0.380971	0.071205	0.122530	0.537726	0.402304
97	0.032035	0.160491	0.303915	0.278067	0.042941	0.080342	0.382526	0.135677	0.098490	0.175215	0.961361	0.867152	0.047427	0.141953	0.174432	0.207036	0.058173	0.101921	0.422555	0.579157	0.092246	0.140629	0.390932	0.590322	0.144488	0.205165	0.789582	0.651642	0.040000	0.050813	0.400005	0.347974	0.176780	0.218462	0.268445	0.639498	0.047621	0.442537	0.067811	0.122155	0.295580	0.155509	0.373987	0.200711	0.138923	0.503972	0.035250	0.014237	0.492423	0.170347	0.536099	0.451851	0.239172	0.081505	0.136933	0.139211	0.181682	0.103312	0.426364	0.325779	0.131289	0.101278	0.114333	0.196808	0.085569	0.126975	0.814033	0.447940	0.077058	0.133286	0.537120	0.405069
98	0.025019	0.133786	0.310585	0.386395	0.042031	0.080000	0.388894	0.204640	0.103777	0.184671	0.944436	0.850725	0.041566	0.169757	0.187613	0.205988	0.054449	0.101065	0.402819	0.520568	0.087748	0.140198	0.390983	0.534497	0.166033	0.194769	0.769946	0.640112	0.038982	0.052025	0.363017	0.312746	0.175513	0.208309	0.295546	0.563603	0.052171	0.442644	0.067970	0.121661	0.297450	0.156492	0.364952	0.239022	0.138525	0.522040	0.029092	0.012296	0.454933	0.146632	0.537001	0.406704	0.206129	0.047911	0.136632	0.088406	0.178455	0.095151	0.469264	0.261354	0.102857	0.080597	0.131428	0.189377	0.089832	0.133673	0.825451	0.471379	0.079354	0.137061	0.532729	0.405131
99	0.046183	0.123825	0.311440	0.397401	0.044383	0.079504	0.351705	0.262093	0.102442	0.181164	0.940282	0.796694	0.038352	0.175865	0.187220	0.205487	0.046705	0.082971	0.232701	0.362804	0.084988	0.143045	0.358289	0.549695	0.169126	0.185079	0.758673	0.639543	0.044562	0.069213	0.252034	0.231676	0.171674	0.190473	0.295939	0.501121	0.058526	0.447343	0.067205	0.115585	0.265562	0.152686	0.378096	0.258304	0.138380	0.528041	0.028244	0.011032	0.456454	0.083585	0.520015	0.388829	0.104560	0.042181	0.135986	0.079956	0.144242	0.086375	0.536962	0.275337	0.055431	0.054155	0.152566	0.166414	0.096710	0.140472	0.832158	0.472963	0.081316	0.139377	0.519336	0.405290
100	0.050956	0.071822	0.322221	0.462646	0.045443	0.080078	0.214691	0.260288	0.106315	0.180605	0.888342	0.753423	0.039398	0.190468	0.171278	0.200973	0.022563	0.045468	0.144771	0.163527	0.084235	0.145566	0.202872	0.506357	0.188876	0.196464	0.742386	0.691334	0.054781	0.079463	0.143143	0.195305	0.167769	0.173955	0.295851	0.582520	0.059231	0.459840	0.067297	0.110717	0.251999	0.151155	0.379947	0.261894	0.138246	0.530094	0.029744	0.011175	0.420755	0.064283	0.479811	0.402128	0.115906	0.033282	0.129150	0.078940	0.114649	0.058466	0.550140	0.454472	0.046523	0.046758	0.145379	0.108422	0.101538	0.144603	0.831590	0.487835	0.081823	0.138762	0.464930	0.400183
101	0.054420	0.080908	0.342657	0.512903	0.043880	0.080193	0.192473	0.318533	0.130428	0.180019	0.842869	0.745618	0.035956	0.192649	0.142818	0.200094	0.019866	0.038021	0.179634	0.122345	0.074982	0.123958	0.174271	0.400086	0.218798	0.219095	0.619721	0.637219	0.052402	0.080498	0.137188	0.163397	0.164816	0.167249	0.298896	0.701547	0.060887	0.462698	0.067798	0.108363	0.247441	0.091316	0.368550	0.250472	0.138029	0.530832	0.030997	0.011587	0.310184	0.063039	0.472888	0.389449	0.116245	0.031804	0.128232	0.066244	0.105977	0.054217	0.540402	0.537626	0.052853	0.047955	0.147762	0.057055	0.116263	0.145813	0.822429	0.501583	0.079799	0.134572	0.449272	0.374517
