	181_P_T3_sh_R_ND_A_01.c3d	181_P_T3_sh_R_ND_A_01.c3d	181_P_T3_sh_R_ND_A_01.c3d	181_P_T3_sh_R_ND_A_01.c3d	181_P_T3_sh_R_ND_A_01.c3d	181_P_T3_sh_R_ND_A_01.c3d	181_P_T3_sh_R_ND_A_01.c3d	181_P_T3_sh_R_ND_A_01.c3d	181_P_T3_sh_R_ND_A_02.c3d	181_P_T3_sh_R_ND_A_02.c3d	181_P_T3_sh_R_ND_A_02.c3d	181_P_T3_sh_R_ND_A_02.c3d	181_P_T3_sh_R_ND_A_02.c3d	181_P_T3_sh_R_ND_A_02.c3d	181_P_T3_sh_R_ND_A_02.c3d	181_P_T3_sh_R_ND_A_02.c3d	181_P_T3_sh_R_ND_A_03.c3d	181_P_T3_sh_R_ND_A_03.c3d	181_P_T3_sh_R_ND_A_03.c3d	181_P_T3_sh_R_ND_A_03.c3d	181_P_T3_sh_R_ND_A_03.c3d	181_P_T3_sh_R_ND_A_03.c3d	181_P_T3_sh_R_ND_A_03.c3d	181_P_T3_sh_R_ND_A_03.c3d	181_P_T3_sh_R_ND_A_04.c3d	181_P_T3_sh_R_ND_A_04.c3d	181_P_T3_sh_R_ND_A_04.c3d	181_P_T3_sh_R_ND_A_04.c3d	181_P_T3_sh_R_ND_A_04.c3d	181_P_T3_sh_R_ND_A_04.c3d	181_P_T3_sh_R_ND_A_04.c3d	181_P_T3_sh_R_ND_A_04.c3d	181_P_T3_sh_R_ND_A_05.c3d	181_P_T3_sh_R_ND_A_05.c3d	181_P_T3_sh_R_ND_A_05.c3d	181_P_T3_sh_R_ND_A_05.c3d	181_P_T3_sh_R_ND_A_05.c3d	181_P_T3_sh_R_ND_A_05.c3d	181_P_T3_sh_R_ND_A_05.c3d	181_P_T3_sh_R_ND_A_05.c3d	181_P_T3_sh_R_ND_A_06.c3d	181_P_T3_sh_R_ND_A_06.c3d	181_P_T3_sh_R_ND_A_06.c3d	181_P_T3_sh_R_ND_A_06.c3d	181_P_T3_sh_R_ND_A_06.c3d	181_P_T3_sh_R_ND_A_06.c3d	181_P_T3_sh_R_ND_A_06.c3d	181_P_T3_sh_R_ND_A_06.c3d	181_P_T3_sh_R_ND_A_08.c3d	181_P_T3_sh_R_ND_A_08.c3d	181_P_T3_sh_R_ND_A_08.c3d	181_P_T3_sh_R_ND_A_08.c3d	181_P_T3_sh_R_ND_A_08.c3d	181_P_T3_sh_R_ND_A_08.c3d	181_P_T3_sh_R_ND_A_08.c3d	181_P_T3_sh_R_ND_A_08.c3d	181_P_T3_sh_R_ND_A_09.c3d	181_P_T3_sh_R_ND_A_09.c3d	181_P_T3_sh_R_ND_A_09.c3d	181_P_T3_sh_R_ND_A_09.c3d	181_P_T3_sh_R_ND_A_09.c3d	181_P_T3_sh_R_ND_A_09.c3d	181_P_T3_sh_R_ND_A_09.c3d	181_P_T3_sh_R_ND_A_09.c3d	181_P_T3_sh_R_ND_A_10.c3d	181_P_T3_sh_R_ND_A_10.c3d	181_P_T3_sh_R_ND_A_10.c3d	181_P_T3_sh_R_ND_A_10.c3d	181_P_T3_sh_R_ND_A_10.c3d	181_P_T3_sh_R_ND_A_10.c3d	181_P_T3_sh_R_ND_A_10.c3d	181_P_T3_sh_R_ND_A_10.c3d
	Biceps femoris_lat	Semitendinosus_lat	Vastus lateralis_lat	Vastus medialis_lat	Biceps femoris_med	Semitendinosus_med	Vastus lateralis_med	Vastus medialis_med	Biceps femoris_lat	Semitendinosus_lat	Vastus lateralis_lat	Vastus medialis_lat	Biceps femoris_med	Semitendinosus_med	Vastus lateralis_med	Vastus medialis_med	Biceps femoris_lat	Semitendinosus_lat	Vastus lateralis_lat	Vastus medialis_lat	Biceps femoris_med	Semitendinosus_med	Vastus lateralis_med	Vastus medialis_med	Biceps femoris_lat	Semitendinosus_lat	Vastus lateralis_lat	Vastus medialis_lat	Biceps femoris_med	Semitendinosus_med	Vastus lateralis_med	Vastus medialis_med	Biceps femoris_lat	Semitendinosus_lat	Vastus lateralis_lat	Vastus medialis_lat	Biceps femoris_med	Semitendinosus_med	Vastus lateralis_med	Vastus medialis_med	Biceps femoris_lat	Semitendinosus_lat	Vastus lateralis_lat	Vastus medialis_lat	Biceps femoris_med	Semitendinosus_med	Vastus lateralis_med	Vastus medialis_med	Biceps femoris_lat	Semitendinosus_lat	Vastus lateralis_lat	Vastus medialis_lat	Biceps femoris_med	Semitendinosus_med	Vastus lateralis_med	Vastus medialis_med	Biceps femoris_lat	Semitendinosus_lat	Vastus lateralis_lat	Vastus medialis_lat	Biceps femoris_med	Semitendinosus_med	Vastus lateralis_med	Vastus medialis_med	Biceps femoris_lat	Semitendinosus_lat	Vastus lateralis_lat	Vastus medialis_lat	Biceps femoris_med	Semitendinosus_med	Vastus lateralis_med	Vastus medialis_med
	P2D	P2D	P2D	P2D	P2D	P2D	P2D	P2D	P2D	P2D	P2D	P2D	P2D	P2D	P2D	P2D	P2D	P2D	P2D	P2D	P2D	P2D	P2D	P2D	P2D	P2D	P2D	P2D	P2D	P2D	P2D	P2D	P2D	P2D	P2D	P2D	P2D	P2D	P2D	P2D	P2D	P2D	P2D	P2D	P2D	P2D	P2D	P2D	P2D	P2D	P2D	P2D	P2D	P2D	P2D	P2D	P2D	P2D	P2D	P2D	P2D	P2D	P2D	P2D	P2D	P2D	P2D	P2D	P2D	P2D	P2D	P2D
	EMG_lat	EMG_lat	EMG_lat	EMG_lat	EMG_med	EMG_med	EMG_med	EMG_med	EMG_lat	EMG_lat	EMG_lat	EMG_lat	EMG_med	EMG_med	EMG_med	EMG_med	EMG_lat	EMG_lat	EMG_lat	EMG_lat	EMG_med	EMG_med	EMG_med	EMG_med	EMG_lat	EMG_lat	EMG_lat	EMG_lat	EMG_med	EMG_med	EMG_med	EMG_med	EMG_lat	EMG_lat	EMG_lat	EMG_lat	EMG_med	EMG_med	EMG_med	EMG_med	EMG_lat	EMG_lat	EMG_lat	EMG_lat	EMG_med	EMG_med	EMG_med	EMG_med	EMG_lat	EMG_lat	EMG_lat	EMG_lat	EMG_med	EMG_med	EMG_med	EMG_med	EMG_lat	EMG_lat	EMG_lat	EMG_lat	EMG_med	EMG_med	EMG_med	EMG_med	EMG_lat	EMG_lat	EMG_lat	EMG_lat	EMG_med	EMG_med	EMG_med	EMG_med
ITEM	Y	Y	Y	Y	Y	Y	Y	Y	Y	Y	Y	Y	Y	Y	Y	Y	Y	Y	Y	Y	Y	Y	Y	Y	Y	Y	Y	Y	Y	Y	Y	Y	Y	Y	Y	Y	Y	Y	Y	Y	Y	Y	Y	Y	Y	Y	Y	Y	Y	Y	Y	Y	Y	Y	Y	Y	Y	Y	Y	Y	Y	Y	Y	Y	Y	Y	Y	Y	Y	Y	Y	Y
1	0.373316	0.058236	0.300552	0.122441	0.059512	0.165147	0.407919	0.091123	0.089196	0.060412	0.532867	0.243424	0.102369	0.253652	0.360124	0.166041	0.132675	0.057060	0.226149	0.119799	0.065978	0.083472	0.386595	0.187315	0.036584	0.118949	0.147601	0.088305	0.184704	0.098227	0.473291	0.188787	0.107988	0.067237	0.463770	0.165763	0.115034	0.131133	0.298098	0.105294	0.311800	0.046083	0.281924	0.112941	0.103983	0.315108	0.427993	0.121417	0.126409	0.040533	0.287431	0.243396	0.176864	0.078547	0.109675	0.050506	0.060317	0.035671	0.163712	0.186724	0.082367	0.236207	0.353162	0.175905	0.443716	0.073708	0.153867	0.042044	0.166900	0.021800	0.475756	0.107448
2	0.373379	0.042257	0.311257	0.133170	0.058491	0.161818	0.419427	0.093369	0.069170	0.057886	0.572722	0.266330	0.098923	0.268460	0.400850	0.169120	0.128954	0.047134	0.226959	0.121251	0.064980	0.084212	0.355726	0.194784	0.036638	0.119733	0.141581	0.063798	0.176667	0.087926	0.462312	0.186943	0.110297	0.069587	0.561552	0.184314	0.118096	0.134540	0.286574	0.103600	0.310964	0.046669	0.281611	0.120635	0.084612	0.313332	0.429691	0.128893	0.093772	0.061584	0.316249	0.239857	0.176363	0.076395	0.107574	0.050867	0.056912	0.035540	0.113284	0.183347	0.078804	0.214794	0.344978	0.175518	0.444163	0.071565	0.435408	0.145165	0.139728	0.031675	0.471879	0.107994
3	0.394886	0.045609	0.317924	0.126730	0.040080	0.159953	0.388448	0.098296	0.063622	0.056209	0.572338	0.285589	0.098250	0.270583	0.410588	0.180818	0.137112	0.031076	0.222172	0.121958	0.057129	0.084556	0.322554	0.194140	0.036247	0.118473	0.138932	0.043043	0.139920	0.077245	0.459951	0.186783	0.121824	0.070890	0.640279	0.189492	0.127442	0.128169	0.232583	0.101752	0.281032	0.043498	0.238704	0.107198	0.060333	0.309474	0.423087	0.132065	0.075249	0.063950	0.319029	0.239871	0.162382	0.082322	0.114541	0.050131	0.054778	0.036598	0.102729	0.172278	0.075443	0.051728	0.334856	0.170459	0.439462	0.062025	0.642405	0.334689	0.119501	0.035836	0.470782	0.108178
4	0.373757	0.039444	0.341548	0.127053	0.039962	0.168745	0.389194	0.114340	0.059506	0.054260	0.561875	0.294858	0.098162	0.270762	0.378994	0.181786	0.146476	0.023169	0.239009	0.122092	0.045708	0.089912	0.303769	0.196551	0.036239	0.111800	0.143265	0.034147	0.100416	0.075207	0.403111	0.186811	0.113373	0.070937	0.662083	0.189494	0.122304	0.125447	0.193618	0.102128	0.232022	0.043121	0.202602	0.128574	0.056581	0.264230	0.420246	0.190332	0.070210	0.063959	0.313510	0.240161	0.144742	0.087113	0.119090	0.048990	0.045926	0.036426	0.082330	0.146423	0.064145	0.020724	0.337788	0.159641	0.437708	0.060962	0.652998	0.457890	0.150655	0.036424	0.448650	0.108130
5	0.366823	0.037553	0.182441	0.123448	0.042344	0.172821	0.376339	0.122761	0.057484	0.054236	0.562188	0.295705	0.097555	0.265976	0.384375	0.179787	0.150352	0.027793	0.263668	0.122021	0.043772	0.097287	0.297597	0.185728	0.035673	0.101680	0.162187	0.035790	0.035279	0.077700	0.296335	0.183069	0.112857	0.070766	0.654603	0.192540	0.112385	0.108446	0.195613	0.099102	0.216753	0.031346	0.204445	0.132806	0.061600	0.332424	0.424321	0.290719	0.061470	0.067746	0.311142	0.205916	0.116154	0.082195	0.229825	0.047006	0.045385	0.035809	0.093649	0.086373	0.056130	0.021319	0.346229	0.163283	0.400616	0.060973	0.669779	0.500904	0.151467	0.038128	0.347066	0.103618
6	0.274022	0.036371	0.217781	0.298490	0.045692	0.174685	0.369536	0.123096	0.056853	0.052972	0.567982	0.284506	0.081531	0.215743	0.402843	0.171327	0.146220	0.034877	0.283296	0.124150	0.044752	0.101500	0.277419	0.170628	0.034645	0.096764	0.167276	0.035705	0.056319	0.125239	0.267481	0.180125	0.112852	0.070418	0.651649	0.191377	0.097615	0.115608	0.205764	0.090112	0.146674	0.025249	0.160990	0.132314	0.083282	0.380603	0.419382	0.321435	0.051474	0.071215	0.322956	0.181856	0.110923	0.078536	0.313566	0.059151	0.037213	0.031232	0.105537	0.049588	0.055052	0.025224	0.339014	0.171648	0.338561	0.058804	0.673163	0.506618	0.150011	0.048654	0.223196	0.096844
7	0.228694	0.041281	0.325660	0.350117	0.044650	0.122479	0.339708	0.122973	0.056155	0.050384	0.574121	0.275477	0.060934	0.205506	0.427700	0.178375	0.145434	0.039400	0.282546	0.122165	0.043966	0.103098	0.211081	0.190343	0.033326	0.089360	0.185043	0.054088	0.062188	0.137275	0.275964	0.181046	0.112354	0.070158	0.651590	0.193082	0.096126	0.136165	0.213154	0.083508	0.081904	0.024823	0.115483	0.134271	0.104449	0.451530	0.380323	0.331292	0.045679	0.071186	0.338697	0.174660	0.083070	0.074201	0.329015	0.123726	0.031291	0.031351	0.106241	0.038559	0.056974	0.040459	0.299762	0.172508	0.313890	0.046619	0.673089	0.575050	0.140543	0.051013	0.165693	0.088655
8	0.074384	0.042771	0.360341	0.414472	0.040974	0.094124	0.318965	0.139449	0.054923	0.044551	0.540193	0.271399	0.056376	0.202299	0.457003	0.222230	0.141687	0.045176	0.292203	0.120289	0.041957	0.125912	0.191763	0.204984	0.033541	0.073289	0.190741	0.068343	0.080862	0.205840	0.278183	0.168202	0.111943	0.068528	0.581813	0.184808	0.095442	0.185865	0.212912	0.086787	0.036565	0.024988	0.119169	0.152048	0.107669	0.507181	0.370541	0.363395	0.044731	0.071788	0.328400	0.157647	0.073973	0.080486	0.341150	0.162201	0.042303	0.052160	0.113837	0.038548	0.052967	0.044357	0.274353	0.170131	0.274971	0.045969	0.685488	0.681270	0.131678	0.060545	0.181175	0.081896
9	0.082861	0.044727	0.502266	0.426062	0.053158	0.088756	0.328295	0.138947	0.043210	0.035935	0.446981	0.269872	0.055382	0.188521	0.460774	0.233106	0.140908	0.048802	0.340161	0.124351	0.037764	0.130544	0.191074	0.206297	0.033573	0.071212	0.241493	0.075620	0.083945	0.232724	0.273170	0.167144	0.108127	0.067988	0.565442	0.178953	0.093460	0.199912	0.212474	0.115728	0.026772	0.021627	0.151319	0.153444	0.110477	0.498204	0.365852	0.387722	0.033651	0.067346	0.321907	0.139944	0.075224	0.104178	0.381288	0.183411	0.044862	0.074887	0.115465	0.038038	0.047291	0.044457	0.278314	0.151389	0.211362	0.052309	0.719794	0.737018	0.130666	0.061828	0.184672	0.114727
10	0.071493	0.045626	0.609002	0.361310	0.063564	0.082928	0.291438	0.179917	0.029906	0.029957	0.414689	0.255561	0.049431	0.185790	0.486966	0.241754	0.139359	0.050028	0.399235	0.160616	0.034414	0.127818	0.209482	0.199189	0.035591	0.056012	0.252752	0.084019	0.092577	0.229179	0.251515	0.152737	0.106558	0.050246	0.553227	0.184405	0.089403	0.306398	0.216037	0.143346	0.026999	0.016313	0.177558	0.167733	0.111820	0.500938	0.343704	0.389433	0.014921	0.049562	0.295974	0.134570	0.071980	0.106539	0.408230	0.185417	0.044213	0.075577	0.143662	0.049891	0.045309	0.045101	0.273316	0.125483	0.217262	0.056287	0.723453	0.747694	0.131626	0.098565	0.183629	0.183262
11	0.063480	0.043627	0.580495	0.340244	0.093301	0.082437	0.283427	0.191918	0.025842	0.030208	0.427247	0.261086	0.053780	0.161604	0.491419	0.266924	0.134953	0.051504	0.433934	0.279672	0.038302	0.130423	0.216020	0.190799	0.036137	0.035123	0.250473	0.099951	0.093260	0.227388	0.227510	0.126234	0.104695	0.031573	0.547712	0.167319	0.088149	0.326891	0.220933	0.148199	0.026088	0.015531	0.188058	0.177907	0.116632	0.502590	0.347246	0.386314	0.015111	0.046641	0.363862	0.136541	0.074629	0.106556	0.408430	0.186432	0.041433	0.076865	0.162731	0.089470	0.044029	0.053308	0.303059	0.099853	0.188588	0.056529	0.735995	0.748396	0.138035	0.127430	0.186838	0.240965
12	0.049380	0.038041	0.591889	0.258594	0.097737	0.070788	0.301686	0.239397	0.026535	0.030630	0.363340	0.272647	0.057980	0.123078	0.488413	0.329580	0.137406	0.052797	0.536612	0.391150	0.044559	0.131966	0.212564	0.184347	0.034175	0.030116	0.249375	0.123608	0.093158	0.227425	0.209142	0.103560	0.080844	0.028791	0.464125	0.145971	0.084412	0.322723	0.275815	0.157806	0.028799	0.019945	0.201596	0.166444	0.119379	0.502557	0.351325	0.390075	0.014926	0.047374	0.371085	0.135791	0.072521	0.109295	0.404592	0.188545	0.041206	0.079656	0.185166	0.092611	0.048523	0.059519	0.356962	0.092638	0.124065	0.056785	0.734701	0.753712	0.141531	0.129085	0.248541	0.258599
13	0.027044	0.032802	0.549764	0.249105	0.097855	0.044219	0.329477	0.277715	0.035696	0.040402	0.313003	0.236408	0.057160	0.085410	0.448450	0.381791	0.126986	0.058197	0.588150	0.419981	0.045239	0.151100	0.212121	0.184178	0.044114	0.026968	0.333229	0.143372	0.093922	0.228059	0.187076	0.098583	0.036265	0.018650	0.326698	0.134239	0.064219	0.322622	0.423813	0.190854	0.032327	0.021476	0.198551	0.152136	0.121130	0.500506	0.348164	0.384129	0.014769	0.044641	0.390568	0.139910	0.071128	0.115221	0.404437	0.192756	0.042101	0.082748	0.310369	0.094696	0.046678	0.059412	0.400178	0.092215	0.108602	0.056836	0.740914	0.756361	0.141062	0.129385	0.328640	0.263178
14	0.017325	0.034518	0.302872	0.173466	0.099909	0.045064	0.349904	0.281833	0.035459	0.048363	0.307724	0.204681	0.057098	0.068684	0.416540	0.407890	0.116191	0.065539	0.610300	0.421026	0.044163	0.154207	0.236294	0.175238	0.053867	0.026569	0.422233	0.149697	0.093736	0.228244	0.193433	0.103639	0.019605	0.014084	0.251884	0.135060	0.055113	0.322437	0.429314	0.216691	0.032988	0.020739	0.328530	0.166510	0.120580	0.491857	0.341052	0.342312	0.014133	0.036615	0.390172	0.148473	0.070205	0.116052	0.406533	0.203496	0.042736	0.082764	0.347117	0.127481	0.044811	0.060778	0.403614	0.090310	0.102871	0.058022	0.650331	0.748480	0.135274	0.136926	0.350570	0.291825
15	0.014426	0.112105	0.295996	0.283856	0.105676	0.111734	0.335862	0.281930	0.033872	0.048382	0.304606	0.198817	0.060939	0.069349	0.413736	0.413535	0.116075	0.070910	0.616512	0.444554	0.043814	0.155157	0.301341	0.174911	0.059201	0.026506	0.430082	0.190051	0.092352	0.228345	0.197967	0.104541	0.019941	0.013826	0.240568	0.131704	0.049908	0.322031	0.472513	0.230605	0.031320	0.023220	0.363912	0.172419	0.110512	0.393704	0.331224	0.262990	0.013257	0.071237	0.346462	0.148529	0.069501	0.110064	0.409737	0.213627	0.041819	0.099429	0.359594	0.133893	0.046089	0.062749	0.396657	0.095401	0.100130	0.060272	0.425411	0.689603	0.133457	0.137758	0.350320	0.326376
16	0.056464	0.330807	0.246887	0.282779	0.106250	0.135683	0.319411	0.277243	0.033805	0.048495	0.332265	0.208704	0.070297	0.082475	0.397376	0.406941	0.111422	0.072813	0.616994	0.487218	0.043334	0.153036	0.341715	0.183152	0.061111	0.026606	0.462508	0.238155	0.091048	0.228457	0.197209	0.103393	0.020103	0.014216	0.240017	0.128324	0.054420	0.321202	0.478530	0.270672	0.028229	0.029949	0.373462	0.174955	0.090757	0.360618	0.301357	0.259094	0.015013	0.164289	0.340999	0.116948	0.071014	0.129348	0.453884	0.214850	0.036161	0.347440	0.846543	0.196937	0.045866	0.064056	0.378287	0.106533	0.099353	0.061096	0.408373	0.612613	0.131936	0.140339	0.351645	0.350601
17	0.074123	0.389889	0.216279	0.313636	0.099053	0.160218	0.335776	0.295538	0.034649	0.049910	0.325433	0.220491	0.078253	0.096885	0.351106	0.418033	0.096868	0.072961	0.615966	0.519744	0.043274	0.148277	0.351454	0.186518	0.064270	0.029919	0.471874	0.262333	0.089546	0.228492	0.200733	0.099644	0.019849	0.014100	0.180997	0.127290	0.057139	0.313479	0.478706	0.294124	0.037817	0.036150	0.419059	0.170498	0.073188	0.162268	0.285786	0.239975	0.023388	0.226200	0.347583	0.102140	0.069531	0.150922	0.579293	0.220050	0.027403	0.510622	0.967326	0.288707	0.046937	0.062888	0.356407	0.105094	0.099689	0.061213	0.388646	0.572855	0.126104	0.146017	0.355590	0.366564
18	0.080548	0.392588	0.280604	0.384278	0.090109	0.161955	0.326064	0.340886	0.037680	0.049859	0.314761	0.222603	0.083389	0.097537	0.362520	0.463157	0.089132	0.071977	0.618879	0.545869	0.043977	0.145597	0.351239	0.177693	0.072526	0.034240	0.466456	0.266453	0.085375	0.217195	0.205390	0.095047	0.019824	0.013981	0.124584	0.107922	0.063756	0.295643	0.490316	0.302430	0.036646	0.036266	0.446807	0.175265	0.069339	0.109685	0.297244	0.189396	0.024968	0.268035	0.378139	0.168016	0.067111	0.165401	0.699282	0.223312	0.052660	0.655693	0.979599	0.305788	0.047140	0.062560	0.357914	0.083042	0.098083	0.060457	0.389216	0.570524	0.082308	0.147037	0.368145	0.372205
19	0.092113	0.395260	0.324687	0.386040	0.080070	0.161404	0.350537	0.332631	0.042230	0.050687	0.314694	0.225298	0.084435	0.092910	0.310489	0.503149	0.087411	0.076808	0.641363	0.567849	0.045387	0.143191	0.361644	0.147261	0.086527	0.037896	0.535669	0.265858	0.076657	0.197598	0.187943	0.086716	0.017152	0.015129	0.137619	0.079178	0.064233	0.330412	0.501663	0.294554	0.037098	0.042141	0.446894	0.166586	0.065512	0.100710	0.247553	0.156153	0.028050	0.270869	0.317432	0.172320	0.064566	0.166388	0.728396	0.198423	0.055451	0.708300	1.099972	0.312126	0.044280	0.059698	0.365186	0.073370	0.097675	0.060834	0.400075	0.515006	0.082346	0.147372	0.381406	0.373639
20	0.093290	0.292278	0.299328	0.453707	0.147223	0.161246	0.402438	0.328137	0.047513	0.051903	0.312111	0.232932	0.085196	0.091484	0.303865	0.512771	0.084806	0.113350	0.672300	0.579423	0.045218	0.132858	0.368116	0.148583	0.098825	0.039465	0.624209	0.304894	0.061894	0.173555	0.168615	0.087986	0.020473	0.018527	0.177730	0.059236	0.065162	0.319175	0.531652	0.290417	0.036972	0.046342	0.446540	0.165768	0.057697	0.097125	0.161396	0.149275	0.036092	0.272319	0.296684	0.191350	0.066475	0.158813	0.720480	0.169459	0.056266	0.712106	1.249654	0.339015	0.044041	0.057690	0.368257	0.076840	0.094582	0.058064	0.393295	0.374386	0.082090	0.144976	0.379109	0.373353
21	0.094197	0.426992	0.348978	0.443160	0.186453	0.160986	0.376935	0.302363	0.048360	0.052743	0.322331	0.242743	0.084941	0.102361	0.262474	0.510776	0.073167	0.192286	0.694327	0.583475	0.044686	0.137209	0.348173	0.155316	0.107181	0.039235	0.641253	0.358462	0.055460	0.109059	0.203165	0.104444	0.020779	0.018816	0.181285	0.063946	0.068378	0.309385	0.575991	0.290981	0.034796	0.068260	0.441950	0.166093	0.048258	0.144623	0.131871	0.138042	0.037586	0.272285	0.281850	0.239161	0.064420	0.159870	0.702641	0.164053	0.056382	0.719153	1.279021	0.395307	0.044136	0.091625	0.365830	0.082531	0.080667	0.055553	0.325526	0.235235	0.081998	0.144093	0.375490	0.373320
22	0.097973	0.686786	0.367308	0.414279	0.202372	0.161290	0.386828	0.295150	0.048340	0.052611	0.322265	0.234189	0.082226	0.128053	0.245507	0.501456	0.073412	0.235067	0.695411	0.583640	0.044687	0.180552	0.334254	0.160473	0.107268	0.040965	0.656014	0.383057	0.047161	0.141743	0.385432	0.157978	0.028734	0.020138	0.201824	0.063602	0.065988	0.315993	0.603068	0.286803	0.038197	0.093116	0.422896	0.162658	0.045788	0.166539	0.124614	0.128956	0.038736	0.275298	0.283297	0.252255	0.053370	0.161237	0.729717	0.193967	0.060963	0.726302	1.272727	0.438337	0.047116	0.144784	0.361497	0.152333	0.060382	0.075493	0.317936	0.198173	0.081379	0.140819	0.368314	0.373512
23	0.092945	0.740522	0.334339	0.334859	0.214508	0.142094	0.406865	0.299894	0.049853	0.052699	0.332438	0.240095	0.084564	0.249785	0.272381	0.466846	0.073712	0.272855	0.677775	0.575583	0.041932	0.254806	0.333311	0.186409	0.107826	0.046846	0.674180	0.385339	0.041888	0.146529	0.525383	0.192042	0.050114	0.020714	0.228054	0.066459	0.068437	0.316130	0.497826	0.282244	0.041016	0.107893	0.329959	0.144177	0.044449	0.177680	0.122229	0.128885	0.043074	0.275713	0.299603	0.257184	0.046727	0.167665	0.796559	0.217399	0.063261	0.731276	1.275115	0.440887	0.060887	0.156495	0.362913	0.201549	0.063617	0.105056	0.280492	0.226588	0.081092	0.139642	0.370331	0.361460
24	0.070370	0.741862	0.332800	0.225606	0.241151	0.116133	0.393655	0.309631	0.046493	0.049904	0.383669	0.247826	0.112126	0.335824	0.288018	0.417778	0.072833	0.341385	0.666845	0.535316	0.058127	0.271619	0.332932	0.201672	0.105661	0.045793	0.657298	0.380845	0.046517	0.155793	0.544135	0.200396	0.054806	0.021019	0.236013	0.065111	0.068658	0.326771	0.485623	0.259569	0.041808	0.106352	0.339505	0.135230	0.048898	0.184295	0.121388	0.128480	0.056637	0.242920	0.305390	0.257762	0.046048	0.214811	0.885966	0.235104	0.061403	0.699966	1.110391	0.433819	0.070449	0.222136	0.327691	0.207601	0.084716	0.117091	0.276256	0.236173	0.078049	0.111030	0.378752	0.338791
25	0.058976	0.688252	0.264773	0.136473	0.254994	0.090867	0.393488	0.331765	0.045422	0.036211	0.427536	0.246658	0.138364	0.379233	0.283956	0.386281	0.075209	0.353869	0.582459	0.462555	0.090438	0.381098	0.346536	0.202447	0.100804	0.069548	0.598409	0.416337	0.060294	0.158304	0.583364	0.198957	0.065185	0.026711	0.239835	0.062822	0.068967	0.328261	0.489835	0.255538	0.036780	0.109191	0.364378	0.126684	0.049721	0.282070	0.137952	0.126594	0.060862	0.214220	0.294762	0.255195	0.046971	0.232991	0.949078	0.247145	0.064961	0.559196	0.900702	0.366413	0.066363	0.237691	0.240971	0.227704	0.092848	0.130312	0.250339	0.229694	0.066027	0.085238	0.385781	0.323511
26	0.042156	0.454736	0.254362	0.170628	0.258884	0.082136	0.403140	0.262105	0.045417	0.037243	0.463501	0.246004	0.144848	0.470733	0.282650	0.398111	0.074592	0.429785	0.556382	0.436968	0.094800	0.420750	0.352455	0.206006	0.097416	0.192821	0.607911	0.452603	0.061149	0.160748	0.702294	0.201987	0.094667	0.045259	0.239458	0.077076	0.066090	0.328061	0.551034	0.213782	0.031702	0.109451	0.306888	0.131856	0.053434	0.311992	0.156129	0.105164	0.062749	0.306217	0.202614	0.217509	0.053748	0.232145	0.971377	0.246427	0.055207	0.459388	0.895393	0.357343	0.071521	0.262350	0.203280	0.279975	0.115533	0.134627	0.223796	0.228259	0.062242	0.114339	0.337473	0.335625
27	0.039540	0.100906	0.223117	0.166570	0.259360	0.083285	0.393685	0.243860	0.045486	0.042240	0.498300	0.232704	0.145186	0.508349	0.281498	0.415940	0.086691	0.542452	0.642360	0.447841	0.100726	0.456687	0.308559	0.206540	0.099806	0.308125	0.599656	0.460178	0.061854	0.169753	0.818693	0.204277	0.099964	0.061610	0.240031	0.089451	0.065423	0.327705	0.591437	0.171870	0.031919	0.108801	0.282525	0.112428	0.054440	0.318552	0.176994	0.104876	0.064042	0.434663	0.192659	0.204103	0.055266	0.228617	0.972835	0.240340	0.047045	0.241748	0.802635	0.345302	0.073706	0.278170	0.205500	0.310068	0.121045	0.134554	0.224212	0.238089	0.072329	0.170147	0.273769	0.339193
28	0.081306	0.093400	0.306683	0.233082	0.237387	0.083021	0.344358	0.253168	0.045535	0.052288	0.630117	0.219283	0.141486	0.521948	0.281642	0.415839	0.092442	0.544224	0.681194	0.440377	0.101986	0.461428	0.263002	0.197968	0.111178	0.315556	0.582488	0.459326	0.061640	0.191982	0.854456	0.211513	0.101478	0.067284	0.232852	0.095199	0.058867	0.326179	0.590275	0.148326	0.031937	0.107742	0.285142	0.105584	0.054943	0.319366	0.191371	0.107179	0.060763	0.473811	0.201873	0.198644	0.054316	0.216512	0.944814	0.240142	0.047433	0.233206	0.510350	0.327939	0.074282	0.285426	0.203386	0.308016	0.121148	0.138989	0.212117	0.244279	0.087516	0.201231	0.278956	0.312907
29	0.101392	0.101194	0.378416	0.390270	0.190390	0.082503	0.322469	0.289497	0.047006	0.051440	0.670583	0.217079	0.137392	0.604972	0.234308	0.373216	0.089949	0.546065	0.685194	0.395810	0.100601	0.503507	0.248562	0.203888	0.108145	0.327805	0.582535	0.463659	0.061148	0.192635	0.856062	0.233882	0.102176	0.073848	0.243381	0.123478	0.048845	0.295227	0.585940	0.141625	0.031639	0.100388	0.294736	0.117114	0.054351	0.318741	0.192612	0.101653	0.062918	0.548567	0.295619	0.248062	0.053843	0.197220	0.825600	0.235361	0.047262	0.205617	0.297241	0.273559	0.075130	0.306760	0.240518	0.306975	0.121029	0.143353	0.198908	0.245438	0.090624	0.210193	0.288015	0.283256
30	0.116561	0.104731	0.515686	0.479426	0.181712	0.079409	0.309916	0.308164	0.046321	0.054322	0.669818	0.237284	0.137600	0.641678	0.199823	0.285772	0.089338	0.548248	0.684053	0.351809	0.100108	0.524808	0.268118	0.210296	0.100299	0.347137	0.550262	0.464742	0.061021	0.192928	0.854225	0.272405	0.106703	0.079256	0.219120	0.146504	0.046428	0.219897	0.558429	0.119970	0.030292	0.078009	0.346645	0.126776	0.052006	0.306471	0.196009	0.115470	0.063280	0.578765	0.352696	0.401169	0.053848	0.190543	0.723637	0.228726	0.044706	0.193795	0.245692	0.169333	0.074470	0.309093	0.265149	0.310151	0.122341	0.146116	0.182228	0.241269	0.090469	0.219646	0.303731	0.267732
31	0.114168	0.100496	0.577417	0.519917	0.150490	0.073971	0.274038	0.308930	0.043741	0.060129	0.668395	0.294911	0.138757	0.648683	0.202488	0.234779	0.090862	0.567613	0.675403	0.312373	0.100988	0.524628	0.272673	0.208872	0.092318	0.372327	0.404304	0.446351	0.060273	0.195511	0.854038	0.295940	0.108439	0.084518	0.370432	0.144937	0.037601	0.161011	0.518454	0.099784	0.026385	0.039844	0.355399	0.235135	0.050695	0.283666	0.226523	0.179868	0.071610	0.616154	0.374093	0.413674	0.053678	0.189239	0.710909	0.226962	0.040918	0.162032	0.245743	0.129750	0.074405	0.312410	0.253600	0.316297	0.122668	0.147196	0.157225	0.229955	0.093256	0.228243	0.324554	0.258290
32	0.094441	0.056550	0.595318	0.545131	0.128546	0.058084	0.280261	0.341955	0.043185	0.059678	0.662414	0.355200	0.139282	0.648209	0.201434	0.230173	0.090876	0.577181	0.656726	0.269688	0.102151	0.522715	0.244531	0.192885	0.081614	0.423414	0.334167	0.403268	0.061642	0.196900	0.853551	0.301189	0.108095	0.091133	0.661727	0.151174	0.035530	0.095926	0.473348	0.117645	0.022568	0.037868	0.361715	0.369315	0.049162	0.297989	0.237532	0.193261	0.080400	0.674667	0.377416	0.454450	0.049062	0.188006	0.719115	0.231850	0.046783	0.138533	0.244647	0.130078	0.074076	0.312806	0.248531	0.320591	0.125486	0.146801	0.125127	0.211739	0.095949	0.248396	0.342073	0.260779
33	0.081480	0.049983	0.682973	0.449595	0.070766	0.061726	0.261556	0.326699	0.042937	0.060015	0.648560	0.391184	0.139770	0.650532	0.198908	0.229549	0.088803	0.573341	0.642867	0.240933	0.102421	0.518281	0.253383	0.182458	0.078264	0.427736	0.322607	0.385579	0.061364	0.184790	0.852117	0.298232	0.101272	0.094793	0.696260	0.226298	0.030923	0.093429	0.457291	0.118835	0.025167	0.037434	0.330248	0.408564	0.045674	0.335611	0.268398	0.256867	0.075360	0.695908	0.450930	0.493202	0.044514	0.178790	0.717031	0.226307	0.048246	0.075085	0.260704	0.127636	0.074621	0.310704	0.255338	0.324904	0.124924	0.144855	0.113953	0.206850	0.095107	0.260975	0.344895	0.266080
34	0.047699	0.049141	0.556893	0.375542	0.122686	0.072653	0.211865	0.316785	0.040041	0.061207	0.642758	0.395379	0.138114	0.651081	0.158078	0.228417	0.086154	0.552363	0.623581	0.229563	0.102491	0.506110	0.250561	0.184675	0.076334	0.428595	0.279890	0.403781	0.056677	0.148311	0.808742	0.282159	0.096998	0.098135	0.693662	0.309966	0.030807	0.056910	0.452539	0.101127	0.033658	0.029161	0.293322	0.428150	0.046849	0.341090	0.288954	0.324482	0.076008	0.664428	0.504672	0.508533	0.041615	0.175691	0.672470	0.202004	0.051536	0.072645	0.256137	0.117732	0.075059	0.290811	0.258538	0.313355	0.124616	0.135495	0.092609	0.200830	0.097639	0.261025	0.344366	0.268203
35	0.046359	0.055567	0.505779	0.271161	0.276555	0.078234	0.186278	0.316812	0.036480	0.063542	0.608222	0.389360	0.118905	0.610829	0.109721	0.228241	0.085172	0.534080	0.596366	0.230238	0.102533	0.472373	0.249862	0.166980	0.074419	0.429860	0.258263	0.419167	0.055967	0.139195	0.724166	0.258432	0.097784	0.098194	0.704467	0.322212	0.031507	0.017844	0.418290	0.096542	0.043580	0.028729	0.286766	0.509150	0.048684	0.281912	0.299724	0.335739	0.075873	0.558127	0.512318	0.518128	0.041886	0.163985	0.579448	0.176278	0.057022	0.071820	0.256729	0.103637	0.068414	0.277472	0.254158	0.278097	0.119589	0.115041	0.091800	0.166433	0.101122	0.261937	0.339195	0.268645
36	0.054397	0.055389	0.427920	0.182920	0.385338	0.080194	0.178022	0.304726	0.033830	0.065015	0.561458	0.389468	0.088253	0.606015	0.110974	0.225298	0.084708	0.517518	0.576334	0.239400	0.093103	0.460551	0.251948	0.148600	0.074525	0.429134	0.252822	0.408685	0.054344	0.133944	0.674368	0.250225	0.063469	0.093852	0.775440	0.338422	0.028867	0.016675	0.328947	0.154228	0.045077	0.030315	0.319815	0.565368	0.045818	0.321710	0.358387	0.399813	0.075429	0.539042	0.510904	0.520501	0.042355	0.078701	0.428720	0.151443	0.057201	0.068214	0.243263	0.086778	0.051067	0.261142	0.254653	0.264023	0.104327	0.100620	0.080824	0.123565	0.103082	0.263888	0.334408	0.268265
37	0.058132	0.057535	0.222541	0.109536	0.439912	0.092518	0.159805	0.248876	0.034774	0.065807	0.516001	0.392410	0.066051	0.533784	0.117733	0.192321	0.084004	0.475046	0.568410	0.239722	0.061960	0.379385	0.236897	0.155571	0.076219	0.404526	0.208346	0.368142	0.042020	0.127908	0.665601	0.257661	0.057248	0.085576	0.835586	0.380400	0.027149	0.024566	0.217061	0.199852	0.046258	0.035338	0.380954	0.589285	0.054190	0.334834	0.372039	0.420998	0.073975	0.459137	0.471854	0.504151	0.037874	0.036915	0.292467	0.125124	0.061530	0.058194	0.231061	0.072362	0.047742	0.209249	0.269159	0.261576	0.093363	0.085342	0.078561	0.120361	0.106808	0.264245	0.330857	0.266086
38	0.057300	0.043731	0.198635	0.086478	0.610799	0.096573	0.139790	0.200916	0.036313	0.064213	0.494571	0.423711	0.057831	0.511601	0.215750	0.225597	0.076154	0.462624	0.567567	0.226573	0.053811	0.320770	0.210726	0.220860	0.074511	0.318186	0.150862	0.325563	0.030933	0.122156	0.575943	0.272388	0.057177	0.086979	0.862652	0.416034	0.025776	0.066366	0.289275	0.202733	0.050388	0.040858	0.362845	0.597802	0.059742	0.403287	0.428100	0.433676	0.075719	0.431785	0.416629	0.372182	0.024498	0.042303	0.224965	0.110706	0.064325	0.046164	0.256336	0.059713	0.040439	0.198036	0.269348	0.223280	0.061902	0.077182	0.065419	0.122026	0.112418	0.265988	0.320815	0.251994
39	0.058643	0.053620	0.236924	0.114439	0.616256	0.096676	0.122405	0.197315	0.038366	0.056118	0.326065	0.475064	0.052324	0.483718	0.296095	0.287103	0.075753	0.410830	0.537458	0.208383	0.043541	0.272220	0.212298	0.281918	0.054600	0.298511	0.130154	0.306648	0.031083	0.117510	0.380577	0.282347	0.059451	0.085721	0.866790	0.426050	0.025472	0.110500	0.331225	0.211057	0.056082	0.044693	0.335255	0.590860	0.080319	0.405567	0.490680	0.496502	0.071959	0.361244	0.378983	0.328723	0.016834	0.049931	0.206876	0.110224	0.063598	0.034213	0.356095	0.105142	0.029125	0.151618	0.267092	0.172553	0.048615	0.201388	0.053743	0.099637	0.124288	0.268082	0.311858	0.222477
40	0.062793	0.074516	0.273253	0.121592	0.618254	0.097745	0.119550	0.141433	0.034832	0.052757	0.154664	0.503613	0.050465	0.401612	0.312257	0.317256	0.062779	0.216152	0.390684	0.180715	0.038729	0.259064	0.296177	0.304716	0.047202	0.292826	0.160115	0.304881	0.029875	0.074812	0.171377	0.279213	0.055944	0.084203	0.865452	0.424733	0.028710	0.144753	0.358624	0.228873	0.056630	0.045452	0.337231	0.538410	0.094413	0.405490	0.492772	0.545737	0.045980	0.316598	0.376749	0.289454	0.016152	0.047778	0.208392	0.109539	0.060171	0.048689	0.511514	0.407645	0.027277	0.145550	0.271812	0.165326	0.074529	0.435412	0.070694	0.094884	0.167163	0.253697	0.316143	0.189288
41	0.063062	0.169220	0.329751	0.161952	0.618280	0.093192	0.145303	0.092673	0.031079	0.051317	0.154048	0.499500	0.047197	0.313106	0.351538	0.334494	0.041652	0.205932	0.282724	0.142223	0.040898	0.178231	0.329479	0.298986	0.044643	0.267572	0.174569	0.312977	0.030159	0.082860	0.136194	0.270752	0.046678	0.087893	0.847135	0.434594	0.042572	0.239292	0.383651	0.237466	0.057215	0.048489	0.342707	0.522133	0.099166	0.404391	0.495611	0.537021	0.047050	0.376780	0.305104	0.209673	0.015883	0.047001	0.209455	0.105042	0.060657	0.059929	0.537000	0.439088	0.022927	0.109053	0.256033	0.166971	0.098060	0.550530	0.077705	0.104428	0.225488	0.218605	0.308902	0.177645
42	0.062929	0.209308	0.363439	0.199107	0.613283	0.083068	0.226323	0.110316	0.033675	0.052066	0.155211	0.473277	0.050688	0.288337	0.469066	0.344625	0.034870	0.208551	0.266592	0.130892	0.044100	0.062744	0.316165	0.306145	0.033749	0.253743	0.176445	0.322710	0.030017	0.129312	0.154005	0.239374	0.045629	0.083416	0.626556	0.441584	0.048559	0.240140	0.381436	0.232397	0.053659	0.050444	0.338071	0.533711	0.100255	0.370425	0.518924	0.532034	0.067544	0.419886	0.180840	0.187231	0.017387	0.048264	0.224211	0.120699	0.089073	0.076893	0.542809	0.520634	0.021674	0.074593	0.222572	0.163470	0.098950	0.637831	0.123925	0.113729	0.344776	0.189649	0.293183	0.179601
43	0.067650	0.213886	0.454077	0.233937	0.578307	0.073359	0.254642	0.118434	0.032861	0.076898	0.153533	0.429717	0.050223	0.286531	0.552634	0.347662	0.034680	0.214020	0.263349	0.129934	0.040071	0.061559	0.297441	0.331073	0.033885	0.142669	0.202501	0.325237	0.030233	0.137936	0.155006	0.205878	0.044953	0.082705	0.545504	0.419603	0.051960	0.242257	0.382947	0.226640	0.054734	0.053815	0.375729	0.491869	0.099953	0.351809	0.511049	0.504626	0.068313	0.529947	0.138256	0.298549	0.024443	0.054103	0.230492	0.179096	0.089467	0.079205	0.540054	0.582699	0.021790	0.061385	0.220309	0.161258	0.102554	0.725237	0.576755	0.144273	0.366522	0.181937	0.285508	0.172568
44	0.062029	0.207518	0.422835	0.236210	0.488287	0.071177	0.339295	0.154613	0.045427	0.079922	0.160067	0.383541	0.050086	0.281444	0.559245	0.348128	0.037242	0.161417	0.260365	0.123849	0.036525	0.060705	0.329032	0.354216	0.032821	0.125063	0.212367	0.315710	0.028389	0.178857	0.154715	0.189098	0.045544	0.084817	0.539129	0.359174	0.052024	0.245710	0.382935	0.240556	0.064297	0.073094	0.408015	0.409529	0.097565	0.319905	0.506285	0.490984	0.072271	0.543207	0.270795	0.391408	0.030231	0.061569	0.342995	0.252262	0.095864	0.083069	0.544584	0.596070	0.023981	0.049106	0.222615	0.205351	0.100238	0.734125	0.834092	0.248784	0.372843	0.162468	0.264842	0.155538
45	0.050834	0.143477	0.409631	0.213730	0.465165	0.058485	0.354258	0.180698	0.048382	0.079483	0.166354	0.367361	0.048407	0.217877	0.566299	0.351324	0.059163	0.117046	0.322247	0.142800	0.035984	0.059110	0.406860	0.356284	0.031406	0.123013	0.245767	0.326473	0.024316	0.180651	0.184196	0.186809	0.042456	0.087639	0.531814	0.337621	0.064338	0.253062	0.382500	0.254136	0.075372	0.102626	0.338392	0.353277	0.094733	0.297669	0.491170	0.474788	0.073407	0.542469	0.295171	0.398498	0.039095	0.072426	0.357905	0.333111	0.095839	0.113269	0.551610	0.597457	0.026963	0.045749	0.210482	0.267063	0.101005	0.737952	0.847264	0.306615	0.399066	0.148975	0.230376	0.134465
46	0.045521	0.079582	0.315133	0.190999	0.196502	0.047132	0.372499	0.186539	0.048547	0.079028	0.224673	0.490328	0.048071	0.194361	0.584479	0.407322	0.070416	0.148499	0.358541	0.200443	0.037145	0.059355	0.483986	0.362747	0.031436	0.119676	0.345787	0.440479	0.023595	0.180572	0.220454	0.187084	0.041883	0.098421	0.443438	0.328769	0.092817	0.254378	0.370317	0.241670	0.074908	0.170140	0.302153	0.322095	0.092134	0.255948	0.453203	0.425087	0.078699	0.544823	0.412652	0.453235	0.041121	0.079964	0.360477	0.349209	0.095364	0.118273	0.546483	0.598643	0.029987	0.051032	0.212098	0.278922	0.101394	0.740638	0.888090	0.316513	0.409673	0.105294	0.182120	0.109478
47	0.040165	0.051254	0.115155	0.121702	0.090486	0.050628	0.373838	0.187195	0.049012	0.082279	0.254822	0.591378	0.048213	0.179764	0.596633	0.493201	0.080912	0.195891	0.337431	0.246395	0.037283	0.059636	0.496127	0.370249	0.038592	0.115685	0.355566	0.545518	0.020150	0.179888	0.310801	0.187146	0.038983	0.111571	0.298854	0.286837	0.101501	0.255708	0.367485	0.193398	0.074945	0.229220	0.301472	0.312943	0.088404	0.291082	0.445627	0.418670	0.080798	0.544271	0.454534	0.546762	0.040702	0.084679	0.416035	0.357336	0.097868	0.123779	0.517211	0.598277	0.038378	0.067593	0.228140	0.279517	0.101402	0.742887	0.909360	0.381593	0.433342	0.079602	0.157648	0.091690
48	0.035144	0.055319	0.078386	0.081492	0.065573	0.051087	0.371411	0.185885	0.049563	0.087536	0.263021	0.595306	0.053957	0.111379	0.611702	0.532228	0.082697	0.205449	0.371896	0.271406	0.037767	0.059314	0.502564	0.371850	0.069868	0.117324	0.360726	0.551386	0.017782	0.178768	0.328199	0.196143	0.034230	0.109509	0.185294	0.224228	0.104170	0.252414	0.323554	0.188465	0.079170	0.269139	0.290437	0.312133	0.086905	0.268275	0.352125	0.387517	0.086650	0.520342	0.463258	0.585660	0.040079	0.085511	0.467985	0.397378	0.097982	0.134923	0.294041	0.489795	0.039739	0.069205	0.281726	0.287377	0.102710	0.743587	0.919497	0.429535	0.466375	0.082402	0.154285	0.085793
49	0.050828	0.094841	0.114016	0.098787	0.062022	0.046852	0.362672	0.184045	0.061257	0.097091	0.299300	0.617847	0.061103	0.107255	0.592233	0.515364	0.082537	0.273004	0.558717	0.307785	0.041435	0.059274	0.505597	0.369276	0.095601	0.121557	0.363661	0.565811	0.017088	0.181465	0.328026	0.199571	0.032252	0.106858	0.142515	0.195943	0.105395	0.247588	0.232215	0.192526	0.082716	0.293871	0.268767	0.256038	0.065600	0.323596	0.311333	0.287886	0.089267	0.464600	0.459994	0.595415	0.042171	0.085658	0.494926	0.454518	0.099078	0.146320	0.263087	0.433783	0.046738	0.069482	0.276557	0.318575	0.103172	0.743672	0.941159	0.459643	0.482211	0.079586	0.156042	0.086191
50	0.044376	0.107120	0.118590	0.086304	0.071769	0.041644	0.355165	0.178541	0.073128	0.102141	0.335938	0.640260	0.064491	0.108550	0.549303	0.474303	0.085907	0.282759	0.756545	0.325546	0.041537	0.055546	0.505952	0.334955	0.105674	0.121293	0.364053	0.622077	0.018930	0.192605	0.327128	0.186517	0.033252	0.104966	0.119736	0.193491	0.105118	0.256060	0.319331	0.250429	0.094710	0.297695	0.257999	0.159756	0.050934	0.325206	0.356032	0.223952	0.076632	0.389086	0.459499	0.592838	0.052695	0.086310	0.500547	0.517625	0.081349	0.163990	0.219541	0.381882	0.051225	0.068858	0.276917	0.347501	0.108827	0.744405	0.974682	0.477384	0.491037	0.073293	0.163581	0.102870
51	0.061186	0.123098	0.123132	0.086081	0.091187	0.044385	0.346922	0.167846	0.073513	0.102299	0.376676	0.655136	0.064595	0.107660	0.537497	0.457207	0.092163	0.283230	0.778047	0.341457	0.040703	0.051337	0.547523	0.281878	0.106312	0.118996	0.370507	0.680696	0.018076	0.197285	0.359374	0.171077	0.038792	0.100624	0.134115	0.197345	0.101295	0.164462	0.311968	0.283694	0.095448	0.339078	0.258459	0.273397	0.046654	0.325526	0.384711	0.241019	0.072569	0.199325	0.459178	0.552516	0.061363	0.086397	0.511706	0.555631	0.067474	0.164730	0.220229	0.252382	0.051294	0.068337	0.284854	0.350744	0.115521	0.726409	1.002471	0.487234	0.499808	0.072469	0.179620	0.130600
52	0.116024	0.138981	0.171951	0.103933	0.095917	0.050107	0.275967	0.193916	0.072979	0.103833	0.393611	0.677163	0.062362	0.106872	0.528248	0.443395	0.094676	0.282951	0.840377	0.343451	0.040858	0.052021	0.575191	0.260103	0.110006	0.116891	0.378113	0.711589	0.020231	0.200790	0.362676	0.168759	0.045290	0.098351	0.137083	0.213374	0.099663	0.165156	0.302845	0.293647	0.090400	0.349181	0.233321	0.351351	0.045827	0.326710	0.356407	0.236585	0.067798	0.114919	0.412777	0.471722	0.067204	0.089450	0.521596	0.564806	0.055870	0.164013	0.214795	0.229619	0.051340	0.069231	0.337818	0.345366	0.108072	0.622783	1.016012	0.488379	0.501759	0.063388	0.186768	0.151146
53	0.131779	0.115938	0.189557	0.119560	0.103991	0.053101	0.288581	0.256954	0.071759	0.106997	0.393016	0.685129	0.054051	0.106628	0.432803	0.435257	0.094460	0.282439	0.924093	0.361473	0.039759	0.077670	0.606190	0.262509	0.115041	0.112385	0.386504	0.720771	0.026290	0.198739	0.361236	0.175425	0.047902	0.097778	0.174622	0.226601	0.099022	0.163983	0.289956	0.292780	0.078711	0.349866	0.234249	0.351004	0.048282	0.326869	0.367870	0.245284	0.064201	0.099218	0.383150	0.455587	0.070124	0.090880	0.527300	0.565164	0.049705	0.148123	0.197898	0.258185	0.053449	0.086854	0.346699	0.344253	0.087560	0.508223	1.018988	0.485990	0.501008	0.056598	0.188735	0.165647
54	0.152630	0.101045	0.271622	0.171310	0.103843	0.051695	0.253131	0.266738	0.077864	0.099293	0.395601	0.682224	0.052012	0.107098	0.297452	0.432078	0.096207	0.281729	0.950820	0.412364	0.034147	0.124568	0.632705	0.255445	0.118907	0.103018	0.379059	0.723749	0.028361	0.174434	0.354847	0.205788	0.047638	0.090506	0.217500	0.232233	0.099181	0.163597	0.292753	0.289927	0.079127	0.341967	0.327618	0.411985	0.048581	0.327197	0.374449	0.291982	0.056341	0.078105	0.280321	0.428047	0.070710	0.090943	0.525813	0.558576	0.047940	0.137669	0.179353	0.260910	0.056016	0.097137	0.346487	0.344520	0.084770	0.414739	1.017339	0.483910	0.488310	0.055964	0.180645	0.166345
55	0.155051	0.078644	0.348330	0.184629	0.101386	0.048172	0.252280	0.299569	0.081237	0.108791	0.397001	0.680241	0.052191	0.105094	0.267619	0.433735	0.097457	0.276264	0.960819	0.477860	0.034399	0.129509	0.639753	0.231531	0.121706	0.093231	0.364376	0.724270	0.028891	0.155542	0.352419	0.248770	0.047561	0.088608	0.271183	0.258137	0.098513	0.164990	0.295758	0.285097	0.082434	0.301149	0.337751	0.480662	0.049045	0.327150	0.367716	0.298696	0.052042	0.067724	0.163438	0.308884	0.068460	0.087364	0.501262	0.544102	0.040652	0.134539	0.176896	0.263872	0.056388	0.113796	0.352325	0.343862	0.080224	0.196562	0.871617	0.477394	0.458220	0.053771	0.154558	0.175771
56	0.127527	0.078680	0.352519	0.204030	0.101867	0.046937	0.245790	0.374000	0.080462	0.121745	0.394112	0.678045	0.052272	0.092600	0.262854	0.433796	0.100044	0.270473	0.979569	0.526220	0.034935	0.149238	0.627905	0.202607	0.123718	0.086810	0.351756	0.711935	0.032679	0.138574	0.366850	0.279568	0.047432	0.082798	0.376101	0.279370	0.074483	0.163749	0.297406	0.288229	0.081121	0.280722	0.360776	0.486950	0.044988	0.299984	0.356429	0.292455	0.040622	0.063584	0.237014	0.208521	0.065206	0.079948	0.429734	0.514917	0.056030	0.122437	0.193771	0.286879	0.057043	0.153924	0.376065	0.329505	0.076368	0.148950	0.600605	0.435724	0.374223	0.051479	0.165559	0.195251
57	0.095248	0.154661	0.344878	0.199391	0.102699	0.068063	0.239720	0.435834	0.080529	0.144014	0.372468	0.620424	0.052363	0.086161	0.212781	0.398255	0.106269	0.270747	0.998290	0.550535	0.034667	0.229600	0.585992	0.205480	0.124623	0.083492	0.249239	0.648817	0.033426	0.120934	0.382586	0.299309	0.049549	0.052516	0.393787	0.283907	0.056530	0.159880	0.303568	0.298231	0.079131	0.222924	0.367912	0.551007	0.032889	0.204610	0.350479	0.291409	0.040850	0.059501	0.311431	0.301204	0.060793	0.069298	0.443242	0.487227	0.055659	0.112266	0.193920	0.309436	0.055862	0.155167	0.396497	0.277795	0.074257	0.127162	0.576584	0.392785	0.359708	0.065350	0.280183	0.205755
58	0.055495	0.153847	0.306381	0.136473	0.093676	0.091281	0.215663	0.447169	0.080855	0.152607	0.378248	0.513746	0.052244	0.080724	0.178380	0.286087	0.102820	0.272315	0.992799	0.554640	0.034858	0.293269	0.530786	0.195427	0.123554	0.083360	0.219706	0.541114	0.033494	0.125636	0.387824	0.307960	0.052627	0.050021	0.424061	0.281265	0.049861	0.160242	0.312766	0.310627	0.063312	0.218276	0.443301	0.679221	0.032437	0.152241	0.353176	0.291052	0.044345	0.053072	0.330569	0.358907	0.060311	0.060104	0.441199	0.492691	0.054811	0.059661	0.183171	0.320951	0.056264	0.161105	0.401227	0.243186	0.072701	0.109319	0.557175	0.387812	0.351733	0.074269	0.329984	0.213349
59	0.039720	0.153120	0.312721	0.158635	0.079630	0.107440	0.195128	0.448764	0.081922	0.158158	0.498671	0.537713	0.046563	0.069034	0.097075	0.161399	0.099177	0.257648	0.970361	0.540210	0.033728	0.335572	0.520112	0.172767	0.111618	0.079733	0.206068	0.508010	0.036653	0.143222	0.369923	0.310945	0.052570	0.047526	0.475185	0.276369	0.046827	0.147980	0.312571	0.315526	0.063850	0.184411	0.459902	0.682464	0.032181	0.060221	0.390008	0.407208	0.046998	0.043031	0.340132	0.362802	0.060681	0.053326	0.388503	0.486910	0.073430	0.039111	0.207858	0.320142	0.053788	0.158195	0.397191	0.238872	0.072305	0.091715	0.626215	0.343707	0.324435	0.073209	0.329792	0.218240
60	0.039811	0.150143	0.273528	0.293830	0.058300	0.109253	0.186198	0.451196	0.076228	0.174010	0.567785	0.560529	0.035948	0.051603	0.097609	0.134257	0.092225	0.221424	0.971239	0.519552	0.033155	0.363002	0.514083	0.169187	0.088224	0.073452	0.218097	0.498563	0.040268	0.152367	0.333840	0.302173	0.048628	0.043494	0.514485	0.267786	0.046440	0.118276	0.244485	0.269978	0.077897	0.119464	0.449486	0.656091	0.035272	0.053224	0.338770	0.532653	0.048808	0.031031	0.378289	0.390155	0.060735	0.052075	0.321250	0.448550	0.081529	0.035410	0.227863	0.305572	0.052131	0.159638	0.359574	0.239250	0.069883	0.083705	0.638948	0.305953	0.307487	0.072266	0.337660	0.217893
61	0.045009	0.055727	0.282481	0.309213	0.050173	0.113563	0.132608	0.447085	0.064279	0.182231	0.543184	0.517213	0.031295	0.052464	0.111634	0.141642	0.090559	0.211892	0.963269	0.506182	0.024542	0.379499	0.511810	0.192806	0.072028	0.073708	0.225266	0.437401	0.042594	0.151294	0.336309	0.294281	0.045020	0.040974	0.537196	0.248703	0.045845	0.103208	0.166010	0.213094	0.084372	0.099431	0.437340	0.702143	0.050066	0.048170	0.325381	0.585525	0.049591	0.030859	0.387567	0.429047	0.057678	0.049049	0.294312	0.389945	0.083947	0.035428	0.249941	0.302830	0.049886	0.159373	0.328255	0.209890	0.069588	0.082570	0.610834	0.272919	0.269839	0.070172	0.366453	0.221954
62	0.054682	0.053930	0.333408	0.376809	0.060716	0.119702	0.152682	0.444860	0.096130	0.192160	0.515940	0.457053	0.044334	0.076534	0.146632	0.209354	0.090445	0.118970	0.878578	0.481010	0.019094	0.382071	0.509766	0.216797	0.070047	0.074891	0.206943	0.323100	0.042487	0.138558	0.334326	0.288740	0.041800	0.036657	0.541251	0.215039	0.043268	0.084272	0.165708	0.220881	0.080578	0.089203	0.404340	0.736086	0.074058	0.088585	0.339611	0.587763	0.052448	0.037654	0.390796	0.447614	0.049370	0.041335	0.284186	0.314523	0.083710	0.037836	0.251888	0.334571	0.041671	0.159711	0.326016	0.142995	0.062869	0.076328	0.559093	0.241968	0.212020	0.066393	0.377219	0.230358
63	0.063485	0.066250	0.386513	0.376952	0.066905	0.121402	0.154288	0.431649	0.141820	0.198940	0.499207	0.411331	0.049888	0.080295	0.149603	0.284481	0.087797	0.080073	0.708463	0.463191	0.019058	0.382497	0.468285	0.220756	0.065670	0.071553	0.185502	0.221447	0.041943	0.129887	0.313382	0.281891	0.037111	0.031387	0.534346	0.188708	0.037652	0.082222	0.164554	0.277776	0.080359	0.094237	0.361220	0.701557	0.075723	0.104677	0.316767	0.626623	0.053661	0.037703	0.393938	0.445499	0.037870	0.034134	0.258811	0.268941	0.084195	0.039771	0.248096	0.346443	0.041143	0.159465	0.324920	0.090624	0.064964	0.065967	0.537236	0.217218	0.178900	0.065228	0.382595	0.231521
64	0.061036	0.061875	0.417236	0.275180	0.065790	0.120959	0.176854	0.398958	0.152204	0.198542	0.527456	0.392003	0.050059	0.082400	0.144066	0.298867	0.081335	0.076097	0.674857	0.449459	0.019076	0.382523	0.383564	0.212490	0.056597	0.068241	0.168740	0.171153	0.041823	0.122557	0.301534	0.294222	0.036141	0.030696	0.520482	0.185058	0.036400	0.077254	0.168805	0.343049	0.075629	0.087085	0.369277	0.677650	0.086930	0.104170	0.308548	0.693884	0.054044	0.036273	0.369021	0.439367	0.029747	0.027533	0.244725	0.262416	0.075426	0.034897	0.224256	0.329821	0.043929	0.160256	0.283612	0.096958	0.062684	0.053650	0.516765	0.220468	0.155566	0.065084	0.395444	0.224866
65	0.054256	0.055983	0.475770	0.261015	0.059912	0.112995	0.235643	0.342491	0.151121	0.193806	0.537349	0.426253	0.049821	0.081731	0.147402	0.301215	0.077982	0.074712	0.607982	0.447984	0.017353	0.379040	0.293035	0.207829	0.046923	0.068376	0.192553	0.162972	0.039139	0.128380	0.328262	0.342819	0.036590	0.030573	0.519553	0.155366	0.045011	0.064113	0.210196	0.365638	0.072483	0.076774	0.344771	0.665632	0.115359	0.111590	0.306128	0.721494	0.048788	0.035779	0.294333	0.380173	0.024867	0.023926	0.224699	0.262741	0.074549	0.042459	0.208255	0.289726	0.044861	0.153985	0.243558	0.126325	0.058780	0.046739	0.518217	0.249591	0.130205	0.065246	0.400443	0.217919
66	0.053307	0.059690	0.476229	0.175468	0.060050	0.088807	0.262348	0.321765	0.153343	0.189076	0.534967	0.502753	0.050768	0.082043	0.196257	0.304868	0.078252	0.073600	0.479231	0.437000	0.019443	0.365664	0.231635	0.200386	0.040798	0.070245	0.262922	0.176358	0.067339	0.128865	0.333727	0.441596	0.037370	0.029839	0.596172	0.131196	0.050086	0.051743	0.220665	0.361590	0.071404	0.070795	0.312670	0.564107	0.133506	0.123586	0.301802	0.726413	0.037905	0.035104	0.270732	0.293618	0.022556	0.020917	0.211850	0.261402	0.075821	0.050312	0.219789	0.267200	0.040585	0.145364	0.245671	0.143206	0.057610	0.043867	0.523908	0.272784	0.120823	0.065330	0.397747	0.220720
67	0.050548	0.056230	0.438274	0.194149	0.060809	0.070524	0.305346	0.355934	0.164756	0.184610	0.540260	0.557681	0.052275	0.081858	0.241470	0.317773	0.079894	0.072856	0.460390	0.397210	0.022964	0.363743	0.206352	0.190334	0.034799	0.070173	0.284947	0.183530	0.121210	0.128636	0.335049	0.512289	0.034472	0.027689	0.589641	0.149200	0.050021	0.051910	0.221445	0.381443	0.071173	0.068987	0.200017	0.468598	0.140779	0.127830	0.294940	0.726878	0.034422	0.034745	0.252375	0.280437	0.029228	0.020360	0.212544	0.254677	0.091890	0.051806	0.198968	0.320297	0.039311	0.139958	0.241310	0.145474	0.057216	0.040420	0.524285	0.279812	0.107033	0.065223	0.408814	0.228546
68	0.050055	0.050730	0.392903	0.199586	0.063603	0.066751	0.304618	0.379869	0.173572	0.170819	0.555771	0.580082	0.053180	0.082358	0.284764	0.350915	0.083138	0.073212	0.472104	0.342093	0.028386	0.357970	0.202872	0.179409	0.038970	0.070201	0.286314	0.192247	0.149824	0.153748	0.328138	0.517426	0.028568	0.029144	0.610302	0.153183	0.051913	0.051640	0.208531	0.394993	0.061105	0.069086	0.195263	0.463825	0.142085	0.150986	0.260449	0.713137	0.029174	0.034694	0.202624	0.261020	0.033521	0.025104	0.181345	0.241177	0.150503	0.063080	0.201553	0.345486	0.037439	0.089310	0.206608	0.146165	0.057306	0.037738	0.524564	0.279586	0.101161	0.066922	0.418415	0.230234
69	0.055287	0.054578	0.364332	0.200138	0.061994	0.057930	0.303123	0.342067	0.178904	0.158764	0.566279	0.579916	0.054850	0.082007	0.303478	0.383569	0.087275	0.069776	0.450559	0.317994	0.028987	0.317700	0.183897	0.175990	0.044391	0.070243	0.298211	0.218898	0.150682	0.176198	0.304864	0.505471	0.035722	0.038960	0.584537	0.158066	0.055686	0.062084	0.209415	0.404873	0.043432	0.066895	0.159849	0.376826	0.141942	0.165344	0.203349	0.625871	0.028850	0.033242	0.158142	0.179880	0.034604	0.038806	0.126844	0.216999	0.172921	0.067519	0.263185	0.334687	0.037789	0.086469	0.155952	0.150927	0.057396	0.036618	0.524132	0.280568	0.100619	0.067402	0.419439	0.222473
70	0.052084	0.050276	0.307888	0.188792	0.051650	0.045370	0.294160	0.307603	0.180483	0.154997	0.508165	0.549506	0.054910	0.083928	0.314132	0.400923	0.086560	0.060965	0.414078	0.322899	0.029711	0.253058	0.151495	0.185717	0.047348	0.070122	0.312521	0.228034	0.163129	0.178402	0.296015	0.523954	0.047753	0.043263	0.549546	0.179681	0.064058	0.102914	0.210219	0.420428	0.042953	0.059993	0.180103	0.248302	0.140053	0.170316	0.191045	0.529101	0.022397	0.041429	0.152017	0.107747	0.038414	0.085487	0.097883	0.202733	0.191564	0.073979	0.267996	0.302724	0.037510	0.097533	0.134639	0.165510	0.057235	0.037273	0.489647	0.281134	0.099269	0.066730	0.409802	0.217916
71	0.040394	0.034515	0.310183	0.118950	0.044609	0.040040	0.287298	0.305938	0.180666	0.128265	0.381937	0.495420	0.054638	0.157132	0.327757	0.403205	0.094464	0.055444	0.380458	0.317197	0.031346	0.204847	0.129781	0.190407	0.048986	0.069577	0.308793	0.227347	0.182322	0.171402	0.308029	0.577420	0.047908	0.042919	0.522258	0.184443	0.065328	0.131725	0.194544	0.427518	0.064553	0.047588	0.184401	0.145005	0.132280	0.174184	0.079597	0.497327	0.025792	0.061103	0.135688	0.098417	0.052965	0.105999	0.102215	0.195415	0.193773	0.073456	0.281467	0.278631	0.034455	0.097302	0.155646	0.179686	0.056942	0.037854	0.337924	0.263303	0.106108	0.050161	0.343862	0.233289
72	0.033632	0.030327	0.267868	0.096918	0.110228	0.042520	0.282652	0.293790	0.180122	0.110390	0.370771	0.456477	0.053832	0.235364	0.343795	0.401653	0.093795	0.056923	0.366908	0.317997	0.031767	0.141593	0.121544	0.187077	0.049028	0.067926	0.298391	0.226785	0.185744	0.159543	0.289777	0.634388	0.048484	0.042698	0.515668	0.196583	0.067664	0.132090	0.192980	0.418815	0.078251	0.030869	0.226374	0.115953	0.122678	0.150621	0.065533	0.479574	0.028431	0.085730	0.129079	0.092940	0.059281	0.124396	0.107392	0.195277	0.193451	0.073515	0.291072	0.276411	0.032383	0.101117	0.155818	0.187125	0.057253	0.038099	0.285439	0.233780	0.149219	0.037288	0.317867	0.240092
73	0.029415	0.029137	0.217154	0.114682	0.126321	0.043123	0.233828	0.250460	0.171731	0.091113	0.368103	0.465329	0.045226	0.269141	0.404682	0.444111	0.098069	0.059445	0.360418	0.352833	0.031805	0.084065	0.124404	0.168811	0.049091	0.064973	0.315479	0.231436	0.185688	0.160318	0.281491	0.661394	0.049532	0.042781	0.528357	0.208760	0.069847	0.141569	0.193997	0.382913	0.077933	0.036195	0.234051	0.114147	0.122431	0.149361	0.068211	0.350590	0.028523	0.094930	0.083955	0.087538	0.060098	0.128755	0.101217	0.186337	0.193423	0.073259	0.337755	0.276634	0.031723	0.112305	0.160383	0.188594	0.056891	0.038800	0.351879	0.210367	0.161652	0.036227	0.328368	0.238466
74	0.040554	0.120969	0.293734	0.270223	0.127482	0.042572	0.212774	0.244334	0.132062	0.071634	0.370124	0.541881	0.056279	0.304249	0.578452	0.528009	0.101679	0.061121	0.365827	0.382437	0.033958	0.071512	0.292548	0.173814	0.050450	0.060142	0.357099	0.227559	0.186855	0.161281	0.280808	0.669476	0.050340	0.042959	0.541784	0.213540	0.069783	0.141302	0.192050	0.331279	0.078960	0.042358	0.405132	0.115084	0.105616	0.147062	0.067126	0.186318	0.029033	0.099417	0.083921	0.089079	0.061218	0.134486	0.097943	0.170520	0.193291	0.067902	0.369274	0.282360	0.033102	0.118036	0.172821	0.189656	0.056387	0.037138	0.397026	0.222656	0.193400	0.038188	0.328026	0.240138
75	0.043602	0.142808	0.310180	0.381924	0.150976	0.042483	0.125801	0.196107	0.116157	0.066364	0.421418	0.636108	0.062740	0.305832	0.665897	0.587454	0.104004	0.061863	0.391957	0.388815	0.060745	0.070288	0.424185	0.328221	0.053166	0.051924	0.372129	0.244432	0.188651	0.162258	0.275973	0.671181	0.053535	0.043963	0.644726	0.216721	0.064046	0.141731	0.142673	0.281910	0.093642	0.046633	0.441999	0.111365	0.075655	0.139391	0.059973	0.098937	0.027743	0.101083	0.128621	0.098699	0.061088	0.163578	0.106310	0.154639	0.178416	0.066096	0.378296	0.253267	0.033365	0.117695	0.174584	0.197979	0.038588	0.032415	0.360934	0.322849	0.237595	0.040663	0.296874	0.243061
76	0.052372	0.142898	0.342238	0.414535	0.180963	0.058905	0.069800	0.113986	0.114132	0.074153	0.512146	0.711573	0.096566	0.306466	0.687126	0.597204	0.104874	0.061515	0.412201	0.388519	0.078134	0.082911	0.445159	0.432507	0.057502	0.041985	0.412343	0.306162	0.189048	0.162986	0.268416	0.667558	0.053702	0.043970	0.577906	0.222886	0.054913	0.146583	0.102292	0.278375	0.123411	0.048639	0.448227	0.098845	0.063506	0.155895	0.056455	0.079474	0.028735	0.101186	0.136214	0.104156	0.060002	0.172104	0.152252	0.147535	0.158704	0.057228	0.375652	0.215471	0.032396	0.117122	0.194514	0.217266	0.022967	0.032114	0.347660	0.411133	0.249700	0.041096	0.287571	0.247015
77	0.054643	0.143338	0.328834	0.412298	0.191525	0.111803	0.088322	0.062123	0.113596	0.086492	0.533361	0.726485	0.119836	0.307686	0.792755	0.612593	0.104889	0.061102	0.415019	0.388165	0.080672	0.087218	0.536991	0.455123	0.056424	0.033484	0.372473	0.404783	0.189061	0.159637	0.252538	0.652997	0.054142	0.042644	0.534627	0.198674	0.054051	0.155390	0.088616	0.253657	0.125979	0.052270	0.458254	0.086199	0.063810	0.162037	0.072483	0.078361	0.030216	0.100952	0.164404	0.105874	0.063942	0.188143	0.224085	0.153311	0.108968	0.050812	0.317529	0.210379	0.028943	0.125694	0.225875	0.247254	0.023082	0.027840	0.334933	0.454659	0.279630	0.041105	0.275959	0.254543
78	0.040744	0.108418	0.251342	0.376033	0.191441	0.128206	0.157235	0.062410	0.109657	0.093330	0.609656	0.690870	0.120027	0.312165	0.827549	0.660991	0.105458	0.060771	0.419791	0.387636	0.093050	0.089172	0.547790	0.462979	0.060535	0.039746	0.352209	0.520419	0.185539	0.188094	0.245306	0.604475	0.064998	0.040172	0.505078	0.191780	0.052647	0.158245	0.079936	0.207689	0.125800	0.052584	0.471386	0.076385	0.063512	0.140211	0.077558	0.075892	0.031502	0.097981	0.228551	0.126302	0.070058	0.194762	0.229001	0.157140	0.044821	0.040314	0.303857	0.198687	0.054960	0.130391	0.238296	0.271367	0.082184	0.021039	0.323838	0.451353	0.291081	0.041032	0.250976	0.256874
79	0.044530	0.053131	0.226987	0.310585	0.194836	0.180003	0.200703	0.068020	0.102831	0.092257	0.654937	0.679674	0.130263	0.315685	0.813904	0.690842	0.105853	0.061329	0.405896	0.386950	0.106023	0.091519	0.555426	0.520911	0.074540	0.052124	0.353957	0.551865	0.166488	0.220795	0.247474	0.518454	0.065952	0.031163	0.479124	0.203133	0.056281	0.174074	0.061470	0.176222	0.121423	0.052234	0.460800	0.071177	0.062588	0.144976	0.102637	0.078493	0.029015	0.082380	0.315890	0.136621	0.068754	0.196691	0.240619	0.167476	0.027365	0.037715	0.317760	0.339500	0.082438	0.137968	0.241658	0.274699	0.093217	0.020300	0.324610	0.458038	0.291598	0.040400	0.237552	0.250945
80	0.035389	0.066530	0.185400	0.269701	0.178317	0.296402	0.202842	0.071219	0.094236	0.090309	0.681175	0.718471	0.138203	0.315702	0.805607	0.702288	0.106620	0.066570	0.355307	0.387121	0.107873	0.169561	0.557247	0.600434	0.079422	0.054307	0.357321	0.545582	0.138266	0.226139	0.245196	0.474190	0.060738	0.020714	0.504717	0.232954	0.055184	0.158787	0.058018	0.126800	0.108042	0.052849	0.448511	0.068096	0.062881	0.138558	0.136293	0.075178	0.022557	0.064330	0.330310	0.156259	0.067724	0.197321	0.250018	0.152224	0.034723	0.038832	0.347106	0.459522	0.088900	0.167096	0.248062	0.283224	0.097779	0.023046	0.324185	0.484346	0.291444	0.038110	0.238896	0.235842
81	0.030342	0.082021	0.267493	0.332798	0.162164	0.299575	0.210957	0.079940	0.089866	0.095382	0.744214	0.807942	0.141311	0.315475	0.801463	0.704030	0.127352	0.078884	0.315890	0.379062	0.117970	0.224277	0.571239	0.640504	0.079964	0.054061	0.356349	0.605898	0.135828	0.255402	0.270465	0.477883	0.061479	0.022306	0.519388	0.247800	0.055594	0.131466	0.054316	0.088815	0.108230	0.051696	0.423058	0.091774	0.063453	0.134549	0.173209	0.066644	0.022807	0.049470	0.345652	0.163277	0.067595	0.193543	0.250834	0.162498	0.035198	0.033001	0.319398	0.469586	0.095883	0.165301	0.261852	0.302079	0.104906	0.027989	0.346955	0.511733	0.291946	0.034841	0.213488	0.221003
82	0.028896	0.096789	0.452424	0.341588	0.161463	0.319932	0.217995	0.080982	0.099299	0.111764	0.745299	0.892564	0.142165	0.298337	0.799342	0.703437	0.244486	0.094991	0.300627	0.344169	0.133866	0.296705	0.583376	0.647037	0.079881	0.057516	0.352136	0.736816	0.135059	0.243537	0.334966	0.469771	0.069364	0.028656	0.519687	0.248952	0.086015	0.132129	0.039470	0.079995	0.110739	0.040100	0.393533	0.098164	0.064303	0.132993	0.238550	0.092670	0.022785	0.035030	0.360397	0.210932	0.063538	0.180315	0.252594	0.189179	0.034736	0.030969	0.314242	0.527048	0.101253	0.160038	0.267799	0.308972	0.113278	0.030015	0.402604	0.527827	0.292329	0.029237	0.195662	0.219646
83	0.024090	0.092428	0.488516	0.380987	0.152829	0.333715	0.223224	0.130024	0.114843	0.127335	0.768384	0.929786	0.142175	0.230193	0.787681	0.702656	0.392420	0.102630	0.290208	0.298534	0.147976	0.304492	0.587066	0.648109	0.088173	0.068369	0.357161	0.804098	0.106200	0.245553	0.318234	0.415315	0.076572	0.041293	0.503649	0.239125	0.084343	0.124793	0.025488	0.079706	0.110038	0.034266	0.239550	0.091251	0.064789	0.132063	0.271076	0.181671	0.024978	0.028540	0.360609	0.253333	0.051833	0.167309	0.252688	0.205115	0.044412	0.049712	0.305324	0.573223	0.103676	0.148165	0.251144	0.302576	0.115373	0.033052	0.424736	0.540719	0.292529	0.026332	0.192815	0.216308
84	0.052430	0.079663	0.500582	0.368715	0.122904	0.341806	0.245558	0.193237	0.126765	0.137518	0.786323	0.937020	0.142042	0.202119	0.765022	0.674567	0.476700	0.100902	0.362794	0.284032	0.157035	0.303860	0.588203	0.648428	0.091100	0.074302	0.367511	0.819890	0.096387	0.257075	0.306613	0.317415	0.084563	0.051760	0.502793	0.237620	0.084164	0.121269	0.025609	0.076448	0.073337	0.030676	0.359999	0.089011	0.063791	0.132497	0.283147	0.202102	0.029280	0.083944	0.359651	0.280940	0.047434	0.169128	0.254805	0.211668	0.048375	0.058587	0.300128	0.579792	0.104485	0.147539	0.244886	0.295362	0.115287	0.034459	0.443281	0.557761	0.292448	0.025917	0.180385	0.199534
85	0.071087	0.062267	0.474335	0.346574	0.088379	0.328607	0.244118	0.199267	0.130996	0.141705	0.795325	0.905496	0.137018	0.099592	0.659480	0.581106	0.526925	0.096631	0.374733	0.333693	0.159867	0.303568	0.587247	0.647405	0.096857	0.080840	0.327068	0.825302	0.097055	0.256260	0.306722	0.235150	0.087206	0.054105	0.382735	0.238078	0.083231	0.116695	0.027774	0.069626	0.057610	0.030943	0.381943	0.191756	0.059422	0.113621	0.313056	0.210713	0.044098	0.173559	0.350315	0.289590	0.048205	0.168550	0.261236	0.213496	0.090497	0.061392	0.301797	0.581642	0.105069	0.131644	0.244366	0.291487	0.115383	0.033922	0.437818	0.564348	0.287137	0.024188	0.166138	0.165579
86	0.096288	0.045660	0.335585	0.279055	0.090577	0.324303	0.227502	0.229223	0.130198	0.141385	0.776928	0.849127	0.134279	0.085512	0.537595	0.491887	0.576218	0.104581	0.374229	0.469256	0.160757	0.301692	0.533977	0.640550	0.101863	0.085013	0.354921	0.820701	0.098657	0.255655	0.306421	0.211775	0.090773	0.054046	0.260434	0.225587	0.083553	0.113288	0.037039	0.066755	0.059777	0.032434	0.479272	0.355068	0.041655	0.088510	0.346143	0.218111	0.046578	0.207980	0.330395	0.284482	0.052709	0.160938	0.260280	0.207899	0.139625	0.061819	0.296035	0.581442	0.106070	0.127787	0.237788	0.291021	0.116041	0.033950	0.400196	0.568624	0.269021	0.023439	0.147796	0.142530
87	0.097642	0.053289	0.324573	0.174879	0.087213	0.300760	0.221469	0.314509	0.130047	0.138892	0.707431	0.781201	0.123271	0.082071	0.518565	0.468879	0.638778	0.113222	0.369518	0.582452	0.153735	0.301800	0.424452	0.578993	0.100303	0.085966	0.352222	0.799065	0.096761	0.256790	0.306413	0.201569	0.095711	0.057338	0.257141	0.301436	0.086001	0.099620	0.041050	0.068663	0.060696	0.032645	0.522619	0.372123	0.030408	0.077838	0.373132	0.225109	0.045721	0.216526	0.232207	0.272851	0.053328	0.134109	0.255112	0.207919	0.146351	0.061660	0.295036	0.578263	0.106826	0.125253	0.237359	0.290736	0.117018	0.035477	0.432439	0.534924	0.259750	0.022978	0.122445	0.140261
88	0.089520	0.049826	0.315123	0.140642	0.088042	0.217804	0.214252	0.352343	0.126206	0.131799	0.710095	0.715783	0.090471	0.078157	0.352863	0.457713	0.652283	0.118701	0.346410	0.624343	0.145100	0.299496	0.405400	0.502373	0.099710	0.085253	0.350481	0.759058	0.096440	0.272013	0.307453	0.215382	0.095337	0.066961	0.291980	0.464433	0.086943	0.092247	0.059820	0.064194	0.062518	0.032581	0.528952	0.409723	0.029535	0.045745	0.410563	0.246581	0.046174	0.217611	0.221042	0.289761	0.053307	0.116197	0.214193	0.207456	0.212489	0.066073	0.262641	0.587501	0.106806	0.124485	0.232912	0.286012	0.119164	0.039498	0.482172	0.468090	0.226210	0.018065	0.092743	0.136542
89	0.071485	0.050356	0.318618	0.140953	0.083533	0.181393	0.240947	0.354531	0.114204	0.121393	0.661093	0.737538	0.087877	0.064242	0.100090	0.387224	0.691256	0.129402	0.362958	0.634742	0.143607	0.298363	0.268144	0.478050	0.106974	0.081913	0.349619	0.680193	0.097893	0.291641	0.306079	0.236395	0.112054	0.086677	0.341582	0.670811	0.084473	0.052623	0.122480	0.063320	0.059806	0.032595	0.534379	0.499467	0.029829	0.037209	0.417418	0.274660	0.047403	0.218388	0.229791	0.320172	0.047070	0.096788	0.157848	0.204161	0.237795	0.073058	0.268811	0.580424	0.106180	0.123378	0.203862	0.261553	0.128737	0.047604	0.489122	0.425882	0.182198	0.012076	0.089083	0.121036
90	0.026858	0.043554	0.296373	0.122941	0.083128	0.160191	0.351616	0.374947	0.105949	0.117888	0.639541	0.762557	0.078943	0.042276	0.062581	0.293624	0.702580	0.133868	0.384504	0.638391	0.137837	0.297755	0.227652	0.473564	0.102159	0.074402	0.345199	0.640573	0.099675	0.288974	0.298627	0.243130	0.129787	0.107492	0.347988	0.700255	0.078212	0.046058	0.137160	0.076208	0.054126	0.042526	0.532720	0.553751	0.031437	0.038640	0.412991	0.287207	0.048432	0.218601	0.220829	0.351346	0.061449	0.082573	0.154442	0.197913	0.244106	0.078204	0.246686	0.566665	0.102092	0.110856	0.186544	0.216076	0.119099	0.050938	0.489740	0.430708	0.167785	0.010579	0.091322	0.096441
91	0.030592	0.031066	0.563346	0.124694	0.073778	0.120577	0.478009	0.434257	0.103054	0.120127	0.616119	0.727097	0.069522	0.036116	0.073835	0.205702	0.704621	0.134452	0.379423	0.655187	0.126120	0.297799	0.211469	0.416308	0.096154	0.074416	0.336646	0.638098	0.099611	0.299176	0.294461	0.240966	0.130966	0.116085	0.420801	0.734545	0.077044	0.039618	0.138060	0.091014	0.049022	0.055747	0.527720	0.578269	0.036580	0.040202	0.402197	0.287587	0.047840	0.218920	0.255398	0.389881	0.118431	0.080307	0.128571	0.181674	0.247589	0.070553	0.223160	0.517247	0.082425	0.109192	0.172644	0.191849	0.108691	0.054222	0.488524	0.426819	0.095436	0.011064	0.097866	0.071685
92	0.041380	0.033930	0.638563	0.161429	0.072937	0.076185	0.487556	0.438463	0.131284	0.125071	0.608667	0.637920	0.061908	0.041143	0.081173	0.148446	0.708792	0.137039	0.375650	0.682005	0.124276	0.268804	0.208240	0.290680	0.109106	0.076840	0.321599	0.596907	0.092492	0.294905	0.294154	0.232929	0.126923	0.116156	0.441161	0.887693	0.043893	0.033501	0.147355	0.095180	0.045406	0.063270	0.497837	0.583237	0.039283	0.044644	0.366145	0.262371	0.047523	0.215928	0.280054	0.372854	0.169205	0.076850	0.121899	0.180216	0.259982	0.063504	0.251495	0.522252	0.066290	0.052088	0.162432	0.187590	0.105089	0.069087	0.489790	0.398369	0.055522	0.013677	0.105661	0.062308
93	0.047165	0.038066	0.773463	0.207629	0.075939	0.068147	0.583427	0.436988	0.136149	0.116489	0.766856	0.504091	0.059377	0.049041	0.105316	0.145248	0.726228	0.137531	0.374997	0.718697	0.116646	0.217411	0.173724	0.167558	0.114971	0.075383	0.322269	0.439267	0.079366	0.252175	0.289942	0.214831	0.124014	0.117778	0.454158	0.968411	0.035156	0.033664	0.150858	0.098040	0.045700	0.063411	0.416163	0.579890	0.039704	0.044566	0.377614	0.215598	0.034802	0.157781	0.308725	0.412873	0.174045	0.077414	0.120427	0.153356	0.263930	0.060539	0.265737	0.522107	0.062659	0.032200	0.135430	0.156115	0.112616	0.079542	0.478682	0.360685	0.046427	0.017309	0.104871	0.071265
94	0.058293	0.053975	0.774599	0.228322	0.074590	0.069053	0.686559	0.466402	0.137248	0.098059	0.771267	0.414493	0.061855	0.058476	0.145130	0.160696	0.736721	0.135990	0.368977	0.754683	0.098630	0.102054	0.118745	0.111616	0.117930	0.065029	0.324270	0.254714	0.075931	0.252262	0.217271	0.199370	0.116627	0.121731	0.479002	0.980593	0.044395	0.037978	0.153237	0.098656	0.067033	0.060960	0.413691	0.541394	0.039343	0.042659	0.394711	0.209959	0.026697	0.115434	0.323673	0.475007	0.185517	0.074012	0.114520	0.120614	0.251586	0.061984	0.343306	0.521488	0.047894	0.018965	0.103897	0.115070	0.137380	0.085050	0.436241	0.335249	0.043609	0.023387	0.097297	0.090803
95	0.057417	0.056233	0.607359	0.276551	0.074280	0.078955	0.682861	0.454096	0.124858	0.082607	0.748950	0.393695	0.067011	0.063576	0.152476	0.164462	0.709465	0.137054	0.358018	0.775041	0.074854	0.053043	0.103183	0.092339	0.124074	0.057444	0.469675	0.347901	0.065570	0.273063	0.144827	0.192629	0.114852	0.121966	0.485880	1.041583	0.052691	0.039711	0.159385	0.102931	0.099055	0.061085	0.268556	0.536105	0.035514	0.042098	0.353365	0.198196	0.029104	0.055976	0.368576	0.486315	0.232159	0.071117	0.113768	0.095390	0.273906	0.067383	0.383821	0.503314	0.039290	0.019070	0.097751	0.097401	0.237327	0.085452	0.412531	0.317349	0.043562	0.031020	0.095785	0.101788
96	0.057289	0.052423	0.540286	0.294182	0.065700	0.076081	0.683167	0.415344	0.119670	0.073268	0.735470	0.439346	0.077061	0.064984	0.168833	0.165406	0.641075	0.140857	0.354457	0.784926	0.050976	0.053780	0.144864	0.117108	0.121612	0.050848	0.530473	0.733159	0.065067	0.275647	0.111630	0.191707	0.111731	0.122021	0.486123	1.064044	0.051796	0.039072	0.161509	0.118699	0.106253	0.066730	0.280457	0.578856	0.035293	0.037239	0.346750	0.192948	0.032090	0.051544	0.424724	0.495632	0.244807	0.041948	0.100619	0.082251	0.247156	0.064226	0.389540	0.358342	0.033239	0.018939	0.097965	0.097502	0.384877	0.086752	0.385263	0.289281	0.047363	0.038273	0.097356	0.108636
97	0.195952	0.051100	0.295015	0.358546	0.057074	0.068987	0.678175	0.408536	0.119540	0.069259	0.728585	0.471930	0.083099	0.074985	0.230422	0.174355	0.577530	0.144579	0.281117	0.792739	0.041073	0.052144	0.150850	0.150408	0.116910	0.048263	0.577547	0.972751	0.067460	0.287476	0.110735	0.185875	0.114114	0.122495	0.500790	1.062565	0.047736	0.038277	0.165747	0.137006	0.106419	0.072450	0.309893	0.536144	0.033735	0.032581	0.291529	0.182439	0.039143	0.052648	0.435724	0.485845	0.246167	0.037435	0.101951	0.075638	0.214090	0.054327	0.385989	0.305082	0.030630	0.018679	0.097631	0.097881	0.403476	0.101380	0.335429	0.277117	0.051020	0.043232	0.106350	0.108600
98	0.241161	0.038738	0.388357	0.355576	0.051741	0.064972	0.643720	0.399337	0.121873	0.066155	0.721388	0.486189	0.081949	0.076455	0.259042	0.177767	0.525071	0.148393	0.291127	0.778918	0.036231	0.051209	0.194820	0.153040	0.128549	0.066837	0.602699	0.996448	0.068754	0.299491	0.106697	0.160109	0.110246	0.121823	0.504030	1.050053	0.047996	0.037889	0.167252	0.136816	0.269084	0.070440	0.323321	0.453891	0.033885	0.032060	0.258061	0.149381	0.053239	0.059604	0.455534	0.460910	0.253731	0.038328	0.122288	0.075255	0.205069	0.044722	0.462073	0.366061	0.027568	0.018694	0.096008	0.097980	0.409120	0.108685	0.317113	0.262164	0.051375	0.044687	0.114654	0.112494
99	0.292914	0.031399	0.399734	0.378417	0.051234	0.063996	0.549121	0.337748	0.123311	0.063406	0.758902	0.485043	0.083384	0.077254	0.271375	0.172245	0.482499	0.145693	0.338419	0.696252	0.037176	0.048257	0.216874	0.150779	0.159347	0.092548	0.639410	1.060311	0.068427	0.344524	0.105604	0.152296	0.096373	0.121686	0.503640	0.966490	0.048092	0.035031	0.134424	0.146050	0.529178	0.062423	0.355417	0.402275	0.033003	0.030312	0.243062	0.129369	0.052605	0.059578	0.507764	0.444533	0.255095	0.043999	0.128346	0.074142	0.204076	0.041247	0.514747	0.505396	0.021140	0.019284	0.082974	0.094671	0.466301	0.110769	0.274737	0.234218	0.050772	0.044696	0.114479	0.135919
100	0.292997	0.053963	0.600176	0.484746	0.040722	0.064402	0.523830	0.280402	0.129003	0.063322	0.820852	0.463930	0.083937	0.075324	0.274271	0.168790	0.383671	0.140296	0.347795	0.581088	0.045930	0.041865	0.217580	0.146823	0.179792	0.102492	0.752014	1.156515	0.066492	0.340065	0.091405	0.141658	0.068770	0.115060	0.558219	0.920403	0.050923	0.033908	0.115241	0.150634	0.580789	0.051912	0.403355	0.387852	0.028100	0.028254	0.232524	0.145199	0.053694	0.056187	0.550652	0.478073	0.254996	0.049111	0.157271	0.070616	0.199005	0.041895	0.509477	0.511934	0.019812	0.019032	0.077054	0.074102	0.533814	0.110079	0.149352	0.231741	0.050395	0.044817	0.117798	0.160015
101	0.244540	0.055465	0.631717	0.456123	0.025694	0.063944	0.463101	0.281265	0.132267	0.063848	0.829985	0.435581	0.081242	0.075131	0.277764	0.167398	0.358779	0.137177	0.347001	0.525931	0.047199	0.038553	0.217827	0.147422	0.175656	0.103139	0.804359	1.181385	0.064556	0.320427	0.073496	0.102973	0.058122	0.106536	0.486483	0.905810	0.051317	0.033082	0.116045	0.146910	0.601467	0.049701	0.412929	0.410577	0.020835	0.026652	0.231512	0.147205	0.067911	0.062877	0.531440	0.458509	0.254459	0.052172	0.158254	0.069462	0.178054	0.041831	0.515037	0.532242	0.021199	0.016119	0.072336	0.050326	0.542900	0.108615	0.110690	0.195994	0.050733	0.045440	0.132252	0.168112
