	190_P_T3_sh_R_D_A_03.c3d	190_P_T3_sh_R_D_A_03.c3d	190_P_T3_sh_R_D_A_03.c3d	190_P_T3_sh_R_D_A_03.c3d	190_P_T3_sh_R_D_A_03.c3d	190_P_T3_sh_R_D_A_03.c3d	190_P_T3_sh_R_D_A_03.c3d	190_P_T3_sh_R_D_A_03.c3d	190_P_T3_sh_R_D_A_05.c3d	190_P_T3_sh_R_D_A_05.c3d	190_P_T3_sh_R_D_A_05.c3d	190_P_T3_sh_R_D_A_05.c3d	190_P_T3_sh_R_D_A_05.c3d	190_P_T3_sh_R_D_A_05.c3d	190_P_T3_sh_R_D_A_05.c3d	190_P_T3_sh_R_D_A_05.c3d	190_P_T3_sh_R_D_A_06.c3d	190_P_T3_sh_R_D_A_06.c3d	190_P_T3_sh_R_D_A_06.c3d	190_P_T3_sh_R_D_A_06.c3d	190_P_T3_sh_R_D_A_06.c3d	190_P_T3_sh_R_D_A_06.c3d	190_P_T3_sh_R_D_A_06.c3d	190_P_T3_sh_R_D_A_06.c3d	190_P_T3_sh_R_D_A_10.c3d	190_P_T3_sh_R_D_A_10.c3d	190_P_T3_sh_R_D_A_10.c3d	190_P_T3_sh_R_D_A_10.c3d	190_P_T3_sh_R_D_A_10.c3d	190_P_T3_sh_R_D_A_10.c3d	190_P_T3_sh_R_D_A_10.c3d	190_P_T3_sh_R_D_A_10.c3d	190_P_T3_sh_R_D_A_11.c3d	190_P_T3_sh_R_D_A_11.c3d	190_P_T3_sh_R_D_A_11.c3d	190_P_T3_sh_R_D_A_11.c3d	190_P_T3_sh_R_D_A_11.c3d	190_P_T3_sh_R_D_A_11.c3d	190_P_T3_sh_R_D_A_11.c3d	190_P_T3_sh_R_D_A_11.c3d
	Biceps femoris_lat	Semitendinosus_lat	Vastus lateralis_lat	Vastus medialis_lat	Biceps femoris_med	Semitendinosus_med	Vastus lateralis_med	Vastus medialis_med	Biceps femoris_lat	Semitendinosus_lat	Vastus lateralis_lat	Vastus medialis_lat	Biceps femoris_med	Semitendinosus_med	Vastus lateralis_med	Vastus medialis_med	Biceps femoris_lat	Semitendinosus_lat	Vastus lateralis_lat	Vastus medialis_lat	Biceps femoris_med	Semitendinosus_med	Vastus lateralis_med	Vastus medialis_med	Biceps femoris_lat	Semitendinosus_lat	Vastus lateralis_lat	Vastus medialis_lat	Biceps femoris_med	Semitendinosus_med	Vastus lateralis_med	Vastus medialis_med	Biceps femoris_lat	Semitendinosus_lat	Vastus lateralis_lat	Vastus medialis_lat	Biceps femoris_med	Semitendinosus_med	Vastus lateralis_med	Vastus medialis_med
	P2D	P2D	P2D	P2D	P2D	P2D	P2D	P2D	P2D	P2D	P2D	P2D	P2D	P2D	P2D	P2D	P2D	P2D	P2D	P2D	P2D	P2D	P2D	P2D	P2D	P2D	P2D	P2D	P2D	P2D	P2D	P2D	P2D	P2D	P2D	P2D	P2D	P2D	P2D	P2D
	EMG_lat	EMG_lat	EMG_lat	EMG_lat	EMG_med	EMG_med	EMG_med	EMG_med	EMG_lat	EMG_lat	EMG_lat	EMG_lat	EMG_med	EMG_med	EMG_med	EMG_med	EMG_lat	EMG_lat	EMG_lat	EMG_lat	EMG_med	EMG_med	EMG_med	EMG_med	EMG_lat	EMG_lat	EMG_lat	EMG_lat	EMG_med	EMG_med	EMG_med	EMG_med	EMG_lat	EMG_lat	EMG_lat	EMG_lat	EMG_med	EMG_med	EMG_med	EMG_med
ITEM	Y	Y	Y	Y	Y	Y	Y	Y	Y	Y	Y	Y	Y	Y	Y	Y	Y	Y	Y	Y	Y	Y	Y	Y	Y	Y	Y	Y	Y	Y	Y	Y	Y	Y	Y	Y	Y	Y	Y	Y
1	0.086223	0.088459	0.143299	0.201847	0.287301	0.103020	0.419871	0.307972	0.229532	0.284854	0.192841	0.086967	0.087988	0.152661	0.188019	0.128455	0.407945	0.199119	0.350203	0.295975	0.170926	0.235692	0.062147	0.120376	0.302180	0.191145	0.188805	0.221147	0.283693	0.084322	0.349527	0.402072	0.450393	0.523941	0.242635	0.334607	0.153996	0.337359	0.088614	0.113603
2	0.115142	0.100037	0.135794	0.201696	0.292139	0.112850	0.431836	0.313201	0.293521	0.404830	0.205502	0.116765	0.099185	0.167807	0.214302	0.112601	0.386957	0.201184	0.300067	0.204525	0.170983	0.236472	0.081714	0.107785	0.296895	0.177589	0.183028	0.218979	0.292056	0.086905	0.381542	0.401450	0.468569	0.527906	0.234250	0.356636	0.154368	0.345177	0.089784	0.114953
3	0.139668	0.094211	0.135796	0.204183	0.293187	0.114783	0.434853	0.317152	0.304457	0.420948	0.232381	0.149203	0.109101	0.177716	0.201969	0.112479	0.347881	0.208061	0.257264	0.201975	0.171144	0.241759	0.098214	0.092546	0.280892	0.184102	0.170821	0.205982	0.339812	0.095546	0.421513	0.406739	0.412881	0.467874	0.226279	0.334577	0.151691	0.344316	0.091502	0.124249
4	0.155710	0.140666	0.142332	0.225763	0.292151	0.117966	0.435939	0.337807	0.298244	0.436318	0.233188	0.156326	0.108858	0.176305	0.193701	0.129820	0.236896	0.183480	0.153969	0.203543	0.187135	0.243270	0.109148	0.079113	0.259141	0.202212	0.159476	0.206301	0.359902	0.112295	0.434434	0.411288	0.309973	0.393642	0.201158	0.340589	0.164850	0.350063	0.092070	0.146103
5	0.247314	0.224764	0.201973	0.296540	0.290221	0.232503	0.431235	0.388371	0.302661	0.465644	0.289136	0.186421	0.136531	0.179859	0.207166	0.142531	0.163648	0.169638	0.173171	0.219642	0.258781	0.278027	0.173011	0.089100	0.296140	0.205505	0.241788	0.228027	0.371645	0.095070	0.495640	0.430705	0.322081	0.334381	0.198922	0.350997	0.168190	0.355261	0.097210	0.150991
6	0.255931	0.230014	0.214008	0.331394	0.287719	0.346606	0.418686	0.408241	0.293075	0.460790	0.335874	0.266862	0.149807	0.180116	0.221903	0.148808	0.158874	0.196675	0.226483	0.243430	0.339063	0.353657	0.219600	0.125431	0.320623	0.234959	0.302834	0.235676	0.358408	0.107819	0.463672	0.417510	0.317630	0.349316	0.225572	0.315267	0.169669	0.355575	0.098566	0.166838
7	0.274097	0.287936	0.213277	0.335069	0.311832	0.359047	0.419990	0.419076	0.293715	0.459813	0.338575	0.281698	0.152884	0.173502	0.242554	0.153056	0.160346	0.197639	0.248226	0.234534	0.349645	0.359441	0.223141	0.126824	0.303185	0.239466	0.323127	0.227102	0.343444	0.183158	0.412907	0.352974	0.316690	0.380337	0.269832	0.310777	0.181764	0.358112	0.135447	0.198735
8	0.310079	0.316301	0.224664	0.349121	0.346337	0.412286	0.443519	0.429543	0.318273	0.504774	0.333392	0.282217	0.152823	0.169316	0.235017	0.155434	0.176956	0.203842	0.258274	0.224333	0.379087	0.370915	0.255552	0.141447	0.288432	0.231958	0.335524	0.216592	0.367982	0.292822	0.409524	0.351756	0.305961	0.432888	0.265341	0.319429	0.191535	0.353795	0.160814	0.201636
9	0.336894	0.334372	0.234656	0.354099	0.312847	0.423228	0.433314	0.447899	0.391646	0.529390	0.342059	0.284566	0.150439	0.176893	0.245521	0.180156	0.228456	0.186751	0.260440	0.212589	0.391635	0.394714	0.280183	0.144157	0.359604	0.228477	0.398273	0.249322	0.408122	0.382332	0.378203	0.350846	0.303953	0.430156	0.253862	0.293993	0.195239	0.318826	0.183598	0.199525
10	0.393512	0.350665	0.317248	0.386504	0.309417	0.424102	0.438387	0.506594	0.406416	0.537061	0.350559	0.311168	0.147824	0.185440	0.260001	0.195933	0.245263	0.173917	0.255032	0.219959	0.398109	0.432858	0.279737	0.142548	0.379475	0.232326	0.413130	0.257495	0.373136	0.414716	0.325443	0.305979	0.283466	0.440174	0.262265	0.257250	0.193339	0.278429	0.243835	0.203964
11	0.409083	0.353394	0.356046	0.398257	0.281109	0.433144	0.391823	0.509084	0.423726	0.481512	0.473780	0.436662	0.159379	0.186382	0.260314	0.200431	0.254566	0.190142	0.279213	0.260671	0.420197	0.463999	0.283195	0.150430	0.450310	0.228833	0.490860	0.315278	0.366549	0.596851	0.299046	0.275965	0.226483	0.417755	0.266343	0.271702	0.168056	0.265248	0.257334	0.238016
12	0.449916	0.384258	0.391630	0.412068	0.251309	0.438300	0.327074	0.491536	0.466773	0.439729	0.568319	0.488682	0.172302	0.184933	0.244221	0.202647	0.264701	0.208626	0.304880	0.285107	0.420082	0.467843	0.308529	0.185742	0.567063	0.239052	0.605515	0.349297	0.326372	0.686098	0.138316	0.219587	0.239332	0.400593	0.276622	0.303209	0.154167	0.206482	0.267271	0.239548
13	0.491597	0.420103	0.418671	0.398341	0.269417	0.433967	0.311514	0.493528	0.475089	0.443275	0.589833	0.499629	0.166141	0.172128	0.230899	0.201558	0.266367	0.210465	0.313612	0.295709	0.437879	0.459675	0.336267	0.208254	0.626241	0.248992	0.656910	0.359631	0.321907	0.730962	0.111441	0.100810	0.213186	0.397585	0.276477	0.261039	0.157749	0.184757	0.270580	0.248109
14	0.524126	0.453212	0.425339	0.366762	0.271302	0.432924	0.305765	0.491189	0.482056	0.432704	0.590568	0.504812	0.166603	0.171616	0.229361	0.196017	0.255911	0.214112	0.305382	0.287797	0.482592	0.483914	0.346245	0.212968	0.639124	0.239526	0.673233	0.360681	0.347052	0.838092	0.108679	0.091547	0.206297	0.377665	0.272226	0.279190	0.167033	0.191543	0.271075	0.254343
15	0.555897	0.453820	0.441726	0.355360	0.271207	0.439158	0.305391	0.491664	0.485750	0.409419	0.556916	0.479597	0.159052	0.178278	0.213078	0.183426	0.251358	0.193671	0.269365	0.267314	0.506205	0.516278	0.345079	0.212061	0.648855	0.235687	0.677015	0.358299	0.334846	0.841384	0.072687	0.066817	0.228959	0.382369	0.212807	0.315523	0.273444	0.238196	0.328377	0.307545
16	0.553139	0.434506	0.437023	0.348977	0.272923	0.442582	0.302100	0.455934	0.484949	0.408961	0.539618	0.452675	0.139110	0.176585	0.197055	0.173895	0.295980	0.267817	0.235244	0.254750	0.518752	0.515368	0.339826	0.213032	0.660448	0.340208	0.656903	0.346287	0.288716	0.814688	0.063150	0.045281	0.315167	0.478322	0.160448	0.346279	0.401006	0.311140	0.447688	0.383855
17	0.544621	0.426712	0.429512	0.322214	0.293636	0.363294	0.297020	0.401286	0.481788	0.396441	0.541520	0.448831	0.131052	0.172395	0.171271	0.157833	0.304061	0.306522	0.222780	0.241647	0.555609	0.516650	0.337412	0.214117	0.644946	0.377364	0.628110	0.328250	0.282522	0.797806	0.065890	0.052863	0.417479	0.555227	0.166572	0.358905	0.449767	0.356914	0.500879	0.417159
18	0.541895	0.431422	0.397807	0.263236	0.317992	0.365811	0.284254	0.382080	0.453320	0.310095	0.547603	0.448216	0.133274	0.175199	0.155060	0.153776	0.312153	0.314555	0.202109	0.216996	0.549273	0.517034	0.324553	0.218939	0.649111	0.374599	0.611998	0.327612	0.255561	0.675638	0.118095	0.158456	0.453698	0.601741	0.151140	0.356404	0.463103	0.411219	0.504497	0.415201
19	0.541558	0.480241	0.328120	0.212575	0.259189	0.340281	0.230617	0.360891	0.412531	0.234198	0.546322	0.447237	0.145829	0.192703	0.141378	0.135801	0.303891	0.336152	0.194925	0.214489	0.512971	0.470873	0.285488	0.200488	0.667058	0.397868	0.605049	0.327520	0.258547	0.575477	0.141430	0.165513	0.498374	0.689290	0.144101	0.342668	0.460758	0.464385	0.496922	0.415633
20	0.574046	0.509890	0.312727	0.202230	0.243243	0.300437	0.187846	0.354427	0.410521	0.232981	0.519974	0.397518	0.177970	0.310100	0.078248	0.089662	0.308787	0.351462	0.180187	0.183647	0.538288	0.478992	0.274170	0.194139	0.637037	0.412120	0.568685	0.300975	0.269483	0.522439	0.165457	0.166780	0.507356	0.707702	0.126336	0.304072	0.457609	0.505105	0.489542	0.415957
21	0.592485	0.605917	0.239184	0.130888	0.244835	0.358167	0.179769	0.280047	0.338607	0.243433	0.360557	0.270406	0.188490	0.444032	0.063657	0.066335	0.304008	0.347265	0.126500	0.128905	0.551831	0.500149	0.271255	0.189180	0.613976	0.414025	0.544638	0.287019	0.253497	0.299719	0.192478	0.227867	0.501257	0.710785	0.109601	0.323239	0.489754	0.507470	0.467509	0.413920
22	0.548670	0.591904	0.179982	0.100410	0.263815	0.458379	0.166884	0.173330	0.296319	0.248535	0.234527	0.205424	0.219414	0.475848	0.051316	0.060098	0.328811	0.344402	0.081328	0.103247	0.566664	0.529095	0.283848	0.199158	0.583837	0.429191	0.501817	0.227887	0.333343	0.217086	0.270477	0.290445	0.533875	0.724982	0.138522	0.356751	0.522684	0.575929	0.456322	0.388363
23	0.497072	0.566875	0.136128	0.076235	0.275752	0.477536	0.163634	0.146687	0.338069	0.312030	0.188928	0.177402	0.375502	0.657901	0.041677	0.058991	0.351042	0.345680	0.079278	0.101338	0.570984	0.515774	0.308039	0.207429	0.465750	0.427406	0.356283	0.144916	0.335697	0.189090	0.281902	0.293642	0.553119	0.718863	0.166037	0.327830	0.535806	0.648660	0.454630	0.388844
24	0.490038	0.565061	0.114289	0.055525	0.261956	0.476923	0.143653	0.128982	0.328763	0.329949	0.193293	0.168362	0.386842	0.718856	0.045816	0.063036	0.360464	0.379868	0.104476	0.101255	0.566320	0.472035	0.324411	0.215618	0.366353	0.442535	0.217254	0.091307	0.338669	0.188621	0.329221	0.352518	0.549258	0.666700	0.168174	0.285824	0.538976	0.683451	0.452305	0.389603
25	0.476936	0.551527	0.121799	0.053380	0.248215	0.500007	0.122769	0.118708	0.323483	0.333440	0.215306	0.169981	0.388046	0.723611	0.053869	0.063224	0.356486	0.388929	0.172504	0.101764	0.554137	0.460506	0.315708	0.197324	0.330664	0.442205	0.137045	0.089991	0.371034	0.190010	0.347964	0.343953	0.488638	0.558303	0.162244	0.257266	0.539457	0.698361	0.455365	0.385318
26	0.486393	0.549156	0.134370	0.059010	0.261807	0.531429	0.121455	0.110528	0.324489	0.333639	0.214561	0.207980	0.388588	0.723557	0.053922	0.079143	0.350031	0.329566	0.189502	0.105939	0.546453	0.449979	0.283923	0.166007	0.343828	0.439199	0.105930	0.107100	0.403910	0.206588	0.348601	0.346555	0.432269	0.512236	0.166911	0.265797	0.509044	0.691412	0.433731	0.355691
27	0.437280	0.516379	0.144696	0.069952	0.283187	0.547415	0.117822	0.096977	0.329476	0.332769	0.202950	0.213700	0.387230	0.723258	0.057617	0.114858	0.414084	0.364640	0.211513	0.130675	0.505289	0.433653	0.270693	0.150909	0.329602	0.395066	0.104226	0.124553	0.439512	0.223779	0.450743	0.412048	0.429811	0.424728	0.168373	0.266426	0.413214	0.662070	0.318813	0.263672
28	0.441052	0.486925	0.150157	0.172310	0.287680	0.553884	0.114786	0.089984	0.336808	0.349868	0.190687	0.217438	0.384824	0.723142	0.065697	0.135588	0.418356	0.395728	0.220331	0.131495	0.468970	0.370623	0.291314	0.160094	0.305335	0.341520	0.103956	0.129026	0.457373	0.206590	0.504638	0.415814	0.464849	0.353730	0.167633	0.279392	0.343138	0.635782	0.197137	0.194689
29	0.289423	0.338011	0.187134	0.195868	0.244950	0.533441	0.104351	0.078154	0.327727	0.352599	0.213562	0.212915	0.383323	0.720234	0.105634	0.149229	0.423699	0.396920	0.225174	0.131654	0.459037	0.363377	0.325494	0.167228	0.293961	0.337404	0.111805	0.144948	0.393430	0.151910	0.470893	0.377330	0.463487	0.332841	0.181792	0.307486	0.323553	0.606811	0.154004	0.152718
30	0.260423	0.171694	0.213167	0.197314	0.234080	0.516720	0.100984	0.067569	0.326732	0.375636	0.213926	0.210195	0.376445	0.694775	0.127961	0.164320	0.421985	0.376181	0.219833	0.132625	0.426641	0.365448	0.337632	0.172794	0.242298	0.310962	0.121539	0.169597	0.381209	0.135028	0.464494	0.375504	0.442689	0.302940	0.206635	0.373854	0.320833	0.569943	0.148167	0.137447
31	0.304021	0.150278	0.211506	0.196382	0.232555	0.515982	0.084480	0.064010	0.356780	0.356515	0.242942	0.251895	0.364284	0.623541	0.135552	0.176057	0.414279	0.380240	0.219871	0.131610	0.394380	0.358066	0.339368	0.170863	0.225169	0.291434	0.124776	0.168028	0.379252	0.151288	0.431964	0.320645	0.402882	0.271429	0.235969	0.431662	0.318862	0.514189	0.148115	0.135346
32	0.342609	0.158409	0.203624	0.206516	0.229809	0.502088	0.066176	0.063345	0.382183	0.340264	0.264270	0.278593	0.362063	0.566882	0.140403	0.209088	0.400490	0.380824	0.218897	0.118725	0.388774	0.357296	0.339630	0.168457	0.227374	0.289923	0.149343	0.168837	0.353961	0.167256	0.405833	0.293773	0.377850	0.258667	0.253585	0.435385	0.286108	0.510264	0.141936	0.133849
33	0.342876	0.158637	0.213262	0.221427	0.216653	0.427682	0.064837	0.061551	0.361988	0.267249	0.270107	0.280455	0.245266	0.471967	0.149924	0.212559	0.392809	0.363941	0.216312	0.166940	0.346247	0.341600	0.339547	0.169870	0.228009	0.262894	0.168937	0.168557	0.324695	0.225422	0.395940	0.285098	0.372311	0.259640	0.262694	0.475709	0.221243	0.452922	0.126796	0.128258
34	0.364836	0.172938	0.219686	0.220050	0.193953	0.350275	0.062910	0.060034	0.366309	0.251694	0.358677	0.355305	0.152104	0.211876	0.206530	0.234550	0.373867	0.329711	0.207904	0.340577	0.278161	0.296652	0.339264	0.168450	0.228537	0.256048	0.165560	0.170984	0.312135	0.343767	0.270740	0.201781	0.407775	0.262900	0.266939	0.491608	0.171476	0.337413	0.114461	0.116552
35	0.386534	0.184164	0.227879	0.220335	0.184626	0.341358	0.048445	0.049770	0.394185	0.257278	0.464647	0.427758	0.168426	0.146031	0.233695	0.253027	0.367498	0.314492	0.186064	0.388131	0.214052	0.226614	0.312231	0.153321	0.236238	0.208610	0.179486	0.180933	0.395378	0.414184	0.190998	0.123454	0.378923	0.190333	0.322666	0.507127	0.159586	0.247913	0.102682	0.105484
36	0.372706	0.172239	0.287379	0.219383	0.186802	0.332310	0.027509	0.046828	0.418251	0.260656	0.485770	0.460004	0.168710	0.135285	0.256435	0.251975	0.352877	0.339266	0.215077	0.395564	0.157854	0.154696	0.270772	0.137280	0.279277	0.207582	0.240102	0.191200	0.500143	0.502218	0.321336	0.363900	0.363793	0.186056	0.509645	0.537254	0.169936	0.202890	0.100307	0.094539
37	0.363506	0.151484	0.309882	0.202515	0.226464	0.355295	0.030809	0.048252	0.424677	0.252352	0.484736	0.478790	0.200165	0.140639	0.315314	0.246649	0.321166	0.283207	0.293655	0.396400	0.132567	0.117660	0.244606	0.122118	0.273911	0.207687	0.403854	0.201209	0.602142	0.573503	0.433297	0.522507	0.405171	0.201766	0.641220	0.545402	0.188725	0.230233	0.123015	0.089052
38	0.376879	0.149036	0.373077	0.230002	0.227597	0.380128	0.040546	0.048596	0.447102	0.252085	0.482603	0.488560	0.214496	0.148527	0.361591	0.229355	0.306785	0.246756	0.309490	0.438960	0.119312	0.108483	0.231686	0.116817	0.232282	0.203381	0.471867	0.191480	0.619481	0.581038	0.453050	0.537317	0.430573	0.204406	0.673074	0.538741	0.195896	0.294254	0.132738	0.086025
39	0.379998	0.158556	0.467191	0.300749	0.226269	0.370705	0.041203	0.062320	0.450292	0.234469	0.474046	0.503848	0.219526	0.182808	0.386750	0.227456	0.300989	0.244094	0.333551	0.509672	0.104995	0.103319	0.231611	0.122021	0.234713	0.174436	0.492160	0.187924	0.633217	0.579927	0.525915	0.593923	0.433774	0.204391	0.659867	0.434324	0.223699	0.312717	0.129569	0.077244
40	0.352590	0.151288	0.514519	0.347260	0.229303	0.403507	0.077177	0.091160	0.489184	0.223757	0.539193	0.567943	0.269922	0.187548	0.408375	0.224565	0.306225	0.241323	0.399020	0.538509	0.095567	0.102672	0.225891	0.133448	0.241511	0.169736	0.520679	0.211141	0.686893	0.580449	0.569569	0.646161	0.434491	0.203622	0.655781	0.426623	0.265585	0.353404	0.128962	0.071254
41	0.346495	0.150813	0.524717	0.357201	0.229166	0.411241	0.147423	0.096466	0.508068	0.233788	0.579106	0.593122	0.282139	0.191298	0.448866	0.218153	0.337048	0.237123	0.457657	0.565968	0.093347	0.103100	0.204599	0.140579	0.265702	0.167380	0.528444	0.240065	0.687689	0.522282	0.570664	0.642469	0.440205	0.208304	0.668586	0.416911	0.266120	0.353907	0.161900	0.071798
42	0.319612	0.147786	0.515561	0.363723	0.233167	0.415602	0.186640	0.109877	0.511018	0.239054	0.604280	0.609207	0.354851	0.177790	0.590932	0.215597	0.401301	0.251081	0.532775	0.617325	0.081884	0.092349	0.154110	0.155294	0.287223	0.166534	0.558716	0.244364	0.630132	0.510552	0.554663	0.641082	0.459235	0.218239	0.683071	0.464131	0.270201	0.355257	0.227096	0.151350
43	0.266467	0.144682	0.516247	0.365428	0.247133	0.421204	0.205588	0.120001	0.517019	0.240098	0.607455	0.617837	0.394003	0.176891	0.655353	0.214491	0.439062	0.244494	0.578661	0.670323	0.066347	0.071900	0.110930	0.164287	0.373805	0.184540	0.718975	0.303607	0.569138	0.665107	0.497529	0.545930	0.504006	0.234250	0.703460	0.521374	0.269385	0.365488	0.248372	0.170223
44	0.257134	0.159476	0.501699	0.364556	0.274017	0.423737	0.227856	0.142103	0.504710	0.232910	0.520261	0.565125	0.395074	0.167554	0.655402	0.219572	0.441630	0.243558	0.576563	0.654197	0.079523	0.084490	0.098797	0.160446	0.437354	0.209198	0.855287	0.352155	0.541163	0.714491	0.416848	0.434378	0.496531	0.232374	0.640951	0.508828	0.260951	0.358119	0.249092	0.168737
45	0.285230	0.187897	0.466829	0.331995	0.293825	0.420686	0.238046	0.147144	0.486572	0.228129	0.456267	0.520032	0.388748	0.162654	0.638414	0.194799	0.430141	0.211024	0.623251	0.858923	0.103232	0.111105	0.099188	0.160012	0.484496	0.228726	0.915810	0.356322	0.528565	0.734807	0.460780	0.462437	0.440879	0.190609	0.482892	0.482214	0.264363	0.354664	0.254277	0.169295
46	0.313559	0.253204	0.444476	0.329422	0.296779	0.420280	0.290712	0.176597	0.478532	0.230569	0.456489	0.492973	0.385392	0.157135	0.636168	0.201777	0.406058	0.166766	0.635087	0.975378	0.129458	0.133242	0.100017	0.160795	0.499050	0.233107	0.936480	0.351574	0.515214	0.741927	0.426870	0.403008	0.411196	0.208935	0.367766	0.473601	0.277218	0.355863	0.267123	0.178521
47	0.298203	0.266222	0.332165	0.276578	0.313546	0.421522	0.359115	0.207013	0.465741	0.251653	0.466002	0.484394	0.375446	0.154565	0.617152	0.204106	0.388346	0.159609	0.612361	1.027424	0.132782	0.134642	0.106647	0.159720	0.480835	0.230357	0.939739	0.344184	0.426346	0.728101	0.369297	0.312735	0.482575	0.322965	0.341504	0.458161	0.273541	0.350768	0.273840	0.212983
48	0.272086	0.264765	0.217237	0.250513	0.304446	0.398263	0.366918	0.206461	0.445034	0.257391	0.461329	0.490853	0.363925	0.156772	0.586816	0.201981	0.411713	0.178004	0.608981	1.014714	0.135539	0.145027	0.108114	0.160071	0.465069	0.229278	0.885868	0.336520	0.387026	0.720866	0.372456	0.429766	0.522565	0.387225	0.341752	0.477370	0.289124	0.332295	0.272300	0.214316
49	0.255978	0.264007	0.169518	0.274995	0.260226	0.307963	0.366706	0.207992	0.408663	0.243002	0.437562	0.451890	0.363253	0.132512	0.564999	0.212973	0.423526	0.201789	0.590218	1.006196	0.143912	0.176004	0.106529	0.160580	0.465635	0.210734	0.844831	0.334432	0.396848	0.696876	0.366387	0.552362	0.530420	0.397980	0.323508	0.507084	0.342467	0.286742	0.299135	0.231195
50	0.254429	0.265764	0.230096	0.309133	0.259345	0.274280	0.368354	0.207701	0.332966	0.207625	0.338178	0.345932	0.346350	0.099210	0.541226	0.215483	0.421670	0.200920	0.575183	1.061552	0.146254	0.190963	0.107372	0.163295	0.459239	0.187221	0.831406	0.337922	0.457943	0.477742	0.382853	0.601376	0.522158	0.409262	0.297950	0.484040	0.353041	0.264320	0.312960	0.243306
51	0.320723	0.274312	0.321328	0.313271	0.246351	0.201478	0.380216	0.199239	0.246943	0.195515	0.265081	0.267701	0.319341	0.084949	0.530352	0.213927	0.381254	0.184509	0.545159	1.083936	0.204298	0.214754	0.120556	0.164578	0.458352	0.183146	0.815459	0.336435	0.408106	0.296199	0.423546	0.586072	0.501544	0.412118	0.305019	0.356543	0.304609	0.188421	0.314912	0.248910
52	0.344573	0.273831	0.323801	0.329738	0.246400	0.154710	0.365308	0.194777	0.185199	0.183219	0.194393	0.232092	0.275476	0.086239	0.411915	0.204939	0.321620	0.166373	0.459542	1.061281	0.238110	0.241813	0.120106	0.163846	0.442417	0.183823	0.805120	0.316740	0.447581	0.221384	0.354825	0.609489	0.523298	0.432567	0.313162	0.298085	0.302053	0.182297	0.317771	0.253212
53	0.323236	0.268553	0.326519	0.369613	0.245417	0.138699	0.345171	0.188779	0.179980	0.181383	0.187667	0.201924	0.185408	0.083149	0.202954	0.184441	0.308526	0.167317	0.461591	1.041100	0.238636	0.253164	0.134399	0.167282	0.441834	0.190890	0.807304	0.321885	0.510039	0.219686	0.294574	0.663134	0.520834	0.435075	0.318556	0.301307	0.298077	0.177469	0.310839	0.242327
54	0.279780	0.210945	0.339054	0.422784	0.239886	0.124521	0.330592	0.183404	0.189880	0.244083	0.197844	0.192894	0.127446	0.083811	0.102118	0.170945	0.319398	0.172184	0.458656	0.939303	0.239027	0.275830	0.147330	0.165174	0.390948	0.197677	0.718991	0.292954	0.538918	0.213215	0.297224	0.674431	0.523107	0.455552	0.326378	0.281327	0.301828	0.163698	0.295860	0.227609
55	0.258108	0.166723	0.342449	0.422945	0.237124	0.124654	0.327554	0.174646	0.209658	0.385007	0.219193	0.196177	0.126139	0.086223	0.105836	0.158282	0.297362	0.170071	0.394512	0.767319	0.239143	0.293014	0.149451	0.147240	0.318770	0.180521	0.548344	0.215047	0.567015	0.224585	0.305173	0.609347	0.488721	0.440597	0.320113	0.261412	0.301612	0.167453	0.299437	0.230027
56	0.275804	0.169852	0.345683	0.420443	0.230080	0.186446	0.320579	0.164250	0.194491	0.423308	0.207737	0.190125	0.154338	0.091091	0.143495	0.143619	0.308537	0.167754	0.394752	0.659126	0.243359	0.296119	0.153267	0.145371	0.252175	0.158499	0.423908	0.210736	0.558160	0.249541	0.301495	0.497422	0.449111	0.360172	0.317410	0.255381	0.327904	0.171046	0.325067	0.253080
57	0.285952	0.183005	0.341980	0.424972	0.274952	0.324236	0.312656	0.153741	0.173043	0.418671	0.196271	0.192666	0.171548	0.093191	0.161052	0.132159	0.342580	0.174164	0.397158	0.663129	0.264596	0.351798	0.148457	0.154761	0.216018	0.151618	0.359081	0.250217	0.492440	0.240941	0.264051	0.434776	0.473743	0.392267	0.302802	0.179033	0.386775	0.212297	0.334562	0.269227
58	0.305777	0.177631	0.351063	0.473936	0.277110	0.392599	0.214331	0.089918	0.196379	0.415388	0.209541	0.181349	0.173002	0.095418	0.169430	0.142653	0.384883	0.173224	0.390029	0.816312	0.267612	0.438841	0.149490	0.154910	0.210746	0.152373	0.332629	0.325977	0.461879	0.282476	0.155346	0.417492	0.460516	0.381057	0.299839	0.183670	0.385808	0.236114	0.350183	0.249263
59	0.273127	0.169586	0.288841	0.471459	0.271271	0.397435	0.187266	0.072909	0.221010	0.422683	0.210995	0.197095	0.171706	0.097216	0.170780	0.147127	0.365246	0.152024	0.355168	0.783829	0.267675	0.462314	0.169445	0.157349	0.229318	0.201027	0.327200	0.391561	0.418283	0.263206	0.151820	0.324532	0.451200	0.375921	0.269819	0.205156	0.382844	0.242190	0.376931	0.256145
60	0.251089	0.132552	0.326410	0.505553	0.285361	0.433466	0.219398	0.089080	0.236707	0.440510	0.195492	0.199692	0.169340	0.104625	0.172416	0.133046	0.360752	0.161681	0.309588	0.702575	0.360268	0.491903	0.197668	0.178178	0.239327	0.237407	0.329160	0.401440	0.350478	0.239789	0.164293	0.154575	0.380035	0.344664	0.228167	0.205900	0.327799	0.292513	0.356884	0.243731
61	0.287883	0.128955	0.387048	0.554573	0.290097	0.435434	0.243819	0.099067	0.292187	0.486337	0.193397	0.197058	0.169308	0.121142	0.183805	0.129501	0.359321	0.167319	0.322670	0.664325	0.374065	0.499511	0.197832	0.186357	0.254286	0.248134	0.328080	0.399992	0.412584	0.301126	0.214231	0.275409	0.437209	0.338084	0.303667	0.213712	0.303478	0.348656	0.350627	0.241868
62	0.305282	0.127919	0.425239	0.565600	0.283696	0.442504	0.243919	0.110598	0.295949	0.489663	0.191289	0.190586	0.165364	0.119420	0.193847	0.147138	0.367274	0.169651	0.327062	0.644268	0.392519	0.495466	0.280302	0.187646	0.291808	0.321773	0.328445	0.392423	0.433712	0.370605	0.312499	0.354158	0.518538	0.362245	0.322515	0.216912	0.305451	0.351340	0.348988	0.289452
63	0.323847	0.128556	0.444094	0.578748	0.341282	0.455380	0.238078	0.132316	0.295527	0.490546	0.190759	0.197541	0.164562	0.119471	0.198969	0.158383	0.359346	0.160955	0.305039	0.643783	0.397146	0.491790	0.400106	0.194688	0.324260	0.336673	0.327203	0.381790	0.480916	0.393858	0.373673	0.364785	0.543734	0.366350	0.330578	0.250886	0.340607	0.352352	0.350933	0.308180
64	0.332369	0.136832	0.443799	0.578171	0.395800	0.490934	0.238491	0.135414	0.280228	0.435966	0.187414	0.215483	0.196676	0.208815	0.201032	0.154655	0.356153	0.156451	0.298224	0.648639	0.389911	0.517807	0.458694	0.208029	0.359779	0.374994	0.308868	0.371446	0.531161	0.429579	0.442250	0.381999	0.544642	0.403269	0.350254	0.264283	0.389933	0.366144	0.330238	0.344598
65	0.329701	0.217398	0.442590	0.559309	0.400352	0.495390	0.260105	0.140520	0.311182	0.309827	0.284056	0.413367	0.226916	0.331408	0.197601	0.154950	0.370232	0.158420	0.311125	0.658712	0.376227	0.508107	0.466559	0.210854	0.351076	0.376959	0.259241	0.385321	0.575898	0.412553	0.540929	0.430976	0.498130	0.370289	0.352071	0.262048	0.419063	0.430819	0.325826	0.433540
66	0.320727	0.266501	0.427628	0.490802	0.400620	0.504049	0.286396	0.142600	0.348652	0.312067	0.358552	0.515210	0.231270	0.360348	0.178699	0.159857	0.355143	0.146955	0.366492	0.668715	0.386420	0.500220	0.468476	0.207000	0.345730	0.379430	0.192226	0.410025	0.671364	0.446329	0.654790	0.491938	0.511003	0.373820	0.350884	0.254323	0.461664	0.496005	0.335883	0.503578
67	0.365868	0.316671	0.420722	0.504787	0.395558	0.512472	0.292028	0.152136	0.352195	0.330907	0.431487	0.557512	0.312094	0.477387	0.194793	0.167504	0.283425	0.116640	0.370098	0.492979	0.388482	0.493622	0.479266	0.196439	0.347677	0.377536	0.146522	0.420538	0.685480	0.450441	0.675171	0.531085	0.516787	0.372623	0.354084	0.237060	0.465823	0.505022	0.332503	0.517326
68	0.402096	0.422017	0.403689	0.544576	0.364206	0.480717	0.300995	0.185097	0.355309	0.337542	0.475585	0.565313	0.325226	0.516106	0.238193	0.196932	0.266255	0.110520	0.401205	0.385171	0.387987	0.477373	0.499250	0.195281	0.354266	0.385885	0.142715	0.407996	0.650797	0.440270	0.658116	0.476700	0.514498	0.366681	0.358441	0.242294	0.412886	0.494892	0.313500	0.510414
69	0.381896	0.433836	0.353317	0.495280	0.349608	0.390681	0.303135	0.211018	0.417637	0.350327	0.500168	0.564245	0.350626	0.525953	0.269304	0.196065	0.272406	0.099272	0.419459	0.506963	0.391947	0.475436	0.509416	0.189192	0.352621	0.402243	0.143109	0.361500	0.616520	0.390864	0.608688	0.420026	0.489955	0.364827	0.342182	0.291012	0.411205	0.472940	0.351271	0.593524
70	0.395435	0.442776	0.325863	0.426184	0.353691	0.375441	0.302116	0.221547	0.401749	0.289460	0.553287	0.605329	0.380748	0.536728	0.284159	0.189169	0.315366	0.096126	0.413656	0.589254	0.395621	0.463812	0.511855	0.172072	0.347355	0.397404	0.148930	0.303987	0.583466	0.359076	0.573094	0.415754	0.453375	0.360036	0.302818	0.403737	0.409826	0.472004	0.361132	0.693660
71	0.388274	0.442938	0.287533	0.379448	0.341921	0.345526	0.284181	0.218373	0.423878	0.264601	0.720750	0.727850	0.411627	0.539636	0.290930	0.194717	0.398447	0.123564	0.403818	0.588749	0.398026	0.400841	0.514227	0.169058	0.353816	0.368927	0.248608	0.428121	0.540693	0.311561	0.520423	0.405147	0.530145	0.353494	0.309587	0.517163	0.416512	0.444936	0.370857	0.741291
72	0.375322	0.442659	0.307715	0.418648	0.343071	0.332108	0.262111	0.212030	0.531364	0.287427	0.829069	0.861192	0.453346	0.541014	0.343067	0.197696	0.408432	0.128617	0.398449	0.590280	0.400035	0.318359	0.511429	0.169695	0.363647	0.370918	0.324265	0.503384	0.490346	0.303026	0.424468	0.353843	0.528236	0.298854	0.295312	0.511066	0.420582	0.395379	0.374432	0.756098
73	0.358377	0.427412	0.319853	0.419037	0.398804	0.364261	0.246210	0.209756	0.605165	0.309447	0.886690	0.940580	0.534473	0.550032	0.452459	0.301335	0.445057	0.143540	0.376720	0.676576	0.349610	0.297284	0.501501	0.162834	0.335438	0.320024	0.361118	0.515138	0.345097	0.260969	0.208931	0.263028	0.624535	0.371358	0.382872	0.594620	0.421162	0.388842	0.383594	0.740722
74	0.365855	0.379801	0.357842	0.419609	0.412141	0.379210	0.237939	0.203595	0.637382	0.318002	0.902132	0.960727	0.593567	0.553366	0.489752	0.374647	0.518863	0.177663	0.350074	0.728465	0.286614	0.244317	0.503499	0.159227	0.337881	0.331249	0.380172	0.515871	0.306953	0.290971	0.093807	0.178000	0.657272	0.380989	0.491270	0.740621	0.431545	0.391557	0.382558	0.737505
75	0.398775	0.373108	0.391591	0.414544	0.346683	0.333585	0.248463	0.196794	0.611993	0.316020	0.872474	0.908889	0.601332	0.503303	0.494873	0.392172	0.516145	0.178391	0.296361	0.713823	0.271179	0.243294	0.495062	0.174107	0.359957	0.312013	0.407636	0.518437	0.297970	0.287986	0.109188	0.134718	0.690146	0.355501	0.519223	0.792646	0.395543	0.376948	0.381394	0.807238
76	0.338625	0.225199	0.401561	0.343214	0.318902	0.315784	0.248664	0.276602	0.597129	0.280856	0.855236	0.865059	0.599773	0.453989	0.493698	0.392270	0.540027	0.198652	0.289167	0.721707	0.249681	0.241809	0.420799	0.184436	0.436157	0.315824	0.425613	0.510701	0.267256	0.259309	0.110252	0.129945	0.700499	0.352841	0.518901	0.804808	0.393375	0.329845	0.395241	0.867899
77	0.408741	0.216185	0.438452	0.323590	0.311042	0.297457	0.213761	0.402284	0.595403	0.256779	0.840818	0.861376	0.578603	0.414951	0.487859	0.390417	0.606675	0.247380	0.265063	0.761336	0.248010	0.196133	0.320468	0.171703	0.456141	0.306917	0.486541	0.547770	0.242922	0.251522	0.135394	0.126326	0.701317	0.352831	0.504051	0.797105	0.385409	0.205355	0.417192	0.895415
78	0.436310	0.204023	0.484870	0.380114	0.307262	0.295119	0.189306	0.445961	0.588527	0.238852	0.821176	0.898540	0.567565	0.337900	0.463696	0.378867	0.616708	0.252318	0.273672	0.705662	0.237999	0.163810	0.279144	0.164079	0.536332	0.316923	0.656413	0.665151	0.218590	0.251430	0.144181	0.104453	0.695604	0.351065	0.477293	0.769239	0.409973	0.151566	0.457179	0.912311
79	0.544725	0.353998	0.510834	0.409269	0.307439	0.271520	0.185069	0.445457	0.586833	0.233240	0.821159	0.936163	0.562778	0.320278	0.440177	0.368177	0.687094	0.271275	0.429970	0.697654	0.203341	0.181348	0.275952	0.165535	0.589172	0.320350	0.730786	0.726736	0.281545	0.254652	0.193069	0.150535	0.613481	0.321220	0.470797	0.693375	0.427790	0.164726	0.543672	0.921929
80	0.583621	0.442183	0.509258	0.379239	0.383814	0.272118	0.238381	0.433134	0.587785	0.233042	0.752288	0.908498	0.555613	0.308332	0.427395	0.370826	0.689259	0.277516	0.443769	0.700126	0.190984	0.181560	0.260211	0.167515	0.609843	0.303539	0.751621	0.753765	0.297940	0.262308	0.206315	0.155188	0.531482	0.294665	0.479435	0.655681	0.436116	0.215517	0.536650	0.908410
81	0.603850	0.486465	0.511742	0.373149	0.417987	0.284262	0.298384	0.424148	0.531465	0.218598	0.591756	0.815061	0.537566	0.295995	0.417571	0.372524	0.666250	0.273449	0.474899	0.702020	0.191379	0.186765	0.220557	0.173729	0.617667	0.294073	0.753870	0.757823	0.359078	0.223880	0.270386	0.205660	0.498626	0.260248	0.484960	0.647737	0.526049	0.258825	0.519648	0.935595
82	0.605358	0.501384	0.495581	0.374990	0.430017	0.286620	0.299082	0.451815	0.429670	0.190369	0.470169	0.711358	0.531149	0.297745	0.407137	0.373573	0.668740	0.273560	0.506193	0.658463	0.187906	0.188541	0.173989	0.202015	0.613993	0.292422	0.738479	0.698255	0.341488	0.170860	0.289859	0.252670	0.380928	0.089408	0.395601	0.507737	0.579217	0.257998	0.521264	0.975000
83	0.599604	0.510946	0.488156	0.390720	0.488322	0.304126	0.312486	0.522326	0.340792	0.170848	0.378306	0.667724	0.465040	0.287637	0.295912	0.338613	0.686433	0.274353	0.570695	0.680797	0.168226	0.189948	0.162649	0.206534	0.603975	0.286888	0.710356	0.632844	0.343135	0.162058	0.290632	0.263635	0.292182	0.092502	0.304549	0.318811	0.593247	0.250199	0.522469	0.985829
84	0.612913	0.524684	0.499837	0.394980	0.510234	0.291915	0.321711	0.567782	0.308176	0.162943	0.409329	0.661619	0.373257	0.267595	0.150527	0.238526	0.722758	0.278550	0.708306	0.741920	0.128233	0.190695	0.165246	0.205140	0.599717	0.283311	0.694211	0.619136	0.346366	0.180571	0.279216	0.260009	0.207427	0.127100	0.288523	0.253278	0.601122	0.255296	0.515764	0.988709
85	0.585399	0.514926	0.521153	0.395013	0.484353	0.251870	0.326853	0.583120	0.341680	0.167782	0.532321	0.674142	0.306989	0.254274	0.084091	0.190420	0.716663	0.274448	0.733923	0.748792	0.091623	0.206722	0.187851	0.211881	0.592140	0.249659	0.684656	0.625515	0.358187	0.210016	0.278190	0.290403	0.202377	0.127608	0.331823	0.286319	0.582810	0.254665	0.512604	0.986598
86	0.566954	0.507010	0.476581	0.343467	0.485707	0.241714	0.327364	0.589196	0.393939	0.189895	0.541830	0.670748	0.289188	0.251085	0.080979	0.181356	0.663987	0.235645	0.743116	0.710459	0.143759	0.215543	0.264231	0.209234	0.566526	0.221141	0.675139	0.635877	0.346452	0.239931	0.282793	0.408486	0.203494	0.132741	0.353087	0.286286	0.570711	0.258976	0.510895	0.939144
87	0.486854	0.475131	0.428459	0.297421	0.500546	0.248854	0.315084	0.586519	0.406410	0.211519	0.544099	0.653222	0.277388	0.245538	0.084222	0.180881	0.640779	0.216234	0.773327	0.700770	0.178597	0.228490	0.300756	0.216089	0.492204	0.169199	0.654041	0.635124	0.332908	0.309954	0.283618	0.425117	0.251206	0.168631	0.359526	0.285618	0.560692	0.275563	0.495266	0.838322
88	0.431868	0.366621	0.455748	0.322801	0.512097	0.261203	0.314420	0.517782	0.366451	0.206237	0.576857	0.668058	0.241157	0.203054	0.088703	0.181787	0.577783	0.203355	0.790144	0.679601	0.186192	0.247786	0.292452	0.277439	0.479077	0.160693	0.632324	0.612400	0.341871	0.367794	0.257217	0.402041	0.318455	0.207778	0.355245	0.313776	0.531580	0.269700	0.472881	0.759089
89	0.437104	0.343851	0.490439	0.379933	0.513772	0.258148	0.312654	0.450423	0.410601	0.207594	0.645734	0.794309	0.231747	0.162315	0.091221	0.182764	0.513350	0.175944	0.825026	0.698812	0.225862	0.317059	0.302288	0.363772	0.393414	0.140899	0.470125	0.478493	0.356179	0.403808	0.246275	0.400161	0.316925	0.211393	0.395073	0.312650	0.490680	0.262291	0.428576	0.711042
90	0.420383	0.268145	0.494925	0.395740	0.513746	0.240009	0.306633	0.428149	0.572619	0.239872	0.702768	0.936647	0.200097	0.146455	0.090015	0.181958	0.545688	0.176549	0.836884	0.791505	0.261704	0.359174	0.320536	0.418005	0.266538	0.108418	0.314070	0.345833	0.399318	0.406655	0.340500	0.478666	0.368019	0.227122	0.384123	0.307865	0.469746	0.262123	0.314253	0.692535
91	0.415058	0.263061	0.531857	0.449031	0.488699	0.233791	0.284957	0.427799	0.624865	0.247764	0.709551	0.962785	0.176048	0.137995	0.090415	0.174245	0.558449	0.180713	0.841689	0.806139	0.315454	0.391393	0.338295	0.438837	0.188636	0.139528	0.242855	0.271396	0.406131	0.401317	0.376581	0.497519	0.440325	0.246193	0.388188	0.326601	0.462327	0.230961	0.238549	0.680946
92	0.372555	0.222783	0.552460	0.442433	0.424815	0.217111	0.203909	0.429317	0.634105	0.264664	0.710266	0.948838	0.139386	0.114486	0.088662	0.165852	0.525568	0.166073	0.910251	0.898743	0.337357	0.391023	0.349321	0.440015	0.152704	0.197256	0.226105	0.231098	0.397669	0.395602	0.381055	0.485449	0.470287	0.243624	0.387282	0.395913	0.363228	0.164063	0.211600	0.549138
93	0.358818	0.217309	0.526799	0.432006	0.413907	0.215339	0.170139	0.424994	0.634687	0.276125	0.705836	0.957894	0.129705	0.111611	0.084037	0.159023	0.483580	0.162194	0.905478	0.934952	0.352808	0.456268	0.354749	0.439712	0.219897	0.210300	0.262587	0.308310	0.356165	0.373917	0.355851	0.375901	0.471081	0.234624	0.366895	0.373957	0.235695	0.158347	0.146305	0.346656
94	0.382009	0.227512	0.505193	0.433450	0.365444	0.198775	0.145568	0.360070	0.636004	0.284117	0.639930	0.945292	0.100884	0.106053	0.074873	0.140389	0.501422	0.168777	0.862433	0.935504	0.368198	0.530130	0.355843	0.439456	0.277217	0.245924	0.286813	0.448497	0.369253	0.304521	0.344017	0.354404	0.471897	0.235395	0.334787	0.364411	0.156324	0.159003	0.095662	0.215624
95	0.372435	0.226446	0.541250	0.433412	0.282605	0.169122	0.111582	0.258415	0.667433	0.301419	0.570020	0.950841	0.082508	0.102918	0.064365	0.094850	0.526826	0.189208	0.898985	0.942359	0.370155	0.562184	0.356421	0.431831	0.304339	0.281638	0.296037	0.484798	0.300445	0.226078	0.322144	0.356632	0.475302	0.267287	0.371329	0.373051	0.110633	0.167923	0.065537	0.174952
96	0.390981	0.208370	0.572135	0.450733	0.228873	0.154719	0.099767	0.186681	0.671382	0.296499	0.589237	0.950655	0.087545	0.098612	0.056680	0.072773	0.628650	0.233408	1.071610	1.056620	0.370114	0.573350	0.353025	0.428266	0.313457	0.295329	0.310245	0.490547	0.262026	0.143777	0.307092	0.329320	0.421536	0.266610	0.371774	0.352372	0.103302	0.185272	0.045808	0.172017
97	0.378104	0.207123	0.543801	0.427317	0.214867	0.154439	0.087553	0.155883	0.666233	0.286469	0.562135	0.940567	0.082618	0.094106	0.052288	0.081149	0.687687	0.254071	1.140090	1.175484	0.370514	0.574818	0.346535	0.432275	0.309650	0.298383	0.337117	0.490042	0.177942	0.134430	0.203223	0.178837	0.396960	0.248705	0.359168	0.337525	0.134926	0.188508	0.057027	0.175100
98	0.379988	0.234374	0.526295	0.390621	0.206883	0.215890	0.086386	0.134488	0.658781	0.285141	0.521270	0.859557	0.069937	0.073838	0.052804	0.081566	0.682839	0.258512	1.084921	1.163682	0.372009	0.568434	0.338913	0.435326	0.316453	0.343538	0.346661	0.482399	0.148213	0.120926	0.137963	0.108236	0.390500	0.260690	0.330664	0.330714	0.149591	0.180101	0.072942	0.170814
99	0.387740	0.245027	0.516321	0.359273	0.295808	0.502187	0.085487	0.125688	0.564342	0.269669	0.439210	0.685719	0.062029	0.051349	0.055962	0.091205	0.657775	0.254639	1.057506	1.071410	0.405076	0.566666	0.306684	0.439435	0.330419	0.353133	0.372713	0.533998	0.149931	0.087039	0.119441	0.097042	0.367975	0.278371	0.400422	0.376072	0.151786	0.172495	0.081881	0.163030
100	0.384282	0.246764	0.474611	0.293342	0.306755	0.560779	0.088741	0.128463	0.429202	0.248904	0.383360	0.520455	0.062061	0.050411	0.055656	0.085157	0.686912	0.267170	1.085110	1.063293	0.399043	0.559444	0.237070	0.442345	0.352367	0.353763	0.426778	0.650066	0.202638	0.241090	0.121628	0.105042	0.325938	0.302007	0.404673	0.401836	0.156073	0.169499	0.085700	0.164512
101	0.373558	0.239408	0.468216	0.291762	0.499974	0.669112	0.104367	0.152037	0.394303	0.233897	0.413782	0.554161	0.055558	0.048643	0.051748	0.081049	0.758721	0.293835	1.103252	1.041149	0.396692	0.557876	0.220897	0.422753	0.393268	0.359874	0.458924	0.718164	0.186912	0.278365	0.118485	0.125703	0.301225	0.302473	0.406975	0.348224	0.170573	0.161880	0.112211	0.203369
