	191_P_T3_sh_R_D_A_01.c3d	191_P_T3_sh_R_D_A_01.c3d	191_P_T3_sh_R_D_A_01.c3d	191_P_T3_sh_R_D_A_01.c3d	191_P_T3_sh_R_D_A_01.c3d	191_P_T3_sh_R_D_A_01.c3d	191_P_T3_sh_R_D_A_01.c3d	191_P_T3_sh_R_D_A_01.c3d	191_P_T3_sh_R_D_A_02.c3d	191_P_T3_sh_R_D_A_02.c3d	191_P_T3_sh_R_D_A_02.c3d	191_P_T3_sh_R_D_A_02.c3d	191_P_T3_sh_R_D_A_02.c3d	191_P_T3_sh_R_D_A_02.c3d	191_P_T3_sh_R_D_A_02.c3d	191_P_T3_sh_R_D_A_02.c3d	191_P_T3_sh_R_D_A_04.c3d	191_P_T3_sh_R_D_A_04.c3d	191_P_T3_sh_R_D_A_04.c3d	191_P_T3_sh_R_D_A_04.c3d	191_P_T3_sh_R_D_A_04.c3d	191_P_T3_sh_R_D_A_04.c3d	191_P_T3_sh_R_D_A_04.c3d	191_P_T3_sh_R_D_A_04.c3d	191_P_T3_sh_R_D_A_05.c3d	191_P_T3_sh_R_D_A_05.c3d	191_P_T3_sh_R_D_A_05.c3d	191_P_T3_sh_R_D_A_05.c3d	191_P_T3_sh_R_D_A_05.c3d	191_P_T3_sh_R_D_A_05.c3d	191_P_T3_sh_R_D_A_05.c3d	191_P_T3_sh_R_D_A_05.c3d	191_P_T3_sh_R_D_A_06.c3d	191_P_T3_sh_R_D_A_06.c3d	191_P_T3_sh_R_D_A_06.c3d	191_P_T3_sh_R_D_A_06.c3d	191_P_T3_sh_R_D_A_06.c3d	191_P_T3_sh_R_D_A_06.c3d	191_P_T3_sh_R_D_A_06.c3d	191_P_T3_sh_R_D_A_06.c3d	191_P_T3_sh_R_D_A_07.c3d	191_P_T3_sh_R_D_A_07.c3d	191_P_T3_sh_R_D_A_07.c3d	191_P_T3_sh_R_D_A_07.c3d	191_P_T3_sh_R_D_A_07.c3d	191_P_T3_sh_R_D_A_07.c3d	191_P_T3_sh_R_D_A_07.c3d	191_P_T3_sh_R_D_A_07.c3d	191_P_T3_sh_R_D_A_08.c3d	191_P_T3_sh_R_D_A_08.c3d	191_P_T3_sh_R_D_A_08.c3d	191_P_T3_sh_R_D_A_08.c3d	191_P_T3_sh_R_D_A_08.c3d	191_P_T3_sh_R_D_A_08.c3d	191_P_T3_sh_R_D_A_08.c3d	191_P_T3_sh_R_D_A_08.c3d	191_P_T3_sh_R_D_A_09.c3d	191_P_T3_sh_R_D_A_09.c3d	191_P_T3_sh_R_D_A_09.c3d	191_P_T3_sh_R_D_A_09.c3d	191_P_T3_sh_R_D_A_09.c3d	191_P_T3_sh_R_D_A_09.c3d	191_P_T3_sh_R_D_A_09.c3d	191_P_T3_sh_R_D_A_09.c3d	191_P_T3_sh_R_D_A_10.c3d	191_P_T3_sh_R_D_A_10.c3d	191_P_T3_sh_R_D_A_10.c3d	191_P_T3_sh_R_D_A_10.c3d	191_P_T3_sh_R_D_A_10.c3d	191_P_T3_sh_R_D_A_10.c3d	191_P_T3_sh_R_D_A_10.c3d	191_P_T3_sh_R_D_A_10.c3d
	Biceps femoris_lat	Semitendinosus_lat	Vastus lateralis_lat	Vastus medialis_lat	Biceps femoris_med	Semitendinosus_med	Vastus lateralis_med	Vastus medialis_med	Biceps femoris_lat	Semitendinosus_lat	Vastus lateralis_lat	Vastus medialis_lat	Biceps femoris_med	Semitendinosus_med	Vastus lateralis_med	Vastus medialis_med	Biceps femoris_lat	Semitendinosus_lat	Vastus lateralis_lat	Vastus medialis_lat	Biceps femoris_med	Semitendinosus_med	Vastus lateralis_med	Vastus medialis_med	Biceps femoris_lat	Semitendinosus_lat	Vastus lateralis_lat	Vastus medialis_lat	Biceps femoris_med	Semitendinosus_med	Vastus lateralis_med	Vastus medialis_med	Biceps femoris_lat	Semitendinosus_lat	Vastus lateralis_lat	Vastus medialis_lat	Biceps femoris_med	Semitendinosus_med	Vastus lateralis_med	Vastus medialis_med	Biceps femoris_lat	Semitendinosus_lat	Vastus lateralis_lat	Vastus medialis_lat	Biceps femoris_med	Semitendinosus_med	Vastus lateralis_med	Vastus medialis_med	Biceps femoris_lat	Semitendinosus_lat	Vastus lateralis_lat	Vastus medialis_lat	Biceps femoris_med	Semitendinosus_med	Vastus lateralis_med	Vastus medialis_med	Biceps femoris_lat	Semitendinosus_lat	Vastus lateralis_lat	Vastus medialis_lat	Biceps femoris_med	Semitendinosus_med	Vastus lateralis_med	Vastus medialis_med	Biceps femoris_lat	Semitendinosus_lat	Vastus lateralis_lat	Vastus medialis_lat	Biceps femoris_med	Semitendinosus_med	Vastus lateralis_med	Vastus medialis_med
	P2D	P2D	P2D	P2D	P2D	P2D	P2D	P2D	P2D	P2D	P2D	P2D	P2D	P2D	P2D	P2D	P2D	P2D	P2D	P2D	P2D	P2D	P2D	P2D	P2D	P2D	P2D	P2D	P2D	P2D	P2D	P2D	P2D	P2D	P2D	P2D	P2D	P2D	P2D	P2D	P2D	P2D	P2D	P2D	P2D	P2D	P2D	P2D	P2D	P2D	P2D	P2D	P2D	P2D	P2D	P2D	P2D	P2D	P2D	P2D	P2D	P2D	P2D	P2D	P2D	P2D	P2D	P2D	P2D	P2D	P2D	P2D
	EMG_lat	EMG_lat	EMG_lat	EMG_lat	EMG_med	EMG_med	EMG_med	EMG_med	EMG_lat	EMG_lat	EMG_lat	EMG_lat	EMG_med	EMG_med	EMG_med	EMG_med	EMG_lat	EMG_lat	EMG_lat	EMG_lat	EMG_med	EMG_med	EMG_med	EMG_med	EMG_lat	EMG_lat	EMG_lat	EMG_lat	EMG_med	EMG_med	EMG_med	EMG_med	EMG_lat	EMG_lat	EMG_lat	EMG_lat	EMG_med	EMG_med	EMG_med	EMG_med	EMG_lat	EMG_lat	EMG_lat	EMG_lat	EMG_med	EMG_med	EMG_med	EMG_med	EMG_lat	EMG_lat	EMG_lat	EMG_lat	EMG_med	EMG_med	EMG_med	EMG_med	EMG_lat	EMG_lat	EMG_lat	EMG_lat	EMG_med	EMG_med	EMG_med	EMG_med	EMG_lat	EMG_lat	EMG_lat	EMG_lat	EMG_med	EMG_med	EMG_med	EMG_med
ITEM	Y	Y	Y	Y	Y	Y	Y	Y	Y	Y	Y	Y	Y	Y	Y	Y	Y	Y	Y	Y	Y	Y	Y	Y	Y	Y	Y	Y	Y	Y	Y	Y	Y	Y	Y	Y	Y	Y	Y	Y	Y	Y	Y	Y	Y	Y	Y	Y	Y	Y	Y	Y	Y	Y	Y	Y	Y	Y	Y	Y	Y	Y	Y	Y	Y	Y	Y	Y	Y	Y	Y	Y
1	0.292581	0.186423	0.191778	0.301226	0.192326	0.278719	0.176702	0.205136	0.177244	0.213012	0.125710	0.200959	0.246056	0.270771	0.246454	0.184284	0.159581	0.136362	0.269390	0.227092	0.342341	0.378169	0.122224	0.217469	0.268621	0.278374	0.099337	0.235870	0.147747	0.374781	0.257784	0.288539	0.170210	0.137684	0.260131	0.241230	0.151958	0.237549	0.120264	0.187949	0.280551	0.105718	0.101215	0.120098	0.546546	0.856731	0.157214	0.091125	0.267131	0.430509	0.188098	0.100296	0.777875	0.227965	0.136362	0.053625	0.215991	0.258759	0.099469	0.241866	0.135892	0.386753	0.146075	0.327743	0.193584	0.145340	0.160519	0.434489	0.192008	0.134528	0.179131	0.230198
2	0.240085	0.195302	0.193944	0.324501	0.165695	0.270610	0.177315	0.180367	0.173028	0.212367	0.130212	0.205224	0.166305	0.275994	0.177144	0.185542	0.158702	0.116523	0.299788	0.287067	0.399204	0.434404	0.101161	0.231320	0.270241	0.277361	0.111931	0.229228	0.115041	0.361461	0.257749	0.265879	0.118079	0.119489	0.261720	0.255180	0.101650	0.324552	0.162659	0.214233	0.249305	0.145460	0.085679	0.090653	0.538991	0.859309	0.157182	0.180276	0.232329	0.420093	0.152067	0.112686	0.620380	0.181185	0.133084	0.067603	0.207508	0.276509	0.078373	0.242830	0.125343	0.358508	0.137040	0.309827	0.124013	0.139095	0.189208	0.414118	0.137910	0.098155	0.176339	0.230534
3	0.189633	0.202668	0.170541	0.315311	0.156241	0.254894	0.162722	0.128280	0.206036	0.261052	0.148197	0.219064	0.128171	0.306270	0.169165	0.176172	0.153737	0.107779	0.311817	0.337309	0.452603	0.442162	0.106079	0.235119	0.275271	0.290869	0.152523	0.263260	0.106889	0.237062	0.240552	0.225115	0.097159	0.099377	0.299672	0.286633	0.175968	0.365862	0.239624	0.203198	0.194347	0.167374	0.056111	0.075996	0.537368	0.847652	0.173205	0.245720	0.222134	0.450595	0.151670	0.113466	0.352178	0.177253	0.132083	0.094295	0.308036	0.385251	0.081096	0.285040	0.117481	0.223939	0.135937	0.245391	0.124139	0.119269	0.194872	0.413623	0.150191	0.118288	0.177037	0.230290
4	0.192990	0.218206	0.150811	0.318044	0.154763	0.224927	0.118783	0.147106	0.194016	0.366472	0.143191	0.218412	0.175032	0.314240	0.200149	0.171571	0.146282	0.101611	0.319343	0.358614	0.449482	0.502834	0.097057	0.219935	0.273471	0.295853	0.233145	0.297323	0.108813	0.179529	0.190087	0.242984	0.080528	0.072660	0.323823	0.311984	0.207774	0.528333	0.244217	0.188203	0.203841	0.164483	0.065504	0.259482	0.507925	0.755510	0.199465	0.251334	0.217406	0.454666	0.150564	0.117720	0.234364	0.156540	0.129559	0.109362	0.369294	0.414495	0.095171	0.332503	0.117184	0.211635	0.153900	0.240370	0.103264	0.120375	0.216599	0.294398	0.156050	0.119983	0.209573	0.241418
5	0.193188	0.219207	0.154418	0.323445	0.137605	0.220395	0.144858	0.185572	0.192846	0.380160	0.134842	0.225575	0.190044	0.293702	0.321502	0.197233	0.131245	0.084075	0.305033	0.363563	0.446610	0.673082	0.097128	0.245601	0.261104	0.277286	0.246784	0.337098	0.120711	0.213208	0.184060	0.200800	0.050340	0.059478	0.308663	0.391469	0.239965	0.544258	0.238183	0.185919	0.193774	0.161368	0.070304	0.319096	0.468106	0.630374	0.254336	0.265607	0.154698	0.442739	0.176230	0.147626	0.218425	0.153433	0.140849	0.111658	0.370850	0.423843	0.108078	0.330626	0.115617	0.209851	0.291104	0.256556	0.092919	0.120943	0.200008	0.350860	0.186422	0.112938	0.276415	0.210529
6	0.191252	0.208108	0.136487	0.336807	0.129173	0.221225	0.156814	0.185265	0.191629	0.427957	0.255094	0.474470	0.184792	0.305761	0.544070	0.200259	0.111452	0.092931	0.340180	0.386476	0.430204	0.687352	0.097429	0.256396	0.256487	0.230973	0.256971	0.382557	0.123131	0.217796	0.200491	0.143320	0.053670	0.085012	0.358626	0.460108	0.240590	0.545480	0.281155	0.183322	0.189297	0.167827	0.170247	0.367589	0.446237	0.605564	0.292397	0.265866	0.149833	0.409936	0.185350	0.182702	0.217089	0.140521	0.138876	0.113895	0.373859	0.436117	0.105718	0.346530	0.131359	0.210184	0.306769	0.246191	0.120261	0.191959	0.205419	0.459221	0.200438	0.111645	0.278996	0.203004
7	0.187889	0.201128	0.121692	0.361598	0.128864	0.252959	0.187355	0.185291	0.197925	0.442739	0.372876	0.525442	0.180390	0.350830	0.592252	0.186247	0.101445	0.121283	0.439512	0.418670	0.425125	0.776726	0.094510	0.266675	0.248116	0.219500	0.314369	0.389086	0.112939	0.217838	0.187883	0.148617	0.066981	0.112529	0.334446	0.604176	0.236012	0.532389	0.298905	0.150431	0.193740	0.168905	0.205729	0.394859	0.290384	0.466065	0.303567	0.283740	0.153453	0.343032	0.204366	0.201164	0.199322	0.131071	0.144014	0.124488	0.362224	0.438801	0.111323	0.340407	0.148224	0.209104	0.370353	0.173304	0.140050	0.252594	0.204447	0.458741	0.204174	0.125173	0.292163	0.221172
8	0.184028	0.210834	0.120695	0.363940	0.086430	0.261084	0.190629	0.209985	0.202476	0.436054	0.392905	0.546024	0.176109	0.347331	0.687263	0.232101	0.125107	0.167728	0.419156	0.430551	0.425200	0.809408	0.074109	0.251774	0.240995	0.215317	0.335806	0.434393	0.109687	0.201222	0.177164	0.153476	0.087010	0.142079	0.330590	0.632798	0.196542	0.512196	0.260046	0.167516	0.176499	0.164594	0.221882	0.401767	0.131258	0.317619	0.310939	0.298435	0.141575	0.248663	0.231257	0.231234	0.186168	0.122710	0.167601	0.131248	0.338294	0.411806	0.136974	0.318510	0.146146	0.237866	0.418341	0.171929	0.143217	0.275184	0.204475	0.523933	0.199349	0.137495	0.273550	0.207400
9	0.181434	0.208673	0.112396	0.384237	0.066308	0.249520	0.198964	0.260053	0.210683	0.435011	0.438251	0.619889	0.187184	0.343903	0.723542	0.239249	0.186571	0.219740	0.421733	0.433973	0.406289	0.787291	0.079988	0.198334	0.190372	0.208175	0.331793	0.516534	0.126534	0.186544	0.170858	0.154560	0.090054	0.143088	0.308929	0.617750	0.178296	0.279034	0.229028	0.178436	0.160374	0.123990	0.281908	0.434296	0.121736	0.217565	0.308800	0.299425	0.131647	0.211240	0.266265	0.316451	0.171404	0.112799	0.166158	0.135475	0.332563	0.371460	0.166421	0.302182	0.162046	0.227742	0.430081	0.210905	0.139877	0.274987	0.204348	0.547800	0.216539	0.137112	0.267880	0.199695
10	0.157922	0.203542	0.178905	0.419923	0.062036	0.259161	0.225926	0.267158	0.217288	0.426336	0.509053	0.656958	0.199972	0.309349	0.741587	0.259323	0.169741	0.223379	0.434091	0.425092	0.354213	0.760492	0.076527	0.186262	0.194241	0.216830	0.325812	0.562077	0.131519	0.204024	0.161914	0.178650	0.096222	0.146461	0.350574	0.707432	0.100183	0.380698	0.222213	0.175789	0.157408	0.096293	0.341176	0.438659	0.120252	0.153945	0.306767	0.309433	0.112867	0.156428	0.265345	0.358565	0.154655	0.110468	0.171441	0.143186	0.331866	0.355463	0.169695	0.370779	0.184203	0.238310	0.432930	0.239979	0.133978	0.266749	0.181287	0.546608	0.224262	0.142597	0.271404	0.209812
11	0.143861	0.208682	0.290389	0.458423	0.065963	0.364337	0.262692	0.288703	0.212107	0.424608	0.546770	0.657484	0.158220	0.301928	0.733076	0.336346	0.168634	0.223379	0.433065	0.393609	0.308559	0.754487	0.093539	0.172054	0.194119	0.203468	0.322000	0.548144	0.135090	0.205056	0.161601	0.191664	0.098603	0.159711	0.369285	0.677774	0.112105	0.436659	0.195308	0.172948	0.134325	0.095817	0.383731	0.385270	0.121403	0.147132	0.343664	0.405241	0.101493	0.212640	0.270423	0.355131	0.148975	0.110177	0.172658	0.134240	0.262772	0.252060	0.197915	0.413120	0.180422	0.265840	0.430239	0.246027	0.130287	0.261940	0.174710	0.484854	0.227718	0.175739	0.274305	0.214050
12	0.147504	0.225273	0.326893	0.456028	0.083799	0.369995	0.269321	0.302645	0.166925	0.353141	0.544441	0.661685	0.156942	0.325080	0.604325	0.359045	0.172291	0.224873	0.428015	0.377831	0.304689	0.660223	0.096871	0.165915	0.175683	0.188512	0.286429	0.529067	0.146057	0.206990	0.163711	0.207414	0.109488	0.156690	0.358699	0.657693	0.156956	0.460298	0.089227	0.159579	0.114570	0.098704	0.387755	0.351984	0.098730	0.151766	0.353768	0.444222	0.100177	0.322761	0.293415	0.356009	0.158234	0.112727	0.192056	0.149842	0.122953	0.173474	0.217838	0.373282	0.187871	0.274822	0.429973	0.244065	0.090572	0.224281	0.177121	0.355334	0.218774	0.181490	0.275540	0.232181
13	0.148143	0.243737	0.331311	0.489801	0.093644	0.401004	0.291119	0.290354	0.164503	0.259180	0.545206	0.667506	0.159422	0.387453	0.521753	0.348478	0.181895	0.230403	0.422430	0.379268	0.301361	0.536667	0.098925	0.124927	0.171071	0.194626	0.270867	0.526048	0.146144	0.203986	0.169410	0.245140	0.107189	0.178135	0.341899	0.552911	0.161542	0.521464	0.131103	0.223870	0.101783	0.090253	0.358607	0.308061	0.080332	0.157285	0.374763	0.451894	0.101012	0.327023	0.322809	0.408158	0.146441	0.117241	0.194283	0.185015	0.114849	0.148212	0.207259	0.371126	0.187042	0.289175	0.387260	0.223052	0.044260	0.262462	0.176807	0.336533	0.209844	0.234346	0.242008	0.245977
14	0.152233	0.228225	0.364691	0.542821	0.127606	0.414997	0.278139	0.346497	0.169216	0.249965	0.544833	0.649349	0.153283	0.747765	0.417024	0.371173	0.198125	0.231246	0.401832	0.354140	0.224034	0.467238	0.094112	0.116790	0.171044	0.258804	0.270921	0.486073	0.147056	0.173448	0.162700	0.270240	0.092938	0.190775	0.341261	0.498278	0.149200	0.514254	0.128110	0.216150	0.089317	0.080546	0.342637	0.271288	0.080305	0.225028	0.353450	0.528282	0.083703	0.372831	0.317436	0.416289	0.164621	0.148994	0.198830	0.221201	0.129178	0.155873	0.214936	0.387569	0.180460	0.291531	0.316817	0.196506	0.061076	0.434067	0.139212	0.238619	0.185168	0.456004	0.160121	0.252257
15	0.173722	0.226333	0.390392	0.605686	0.186051	0.533623	0.307706	0.446615	0.173361	0.130857	0.485601	0.472347	0.235638	0.863982	0.273483	0.423116	0.222313	0.232854	0.274354	0.290321	0.221692	0.313131	0.110668	0.104884	0.192254	0.269469	0.230183	0.480507	0.138411	0.143816	0.125143	0.280352	0.120380	0.198356	0.339912	0.482623	0.142506	0.479366	0.133710	0.247346	0.085966	0.110712	0.329614	0.262105	0.081447	0.233495	0.344803	0.675890	0.100375	0.446543	0.313144	0.416993	0.176875	0.185640	0.182514	0.218198	0.150015	0.259198	0.222983	0.446235	0.162619	0.350515	0.295224	0.196886	0.092357	0.448323	0.133197	0.199315	0.186954	0.541410	0.149923	0.270551
16	0.182162	0.253306	0.410713	0.668150	0.190131	0.596873	0.355188	0.480643	0.158960	0.104043	0.445110	0.454104	0.236510	1.101304	0.219210	0.429690	0.245452	0.236814	0.232505	0.248651	0.289545	0.337659	0.140999	0.092847	0.216265	0.281195	0.170818	0.434097	0.138231	0.144429	0.127229	0.273856	0.116101	0.198786	0.260018	0.307179	0.136476	0.375215	0.150393	0.279201	0.088981	0.120629	0.284459	0.202977	0.082122	0.235033	0.314092	0.712810	0.120482	0.589808	0.347235	0.405549	0.224117	0.193330	0.146018	0.217606	0.155422	0.336339	0.212289	0.480737	0.160349	0.425015	0.193961	0.231124	0.115691	0.550386	0.108952	0.206474	0.186431	0.615643	0.114566	0.256500
17	0.183118	0.272633	0.434988	0.689272	0.189001	0.601254	0.362208	0.475218	0.140754	0.154443	0.438804	0.406938	0.232215	1.161561	0.138227	0.421136	0.205409	0.195844	0.280040	0.310361	0.328870	0.392498	0.149174	0.085252	0.206761	0.307034	0.166153	0.328134	0.120208	0.141006	0.117890	0.283155	0.117936	0.366291	0.192126	0.241965	0.094367	0.350921	0.153374	0.285948	0.088387	0.167766	0.196924	0.191334	0.090966	0.254113	0.309368	0.715111	0.115818	0.621485	0.353440	0.413207	0.235077	0.183162	0.146615	0.206505	0.150996	0.348664	0.195802	0.482248	0.149215	0.437694	0.139984	0.422159	0.137803	0.601379	0.107987	0.212828	0.198295	0.622256	0.110452	0.254691
18	0.207854	0.272596	0.453041	0.678340	0.190347	0.600792	0.358450	0.482359	0.118335	0.231639	0.377465	0.269245	0.245004	1.166867	0.132212	0.379907	0.213777	0.190301	0.394752	0.514955	0.319898	0.422128	0.142036	0.101890	0.181496	0.351422	0.164548	0.198804	0.138712	0.154934	0.107664	0.285107	0.128466	0.379829	0.122228	0.241430	0.083324	0.252720	0.135978	0.254242	0.083765	0.174022	0.165034	0.194243	0.110638	0.263699	0.308378	0.714094	0.115470	0.594208	0.343432	0.423361	0.267065	0.200390	0.144106	0.197355	0.155705	0.366191	0.192478	0.456933	0.122948	0.440541	0.116066	0.681252	0.167464	0.603848	0.103909	0.243026	0.179858	0.627036	0.109844	0.252732
19	0.241034	0.396872	0.452749	0.664307	0.187855	0.606031	0.343296	0.524668	0.097066	0.315408	0.286800	0.205915	0.252266	1.152720	0.155092	0.492373	0.213931	0.195186	0.386917	0.607622	0.403858	0.452885	0.157043	0.146408	0.169473	0.353561	0.163658	0.181796	0.178015	0.237145	0.104644	0.298196	0.132315	0.366899	0.170931	0.194786	0.138488	0.257060	0.124296	0.229438	0.069959	0.183132	0.157312	0.214064	0.121411	0.286998	0.305290	0.682246	0.115334	0.551479	0.341759	0.527196	0.296405	0.238079	0.142701	0.236889	0.153930	0.371997	0.201816	0.399422	0.110717	0.475342	0.124227	0.690252	0.169951	0.568550	0.107434	0.270304	0.169177	0.628379	0.095621	0.245854
20	0.241005	0.527643	0.441387	0.636307	0.191849	0.565966	0.339703	0.536174	0.094787	0.331205	0.241558	0.203983	0.318324	1.120987	0.370398	0.738614	0.212210	0.197595	0.429121	0.608436	0.464488	0.478911	0.159304	0.146132	0.166861	0.406980	0.141494	0.167883	0.265753	0.350385	0.102915	0.317294	0.136405	0.347201	0.196227	0.198225	0.160197	0.281526	0.157047	0.212647	0.080488	0.204671	0.148994	0.226363	0.116649	0.288907	0.232444	0.615441	0.117529	0.556482	0.470420	0.710346	0.300566	0.267097	0.099142	0.273091	0.147823	0.438000	0.178933	0.401494	0.118116	0.685467	0.155698	0.738616	0.174677	0.459121	0.303630	0.308365	0.165390	0.622194	0.088959	0.251990
21	0.235830	0.579082	0.377940	0.614704	0.189308	0.589810	0.347086	0.545947	0.103610	0.333268	0.244910	0.165319	0.325388	0.880468	0.382371	0.740150	0.216607	0.192354	0.452755	0.671826	0.498170	0.496336	0.178446	0.136784	0.175982	0.420477	0.105877	0.100616	0.284612	0.369872	0.103151	0.333668	0.113392	0.357532	0.219668	0.237744	0.169538	0.248890	0.282113	0.210762	0.093052	0.228656	0.149290	0.249441	0.118273	0.284890	0.220106	0.620163	0.118485	0.527068	0.490834	0.724848	0.299952	0.286738	0.094725	0.273273	0.146989	0.468159	0.200423	0.398536	0.108397	0.709649	0.377047	0.783829	0.160061	0.443972	0.354369	0.318343	0.170800	0.662042	0.097591	0.257164
22	0.254130	0.611473	0.331737	0.603966	0.184148	0.585216	0.331307	0.550116	0.132964	0.374873	0.246678	0.156901	0.268649	0.838229	0.382485	0.741568	0.214681	0.221251	0.458267	0.733052	0.491653	0.502071	0.205899	0.129716	0.175443	0.432761	0.100259	0.092288	0.332972	0.369594	0.112607	0.308070	0.116394	0.474111	0.229559	0.269344	0.171411	0.241417	0.300177	0.241808	0.096714	0.271787	0.163164	0.301790	0.120985	0.285836	0.114317	0.595032	0.088495	0.422831	0.542198	0.779768	0.291910	0.279645	0.136916	0.254896	0.130684	0.461101	0.206387	0.373237	0.109304	0.708270	0.430150	0.803679	0.144030	0.344869	0.402731	0.519879	0.175685	0.652938	0.095265	0.241723
23	0.251894	0.631568	0.335393	0.586049	0.169646	0.628517	0.330986	0.517442	0.127898	0.394804	0.243590	0.155257	0.266878	0.450737	0.458994	0.834608	0.191676	0.257087	0.466908	0.746434	0.459128	0.479862	0.412528	0.130795	0.169659	0.446945	0.064665	0.123763	0.352110	0.373069	0.097687	0.302043	0.168002	0.412550	0.487483	0.520821	0.175109	0.244639	0.300721	0.269487	0.105928	0.331104	0.172556	0.338339	0.121031	0.345252	0.059487	0.469753	0.082327	0.345518	0.542278	0.861388	0.366380	0.274564	0.141448	0.284099	0.099134	0.434451	0.210977	0.312886	0.107291	0.705783	0.435058	0.805185	0.145423	0.232525	0.431965	0.535953	0.174369	0.517889	0.099003	0.215403
24	0.263441	0.638014	0.332039	0.538827	0.098682	0.542873	0.327902	0.432140	0.120658	0.394273	0.205904	0.117856	0.299952	0.415869	0.593740	0.827674	0.155170	0.270553	0.469515	0.751193	0.419584	0.397376	0.444173	0.133539	0.151621	0.501179	0.052990	0.164371	0.503896	0.416339	0.169147	0.412805	0.167398	0.443203	0.603949	0.556477	0.239048	0.216773	0.298673	0.298447	0.106777	0.327820	0.179602	0.336388	0.117620	0.381470	0.062879	0.272380	0.078774	0.399121	0.622343	0.877534	0.352014	0.268539	0.167045	0.299336	0.088048	0.386293	0.213350	0.244330	0.097760	0.669842	0.474922	0.804050	0.131773	0.243101	0.442884	0.582771	0.152505	0.454034	0.098581	0.189040
25	0.259923	0.636396	0.301010	0.465700	0.084782	0.445227	0.291861	0.389386	0.120250	0.456127	0.147734	0.087142	0.318849	0.434833	0.594850	0.828844	0.134555	0.272204	0.472252	0.742102	0.398919	0.377435	0.450878	0.135654	0.143916	0.500766	0.345621	0.174502	0.556096	0.462251	0.228014	0.486053	0.181073	0.458020	0.644081	0.540164	0.231575	0.173426	0.293942	0.295197	0.107357	0.340850	0.121643	0.300336	0.110835	0.391384	0.057192	0.213551	0.073797	0.413115	0.693562	0.932512	0.365416	0.267517	0.167935	0.305437	0.088180	0.367246	0.225034	0.240451	0.117914	0.617957	0.493889	0.794531	0.127520	0.274450	0.457677	0.621176	0.140096	0.337905	0.087109	0.219532
26	0.259983	0.636779	0.269930	0.359035	0.082989	0.402146	0.272269	0.396166	0.119148	0.493748	0.142278	0.082204	0.300011	0.507250	0.574170	0.647514	0.105806	0.269286	0.365703	0.640553	0.380868	0.321625	0.462367	0.157337	0.142984	0.466469	0.399273	0.180693	0.580086	0.505378	0.234174	0.488578	0.214516	0.457053	0.728455	0.625934	0.340186	0.159183	0.202842	0.264149	0.114871	0.387336	0.121242	0.282978	0.102333	0.372592	0.058151	0.212662	0.092630	0.426800	0.675998	0.856063	0.360583	0.249021	0.168006	0.309983	0.075453	0.386838	0.224784	0.227793	0.128117	0.604741	0.499488	0.627069	0.113915	0.250906	0.467027	0.804612	0.110474	0.355021	0.087125	0.235560
27	0.267943	0.636245	0.242688	0.268414	0.079474	0.401736	0.276448	0.401402	0.122827	0.453707	0.123487	0.079809	0.265653	0.476182	0.528917	0.623971	0.101756	0.269844	0.342495	0.514289	0.260516	0.314463	0.465275	0.176652	0.130507	0.457468	0.421093	0.221385	0.598485	0.539147	0.253551	0.492150	0.223069	0.454711	0.745366	0.684305	0.348394	0.189879	0.149708	0.258001	0.101610	0.397465	0.146022	0.281282	0.094767	0.391676	0.070386	0.226724	0.112349	0.453429	0.640114	0.739802	0.336799	0.210718	0.168223	0.274083	0.074503	0.416745	0.192023	0.244646	0.128673	0.598885	0.514368	0.534064	0.124227	0.248034	0.455280	0.948088	0.102917	0.373250	0.089748	0.237181
28	0.255378	0.640826	0.208625	0.262576	0.079037	0.399806	0.278090	0.382335	0.125315	0.413252	0.102413	0.063344	0.265306	0.467378	0.585892	0.622067	0.100821	0.271404	0.291131	0.492856	0.164616	0.304030	0.469038	0.285794	0.131577	0.408915	0.468361	0.305282	0.590222	0.529231	0.275751	0.493289	0.221221	0.385988	0.746193	0.699270	0.390458	0.187950	0.145873	0.206721	0.093963	0.379571	0.204678	0.284035	0.098281	0.379757	0.075486	0.229581	0.120739	0.456565	0.729221	0.773596	0.338497	0.175056	0.170192	0.229897	0.073102	0.361900	0.182957	0.248566	0.140015	0.431949	0.514140	0.528378	0.129088	0.220659	0.419843	0.879808	0.096598	0.368172	0.092191	0.273575
29	0.222640	0.620609	0.207201	0.265215	0.066941	0.391425	0.307647	0.357429	0.119928	0.409116	0.121952	0.095138	0.262759	0.471135	0.589796	0.621511	0.087156	0.275394	0.242556	0.426592	0.091552	0.294532	0.550390	0.298397	0.121484	0.406901	0.494194	0.308539	0.563682	0.457781	0.282438	0.504250	0.193363	0.330191	0.637863	0.553419	0.436183	0.267371	0.146472	0.156710	0.088403	0.350605	0.217813	0.255374	0.106710	0.450138	0.139304	0.195719	0.136467	0.461540	0.694399	0.685141	0.341193	0.138671	0.149549	0.231434	0.077198	0.326995	0.168939	0.251503	0.167283	0.219579	0.465918	0.476658	0.110482	0.235900	0.387082	0.864423	0.108411	0.454790	0.106346	0.293084
30	0.223197	0.523712	0.208377	0.260849	0.074688	0.347367	0.370751	0.360343	0.110763	0.412747	0.392180	0.339424	0.253961	0.481676	0.464181	0.552080	0.056350	0.264512	0.309358	0.346923	0.089443	0.468981	0.545092	0.320497	0.122308	0.360925	0.500218	0.393129	0.542262	0.425028	0.321433	0.493001	0.191736	0.277886	0.497112	0.481645	0.427046	0.356989	0.144875	0.150638	0.082006	0.290828	0.248070	0.312432	0.118391	0.540479	0.336252	0.447922	0.146296	0.382743	0.686591	0.583774	0.341457	0.117300	0.302704	0.343975	0.076060	0.436834	0.314261	0.309118	0.176488	0.267992	0.323909	0.462534	0.086547	0.221499	0.374199	0.829622	0.097328	0.408244	0.332018	0.386274
31	0.230213	0.461940	0.209911	0.223655	0.099001	0.337288	0.504882	0.388561	0.114286	0.356107	0.645299	0.595206	0.208816	0.488245	0.394815	0.548392	0.057020	0.223905	0.495911	0.496867	0.101278	0.584196	0.434751	0.391508	0.154379	0.332101	0.518378	0.465731	0.532405	0.433505	0.346311	0.488075	0.212559	0.263951	0.437986	0.480198	0.370204	0.459075	0.214551	0.261499	0.077050	0.276427	0.285167	0.346517	0.251744	0.539943	0.556297	0.732110	0.192071	0.536329	0.602449	0.523038	0.246253	0.070179	0.517566	0.431030	0.077164	0.440712	0.464074	0.419879	0.176259	0.312937	0.312256	0.468221	0.116402	0.285624	0.364812	0.814901	0.090336	0.386306	0.473832	0.463051
32	0.215135	0.441977	0.218143	0.203594	0.109962	0.257191	0.520774	0.400272	0.134114	0.348641	0.663009	0.649066	0.198178	0.475795	0.400079	0.543342	0.058282	0.165506	0.524942	0.754874	0.165641	0.619685	0.444379	0.418029	0.148933	0.275528	0.541251	0.501803	0.520581	0.434850	0.360891	0.485476	0.297287	0.282389	0.245872	0.381247	0.344036	0.503626	0.241983	0.263974	0.082346	0.261848	0.329571	0.353216	0.301663	0.554999	0.574141	0.811523	0.196580	0.530542	0.530730	0.417666	0.238988	0.068406	0.528412	0.445895	0.075599	0.441500	0.471686	0.542733	0.177323	0.418524	0.287369	0.488351	0.164018	0.335416	0.359671	0.772846	0.113946	0.390027	0.520743	0.480705
33	0.199600	0.362090	0.216458	0.212423	0.109499	0.250349	0.506081	0.421085	0.160669	0.378029	0.729436	0.660561	0.199401	0.419960	0.379130	0.485676	0.059441	0.144403	0.520966	0.818948	0.212777	0.639689	0.435906	0.419920	0.147347	0.250240	0.484363	0.497220	0.453455	0.420300	0.390706	0.422070	0.451881	0.341320	0.126260	0.204368	0.342328	0.497612	0.321003	0.275123	0.079263	0.174577	0.330822	0.453690	0.303343	0.548844	0.690668	0.836257	0.187078	0.513698	0.520690	0.408340	0.204951	0.094421	0.571823	0.507921	0.072917	0.553368	0.497267	0.596862	0.175343	0.465571	0.218876	0.485267	0.168476	0.430485	0.480538	0.733661	0.124115	0.381748	0.541761	0.486416
34	0.181962	0.380161	0.208166	0.212112	0.112766	0.296777	0.499919	0.492481	0.163650	0.259189	0.739468	0.681805	0.197803	0.446582	0.251204	0.386309	0.062015	0.148670	0.515249	0.834071	0.230753	0.650512	0.427326	0.412425	0.144658	0.232092	0.434529	0.504147	0.333046	0.358374	0.366885	0.298531	0.574517	0.323765	0.095022	0.074656	0.199753	0.492325	0.328078	0.352439	0.088121	0.194874	0.322254	0.626158	0.305033	0.545076	0.808468	0.898859	0.175343	0.489662	0.423752	0.293406	0.202644	0.119810	0.604448	0.561731	0.069742	0.592625	0.519910	0.604047	0.200702	0.514487	0.202584	0.477712	0.182592	0.437901	0.517320	0.700406	0.131436	0.383660	0.565723	0.484188
35	0.165854	0.405537	0.332873	0.316986	0.120293	0.388443	0.560714	0.523372	0.171199	0.224094	0.742165	0.800108	0.224937	0.497039	0.205879	0.307641	0.121316	0.164665	0.519957	0.904049	0.228968	0.663055	0.419750	0.381688	0.143122	0.228842	0.466441	0.536777	0.296381	0.314794	0.352135	0.312656	0.605383	0.411609	0.103147	0.132385	0.197717	0.550077	0.331149	0.379822	0.090612	0.280429	0.286256	0.676595	0.309274	0.532909	0.823761	0.970764	0.163920	0.482288	0.195194	0.185688	0.204291	0.127443	0.666075	0.566784	0.100541	0.586886	0.564670	0.654584	0.200072	0.526004	0.181968	0.430845	0.183339	0.427928	0.556308	0.741751	0.155435	0.359322	0.621087	0.525450
36	0.172757	0.405285	0.436568	0.548892	0.135603	0.438524	0.597162	0.509837	0.195526	0.240045	0.754775	0.863526	0.235517	0.503389	0.278877	0.157499	0.155501	0.200667	0.525422	0.996427	0.247424	0.713955	0.380722	0.324513	0.146363	0.318600	0.420825	0.666651	0.281637	0.216021	0.366402	0.310954	0.611200	0.418271	0.100686	0.336647	0.153492	0.649220	0.314111	0.322839	0.153130	0.289934	0.268916	0.676369	0.313322	0.524649	0.825192	0.974601	0.156280	0.482142	0.167347	0.163960	0.194177	0.124880	0.695168	0.585854	0.116389	0.583800	0.585499	0.727768	0.196888	0.547832	0.166778	0.391946	0.195086	0.424482	0.556789	0.788962	0.173957	0.366047	0.637585	0.535253
37	0.166660	0.413613	0.551480	0.745795	0.144115	0.489353	0.596532	0.479601	0.216002	0.259859	0.779412	0.923396	0.236185	0.496532	0.322697	0.173925	0.166574	0.221761	0.526739	1.043867	0.253499	0.761813	0.214470	0.344411	0.149061	0.400412	0.400382	0.703833	0.303513	0.178894	0.400067	0.332226	0.642203	0.418042	0.297541	0.420020	0.149556	0.729859	0.264010	0.287281	0.191610	0.350944	0.236638	0.634618	0.320030	0.515380	0.824390	0.971752	0.128612	0.461328	0.262322	0.190910	0.195262	0.133732	0.695542	0.571027	0.116045	0.583987	0.587026	0.805414	0.181153	0.562914	0.219242	0.373492	0.193321	0.359649	0.553517	0.775180	0.178971	0.409196	0.637731	0.526382
38	0.173434	0.420215	0.575932	0.778659	0.194013	0.523224	0.572922	0.477103	0.229889	0.272595	0.797829	0.954418	0.228904	0.481378	0.308245	0.187060	0.164568	0.263193	0.538159	1.056539	0.250868	0.688049	0.155082	0.325929	0.149180	0.402520	0.381551	0.696889	0.305254	0.174550	0.407400	0.370360	0.600236	0.409672	0.365502	0.465907	0.133665	0.728408	0.174425	0.304219	0.200571	0.441940	0.186382	0.635661	0.323398	0.413984	0.805063	0.960584	0.069358	0.114495	0.282896	0.212252	0.203928	0.162825	0.590712	0.479078	0.117672	0.554899	0.541265	0.827444	0.165022	0.672597	0.235528	0.305925	0.153134	0.307115	0.483309	0.639700	0.171853	0.302422	0.642931	0.520099
39	0.183044	0.398081	0.574246	0.791452	0.221825	0.526796	0.524612	0.471905	0.230009	0.274398	0.635868	0.874599	0.212624	0.494115	0.303833	0.255103	0.164431	0.404699	0.419211	1.006800	0.241592	0.577876	0.158263	0.305383	0.128774	0.388680	0.371451	0.635076	0.307856	0.159327	0.417997	0.471791	0.481500	0.357584	0.381738	0.474548	0.123878	0.739442	0.136487	0.286556	0.203433	0.447651	0.179143	0.689329	0.300588	0.341415	0.691257	0.783641	0.060408	0.109665	0.332620	0.251135	0.193192	0.176708	0.472937	0.434673	0.117975	0.572540	0.388662	0.779254	0.189383	0.688603	0.246253	0.267711	0.144027	0.127823	0.308516	0.405760	0.175650	0.281039	0.562521	0.438476
40	0.225123	0.378468	0.588404	0.832047	0.216504	0.520568	0.399248	0.440752	0.215261	0.273431	0.482195	0.765341	0.215641	0.478625	0.319474	0.298305	0.194996	0.482415	0.355858	0.834469	0.209465	0.599346	0.248789	0.327998	0.088605	0.367432	0.344974	0.582427	0.304056	0.121506	0.408976	0.499285	0.350252	0.347881	0.466499	0.503669	0.118221	0.700764	0.136359	0.229755	0.200792	0.441222	0.205300	0.639103	0.178036	0.213302	0.603755	0.610573	0.058618	0.113240	0.336718	0.261901	0.174573	0.177377	0.457093	0.422088	0.122971	0.572526	0.371080	0.697344	0.237388	0.645982	0.243344	0.226885	0.120301	0.091144	0.226948	0.398690	0.197141	0.285708	0.467428	0.390192
41	0.260531	0.367841	0.660711	0.855801	0.214207	0.497237	0.386359	0.420027	0.201782	0.263169	0.445530	0.754960	0.154616	0.308662	0.315627	0.289404	0.239073	0.573692	0.360288	0.713743	0.184374	0.597627	0.258514	0.320827	0.111529	0.404994	0.297338	0.581060	0.281105	0.105837	0.419697	0.569508	0.268641	0.214990	0.503360	0.500199	0.115937	0.537999	0.110407	0.290791	0.198647	0.416519	0.219090	0.482417	0.155448	0.148799	0.571502	0.582026	0.064889	0.116297	0.347954	0.292254	0.147817	0.163947	0.407759	0.349732	0.129499	0.495352	0.330412	0.643452	0.246220	0.605204	0.237736	0.216165	0.113522	0.113620	0.068404	0.321202	0.200747	0.289664	0.427549	0.407586
42	0.282780	0.357266	0.705721	0.870053	0.233431	0.501010	0.400114	0.397531	0.186483	0.226209	0.366454	0.774778	0.132732	0.277718	0.303683	0.310448	0.239314	0.604224	0.348079	0.702301	0.175716	0.567503	0.295747	0.329557	0.194413	0.426781	0.271793	0.575216	0.265280	0.119284	0.504573	0.610635	0.256185	0.167611	0.519786	0.429540	0.145375	0.362063	0.129282	0.300980	0.229282	0.372007	0.230718	0.404504	0.151804	0.150460	0.328226	0.510984	0.071407	0.118974	0.372640	0.370709	0.177499	0.202017	0.341733	0.277896	0.161605	0.430945	0.291676	0.634321	0.239039	0.593553	0.241174	0.210240	0.087266	0.105019	0.040489	0.124773	0.193776	0.297316	0.395261	0.406487
43	0.292224	0.360128	0.734090	0.877211	0.235269	0.579286	0.383714	0.325990	0.183687	0.295341	0.428279	0.747934	0.109338	0.222720	0.189637	0.319298	0.253380	0.618765	0.335829	0.629022	0.176474	0.532766	0.308279	0.384235	0.334763	0.438634	0.153637	0.565035	0.257742	0.137515	0.535557	0.647199	0.133061	0.117723	0.461842	0.315032	0.148443	0.292366	0.138200	0.329681	0.274656	0.364338	0.274302	0.402139	0.145727	0.149583	0.129790	0.371200	0.075688	0.110345	0.371666	0.395025	0.226927	0.313010	0.195489	0.256865	0.163006	0.397037	0.206479	0.578075	0.219348	0.566121	0.228901	0.174560	0.056558	0.133178	0.025273	0.088634	0.188457	0.291911	0.359549	0.382906
44	0.291771	0.333362	0.740039	0.877294	0.235577	0.551761	0.288316	0.255231	0.176875	0.328047	0.426538	0.642604	0.097049	0.219907	0.170532	0.296522	0.258310	0.626535	0.319034	0.462255	0.140850	0.343590	0.308320	0.396654	0.381895	0.415483	0.135450	0.368545	0.244993	0.143244	0.544045	0.661838	0.121043	0.115048	0.384452	0.249303	0.147642	0.276116	0.132226	0.274545	0.279794	0.301194	0.302521	0.403277	0.130299	0.141299	0.095060	0.199556	0.075211	0.108697	0.334673	0.382277	0.238395	0.331831	0.139576	0.263242	0.241913	0.408152	0.116363	0.474249	0.250958	0.564874	0.217138	0.177552	0.065738	0.198063	0.102739	0.119709	0.172806	0.292600	0.249885	0.322467
45	0.290757	0.296651	0.727720	0.881390	0.228414	0.538469	0.189465	0.226869	0.180247	0.341601	0.437737	0.561427	0.096427	0.145328	0.169223	0.289985	0.250123	0.645252	0.314630	0.309618	0.146502	0.333069	0.318967	0.382281	0.562189	0.341494	0.119914	0.186468	0.259673	0.162904	0.548534	0.661399	0.121995	0.113460	0.371862	0.226963	0.134873	0.236146	0.139215	0.292151	0.281917	0.154003	0.305195	0.371067	0.118407	0.141490	0.119985	0.202989	0.061370	0.106705	0.340296	0.367434	0.362718	0.341018	0.139556	0.279114	0.317824	0.418928	0.092003	0.322930	0.269330	0.622973	0.194288	0.198052	0.089032	0.220531	0.142213	0.147279	0.153570	0.266443	0.223290	0.307894
46	0.288532	0.293664	0.678020	0.854976	0.224387	0.508983	0.187504	0.212087	0.166588	0.339608	0.450096	0.467470	0.157117	0.250350	0.125047	0.218230	0.250127	0.715350	0.281138	0.182943	0.171115	0.325174	0.322015	0.354291	0.654682	0.406591	0.123422	0.210678	0.257762	0.166387	0.510188	0.657418	0.116318	0.126401	0.275157	0.158489	0.124262	0.235109	0.154792	0.285593	0.326671	0.136890	0.264648	0.249765	0.106417	0.133861	0.131283	0.212768	0.052504	0.128123	0.304722	0.335030	0.443482	0.348779	0.137345	0.279271	0.410448	0.408442	0.091232	0.187499	0.260794	0.558854	0.131395	0.216055	0.105335	0.253270	0.201943	0.155442	0.153967	0.237053	0.253981	0.292689
47	0.291923	0.247899	0.599619	0.732408	0.189384	0.476692	0.184382	0.202382	0.152453	0.343314	0.425160	0.393856	0.174090	0.298143	0.107053	0.180981	0.295200	0.688894	0.199835	0.129606	0.172733	0.339211	0.316623	0.330076	0.663015	0.443485	0.144295	0.267726	0.290913	0.163961	0.494254	0.627929	0.086042	0.166854	0.160968	0.149717	0.111204	0.267839	0.149660	0.271946	0.376785	0.188907	0.279180	0.215877	0.169366	0.162175	0.153671	0.266243	0.062730	0.226707	0.301224	0.336412	0.450430	0.376411	0.127420	0.251314	0.419026	0.340325	0.102151	0.171565	0.263830	0.416545	0.124353	0.217884	0.107807	0.241502	0.211795	0.208420	0.161814	0.248224	0.236002	0.280427
48	0.292050	0.252333	0.578323	0.702621	0.163472	0.599519	0.184667	0.199163	0.147942	0.376322	0.451885	0.369044	0.227436	0.340426	0.103269	0.166364	0.307515	0.615974	0.139859	0.272661	0.187613	0.296318	0.280860	0.346680	0.669709	0.439777	0.148339	0.282765	0.361957	0.164713	0.498275	0.561055	0.064172	0.191218	0.098563	0.114568	0.073589	0.334204	0.129814	0.239084	0.387000	0.196700	0.324917	0.234751	0.262657	0.158284	0.275224	0.241227	0.062366	0.344397	0.324542	0.317251	0.456844	0.381582	0.134076	0.207425	0.449757	0.359719	0.133637	0.235051	0.227850	0.395311	0.146543	0.256944	0.133140	0.246634	0.215799	0.298912	0.162135	0.252703	0.191745	0.305908
49	0.292716	0.258696	0.598618	0.743169	0.169416	0.878257	0.221712	0.353160	0.149215	0.441964	0.484805	0.356264	0.389154	0.352974	0.080815	0.098866	0.280927	0.537279	0.357503	0.590972	0.187851	0.316863	0.268604	0.353522	0.684296	0.397909	0.160507	0.286070	0.393297	0.173563	0.473228	0.504892	0.078532	0.193423	0.075925	0.112010	0.093250	0.367248	0.129414	0.234018	0.377284	0.208769	0.322224	0.221878	0.337416	0.169624	0.338771	0.222031	0.077006	0.345434	0.364501	0.226314	0.454647	0.418485	0.133338	0.198269	0.479822	0.333467	0.134935	0.246307	0.194873	0.394427	0.163516	0.269277	0.139459	0.253722	0.221744	0.303762	0.142172	0.246943	0.237294	0.284300
50	0.266652	0.261523	0.620236	0.751121	0.165180	0.882774	0.398360	0.382991	0.152162	0.451166	0.493798	0.317894	0.400221	0.376826	0.054456	0.075166	0.280473	0.507165	0.414660	0.678286	0.186273	0.366186	0.258084	0.330017	0.672539	0.382248	0.159754	0.315017	0.432225	0.217249	0.463191	0.499662	0.092744	0.289517	0.082313	0.119418	0.142149	0.362808	0.163722	0.223906	0.320168	0.274918	0.337453	0.224074	0.347562	0.173680	0.358026	0.359276	0.077461	0.368404	0.368067	0.163359	0.436564	0.392537	0.133302	0.239254	0.491380	0.327209	0.127953	0.248487	0.190374	0.377012	0.173419	0.270860	0.140869	0.228822	0.236296	0.310438	0.148664	0.228518	0.258725	0.293784
51	0.221506	0.343490	0.582790	0.728147	0.141695	0.884129	0.508402	0.418915	0.154110	0.440883	0.454461	0.275356	0.400978	0.377432	0.044773	0.069865	0.266679	0.478245	0.411389	0.709059	0.184888	0.445710	0.294255	0.271833	0.625271	0.370332	0.153753	0.427992	0.435131	0.225622	0.393002	0.438083	0.100924	0.310576	0.151534	0.219702	0.148529	0.363383	0.165813	0.171914	0.302716	0.309012	0.345745	0.266601	0.348998	0.226720	0.367788	0.492336	0.078163	0.379040	0.426818	0.169567	0.415875	0.324128	0.136785	0.271548	0.531578	0.322154	0.121951	0.251011	0.187395	0.370062	0.199621	0.264623	0.144926	0.354023	0.237207	0.405245	0.179862	0.218129	0.270764	0.320191
52	0.180985	0.541189	0.515409	0.714857	0.140573	0.827585	0.520267	0.422263	0.154676	0.384967	0.415688	0.264240	0.404047	0.371608	0.065806	0.081841	0.229052	0.448554	0.420951	0.712736	0.185444	0.444725	0.333722	0.258788	0.585447	0.362845	0.143806	0.458611	0.479681	0.239271	0.252147	0.390687	0.103353	0.400283	0.156661	0.260221	0.140699	0.314887	0.215836	0.167518	0.309365	0.307686	0.350463	0.310889	0.350849	0.232334	0.395466	0.505196	0.084766	0.407006	0.417620	0.197558	0.416113	0.323204	0.211423	0.250131	0.507883	0.305585	0.134904	0.254872	0.175622	0.391953	0.203563	0.265593	0.133679	0.328067	0.356512	0.509267	0.182685	0.229338	0.274518	0.326643
53	0.184825	0.703651	0.461058	0.693675	0.138710	0.804379	0.539851	0.468751	0.166642	0.388736	0.413157	0.242667	0.388392	0.348366	0.103809	0.085530	0.231246	0.436421	0.431849	0.744408	0.176436	0.454286	0.320759	0.250171	0.489962	0.352235	0.142904	0.460192	0.681128	0.279693	0.239958	0.333517	0.102857	0.378187	0.196327	0.252946	0.142971	0.290534	0.229874	0.184258	0.250440	0.304386	0.352848	0.314855	0.357982	0.239408	0.398386	0.510244	0.086480	0.425977	0.419448	0.236103	0.229921	0.301346	0.228440	0.271349	0.456117	0.280610	0.155631	0.258113	0.122247	0.362497	0.269393	0.256537	0.132412	0.326773	0.405603	0.512226	0.187326	0.219094	0.285015	0.329587
54	0.228307	0.708370	0.455174	0.704184	0.137370	0.790922	0.577352	0.547196	0.212487	0.419867	0.348119	0.246195	0.383518	0.301101	0.140773	0.259175	0.248502	0.356729	0.474814	0.783800	0.151044	0.444347	0.319450	0.238361	0.286127	0.258747	0.148228	0.441167	0.777329	0.292486	0.226290	0.294914	0.096223	0.377146	0.201651	0.375145	0.168180	0.368803	0.233314	0.154386	0.183692	0.272491	0.333030	0.291173	0.370903	0.265565	0.384717	0.525771	0.091039	0.376076	0.435550	0.229412	0.144775	0.309466	0.278710	0.324508	0.379335	0.225308	0.236197	0.292887	0.105875	0.328927	0.321434	0.227549	0.166575	0.344339	0.554049	0.515289	0.188390	0.197713	0.321416	0.341883
55	0.350022	0.711254	0.404903	0.700976	0.136719	0.781613	0.631273	0.558951	0.216565	0.413711	0.397221	0.263613	0.355530	0.302068	0.163821	0.296686	0.244296	0.323136	0.477716	0.841613	0.147604	0.440650	0.278224	0.159628	0.233597	0.135328	0.242745	0.467830	0.758875	0.283358	0.239173	0.305810	0.083512	0.400547	0.203503	0.437164	0.178257	0.394774	0.210934	0.160241	0.153342	0.270557	0.336480	0.271993	0.387245	0.288882	0.386203	0.550967	0.085575	0.312720	0.413224	0.251812	0.103523	0.308093	0.346477	0.333544	0.365988	0.201968	0.272861	0.291049	0.102994	0.331172	0.324988	0.230110	0.222114	0.370894	0.571200	0.650774	0.185579	0.145764	0.324243	0.384686
56	0.414847	0.809604	0.391973	0.622829	0.156096	0.778907	0.646968	0.567447	0.215169	0.430219	0.404556	0.263166	0.225457	0.288024	0.191436	0.356976	0.198505	0.323069	0.479503	0.911498	0.134355	0.425499	0.353526	0.181265	0.227231	0.154899	0.303934	0.571265	0.740861	0.284599	0.240413	0.311790	0.115395	0.375320	0.218017	0.468168	0.258192	0.408640	0.199396	0.158120	0.128554	0.243247	0.394491	0.276041	0.342062	0.274171	0.385651	0.589713	0.088822	0.324873	0.377881	0.261700	0.102714	0.283029	0.363935	0.340184	0.344001	0.145551	0.328607	0.239804	0.096252	0.331831	0.376271	0.239665	0.229319	0.369332	0.562495	0.647174	0.181536	0.114621	0.408551	0.438193
57	0.422079	0.877096	0.426432	0.572899	0.167503	0.727739	0.652451	0.567583	0.228779	0.380333	0.366223	0.265079	0.230708	0.258174	0.248406	0.358281	0.181715	0.326039	0.417904	0.778597	0.134550	0.448548	0.471312	0.269864	0.171468	0.162365	0.340543	0.582818	0.718242	0.289597	0.231801	0.318660	0.131876	0.424509	0.201193	0.439264	0.269667	0.415152	0.128454	0.139565	0.127097	0.151529	0.367961	0.313833	0.270057	0.273036	0.391717	0.662024	0.151745	0.297905	0.341808	0.316708	0.216575	0.250270	0.379809	0.335370	0.290409	0.116421	0.332549	0.263994	0.096077	0.326576	0.395041	0.288026	0.216265	0.234052	0.570876	0.601031	0.178752	0.105791	0.500835	0.442315
58	0.505066	0.911645	0.452295	0.518328	0.171701	0.339934	0.650902	0.494019	0.303417	0.353678	0.338254	0.286043	0.216610	0.269315	0.322565	0.370665	0.174167	0.325896	0.340717	0.679430	0.126959	0.403937	0.447049	0.302489	0.164923	0.169455	0.341523	0.592869	0.694613	0.306011	0.214472	0.339504	0.139430	0.339924	0.199061	0.436008	0.466895	0.419235	0.089975	0.104336	0.100965	0.086661	0.366337	0.271595	0.219117	0.256011	0.411666	0.685971	0.154972	0.281772	0.304121	0.388778	0.292100	0.232644	0.381000	0.299365	0.265206	0.130507	0.337641	0.297399	0.100681	0.321183	0.394236	0.314836	0.221587	0.241650	0.487352	0.542197	0.169395	0.100601	0.494934	0.445905
59	0.559623	0.917847	0.482679	0.501398	0.178712	0.353638	0.552815	0.476234	0.369420	0.351215	0.327796	0.283352	0.199274	0.203136	0.359017	0.387261	0.174408	0.325485	0.350465	0.635751	0.162397	0.383973	0.472359	0.376728	0.158558	0.184142	0.368602	0.560985	0.688614	0.314929	0.220750	0.300632	0.143235	0.337202	0.164715	0.446517	0.469937	0.309450	0.054973	0.105766	0.064540	0.144867	0.405400	0.313322	0.210160	0.231369	0.404316	0.590228	0.152372	0.235765	0.336902	0.386773	0.330464	0.231336	0.383258	0.266209	0.216773	0.166261	0.339344	0.296338	0.110400	0.320114	0.435233	0.330526	0.235616	0.254638	0.456422	0.572417	0.145460	0.100755	0.487508	0.416597
60	0.597329	0.923921	0.473371	0.499368	0.177483	0.369274	0.449418	0.490282	0.441519	0.365927	0.330970	0.248709	0.206205	0.197641	0.415740	0.427676	0.174735	0.334324	0.342653	0.629261	0.228105	0.386769	0.471559	0.388813	0.216033	0.364576	0.445976	0.542723	0.679202	0.304539	0.222773	0.277365	0.152425	0.335600	0.180106	0.432143	0.464940	0.243504	0.065140	0.129500	0.060905	0.201267	0.426856	0.364044	0.209450	0.219227	0.385979	0.542975	0.159203	0.201459	0.400459	0.388407	0.338434	0.233388	0.346987	0.269204	0.280435	0.220142	0.335292	0.286511	0.103330	0.290256	0.442393	0.391082	0.217370	0.235262	0.253896	0.541266	0.107469	0.101130	0.490248	0.449251
61	0.598603	0.909025	0.444473	0.578468	0.177927	0.461683	0.449947	0.489177	0.449285	0.363987	0.353556	0.221556	0.209825	0.199681	0.434349	0.405711	0.175278	0.338274	0.337546	0.602804	0.229845	0.338387	0.491704	0.452505	0.237877	0.536312	0.492774	0.548267	0.673292	0.295083	0.271211	0.371737	0.178035	0.319161	0.191408	0.378095	0.412120	0.198215	0.100503	0.148365	0.060208	0.206821	0.420757	0.395315	0.208150	0.225288	0.374333	0.554178	0.160742	0.215826	0.399384	0.447637	0.397508	0.247726	0.348357	0.209518	0.386377	0.373051	0.330285	0.283277	0.094777	0.180893	0.427524	0.458514	0.148807	0.156090	0.273707	0.364189	0.101864	0.068308	0.488594	0.505355
62	0.614930	0.827387	0.437693	0.629580	0.179865	0.550064	0.430297	0.447039	0.465284	0.312724	0.375311	0.204427	0.219806	0.312037	0.430148	0.397191	0.159627	0.291632	0.275648	0.556813	0.227979	0.332137	0.502026	0.466372	0.234458	0.573467	0.510218	0.552390	0.582459	0.261884	0.416592	0.481101	0.157806	0.295919	0.185213	0.410500	0.405218	0.259214	0.100794	0.147587	0.064782	0.217685	0.375987	0.393338	0.196789	0.209853	0.381783	0.562027	0.161089	0.176013	0.436488	0.429566	0.400660	0.196808	0.289150	0.147899	0.455383	0.492940	0.280813	0.246247	0.089071	0.103796	0.380290	0.504095	0.131344	0.123887	0.279270	0.365518	0.087197	0.062399	0.482715	0.514429
63	0.617355	0.665809	0.440082	0.648680	0.223970	0.602149	0.388586	0.346276	0.452084	0.261978	0.350084	0.207437	0.164604	0.366992	0.428615	0.377871	0.119542	0.255958	0.265033	0.500313	0.210851	0.323585	0.522754	0.471642	0.239697	0.690284	0.486319	0.516908	0.299448	0.215865	0.437090	0.525514	0.129881	0.152470	0.161800	0.421476	0.290504	0.270883	0.095333	0.148060	0.097776	0.249244	0.333707	0.409153	0.155505	0.180872	0.391331	0.565809	0.142820	0.145444	0.463346	0.496377	0.411526	0.198760	0.214521	0.141076	0.465506	0.529112	0.254797	0.235571	0.090413	0.113616	0.364195	0.516283	0.131785	0.123683	0.272147	0.395151	0.073081	0.061355	0.450862	0.507879
64	0.607548	0.644007	0.451781	0.642802	0.259633	0.739129	0.296682	0.345106	0.482565	0.254824	0.242182	0.195669	0.201138	0.617887	0.396994	0.423872	0.124048	0.320374	0.265423	0.302531	0.206504	0.316962	0.442457	0.448778	0.248447	0.689201	0.446330	0.380811	0.256692	0.208993	0.464753	0.522748	0.119751	0.142942	0.223623	0.440712	0.109529	0.289255	0.096005	0.147336	0.122454	0.288701	0.348701	0.576275	0.113427	0.154159	0.395132	0.524586	0.102632	0.165407	0.481920	0.465441	0.433998	0.209208	0.176428	0.158775	0.523478	0.649576	0.156615	0.238483	0.128124	0.247846	0.374354	0.567628	0.122595	0.117053	0.331168	0.368539	0.067981	0.061276	0.437277	0.471867
65	0.556359	0.653013	0.458566	0.690316	0.253897	0.748535	0.256186	0.339356	0.484830	0.211884	0.397082	0.217777	0.199436	0.628217	0.413782	0.451565	0.121042	0.434308	0.241028	0.219564	0.206414	0.246415	0.412972	0.435671	0.238653	0.685999	0.421496	0.329409	0.293424	0.221409	0.513417	0.549254	0.113421	0.140570	0.271488	0.472318	0.101681	0.289339	0.096591	0.148152	0.140184	0.293659	0.412647	0.785344	0.117670	0.188142	0.346730	0.469392	0.114687	0.165149	0.459580	0.427655	0.383912	0.205102	0.158614	0.200735	0.648614	0.726187	0.154691	0.206421	0.145640	0.348868	0.347659	0.604500	0.098481	0.115880	0.481238	0.426632	0.068890	0.061176	0.340622	0.425365
66	0.495417	0.573443	0.487841	0.761901	0.242309	0.737871	0.243176	0.323889	0.459712	0.206080	0.474316	0.180975	0.201935	0.641495	0.360112	0.431600	0.141478	0.439686	0.173494	0.193432	0.205205	0.219408	0.401392	0.381920	0.258545	0.693160	0.420745	0.308347	0.422269	0.238052	0.526959	0.679619	0.109764	0.166645	0.503160	0.532899	0.096348	0.285551	0.059640	0.157109	0.138302	0.268973	0.395716	0.776452	0.129438	0.185642	0.257415	0.361837	0.127442	0.153448	0.441937	0.438309	0.329865	0.210024	0.155934	0.212364	0.667946	0.745003	0.249396	0.163400	0.145295	0.354040	0.350384	0.574969	0.096486	0.121844	0.501678	0.543653	0.068616	0.060008	0.191765	0.411196
67	0.481020	0.468243	0.529410	0.774829	0.231080	0.750317	0.220586	0.310990	0.431678	0.162713	0.484592	0.165895	0.191040	0.637521	0.340271	0.377260	0.152726	0.523933	0.138849	0.195915	0.163854	0.181484	0.375981	0.354948	0.356821	0.764417	0.409998	0.286475	0.441663	0.243179	0.541517	0.761938	0.052027	0.177567	0.546899	0.519640	0.102229	0.233978	0.073537	0.177873	0.141520	0.240076	0.440230	0.807017	0.178246	0.255695	0.211563	0.331056	0.112561	0.139357	0.399879	0.457997	0.304540	0.273425	0.126092	0.201554	0.653361	0.743230	0.484731	0.151429	0.140350	0.354622	0.319513	0.571171	0.109750	0.132983	0.555563	0.546974	0.110086	0.065833	0.168226	0.402691
68	0.459884	0.419268	0.493676	0.790451	0.245789	0.772881	0.221195	0.294099	0.343971	0.136914	0.495004	0.176437	0.182872	0.634205	0.359392	0.345305	0.155471	0.581840	0.125984	0.211199	0.096542	0.169505	0.348621	0.339943	0.334424	0.731593	0.351878	0.264288	0.533323	0.271899	0.547148	0.770161	0.050633	0.183919	0.592995	0.481401	0.094455	0.203196	0.098756	0.240614	0.169073	0.270388	0.459125	0.907018	0.206278	0.385058	0.208514	0.318332	0.140756	0.166781	0.453300	0.457217	0.269127	0.311787	0.108936	0.205933	0.625162	0.747792	0.505316	0.177046	0.143071	0.353267	0.276726	0.548061	0.140538	0.183543	0.574330	0.636968	0.152842	0.072021	0.170854	0.394583
69	0.497151	0.428019	0.460586	0.801200	0.252307	0.798308	0.204541	0.210748	0.297229	0.145874	0.497432	0.212876	0.183816	0.584666	0.414175	0.340533	0.151219	0.637561	0.134413	0.228082	0.094742	0.154309	0.326701	0.282456	0.300290	0.605518	0.291037	0.344663	0.628605	0.358178	0.542552	0.769696	0.058492	0.186171	0.701485	0.549885	0.116476	0.340841	0.137953	0.241803	0.216159	0.310370	0.468018	0.971676	0.211141	0.428153	0.203446	0.306736	0.186076	0.226279	0.432393	0.500905	0.209022	0.303767	0.100350	0.239210	0.571997	0.736147	0.581239	0.181004	0.159149	0.361239	0.268565	0.509728	0.249482	0.305261	0.578199	0.712578	0.162296	0.101582	0.147805	0.311682
70	0.551597	0.426990	0.457418	0.759948	0.257957	0.756942	0.157126	0.177695	0.275738	0.166895	0.536903	0.227035	0.133605	0.538856	0.418923	0.290461	0.154927	0.649685	0.145190	0.241946	0.100210	0.153105	0.324013	0.273734	0.295814	0.560926	0.334255	0.481074	0.662241	0.414601	0.539339	0.748302	0.062536	0.189763	0.743444	0.588844	0.112910	0.425605	0.145138	0.225617	0.215762	0.306691	0.451166	0.967347	0.236397	0.435031	0.188928	0.269889	0.190082	0.227211	0.466761	0.456488	0.212190	0.295584	0.100927	0.241165	0.602982	0.799933	0.622623	0.177676	0.171736	0.375628	0.265859	0.450306	0.328841	0.348722	0.549478	0.732962	0.163916	0.096155	0.145434	0.211496
71	0.581122	0.417837	0.460894	0.681859	0.257456	0.697711	0.134553	0.175838	0.231656	0.177607	0.571860	0.256599	0.157965	0.517514	0.381241	0.294104	0.172270	0.650071	0.146105	0.229680	0.098291	0.145512	0.236381	0.232957	0.292337	0.398080	0.341671	0.488217	0.663777	0.436377	0.451012	0.672782	0.104139	0.221791	0.882342	0.701656	0.121728	0.451441	0.146620	0.204649	0.208773	0.271744	0.423962	0.849724	0.279653	0.491926	0.167065	0.219828	0.184443	0.212895	0.501028	0.505349	0.176834	0.279184	0.096442	0.231889	0.624372	0.788433	0.628761	0.177260	0.201338	0.370813	0.269957	0.427573	0.329099	0.341468	0.412970	0.663675	0.184537	0.098759	0.145155	0.188944
72	0.570951	0.413310	0.463720	0.626022	0.226070	0.659256	0.144020	0.158105	0.201363	0.173964	0.575340	0.251016	0.162403	0.535844	0.379923	0.312382	0.158935	0.623722	0.142605	0.225105	0.096148	0.130419	0.220704	0.209412	0.284087	0.377799	0.346291	0.559518	0.761640	0.617972	0.369415	0.624943	0.150683	0.273274	0.797571	0.658782	0.172687	0.458123	0.195048	0.194815	0.211546	0.272586	0.330318	0.670315	0.411145	0.730417	0.138872	0.170009	0.176338	0.212757	0.508551	0.553398	0.103604	0.283852	0.097223	0.203632	0.602404	0.789325	0.716780	0.178238	0.199781	0.373469	0.264471	0.383690	0.358095	0.370424	0.383797	0.559246	0.236956	0.113609	0.139741	0.175155
73	0.580238	0.419633	0.463018	0.610213	0.184055	0.506184	0.133864	0.129175	0.135034	0.168487	0.562302	0.242456	0.163880	0.586500	0.383997	0.321737	0.152225	0.544866	0.138310	0.308375	0.095826	0.118726	0.161759	0.201286	0.291370	0.379014	0.324160	0.652205	0.827216	0.662308	0.356354	0.609041	0.161468	0.292691	0.792499	0.730309	0.183323	0.480292	0.311208	0.100970	0.226303	0.276589	0.296796	0.653095	0.418921	0.730839	0.105426	0.119317	0.171112	0.214123	0.513414	0.541730	0.103169	0.310550	0.116629	0.172638	0.551506	0.791377	0.751594	0.176398	0.196719	0.404331	0.219497	0.278824	0.415121	0.422513	0.240890	0.575417	0.304855	0.222041	0.138514	0.167584
74	0.590035	0.419463	0.454175	0.618966	0.178150	0.467675	0.159316	0.113751	0.134636	0.168858	0.460429	0.245527	0.183497	0.617711	0.361233	0.304524	0.139860	0.542547	0.165699	0.354805	0.093692	0.095648	0.156794	0.207132	0.294937	0.385102	0.382769	0.718675	0.828906	0.667151	0.260496	0.604106	0.170548	0.295992	0.765234	0.902313	0.181027	0.429845	0.350438	0.133566	0.242267	0.363198	0.180259	0.589122	0.427317	0.729476	0.059157	0.089017	0.171740	0.211642	0.568343	0.511259	0.107872	0.316325	0.128964	0.157966	0.574014	0.782354	0.751465	0.154836	0.216933	0.509593	0.207422	0.169445	0.413965	0.423288	0.330166	0.740032	0.315394	0.278011	0.137122	0.155763
75	0.634965	0.414167	0.437661	0.582192	0.166274	0.463788	0.190095	0.224063	0.139557	0.176137	0.400801	0.269378	0.167159	0.607177	0.261047	0.312859	0.123634	0.483572	0.184242	0.353263	0.092960	0.101897	0.134745	0.159790	0.161241	0.189437	0.496904	0.716415	0.782342	0.658749	0.207970	0.524125	0.209717	0.371116	0.671152	0.902204	0.189413	0.441824	0.353118	0.179902	0.233361	0.355104	0.158683	0.424955	0.425572	0.728891	0.066962	0.094402	0.139405	0.167160	0.534498	0.481657	0.104463	0.230414	0.129016	0.154314	0.597767	0.780501	0.636553	0.191060	0.219946	0.533385	0.207244	0.160716	0.371242	0.355529	0.441470	0.904863	0.384716	0.308893	0.128260	0.113746
76	0.679230	0.403314	0.585161	0.517108	0.162730	0.435867	0.239589	0.346246	0.154200	0.198309	0.423765	0.346444	0.166455	0.591141	0.279133	0.377638	0.141927	0.437317	0.250580	0.351332	0.086281	0.101610	0.147008	0.121473	0.124018	0.152545	0.515836	0.704479	0.761949	0.657042	0.173149	0.313161	0.214296	0.391479	0.620935	0.872622	0.226211	0.379028	0.374841	0.212848	0.202668	0.327970	0.248821	0.335804	0.401373	0.676076	0.101862	0.206285	0.073712	0.092414	0.516384	0.424005	0.091432	0.199936	0.139225	0.127750	0.596809	0.774758	0.618373	0.252119	0.221344	0.606850	0.189853	0.156634	0.304131	0.309607	0.475394	0.922261	0.379190	0.354496	0.084367	0.091490
77	0.687204	0.380258	0.796534	0.527387	0.132577	0.385428	0.249823	0.354178	0.156957	0.202794	0.488250	0.356378	0.168242	0.476233	0.281702	0.443538	0.183725	0.347687	0.253475	0.349118	0.087263	0.097328	0.143555	0.129526	0.119213	0.133004	0.554986	0.722277	0.716585	0.640080	0.163134	0.242439	0.211684	0.387664	0.334123	0.802862	0.219704	0.383633	0.387825	0.222916	0.207641	0.317281	0.260306	0.323212	0.398769	0.631859	0.126964	0.365434	0.073872	0.103434	0.456238	0.404992	0.086480	0.216236	0.146904	0.066827	0.601326	0.758477	0.575897	0.273040	0.232492	0.613054	0.181736	0.141398	0.308202	0.324883	0.532350	1.077034	0.367031	0.350743	0.063209	0.102037
78	0.670048	0.333392	0.874489	0.752695	0.125967	0.288597	0.286147	0.367140	0.141482	0.180856	0.475928	0.332473	0.127946	0.427351	0.291110	0.423607	0.194273	0.325470	0.244546	0.397047	0.086765	0.090619	0.139078	0.153737	0.119274	0.123818	0.518859	0.775180	0.622764	0.598316	0.150337	0.230751	0.207244	0.364607	0.295399	0.756197	0.265972	0.388441	0.273471	0.270660	0.212482	0.319020	0.266192	0.341848	0.384513	0.632428	0.134364	0.377116	0.073893	0.104131	0.384394	0.363751	0.098455	0.232311	0.146941	0.079475	0.587772	0.598440	0.525130	0.303997	0.290942	0.692039	0.179314	0.078672	0.276803	0.321587	0.538910	1.243646	0.365934	0.370586	0.071012	0.101815
79	0.607389	0.261609	0.872333	0.834099	0.106345	0.264720	0.365878	0.377513	0.125364	0.158971	0.417849	0.339733	0.135810	0.452678	0.263202	0.480414	0.191174	0.324245	0.246540	0.409121	0.092457	0.100337	0.162015	0.157167	0.121221	0.119558	0.505189	0.773555	0.560386	0.547204	0.159470	0.229545	0.265771	0.329040	0.145925	0.705256	0.259566	0.338212	0.245178	0.277270	0.207171	0.309165	0.275276	0.403609	0.371604	0.633980	0.153929	0.406261	0.075905	0.104471	0.361680	0.305666	0.102565	0.240874	0.147468	0.104400	0.572663	0.589842	0.516536	0.334541	0.300968	0.747603	0.178766	0.057859	0.208694	0.287926	0.568170	1.273807	0.365141	0.414925	0.077033	0.131036
80	0.516765	0.199595	0.938198	0.836404	0.099030	0.246456	0.405211	0.441871	0.113136	0.150558	0.366532	0.369970	0.124862	0.329465	0.262087	0.492498	0.190618	0.314138	0.266552	0.416991	0.174410	0.119620	0.288560	0.160863	0.122145	0.117527	0.579978	0.758354	0.549872	0.528342	0.162758	0.233223	0.326542	0.337185	0.220193	0.498614	0.276597	0.392519	0.199064	0.247839	0.194563	0.306628	0.298031	0.436297	0.262858	0.445689	0.173294	0.465636	0.068667	0.098084	0.399136	0.295423	0.110949	0.243835	0.149052	0.108486	0.570030	0.477832	0.406779	0.353143	0.299803	0.748872	0.171328	0.044316	0.219039	0.274611	0.544523	1.159035	0.375063	0.450668	0.092930	0.161157
81	0.465996	0.190751	1.030885	0.922523	0.099141	0.262598	0.433678	0.502192	0.106499	0.150811	0.366201	0.381984	0.102143	0.335355	0.291482	0.584648	0.198515	0.298225	0.308504	0.378260	0.234890	0.136436	0.359868	0.190331	0.101819	0.138554	0.677690	0.745294	0.481739	0.394617	0.158728	0.234672	0.590197	0.443526	0.292916	0.473797	0.253788	0.405919	0.183173	0.218458	0.169237	0.214809	0.303167	0.421310	0.158451	0.282223	0.339855	0.523658	0.067504	0.125355	0.384397	0.415157	0.118464	0.228336	0.155629	0.136046	0.503953	0.325843	0.318709	0.385575	0.331308	0.729297	0.163792	0.037518	0.209625	0.261588	0.445583	0.960339	0.363303	0.587623	0.154579	0.163764
82	0.489090	0.193377	1.085461	0.967011	0.091675	0.247534	0.456872	0.510860	0.103635	0.167230	0.364185	0.374105	0.132132	0.380533	0.304241	0.746201	0.209549	0.277888	0.313949	0.309841	0.233237	0.127505	0.369047	0.220768	0.072255	0.138259	0.759203	0.680425	0.221615	0.176371	0.158333	0.231356	0.589847	0.424533	0.344355	0.434345	0.243880	0.425262	0.109310	0.232515	0.157751	0.252679	0.277594	0.398442	0.127854	0.308486	0.431286	0.601233	0.089572	0.154140	0.456540	0.467220	0.243238	0.237455	0.163706	0.139504	0.427910	0.277872	0.372148	0.388463	0.319632	0.613849	0.119708	0.055705	0.200411	0.259917	0.416736	0.914646	0.308892	0.553467	0.180163	0.171759
83	0.496335	0.208394	1.094434	1.001531	0.093073	0.249665	0.481495	0.523806	0.117011	0.214374	0.362652	0.365310	0.185872	0.451553	0.268952	0.758445	0.209776	0.283140	0.314280	0.395462	0.246483	0.132346	0.369307	0.225367	0.055563	0.136578	0.802798	0.671469	0.169925	0.118888	0.217460	0.240434	0.591706	0.452115	0.350528	0.423779	0.194462	0.449448	0.159369	0.296982	0.146973	0.258373	0.190388	0.355578	0.108251	0.313983	0.451853	0.605111	0.127670	0.194750	0.580275	0.499180	0.289040	0.247554	0.209158	0.139200	0.389854	0.292563	0.379753	0.373379	0.314507	0.574256	0.103382	0.071977	0.192569	0.248681	0.384635	0.753876	0.301271	0.533880	0.194999	0.196073
84	0.488894	0.223491	1.100303	0.994533	0.088812	0.233367	0.479270	0.492661	0.111440	0.217607	0.417519	0.367021	0.263548	0.429341	0.262024	0.730047	0.200715	0.272018	0.298586	0.435121	0.251149	0.153424	0.445861	0.235342	0.052365	0.132235	0.793667	0.676825	0.185761	0.113564	0.233934	0.238591	0.623857	0.602915	0.348562	0.467710	0.172219	0.433148	0.165630	0.294826	0.125110	0.355469	0.333644	0.459104	0.101005	0.315718	0.531013	0.606149	0.137477	0.201668	0.610137	0.525470	0.297236	0.239329	0.190573	0.135349	0.390479	0.257777	0.400525	0.337324	0.321064	0.511632	0.120781	0.149454	0.210949	0.230600	0.427507	0.711617	0.218428	0.514509	0.224574	0.202811
85	0.472924	0.227106	1.122498	0.989147	0.092071	0.190558	0.463533	0.417336	0.116139	0.243461	0.437400	0.366811	0.276283	0.385088	0.265194	0.718472	0.164872	0.214514	0.341149	0.465601	0.252892	0.184379	0.505424	0.353183	0.053414	0.125243	0.754773	0.677282	0.169814	0.106519	0.245808	0.230567	0.603921	0.654313	0.348556	0.484254	0.171148	0.394564	0.187632	0.338314	0.260549	0.372883	0.349712	0.495648	0.101847	0.315470	0.566261	0.545551	0.132049	0.202812	0.788213	0.510949	0.371039	0.237116	0.205698	0.136306	0.388392	0.232699	0.396669	0.314929	0.342970	0.467814	0.130390	0.176487	0.198397	0.177708	0.578092	0.747895	0.225418	0.490351	0.262361	0.243469
86	0.419670	0.210396	1.084182	0.973519	0.089140	0.166896	0.457996	0.433848	0.113532	0.245540	0.417141	0.393840	0.378549	0.383143	0.271108	0.675677	0.138013	0.178240	0.354069	0.431944	0.258580	0.207905	0.529078	0.443912	0.068164	0.139498	0.780688	0.500146	0.232466	0.109670	0.247547	0.218426	0.614910	0.658507	0.321091	0.454395	0.162467	0.314209	0.193572	0.378835	0.283293	0.382004	0.349056	0.473515	0.100687	0.277981	0.574457	0.499173	0.137857	0.220772	0.784376	0.514451	0.485933	0.249850	0.235511	0.113220	0.276470	0.197900	0.509533	0.344620	0.324191	0.430038	0.138096	0.178986	0.170172	0.151459	0.572734	0.752141	0.221653	0.490442	0.263257	0.324441
87	0.435098	0.222401	0.913067	0.945614	0.077261	0.166721	0.440961	0.473257	0.113327	0.253522	0.500273	0.398673	0.547063	0.461837	0.262221	0.664503	0.117009	0.169357	0.368573	0.417727	0.246315	0.203535	0.523394	0.450237	0.067518	0.141575	0.824140	0.445761	0.299187	0.119608	0.247708	0.201617	0.369596	0.576879	0.235787	0.353725	0.149429	0.274355	0.203705	0.381206	0.281007	0.404109	0.344822	0.443270	0.099053	0.262649	0.571056	0.495768	0.144509	0.243595	0.790200	0.501159	0.487808	0.231024	0.235130	0.144067	0.220850	0.188552	0.549486	0.369420	0.272129	0.178548	0.138805	0.200748	0.161773	0.152737	0.668789	0.786053	0.220873	0.471884	0.261711	0.336285
88	0.475636	0.219582	0.795388	0.787075	0.090694	0.170005	0.377119	0.475356	0.134751	0.253779	0.589475	0.379774	0.548036	0.453662	0.258622	0.514761	0.102821	0.166816	0.428237	0.505852	0.174632	0.186021	0.443166	0.436938	0.067054	0.141117	0.814225	0.465753	0.320524	0.126465	0.250242	0.242214	0.384722	0.603368	0.160133	0.378945	0.141989	0.271018	0.206373	0.371745	0.289295	0.482575	0.383328	0.526823	0.099420	0.224323	0.567081	0.443145	0.186608	0.281931	0.754819	0.412945	0.492170	0.212798	0.226741	0.160575	0.173791	0.182388	0.549362	0.451744	0.271077	0.161288	0.138765	0.249279	0.174171	0.152421	0.674470	0.821715	0.219965	0.438842	0.259208	0.323897
89	0.486652	0.215109	0.804100	0.654818	0.090443	0.174045	0.335304	0.455472	0.149070	0.251138	0.594006	0.352077	0.538486	0.392783	0.279293	0.342442	0.095352	0.171921	0.489881	0.616058	0.134446	0.186940	0.435214	0.429038	0.061405	0.120581	0.697470	0.372804	0.327558	0.141829	0.244223	0.243391	0.384823	0.586202	0.130690	0.368750	0.157394	0.314764	0.168631	0.347856	0.295783	0.500294	0.475403	0.762802	0.102138	0.232347	0.559516	0.401376	0.179872	0.271274	0.685005	0.336650	0.486599	0.186046	0.257487	0.171263	0.169124	0.187767	0.543895	0.443950	0.248946	0.164779	0.138608	0.292588	0.174382	0.152834	0.684265	0.815173	0.179032	0.398362	0.249929	0.310299
90	0.485651	0.220263	0.735978	0.681344	0.086212	0.153823	0.287934	0.406654	0.238312	0.255915	0.598257	0.340485	0.518224	0.336200	0.277227	0.362798	0.064968	0.171226	0.495528	0.671875	0.126820	0.205475	0.443337	0.415263	0.062985	0.099465	0.652286	0.351019	0.341760	0.158553	0.241801	0.238665	0.336064	0.486396	0.242646	0.409536	0.168670	0.356616	0.136803	0.321361	0.330217	0.498935	0.505072	0.817254	0.089899	0.206256	0.425353	0.244613	0.156459	0.234579	0.640352	0.317034	0.430156	0.156122	0.264125	0.180637	0.214626	0.210218	0.494201	0.451512	0.210936	0.157037	0.137056	0.313447	0.139409	0.116798	0.666850	0.618847	0.142451	0.235617	0.222852	0.309602
91	0.515939	0.252862	0.592608	0.590994	0.093742	0.187116	0.234869	0.392721	0.243966	0.235917	0.598304	0.355183	0.489186	0.323340	0.259089	0.385771	0.063988	0.159601	0.487463	0.646492	0.104042	0.214867	0.432887	0.436671	0.066999	0.094982	0.462656	0.350875	0.344063	0.155368	0.251652	0.282832	0.319760	0.396722	0.305132	0.397235	0.167126	0.328619	0.142151	0.275251	0.347116	0.436139	0.424301	0.772352	0.081116	0.191696	0.401416	0.185918	0.149800	0.232287	0.624818	0.276071	0.432593	0.151882	0.238523	0.231842	0.257937	0.250058	0.497220	0.461057	0.211696	0.161606	0.109653	0.310466	0.135010	0.186500	0.528694	0.589336	0.142613	0.261467	0.204058	0.312129
92	0.544959	0.278992	0.449117	0.573725	0.107022	0.336713	0.166712	0.392575	0.252605	0.201907	0.585129	0.391953	0.478017	0.322650	0.245996	0.349090	0.074069	0.161190	0.479147	0.632137	0.098869	0.202088	0.332251	0.464674	0.068894	0.095693	0.426769	0.330192	0.343057	0.165645	0.236805	0.288019	0.255543	0.378075	0.307676	0.441633	0.175342	0.324917	0.176483	0.306522	0.249521	0.420435	0.430856	0.773074	0.075850	0.222768	0.336789	0.215538	0.161695	0.235495	0.503416	0.300371	0.430260	0.158024	0.237714	0.248232	0.261398	0.267535	0.480586	0.537021	0.207835	0.163719	0.140620	0.328915	0.143538	0.295154	0.529615	0.605871	0.137601	0.262689	0.195510	0.307114
93	0.545016	0.268399	0.475935	0.588493	0.107764	0.402694	0.134949	0.422323	0.311448	0.205151	0.538746	0.356130	0.332707	0.275897	0.249701	0.344145	0.071246	0.143739	0.476293	0.627345	0.094763	0.177050	0.291111	0.361147	0.068425	0.095849	0.428286	0.352823	0.337289	0.189373	0.190094	0.269306	0.213280	0.366767	0.410893	0.553237	0.182741	0.288473	0.170572	0.352556	0.264245	0.415057	0.586777	0.826828	0.094348	0.236724	0.192488	0.214402	0.174604	0.239984	0.536610	0.315091	0.278494	0.108186	0.213699	0.246846	0.257172	0.266765	0.463656	0.563145	0.177179	0.188467	0.192024	0.354016	0.151759	0.304779	0.564386	0.613455	0.108300	0.265467	0.152914	0.303176
94	0.526260	0.252497	0.471678	0.678609	0.104218	0.412834	0.117982	0.425283	0.364986	0.165771	0.486300	0.283627	0.136361	0.163300	0.242266	0.348045	0.071428	0.131970	0.466862	0.633322	0.086621	0.151714	0.278149	0.342686	0.064310	0.090536	0.396816	0.352229	0.336969	0.206670	0.226588	0.266874	0.163428	0.296619	0.651210	0.572159	0.165421	0.272291	0.177089	0.321452	0.317384	0.428820	0.611420	0.858686	0.104839	0.249315	0.121609	0.217564	0.187202	0.211442	0.541422	0.305145	0.174728	0.084469	0.196793	0.245144	0.257840	0.267227	0.343697	0.533584	0.138518	0.221028	0.191862	0.427669	0.169386	0.303876	0.597645	0.719252	0.089911	0.264548	0.080690	0.258622
95	0.548154	0.269723	0.474945	0.694390	0.114242	0.453896	0.115253	0.405021	0.377983	0.157373	0.554779	0.268331	0.159682	0.255439	0.218935	0.390813	0.075107	0.130418	0.457997	0.629692	0.143156	0.151438	0.321048	0.365429	0.059506	0.084284	0.274471	0.344903	0.333466	0.214558	0.231072	0.251296	0.152262	0.302983	0.676523	0.580103	0.170483	0.230510	0.202519	0.369639	0.333110	0.384339	0.595362	0.823311	0.117433	0.267778	0.104034	0.227277	0.156249	0.158194	0.693557	0.345092	0.161795	0.085208	0.202139	0.239864	0.253562	0.289502	0.365169	0.499690	0.151168	0.235045	0.194444	0.498675	0.171152	0.345771	0.604132	0.776862	0.093531	0.342510	0.077638	0.158991
96	0.520719	0.275568	0.543270	0.696324	0.109805	0.462650	0.127871	0.391782	0.377797	0.168772	0.542574	0.296636	0.171099	0.586081	0.263608	0.486034	0.071787	0.119654	0.441670	0.578583	0.154315	0.154858	0.339612	0.410806	0.062474	0.123287	0.231446	0.327257	0.237004	0.209861	0.241096	0.251051	0.150056	0.224938	0.683562	0.550298	0.269504	0.267258	0.223115	0.411427	0.328359	0.332244	0.529161	0.600549	0.129352	0.289979	0.170963	0.271067	0.183697	0.182354	0.700567	0.356402	0.141762	0.089965	0.195228	0.226006	0.245595	0.337534	0.385780	0.411959	0.151735	0.231570	0.195457	0.500345	0.242877	0.448087	0.608351	0.772604	0.090916	0.349242	0.089676	0.163096
97	0.515427	0.270465	0.585830	0.761195	0.121617	0.485858	0.153540	0.528495	0.371619	0.176687	0.490916	0.326776	0.233272	0.745715	0.439195	0.492447	0.071173	0.106638	0.343862	0.459993	0.160749	0.143941	0.377584	0.458686	0.065336	0.168586	0.342235	0.355091	0.214183	0.206283	0.290722	0.227910	0.154794	0.206375	0.752010	0.548668	0.264772	0.253680	0.198731	0.417473	0.311645	0.350166	0.553616	0.548458	0.161257	0.483342	0.204163	0.357693	0.192857	0.186367	0.782273	0.458379	0.139896	0.096746	0.106745	0.211959	0.289621	0.385784	0.411738	0.383549	0.136566	0.221153	0.200937	0.501028	0.258459	0.446265	0.604205	0.685730	0.092021	0.351303	0.100478	0.183524
98	0.457242	0.256989	0.592279	0.783184	0.133067	0.499902	0.189026	0.621272	0.355262	0.176918	0.507793	0.427107	0.234883	0.765772	0.452276	0.485644	0.070000	0.103487	0.329044	0.396774	0.158154	0.109843	0.381279	0.510463	0.098820	0.185676	0.368583	0.367811	0.170074	0.195635	0.315355	0.213325	0.162993	0.212333	0.750826	0.535946	0.262423	0.242519	0.186964	0.339586	0.369838	0.407166	0.577957	0.537916	0.159569	0.487355	0.213613	0.419674	0.193334	0.188213	0.777531	0.487080	0.102760	0.142840	0.084356	0.192855	0.336831	0.362443	0.407105	0.435299	0.135370	0.220387	0.206363	0.558269	0.250794	0.384269	0.579535	0.792676	0.076932	0.331357	0.100220	0.196487
99	0.457103	0.257518	0.611117	0.768304	0.138657	0.588975	0.233122	0.641829	0.327217	0.181074	0.502935	0.444431	0.251708	0.767347	0.460546	0.576149	0.070415	0.100504	0.346225	0.395266	0.190459	0.114308	0.388915	0.505908	0.131431	0.190280	0.356299	0.389496	0.127039	0.299153	0.329231	0.247292	0.152166	0.207339	0.735030	0.516446	0.259893	0.240349	0.256002	0.357110	0.440642	0.445196	0.625818	0.519389	0.161033	0.489225	0.219982	0.423209	0.178637	0.183174	0.755761	0.548555	0.066147	0.145038	0.091204	0.139540	0.365652	0.319193	0.373094	0.473696	0.161405	0.230979	0.224262	0.623221	0.245353	0.387956	0.443390	0.791725	0.070623	0.325587	0.090464	0.197170
100	0.437485	0.253942	0.604956	0.711863	0.137602	0.643577	0.275165	0.649741	0.332668	0.201082	0.512863	0.471390	0.250265	0.763192	0.471396	0.654587	0.060559	0.085540	0.336133	0.375277	0.289197	0.128530	0.382342	0.462494	0.190516	0.204910	0.364652	0.380887	0.107088	0.440791	0.328537	0.225058	0.137508	0.298719	0.514644	0.469708	0.267218	0.230598	0.252780	0.423921	0.439725	0.453308	0.546791	0.417987	0.179589	0.488406	0.219649	0.483567	0.184444	0.190248	0.808522	0.638672	0.042489	0.144957	0.089110	0.126979	0.379635	0.296031	0.397146	0.407056	0.174490	0.245295	0.244695	0.651229	0.225749	0.396119	0.400763	0.654963	0.070144	0.356941	0.084330	0.187166
101	0.406066	0.227495	0.647384	0.717290	0.129751	0.616652	0.396661	0.681409	0.314880	0.196421	0.531516	0.448737	0.234238	0.763838	0.473901	0.669456	0.063645	0.069054	0.361692	0.364166	0.369248	0.133171	0.361758	0.453190	0.208665	0.208422	0.360868	0.360892	0.111600	0.523057	0.340115	0.209433	0.139583	0.346805	0.539476	0.444334	0.141188	0.167521	0.223615	0.365112	0.476483	0.428712	0.594344	0.378348	0.203876	0.473270	0.224732	0.570832	0.225847	0.232495	0.796880	0.650654	0.075880	0.291589	0.077549	0.127017	0.401365	0.314225	0.395886	0.379336	0.182904	0.276790	0.218881	0.633499	0.224982	0.359642	0.344862	0.632959	0.069485	0.388459	0.082620	0.170984
