	198_P_T2_sh_R_D_A_01.c3d	198_P_T2_sh_R_D_A_01.c3d	198_P_T2_sh_R_D_A_01.c3d	198_P_T2_sh_R_D_A_01.c3d	198_P_T2_sh_R_D_A_01.c3d	198_P_T2_sh_R_D_A_01.c3d	198_P_T2_sh_R_D_A_01.c3d	198_P_T2_sh_R_D_A_01.c3d	198_P_T2_sh_R_D_A_02.c3d	198_P_T2_sh_R_D_A_02.c3d	198_P_T2_sh_R_D_A_02.c3d	198_P_T2_sh_R_D_A_02.c3d	198_P_T2_sh_R_D_A_02.c3d	198_P_T2_sh_R_D_A_02.c3d	198_P_T2_sh_R_D_A_02.c3d	198_P_T2_sh_R_D_A_02.c3d	198_P_T2_sh_R_D_A_04.c3d	198_P_T2_sh_R_D_A_04.c3d	198_P_T2_sh_R_D_A_04.c3d	198_P_T2_sh_R_D_A_04.c3d	198_P_T2_sh_R_D_A_04.c3d	198_P_T2_sh_R_D_A_04.c3d	198_P_T2_sh_R_D_A_04.c3d	198_P_T2_sh_R_D_A_04.c3d	198_P_T2_sh_R_D_A_05.c3d	198_P_T2_sh_R_D_A_05.c3d	198_P_T2_sh_R_D_A_05.c3d	198_P_T2_sh_R_D_A_05.c3d	198_P_T2_sh_R_D_A_05.c3d	198_P_T2_sh_R_D_A_05.c3d	198_P_T2_sh_R_D_A_05.c3d	198_P_T2_sh_R_D_A_05.c3d	198_P_T2_sh_R_D_A_06.c3d	198_P_T2_sh_R_D_A_06.c3d	198_P_T2_sh_R_D_A_06.c3d	198_P_T2_sh_R_D_A_06.c3d	198_P_T2_sh_R_D_A_06.c3d	198_P_T2_sh_R_D_A_06.c3d	198_P_T2_sh_R_D_A_06.c3d	198_P_T2_sh_R_D_A_06.c3d	198_P_T2_sh_R_D_A_07.c3d	198_P_T2_sh_R_D_A_07.c3d	198_P_T2_sh_R_D_A_07.c3d	198_P_T2_sh_R_D_A_07.c3d	198_P_T2_sh_R_D_A_07.c3d	198_P_T2_sh_R_D_A_07.c3d	198_P_T2_sh_R_D_A_07.c3d	198_P_T2_sh_R_D_A_07.c3d	198_P_T2_sh_R_D_A_08.c3d	198_P_T2_sh_R_D_A_08.c3d	198_P_T2_sh_R_D_A_08.c3d	198_P_T2_sh_R_D_A_08.c3d	198_P_T2_sh_R_D_A_08.c3d	198_P_T2_sh_R_D_A_08.c3d	198_P_T2_sh_R_D_A_08.c3d	198_P_T2_sh_R_D_A_08.c3d	198_P_T2_sh_R_D_A_09.c3d	198_P_T2_sh_R_D_A_09.c3d	198_P_T2_sh_R_D_A_09.c3d	198_P_T2_sh_R_D_A_09.c3d	198_P_T2_sh_R_D_A_09.c3d	198_P_T2_sh_R_D_A_09.c3d	198_P_T2_sh_R_D_A_09.c3d	198_P_T2_sh_R_D_A_09.c3d
	Biceps femoris_lat	Semitendinosus_lat	Vastus lateralis_lat	Vastus medialis_lat	Biceps femoris_med	Semitendinosus_med	Vastus lateralis_med	Vastus medialis_med	Biceps femoris_lat	Semitendinosus_lat	Vastus lateralis_lat	Vastus medialis_lat	Biceps femoris_med	Semitendinosus_med	Vastus lateralis_med	Vastus medialis_med	Biceps femoris_lat	Semitendinosus_lat	Vastus lateralis_lat	Vastus medialis_lat	Biceps femoris_med	Semitendinosus_med	Vastus lateralis_med	Vastus medialis_med	Biceps femoris_lat	Semitendinosus_lat	Vastus lateralis_lat	Vastus medialis_lat	Biceps femoris_med	Semitendinosus_med	Vastus lateralis_med	Vastus medialis_med	Biceps femoris_lat	Semitendinosus_lat	Vastus lateralis_lat	Vastus medialis_lat	Biceps femoris_med	Semitendinosus_med	Vastus lateralis_med	Vastus medialis_med	Biceps femoris_lat	Semitendinosus_lat	Vastus lateralis_lat	Vastus medialis_lat	Biceps femoris_med	Semitendinosus_med	Vastus lateralis_med	Vastus medialis_med	Biceps femoris_lat	Semitendinosus_lat	Vastus lateralis_lat	Vastus medialis_lat	Biceps femoris_med	Semitendinosus_med	Vastus lateralis_med	Vastus medialis_med	Biceps femoris_lat	Semitendinosus_lat	Vastus lateralis_lat	Vastus medialis_lat	Biceps femoris_med	Semitendinosus_med	Vastus lateralis_med	Vastus medialis_med
	P2D	P2D	P2D	P2D	P2D	P2D	P2D	P2D	P2D	P2D	P2D	P2D	P2D	P2D	P2D	P2D	P2D	P2D	P2D	P2D	P2D	P2D	P2D	P2D	P2D	P2D	P2D	P2D	P2D	P2D	P2D	P2D	P2D	P2D	P2D	P2D	P2D	P2D	P2D	P2D	P2D	P2D	P2D	P2D	P2D	P2D	P2D	P2D	P2D	P2D	P2D	P2D	P2D	P2D	P2D	P2D	P2D	P2D	P2D	P2D	P2D	P2D	P2D	P2D
	EMG_lat	EMG_lat	EMG_lat	EMG_lat	EMG_med	EMG_med	EMG_med	EMG_med	EMG_lat	EMG_lat	EMG_lat	EMG_lat	EMG_med	EMG_med	EMG_med	EMG_med	EMG_lat	EMG_lat	EMG_lat	EMG_lat	EMG_med	EMG_med	EMG_med	EMG_med	EMG_lat	EMG_lat	EMG_lat	EMG_lat	EMG_med	EMG_med	EMG_med	EMG_med	EMG_lat	EMG_lat	EMG_lat	EMG_lat	EMG_med	EMG_med	EMG_med	EMG_med	EMG_lat	EMG_lat	EMG_lat	EMG_lat	EMG_med	EMG_med	EMG_med	EMG_med	EMG_lat	EMG_lat	EMG_lat	EMG_lat	EMG_med	EMG_med	EMG_med	EMG_med	EMG_lat	EMG_lat	EMG_lat	EMG_lat	EMG_med	EMG_med	EMG_med	EMG_med
ITEM	Y	Y	Y	Y	Y	Y	Y	Y	Y	Y	Y	Y	Y	Y	Y	Y	Y	Y	Y	Y	Y	Y	Y	Y	Y	Y	Y	Y	Y	Y	Y	Y	Y	Y	Y	Y	Y	Y	Y	Y	Y	Y	Y	Y	Y	Y	Y	Y	Y	Y	Y	Y	Y	Y	Y	Y	Y	Y	Y	Y	Y	Y	Y	Y
1	0.181763	0.382207	0.244543	0.451845	0.310534	0.265114	0.614949	0.182546	0.412527	0.241686	0.415513	0.338356	0.477767	0.150143	0.461768	0.321044	0.054094	0.197565	0.667141	0.530002	0.164670	0.167571	0.301982	0.309675	0.130958	0.202219	0.551755	0.222929	0.226717	0.385039	0.330579	0.223387	0.350070	0.666268	0.537449	0.291180	0.286946	0.239830	0.805366	0.244134	0.259593	0.363454	0.409732	0.167618	0.231394	0.191634	0.491035	0.247476	0.052296	0.116868	0.415715	0.505591	0.509396	0.197376	0.509180	0.282515	0.090467	0.452028	0.443553	0.215621	0.516659	0.423587	0.416355	0.247207
2	0.199966	0.387333	0.371942	0.452325	0.330626	0.295141	0.638570	0.198417	0.414031	0.253331	0.542054	0.325959	0.480134	0.140205	0.450482	0.325784	0.064557	0.195639	0.666004	0.536300	0.112460	0.165720	0.288201	0.303805	0.129325	0.136205	0.639112	0.206579	0.226919	0.355412	0.301922	0.193144	0.385920	0.666133	0.532753	0.282130	0.357822	0.206999	0.777029	0.223357	0.279487	0.370700	0.485409	0.152261	0.230619	0.192740	0.515270	0.257322	0.057906	0.140991	0.484345	0.406170	0.499023	0.197769	0.507184	0.263919	0.081045	0.487615	0.530757	0.217822	0.449594	0.361051	0.349382	0.206883
3	0.156972	0.366280	0.400023	0.442589	0.348051	0.311063	0.639152	0.479234	0.412852	0.243325	0.645660	0.247082	0.472536	0.149159	0.491990	0.296527	0.064502	0.193558	0.662714	0.541076	0.131472	0.173769	0.253428	0.307099	0.134614	0.100414	0.589164	0.327576	0.212306	0.302184	0.318504	0.201112	0.387912	0.665065	0.462677	0.227727	0.368659	0.206907	0.721221	0.158018	0.282316	0.373268	0.433043	0.137308	0.217814	0.193830	0.516667	0.262233	0.067166	0.139602	0.548967	0.298934	0.453281	0.203154	0.499908	0.262215	0.078098	0.490278	0.511295	0.201920	0.434558	0.265772	0.227525	0.209697
4	0.135839	0.283532	0.472168	0.408252	0.349585	0.300148	0.652529	0.573108	0.416038	0.245052	0.649702	0.158641	0.433580	0.139303	0.546921	0.291241	0.066987	0.181366	0.623400	0.531911	0.147496	0.196315	0.258620	0.286353	0.122455	0.113400	0.560452	0.377641	0.210574	0.285912	0.312500	0.237532	0.386371	0.636234	0.421410	0.216549	0.369709	0.247572	0.539495	0.184768	0.251234	0.328473	0.437642	0.152757	0.188634	0.150086	0.498405	0.253691	0.067321	0.133736	0.566126	0.292879	0.413450	0.232982	0.501645	0.250503	0.077874	0.472605	0.448790	0.190026	0.454983	0.256478	0.212255	0.226659
5	0.176696	0.279727	0.503459	0.363363	0.329678	0.281642	0.618725	0.586869	0.396634	0.211171	0.639008	0.123795	0.258969	0.133969	0.557905	0.284300	0.067247	0.163705	0.532597	0.465939	0.221047	0.314150	0.311495	0.282358	0.105997	0.111063	0.475644	0.363022	0.205314	0.207754	0.360121	0.285893	0.374056	0.420625	0.458190	0.208970	0.377038	0.258950	0.517560	0.219496	0.224601	0.373891	0.374714	0.148116	0.184609	0.119862	0.513488	0.258500	0.067746	0.131052	0.566025	0.289920	0.411494	0.216661	0.512547	0.231722	0.075982	0.472695	0.431744	0.175994	0.338064	0.226155	0.247355	0.220059
6	0.177651	0.270379	0.516970	0.383156	0.294719	0.278628	0.467483	0.622517	0.338042	0.201380	0.655192	0.134499	0.273054	0.136658	0.553992	0.282931	0.060470	0.157077	0.501119	0.422674	0.263975	0.323954	0.320689	0.305214	0.079699	0.130728	0.514116	0.364762	0.185988	0.203961	0.461879	0.275655	0.327605	0.309352	0.537615	0.200365	0.365767	0.254057	0.471947	0.228795	0.217916	0.483343	0.375317	0.154749	0.195486	0.166906	0.480799	0.252015	0.067791	0.128232	0.544370	0.261061	0.263221	0.230198	0.399268	0.263751	0.071699	0.464589	0.439436	0.188502	0.333382	0.207852	0.353536	0.231564
7	0.178559	0.256724	0.517827	0.380457	0.281480	0.260877	0.420776	0.642392	0.274408	0.202260	0.744827	0.127364	0.345670	0.139413	0.505145	0.279165	0.059556	0.152119	0.499096	0.357906	0.282275	0.311824	0.288561	0.301865	0.091464	0.133469	0.510542	0.382109	0.149619	0.247963	0.470322	0.340743	0.298518	0.299339	0.540546	0.203852	0.355706	0.231582	0.377746	0.271572	0.213830	0.655206	0.375945	0.153753	0.178871	0.182675	0.473862	0.252786	0.067191	0.127673	0.518415	0.244175	0.225339	0.271437	0.380994	0.267905	0.059989	0.446815	0.466783	0.314927	0.369414	0.177678	0.460678	0.243335
8	0.192096	0.220352	0.520872	0.263016	0.285365	0.230169	0.419004	0.678122	0.281570	0.204820	0.840092	0.149996	0.336335	0.178806	0.513004	0.251108	0.060174	0.151360	0.450146	0.253743	0.321769	0.323710	0.269278	0.326217	0.083194	0.140761	0.305164	0.331096	0.151380	0.253274	0.509280	0.354283	0.297107	0.330164	0.470238	0.241154	0.353155	0.213536	0.381346	0.350896	0.171967	0.671758	0.389688	0.164504	0.154600	0.193526	0.473989	0.281657	0.060227	0.119346	0.529450	0.241626	0.270460	0.491105	0.412755	0.282641	0.048168	0.316359	0.482889	0.340948	0.418694	0.194792	0.476595	0.276878
9	0.255787	0.161515	0.523042	0.269452	0.279000	0.218967	0.394899	0.696339	0.267438	0.198916	0.832446	0.201289	0.375403	0.178182	0.483564	0.270333	0.064332	0.124256	0.376165	0.257968	0.395776	0.351105	0.270155	0.475913	0.084345	0.118203	0.283328	0.307055	0.136072	0.236947	0.509880	0.361563	0.250194	0.331350	0.483574	0.280469	0.365714	0.245150	0.357091	0.360522	0.094940	0.691615	0.330918	0.197395	0.135186	0.202186	0.479839	0.300050	0.050996	0.116216	0.519148	0.269812	0.262118	0.548639	0.463168	0.411908	0.048482	0.239692	0.480311	0.363792	0.424889	0.231211	0.501875	0.274384
10	0.264733	0.139144	0.540698	0.411710	0.273253	0.216035	0.383408	0.700602	0.196599	0.175807	0.912178	0.269585	0.402401	0.180266	0.499948	0.388309	0.081983	0.114925	0.432061	0.255119	0.424022	0.355436	0.272731	0.485732	0.084655	0.108410	0.366644	0.217245	0.136383	0.242171	0.511746	0.364307	0.214381	0.330399	0.499875	0.288543	0.365914	0.311360	0.281155	0.372728	0.081734	0.696995	0.284951	0.225458	0.135126	0.244880	0.442401	0.326200	0.052623	0.118957	0.545315	0.305607	0.266769	0.570002	0.449478	0.429798	0.056465	0.220746	0.557476	0.379084	0.430211	0.261689	0.523613	0.299571
11	0.258169	0.112330	0.466379	0.441420	0.280920	0.221710	0.468894	0.700615	0.194736	0.128405	0.897697	0.270658	0.406969	0.183455	0.508069	0.427520	0.084532	0.115384	0.431448	0.231338	0.443406	0.359808	0.356775	0.504736	0.099283	0.130049	0.317664	0.211751	0.147914	0.249076	0.496431	0.370451	0.199368	0.321743	0.513960	0.304162	0.346813	0.329263	0.250390	0.382680	0.087613	0.701150	0.225273	0.255573	0.136899	0.265431	0.389787	0.374559	0.062531	0.102816	0.497241	0.458517	0.261931	0.582892	0.447627	0.492195	0.045549	0.112569	0.581974	0.377949	0.429446	0.269438	0.535526	0.327210
12	0.256308	0.102283	0.491389	0.504022	0.262804	0.191884	0.520629	0.700703	0.202467	0.104768	0.785944	0.273288	0.446076	0.175366	0.468328	0.436482	0.081515	0.114045	0.440612	0.217828	0.446708	0.356716	0.380091	0.525109	0.098304	0.145699	0.282699	0.209517	0.183358	0.266398	0.505948	0.351321	0.184145	0.313769	0.504832	0.309486	0.269542	0.327160	0.300683	0.502481	0.087596	0.693623	0.225292	0.241784	0.136338	0.264214	0.325140	0.416166	0.051011	0.094511	0.416263	0.484568	0.239779	0.574097	0.439640	0.492315	0.044250	0.093243	0.569191	0.397067	0.431807	0.294257	0.535321	0.397188
13	0.254584	0.086264	0.433940	0.519780	0.251012	0.168019	0.514999	0.584624	0.198920	0.086024	0.762725	0.284842	0.483834	0.212067	0.402969	0.601641	0.081929	0.109470	0.472463	0.364988	0.430768	0.291622	0.354417	0.538761	0.095387	0.148452	0.294580	0.179546	0.185262	0.278673	0.523380	0.327777	0.185938	0.284301	0.390903	0.307047	0.218157	0.324721	0.289207	0.553338	0.095148	0.651609	0.232827	0.238142	0.140270	0.283506	0.337181	0.429900	0.050773	0.094094	0.368815	0.477554	0.215231	0.576451	0.349990	0.484784	0.044521	0.087950	0.559751	0.400391	0.400760	0.299905	0.535219	0.440489
14	0.217877	0.090229	0.431693	0.541576	0.261530	0.207518	0.522034	0.490431	0.205246	0.092504	0.770950	0.333284	0.513165	0.238538	0.422042	0.672854	0.080017	0.106236	0.512146	0.418330	0.390357	0.230071	0.326737	0.523330	0.158217	0.310800	0.285016	0.171169	0.191111	0.278058	0.460603	0.296724	0.247721	0.186698	0.312044	0.294297	0.207219	0.291275	0.285646	0.546054	0.093514	0.413203	0.264399	0.239246	0.138821	0.295992	0.304268	0.429155	0.052052	0.099744	0.363276	0.480574	0.211932	0.559650	0.318167	0.470102	0.045636	0.080014	0.573695	0.401937	0.355509	0.298098	0.530930	0.486639
15	0.217267	0.087788	0.527569	0.526351	0.274511	0.220135	0.540399	0.475345	0.213185	0.109454	0.774343	0.344912	0.496081	0.253198	0.414290	0.674298	0.096004	0.106713	0.542490	0.474635	0.378604	0.238330	0.323594	0.549431	0.220252	0.492021	0.236825	0.121571	0.174493	0.245504	0.406928	0.256792	0.259043	0.203486	0.260695	0.256788	0.192025	0.284543	0.291170	0.535409	0.075703	0.276172	0.254432	0.251253	0.115191	0.278385	0.304972	0.420328	0.057756	0.115299	0.363006	0.473387	0.178469	0.540791	0.338782	0.504704	0.047356	0.076883	0.567862	0.394026	0.333725	0.300061	0.510178	0.514538
16	0.216190	0.090548	0.538355	0.529800	0.267105	0.221622	0.586592	0.423482	0.213405	0.116635	0.722621	0.340196	0.472550	0.238195	0.419407	0.673077	0.097952	0.104223	0.587225	0.563599	0.361797	0.240837	0.322589	0.571569	0.243953	0.596463	0.146654	0.124586	0.173312	0.187152	0.360817	0.175105	0.470394	0.180182	0.244298	0.249846	0.191982	0.283651	0.298031	0.584795	0.072468	0.212933	0.235239	0.249373	0.097975	0.277400	0.319132	0.426688	0.061745	0.132857	0.362522	0.468433	0.102448	0.335106	0.302706	0.507868	0.050326	0.073683	0.545590	0.292445	0.315321	0.303852	0.396333	0.527039
17	0.216148	0.094970	0.561195	0.528582	0.263183	0.220933	0.591235	0.372594	0.166362	0.113137	0.570358	0.331406	0.470739	0.260160	0.491928	0.667882	0.098259	0.109044	0.568482	0.633398	0.285216	0.194710	0.319433	0.450835	0.256049	0.605142	0.186732	0.170541	0.171151	0.185714	0.345613	0.178434	0.487430	0.206952	0.215010	0.238898	0.192407	0.285273	0.290394	0.571758	0.072247	0.219646	0.224046	0.202405	0.071340	0.266423	0.345329	0.406249	0.065475	0.152060	0.302328	0.476201	0.103570	0.269037	0.242945	0.414700	0.051630	0.070683	0.533732	0.261433	0.236414	0.327282	0.336199	0.510919
18	0.137879	0.088656	0.556518	0.498569	0.253998	0.219135	0.594807	0.305726	0.155323	0.103365	0.525259	0.334279	0.445925	0.355002	0.509412	0.689854	0.097923	0.111892	0.569684	0.660105	0.209248	0.166097	0.316215	0.400988	0.261546	0.604079	0.232513	0.167949	0.171573	0.185008	0.356645	0.184641	0.524587	0.339420	0.155419	0.227395	0.181750	0.283014	0.314745	0.538381	0.086268	0.341846	0.241389	0.165131	0.071008	0.269178	0.350810	0.403423	0.069924	0.166882	0.237856	0.467368	0.090874	0.225696	0.243534	0.428073	0.049636	0.067244	0.539603	0.267493	0.211951	0.365452	0.319031	0.576932
19	0.123017	0.093456	0.529116	0.396883	0.252717	0.216009	0.598184	0.256547	0.154227	0.102570	0.412960	0.275228	0.418960	0.386039	0.485168	0.677442	0.105264	0.118777	0.563252	0.660960	0.175225	0.153318	0.247587	0.393110	0.252638	0.599916	0.270979	0.155449	0.153904	0.172558	0.366178	0.176207	0.534254	0.416030	0.157202	0.212747	0.137594	0.253614	0.332201	0.527066	0.091247	0.419802	0.263768	0.164578	0.068426	0.238226	0.320165	0.358144	0.069815	0.171466	0.189792	0.457152	0.084109	0.265059	0.241379	0.364836	0.037871	0.058964	0.463824	0.258209	0.205650	0.363086	0.252289	0.608670
20	0.103064	0.098988	0.518201	0.352415	0.234138	0.214118	0.593710	0.240890	0.143229	0.100722	0.292510	0.262300	0.370510	0.474751	0.470496	0.669485	0.135302	0.122561	0.473209	0.661155	0.102685	0.147181	0.152705	0.370953	0.184970	0.447754	0.273188	0.149528	0.171703	0.186374	0.362236	0.166897	0.556743	0.421369	0.263166	0.284307	0.055443	0.161490	0.340856	0.516316	0.126194	0.537409	0.261448	0.161864	0.086402	0.214669	0.298449	0.340522	0.062915	0.183788	0.211573	0.420563	0.083774	0.279776	0.238627	0.367522	0.036074	0.061224	0.308090	0.250899	0.178190	0.398696	0.209809	0.599160
21	0.102736	0.100819	0.477999	0.275026	0.206696	0.203610	0.526147	0.241957	0.136660	0.099106	0.367119	0.263644	0.287210	0.575696	0.457643	0.629804	0.152538	0.123190	0.470608	0.666977	0.094228	0.141362	0.145899	0.338712	0.161189	0.360960	0.299476	0.165239	0.239747	0.154491	0.316055	0.175019	0.681334	0.439189	0.360484	0.287352	0.050982	0.143853	0.351680	0.515059	0.130442	0.536968	0.252263	0.163068	0.118461	0.272351	0.283449	0.349521	0.060426	0.184020	0.226633	0.370824	0.075192	0.317544	0.254773	0.401518	0.036263	0.090019	0.299986	0.219342	0.160661	0.404981	0.224682	0.595976
22	0.103473	0.100588	0.469355	0.348976	0.193775	0.183378	0.458454	0.245603	0.131770	0.098053	0.375895	0.256162	0.203935	0.580081	0.432924	0.504331	0.158352	0.121162	0.464341	0.653100	0.093676	0.141434	0.147789	0.328303	0.106393	0.258791	0.366696	0.173291	0.327322	0.149595	0.272897	0.169633	0.666686	0.438253	0.365737	0.288224	0.046712	0.149008	0.375733	0.404018	0.142069	0.541253	0.250799	0.261877	0.118906	0.324132	0.240028	0.351109	0.071842	0.224094	0.266484	0.448721	0.063932	0.312237	0.248675	0.396440	0.038905	0.221477	0.294201	0.216370	0.148824	0.445626	0.230060	0.527563
23	0.103666	0.092702	0.411713	0.424718	0.173370	0.179378	0.463913	0.326515	0.124783	0.095620	0.390223	0.242682	0.169824	0.592481	0.429443	0.481057	0.184629	0.123110	0.415007	0.596292	0.100220	0.133611	0.205080	0.318401	0.070907	0.306865	0.499198	0.274290	0.459194	0.156709	0.269837	0.159354	0.676833	0.422908	0.375933	0.263297	0.043445	0.156806	0.385149	0.323173	0.145920	0.543702	0.274325	0.300939	0.115560	0.312251	0.229592	0.347850	0.102435	0.274457	0.282954	0.570926	0.071064	0.310590	0.204104	0.335896	0.050262	0.414655	0.249629	0.209966	0.154486	0.592852	0.227172	0.511733
24	0.110698	0.091934	0.279534	0.433912	0.139064	0.125916	0.436425	0.380425	0.137585	0.077977	0.384651	0.241784	0.136755	0.595467	0.416991	0.480216	0.249068	0.145664	0.390785	0.570912	0.091683	0.107684	0.199754	0.236234	0.095640	0.332938	0.469298	0.372989	0.506368	0.261077	0.259918	0.160954	0.534334	0.424760	0.377079	0.244080	0.039271	0.169180	0.418717	0.324851	0.147917	0.543493	0.292654	0.303218	0.113684	0.304341	0.228348	0.346836	0.124162	0.274781	0.354090	0.596341	0.091131	0.307346	0.214412	0.320066	0.071954	0.440589	0.253481	0.209496	0.158894	0.741245	0.213447	0.470525
25	0.125315	0.086568	0.261289	0.436960	0.103602	0.095600	0.371896	0.398363	0.133760	0.054940	0.355266	0.249298	0.127795	0.596619	0.316955	0.479969	0.246344	0.152657	0.320724	0.537929	0.099296	0.083722	0.250930	0.215297	0.116700	0.341542	0.517807	0.548647	0.810715	0.317813	0.222547	0.164344	0.529026	0.404593	0.377126	0.225201	0.037144	0.175983	0.467385	0.338275	0.137638	0.454227	0.280927	0.298189	0.113629	0.293714	0.228073	0.335643	0.130526	0.268499	0.419310	0.591567	0.083771	0.307104	0.221028	0.303089	0.108101	0.460264	0.277626	0.197814	0.162946	0.753160	0.232886	0.438499
26	0.101616	0.077054	0.233693	0.493724	0.085220	0.113868	0.331508	0.424115	0.130690	0.049875	0.356559	0.254373	0.112340	0.570711	0.235929	0.461458	0.245855	0.154161	0.219733	0.439911	0.129343	0.078665	0.291436	0.197827	0.126217	0.350514	0.576401	0.566749	0.857744	0.319196	0.191221	0.122392	0.488409	0.295736	0.373281	0.221973	0.032258	0.167967	0.522276	0.264217	0.131779	0.430610	0.280400	0.297884	0.114108	0.292136	0.172794	0.341754	0.137310	0.267364	0.420507	0.586694	0.081621	0.285811	0.221527	0.246363	0.130796	0.462980	0.239994	0.195728	0.151842	0.758790	0.224543	0.429123
27	0.122602	0.118297	0.269292	0.512744	0.090592	0.129456	0.378637	0.463046	0.131290	0.049554	0.375089	0.270669	0.094089	0.521874	0.202956	0.340881	0.246129	0.150795	0.300995	0.334893	0.131032	0.079750	0.291166	0.134397	0.135655	0.324039	0.571380	0.556862	0.857813	0.317905	0.135444	0.108841	0.475535	0.201026	0.356318	0.201937	0.026856	0.164675	0.530878	0.272961	0.115241	0.162455	0.300900	0.299549	0.116576	0.289520	0.141030	0.329103	0.135866	0.262955	0.426132	0.608202	0.081282	0.215293	0.222527	0.231358	0.153871	0.473027	0.198952	0.146496	0.133730	0.748547	0.222195	0.389819
28	0.137510	0.143922	0.273770	0.512176	0.094560	0.162851	0.376570	0.491447	0.132494	0.048173	0.432503	0.267549	0.085136	0.500597	0.189747	0.273619	0.246035	0.151720	0.321396	0.294541	0.134278	0.094148	0.290500	0.114737	0.135485	0.304939	0.455653	0.547273	0.859608	0.314823	0.112973	0.111760	0.433233	0.183231	0.287226	0.074371	0.032165	0.172006	0.509612	0.250777	0.093203	0.145182	0.323369	0.299683	0.116867	0.296697	0.141095	0.326829	0.137460	0.259105	0.430295	0.616648	0.080285	0.190188	0.214854	0.171214	0.155245	0.513575	0.169515	0.122274	0.118137	0.733059	0.207096	0.247663
29	0.162540	0.143443	0.294177	0.512476	0.095230	0.192816	0.380610	0.502678	0.133089	0.062145	0.455514	0.269213	0.079799	0.358277	0.177793	0.274418	0.237726	0.145411	0.343272	0.293054	0.168171	0.109614	0.289191	0.105518	0.131125	0.302845	0.380928	0.440510	0.847135	0.299908	0.111830	0.096172	0.203085	0.139683	0.212377	0.096549	0.032302	0.174531	0.489948	0.241669	0.079798	0.146833	0.414943	0.306979	0.100948	0.296944	0.154514	0.298188	0.136630	0.250392	0.401972	0.579344	0.075961	0.091055	0.193855	0.139338	0.185329	0.538293	0.174932	0.127682	0.113712	0.717498	0.204075	0.212505
30	0.165582	0.151318	0.318027	0.508275	0.099042	0.212442	0.414435	0.510765	0.132875	0.076384	0.398541	0.263598	0.065838	0.256873	0.160401	0.255893	0.215395	0.145161	0.373485	0.293454	0.318625	0.112920	0.285647	0.104203	0.161769	0.304296	0.342580	0.377558	0.819317	0.294983	0.109589	0.101686	0.183935	0.141125	0.364274	0.098608	0.034434	0.178412	0.478470	0.241131	0.070268	0.139155	0.405055	0.486670	0.059268	0.255195	0.168350	0.206714	0.136405	0.252327	0.393820	0.535930	0.076132	0.063427	0.202695	0.279614	0.191438	0.713970	0.217560	0.130380	0.113193	0.690360	0.187615	0.213730
31	0.171661	0.158307	0.346503	0.435717	0.103029	0.249326	0.458613	0.531124	0.134233	0.079274	0.355478	0.262546	0.076948	0.173920	0.100364	0.176017	0.204697	0.179274	0.370445	0.279067	0.350289	0.116832	0.258416	0.097567	0.381812	0.301133	0.240258	0.081701	0.786625	0.293107	0.122896	0.142521	0.084552	0.144851	0.518864	0.235857	0.037308	0.167062	0.457214	0.233680	0.070569	0.135472	0.407009	0.524275	0.061123	0.156945	0.171593	0.156147	0.135482	0.312197	0.375419	0.517977	0.071873	0.093981	0.239903	0.397913	0.192406	0.819423	0.277477	0.132902	0.106241	0.685457	0.186339	0.158105
32	0.172635	0.171818	0.349916	0.339440	0.105023	0.257748	0.448874	0.529291	0.136320	0.076007	0.326519	0.258725	0.078154	0.161375	0.109330	0.179659	0.199630	0.180256	0.377846	0.284202	0.579344	0.170531	0.221779	0.087887	0.526383	0.295236	0.321963	0.070586	0.752581	0.268549	0.142821	0.168642	0.077266	0.128158	0.628991	0.382085	0.041782	0.180901	0.400469	0.234908	0.077607	0.134704	0.659555	0.561587	0.098482	0.151636	0.174327	0.148128	0.140701	0.384965	0.363761	0.358254	0.061276	0.128654	0.332678	0.480430	0.202101	1.040932	0.291543	0.146266	0.091945	0.613343	0.188686	0.108076
33	0.171196	0.242356	0.337626	0.333886	0.106514	0.259710	0.427332	0.447904	0.105405	0.079144	0.312944	0.200924	0.135544	0.130673	0.104510	0.180724	0.163432	0.212446	0.390431	0.247358	0.674364	0.197267	0.306237	0.181107	0.543000	0.325339	0.360386	0.154134	0.637574	0.176779	0.204777	0.229495	0.078074	0.137884	0.649324	0.431095	0.047514	0.280466	0.391138	0.239491	0.081016	0.143079	0.692969	0.579178	0.112734	0.153313	0.172982	0.172297	0.132935	0.403381	0.326945	0.249897	0.076503	0.142786	0.329483	0.575021	0.211142	1.321601	0.286610	0.227496	0.079845	0.366223	0.182398	0.093508
34	0.187412	0.259162	0.337834	0.293078	0.107266	0.259507	0.450613	0.394605	0.096053	0.097639	0.312155	0.180487	0.368417	0.099751	0.098085	0.182553	0.047958	0.286624	0.385067	0.187537	0.726597	0.193931	0.315130	0.275629	0.566356	0.331218	0.462686	0.224545	0.331430	0.178194	0.227040	0.246601	0.085053	0.169385	0.827911	0.559139	0.074407	0.416237	0.351884	0.237204	0.085754	0.161073	0.846146	0.590901	0.116856	0.163758	0.229166	0.393363	0.134468	0.527874	0.217645	0.233067	0.077763	0.145844	0.342934	0.578247	0.199119	1.322173	0.280666	0.246712	0.071447	0.254026	0.146897	0.092783
35	0.243281	0.370155	0.312111	0.168692	0.107637	0.257441	0.448861	0.371099	0.124839	0.261338	0.310379	0.195287	0.465648	0.166186	0.100201	0.182571	0.050301	0.351343	0.384505	0.184813	0.730772	0.208315	0.311235	0.342452	0.573562	0.299533	0.607501	0.235419	0.328986	0.195406	0.297077	0.250354	0.090182	0.187908	0.930890	0.585620	0.085521	0.423164	0.279040	0.221205	0.085530	0.162698	0.932695	0.594213	0.121849	0.209322	0.280705	0.439658	0.121634	0.564346	0.260442	0.369803	0.077998	0.157308	0.367187	0.578466	0.191517	1.334355	0.673473	0.258182	0.071499	0.229638	0.134990	0.092485
36	0.317693	0.412058	0.281808	0.111929	0.107507	0.250995	0.420006	0.343014	0.168427	0.620202	0.306860	0.176088	0.826296	0.291513	0.101793	0.170120	0.061798	0.574030	0.379564	0.156483	0.735285	0.217216	0.319368	0.343347	0.538480	0.298074	0.654035	0.238242	0.345476	0.194286	0.347107	0.300625	0.085320	0.188349	0.952801	0.591054	0.092164	0.442610	0.259854	0.223328	0.085855	0.161222	0.925045	0.588989	0.205850	0.224261	0.283252	0.584830	0.122408	0.562404	0.395022	0.422775	0.079798	0.161074	0.389760	0.578572	0.174070	1.334090	0.728655	0.267667	0.063904	0.159488	0.161289	0.094871
37	0.361449	0.477395	0.272424	0.112113	0.096712	0.243293	0.367493	0.286749	0.175529	0.675957	0.366818	0.154390	0.950196	0.300452	0.160976	0.165836	0.065999	0.621188	0.296081	0.114824	0.738984	0.212432	0.330239	0.345903	0.405845	0.322479	0.615391	0.265292	0.343553	0.191125	0.418183	0.310114	0.084214	0.187709	0.947436	0.588603	0.113602	0.483861	0.448175	0.211052	0.081371	0.148352	0.906016	0.447870	0.278624	0.237308	0.309749	0.631845	0.119085	0.562083	0.403366	0.451840	0.092944	0.187723	0.389896	0.570903	0.175241	1.319887	0.804821	0.387742	0.054132	0.151591	0.359346	0.138745
38	0.372993	0.486129	0.252682	0.118738	0.067146	0.219788	0.366966	0.223862	0.219026	0.737280	0.402836	0.186140	0.962281	0.301897	0.260668	0.122280	0.091236	0.668407	0.290281	0.169016	0.708203	0.238501	0.337831	0.348965	0.272680	0.366674	0.582033	0.359427	0.346806	0.203388	0.427325	0.315146	0.087017	0.182295	0.893021	0.586827	0.122711	0.490845	0.469188	0.342795	0.078372	0.189532	0.905227	0.322083	0.303350	0.239633	0.314411	0.631406	0.118406	0.561479	0.410029	0.501630	0.102568	0.197339	0.384055	0.491030	0.150161	1.310688	0.813752	0.394034	0.060292	0.159362	0.460255	0.138144
39	0.417622	0.487398	0.246560	0.396749	0.061137	0.188021	0.370172	0.232058	0.236512	0.752327	0.417090	0.235117	0.965402	0.305440	0.294409	0.193055	0.110235	0.700523	0.261261	0.312504	0.669038	0.292745	0.346953	0.349213	0.245833	0.295956	0.518594	0.315931	0.351407	0.229731	0.465214	0.312693	0.093532	0.173010	0.800732	0.534504	0.124803	0.487907	0.480946	0.468886	0.076331	0.208488	0.814333	0.225329	0.307934	0.255816	0.347585	0.631032	0.126169	0.562008	0.497359	0.501444	0.102608	0.306989	0.318773	0.426961	0.157010	1.237807	0.805848	0.418929	0.061261	0.208232	0.477626	0.136563
40	0.445283	0.485952	0.252964	0.427006	0.056590	0.165837	0.365595	0.289916	0.265756	0.755561	0.479451	0.317926	0.965168	0.312526	0.375868	0.203292	0.116352	0.702291	0.345111	0.345165	0.618875	0.304341	0.346716	0.350623	0.154323	0.280433	0.413151	0.323316	0.303341	0.244869	0.467527	0.319835	0.096486	0.149644	0.735504	0.457896	0.150594	0.500828	0.481223	0.484907	0.077151	0.296541	0.727057	0.181706	0.316992	0.389523	0.348196	0.633321	0.128661	0.547098	0.595939	0.501317	0.092138	0.322272	0.225960	0.293947	0.196495	1.164546	0.787698	0.427678	0.088800	0.208907	0.497223	0.126443
41	0.462168	0.485095	0.293963	0.462057	0.062814	0.115980	0.602485	0.296926	0.265753	0.755831	0.533523	0.357151	0.964144	0.326666	0.461487	0.219314	0.116876	0.695518	0.390849	0.351310	0.398858	0.285981	0.326126	0.356866	0.145596	0.264195	0.278082	0.316437	0.290197	0.249040	0.456184	0.276640	0.146638	0.138316	0.712034	0.392095	0.188407	0.529836	0.500978	0.545025	0.064885	0.308855	0.602390	0.122536	0.306988	0.584491	0.350395	0.638161	0.129120	0.476224	0.618261	0.509652	0.078931	0.331989	0.234332	0.088227	0.198206	0.953036	0.783633	0.422433	0.122612	0.205997	0.500381	0.136072
42	0.469719	0.462395	0.297175	0.468280	0.082674	0.138015	0.676319	0.378128	0.272183	0.756351	0.530382	0.371923	0.939942	0.337894	0.517534	0.225831	0.117718	0.695208	0.392697	0.387322	0.238582	0.282730	0.191807	0.259807	0.140095	0.256642	0.115262	0.316648	0.184630	0.232552	0.431718	0.260260	0.161820	0.098529	0.571764	0.293669	0.190693	0.528989	0.505040	0.590554	0.118366	0.301214	0.348039	0.148154	0.303227	0.707202	0.366862	0.633511	0.087896	0.459320	0.621208	0.513726	0.078197	0.345385	0.209019	0.078754	0.183090	0.410712	0.785739	0.385081	0.136075	0.235176	0.505045	0.161555
43	0.462367	0.449120	0.487281	0.479078	0.093061	0.178751	0.682640	0.385900	0.270871	0.754041	0.537677	0.371468	0.863136	0.333081	0.527675	0.232073	0.116436	0.681244	0.443117	0.426175	0.163590	0.277744	0.203162	0.175084	0.113206	0.169791	0.081979	0.230451	0.161135	0.202035	0.410369	0.249673	0.165542	0.082566	0.457089	0.279836	0.200258	0.493340	0.506707	0.622375	0.124609	0.302122	0.314289	0.228015	0.306601	0.990049	0.332564	0.531511	0.081754	0.360235	0.621822	0.514358	0.078783	0.348867	0.178634	0.114282	0.177248	0.414007	0.783128	0.371669	0.147763	0.465096	0.539627	0.166861
44	0.433798	0.362834	0.563292	0.496507	0.103311	0.191797	0.694837	0.423276	0.261030	0.749207	0.539345	0.373346	0.778955	0.249142	0.554437	0.238864	0.117317	0.646271	0.471300	0.445295	0.151575	0.272416	0.207035	0.163048	0.073074	0.062172	0.074214	0.153502	0.149342	0.199289	0.370695	0.231423	0.211897	0.128176	0.421158	0.294055	0.216930	0.465328	0.514461	0.636384	0.125921	0.305237	0.351020	0.247611	0.306163	0.990459	0.280708	0.475790	0.082415	0.231253	0.609346	0.504090	0.075419	0.361786	0.135257	0.136789	0.169469	0.421053	0.504356	0.360327	0.161120	0.493323	0.564975	0.174096
45	0.370200	0.297567	0.573002	0.500210	0.107378	0.191620	0.701226	0.471411	0.245511	0.558975	0.540260	0.384024	0.254329	0.184341	0.557188	0.236621	0.111391	0.590521	0.475226	0.451670	0.108361	0.300323	0.208975	0.156265	0.078936	0.060399	0.071756	0.108830	0.103391	0.200848	0.284206	0.174297	0.241563	0.215072	0.412095	0.322520	0.227109	0.551721	0.516405	0.635105	0.131730	0.297312	0.373178	0.263664	0.339154	0.988484	0.282436	0.288988	0.079057	0.215879	0.560071	0.396464	0.067059	0.360783	0.144135	0.144724	0.168044	0.429238	0.396626	0.352915	0.170759	0.530331	0.566185	0.183182
46	0.330606	0.194506	0.594222	0.500684	0.120729	0.204426	0.727495	0.521747	0.232357	0.425551	0.513929	0.381679	0.122283	0.183952	0.523045	0.228021	0.105742	0.386085	0.477489	0.451570	0.107558	0.305440	0.211185	0.230444	0.078808	0.061028	0.031121	0.064443	0.086281	0.200531	0.248669	0.165029	0.251254	0.290345	0.412818	0.368513	0.227938	0.554107	0.470486	0.629116	0.136361	0.272427	0.377471	0.263428	0.362738	0.983695	0.251114	0.114467	0.079509	0.212545	0.517428	0.377378	0.056741	0.349038	0.146765	0.163982	0.166835	0.431433	0.210524	0.208859	0.179384	0.579882	0.524087	0.208814
47	0.310598	0.177180	0.602090	0.496059	0.144611	0.249679	0.828371	0.540617	0.208223	0.251117	0.411762	0.374931	0.130902	0.180480	0.493833	0.215719	0.100259	0.338550	0.476304	0.451646	0.103951	0.268692	0.213881	0.256400	0.078404	0.067027	0.030061	0.062949	0.082181	0.203500	0.210179	0.184925	0.255179	0.490958	0.418595	0.401606	0.221010	0.575506	0.274479	0.635195	0.138332	0.237090	0.365502	0.262964	0.448190	0.993056	0.246867	0.141135	0.083868	0.215251	0.526321	0.252378	0.052069	0.246480	0.161090	0.240065	0.170894	0.434196	0.182880	0.188716	0.176706	0.578597	0.366853	0.223541
48	0.224168	0.173026	0.592392	0.331043	0.158803	0.275567	0.881288	0.544759	0.173694	0.150062	0.372047	0.343108	0.157037	0.174087	0.482295	0.156069	0.075961	0.212928	0.467423	0.418081	0.076776	0.220166	0.212905	0.269900	0.076010	0.076101	0.041551	0.149009	0.074761	0.183854	0.137074	0.167384	0.274466	0.542714	0.419479	0.406413	0.224602	0.570466	0.241207	0.578931	0.135335	0.096515	0.371804	0.321029	0.534637	0.992219	0.203737	0.269364	0.082939	0.215934	0.495309	0.255409	0.055759	0.247590	0.182841	0.344979	0.159703	0.425485	0.204569	0.126513	0.176505	0.567252	0.348987	0.219259
49	0.186665	0.194378	0.606115	0.325123	0.159994	0.280035	0.880271	0.530696	0.140242	0.190626	0.356428	0.326930	0.164238	0.159016	0.384031	0.114297	0.050411	0.094101	0.454152	0.322453	0.058329	0.200454	0.214579	0.264572	0.046050	0.129988	0.059087	0.150623	0.073872	0.174567	0.156618	0.205321	0.269914	0.589130	0.423468	0.402124	0.233526	0.579879	0.231025	0.479787	0.110749	0.093578	0.462183	0.307759	0.917722	0.954003	0.275791	0.273094	0.072104	0.212310	0.365540	0.261916	0.061328	0.255389	0.228929	0.396878	0.104288	0.374598	0.241131	0.248392	0.174842	0.559684	0.295807	0.216002
50	0.133279	0.173346	0.595859	0.287482	0.158278	0.279239	0.870807	0.495063	0.111410	0.243153	0.298182	0.230843	0.213036	0.127318	0.297193	0.098743	0.039770	0.047972	0.372813	0.303476	0.050537	0.195798	0.209942	0.285139	0.038693	0.243116	0.099787	0.155408	0.118541	0.161352	0.236617	0.224239	0.265130	0.633875	0.273792	0.330573	0.221313	0.569363	0.230914	0.464112	0.085427	0.084222	0.469181	0.442533	0.920755	0.848179	0.291548	0.270015	0.067105	0.199643	0.308986	0.256380	0.066520	0.243888	0.266407	0.412963	0.074645	0.330982	0.245462	0.369410	0.150905	0.595702	0.288616	0.213440
51	0.101283	0.162463	0.601757	0.276435	0.153759	0.273027	0.712338	0.476175	0.095873	0.270023	0.299966	0.453613	0.226846	0.110872	0.238849	0.090847	0.043057	0.080531	0.348243	0.293603	0.047437	0.208621	0.209829	0.274335	0.053744	0.262221	0.115648	0.180162	0.181062	0.164870	0.265253	0.224359	0.280473	0.687964	0.283243	0.321461	0.189184	0.543747	0.189387	0.391006	0.078922	0.084751	0.394353	0.490396	0.921960	0.769586	0.399507	0.276532	0.059891	0.172515	0.329251	0.240095	0.069809	0.241561	0.269159	0.425176	0.073445	0.319487	0.319501	0.425051	0.125705	0.624982	0.280753	0.200358
52	0.078789	0.207699	0.456620	0.253548	0.146545	0.253848	0.628439	0.416485	0.091014	0.283930	0.521781	0.556075	0.247380	0.133344	0.219654	0.071489	0.045847	0.112471	0.364606	0.228902	0.054535	0.211052	0.184330	0.277463	0.060316	0.264022	0.144050	0.191533	0.229384	0.209646	0.360751	0.224670	0.260550	0.698614	0.289707	0.337971	0.186450	0.542755	0.216368	0.320567	0.071528	0.070528	0.441483	0.547750	0.923857	0.288836	0.460620	0.283472	0.055970	0.151742	0.331548	0.238934	0.075190	0.228219	0.316220	0.419376	0.082176	0.278790	0.426607	0.454854	0.122720	0.644516	0.246866	0.185092
53	0.080867	0.216860	0.453108	0.238908	0.140795	0.224623	0.619982	0.411149	0.091126	0.284250	0.713884	0.559611	0.268151	0.137549	0.266616	0.168183	0.049578	0.116032	0.297153	0.153821	0.051634	0.174567	0.171708	0.281031	0.068268	0.299263	0.143759	0.247845	0.369506	0.297430	0.401518	0.273871	0.254098	0.669937	0.308370	0.630901	0.216955	0.538436	0.230358	0.251259	0.067439	0.090546	0.450238	0.548754	0.924135	0.247924	0.458321	0.297590	0.050602	0.127347	0.330239	0.222311	0.066031	0.221476	0.315728	0.418097	0.085699	0.182082	0.580115	0.472863	0.114158	0.605154	0.148300	0.187894
54	0.079540	0.233135	0.442199	0.236713	0.136998	0.213199	0.590860	0.381358	0.075767	0.285026	0.730229	0.581790	0.267404	0.123282	0.318044	0.239982	0.047881	0.123828	0.268906	0.093795	0.051802	0.146124	0.155883	0.259248	0.075385	0.317173	0.153807	0.321799	0.430166	0.314065	0.525810	0.344478	0.242122	0.642992	0.329772	0.671277	0.204679	0.469469	0.225793	0.230363	0.074729	0.137490	0.469186	0.569960	0.902007	0.231530	0.474498	0.300525	0.048192	0.174961	0.320705	0.187383	0.064178	0.256467	0.341120	0.412338	0.089430	0.143884	0.595768	0.499227	0.123395	0.602082	0.136290	0.204588
55	0.082080	0.244323	0.420860	0.235620	0.143546	0.214283	0.577284	0.338588	0.056187	0.281339	0.762747	0.597466	0.262145	0.118681	0.326293	0.266528	0.053332	0.143166	0.293199	0.091620	0.050649	0.146788	0.144742	0.188881	0.094081	0.304737	0.150800	0.370112	0.430491	0.310098	0.533516	0.362623	0.244485	0.501981	0.327297	0.739656	0.188225	0.341368	0.241600	0.294672	0.081320	0.153791	0.469275	0.573385	0.869553	0.234054	0.491209	0.305286	0.055177	0.180517	0.334283	0.163739	0.079621	0.268455	0.340183	0.352856	0.093846	0.147449	0.619068	0.520937	0.107575	0.539368	0.199826	0.177261
56	0.090755	0.283723	0.413059	0.234281	0.198236	0.200514	0.544156	0.312578	0.085156	0.276615	0.771507	0.612421	0.237617	0.117622	0.323660	0.267672	0.080017	0.180343	0.297897	0.113058	0.049152	0.306010	0.163137	0.178676	0.090533	0.206929	0.149101	0.391091	0.428388	0.295174	0.546347	0.357162	0.227886	0.452948	0.328938	0.782538	0.187187	0.316843	0.287701	0.300865	0.080367	0.154785	0.425358	0.558620	0.823214	0.192057	0.500956	0.306217	0.066225	0.180165	0.324500	0.165104	0.105088	0.237147	0.336697	0.282330	0.086686	0.156951	0.646609	0.548816	0.107084	0.531520	0.263042	0.124699
57	0.123661	0.291775	0.412814	0.194986	0.203896	0.172771	0.376400	0.293714	0.097313	0.308656	0.784887	0.616167	0.230563	0.114802	0.323998	0.273216	0.082119	0.379599	0.298689	0.122336	0.051214	0.326651	0.214497	0.208048	0.099509	0.214755	0.128055	0.441965	0.428371	0.301596	0.559618	0.374982	0.199962	0.401714	0.356664	0.788962	0.188235	0.194840	0.314958	0.300593	0.086495	0.166089	0.359003	0.515638	0.773007	0.177594	0.522060	0.234923	0.092410	0.175162	0.317955	0.156098	0.131581	0.218973	0.313993	0.195019	0.097363	0.143826	0.643147	0.589866	0.140933	0.531950	0.324150	0.121516
58	0.152785	0.333859	0.381079	0.167009	0.215245	0.158751	0.218782	0.289194	0.101197	0.315730	0.787707	0.613124	0.195949	0.101280	0.415003	0.303070	0.092593	0.385734	0.303357	0.141039	0.051980	0.329786	0.280266	0.214192	0.107145	0.209085	0.140495	0.443448	0.427106	0.300267	0.526342	0.342398	0.208152	0.317389	0.353835	0.789721	0.177529	0.186040	0.323868	0.297403	0.089559	0.169377	0.346209	0.411148	0.151001	0.175036	0.503689	0.241900	0.121198	0.211017	0.331955	0.162425	0.208973	0.208295	0.278551	0.168606	0.099499	0.155028	0.669938	0.554209	0.153282	0.532573	0.324132	0.138522
59	0.187123	0.469001	0.370250	0.139951	0.232357	0.150633	0.200754	0.289697	0.094242	0.258469	0.768486	0.607045	0.174837	0.099389	0.555876	0.308939	0.103829	0.385262	0.315257	0.148727	0.053393	0.336702	0.280645	0.199830	0.120221	0.194831	0.206525	0.376121	0.411994	0.299378	0.519873	0.342162	0.177583	0.150971	0.332031	0.795041	0.164086	0.153498	0.334594	0.327694	0.089124	0.176557	0.302268	0.262790	0.116079	0.149807	0.509077	0.241381	0.172427	0.241932	0.344139	0.183794	0.233026	0.255887	0.272487	0.134331	0.108745	0.183600	0.745775	0.519127	0.216905	0.532785	0.364432	0.157187
60	0.188194	0.508815	0.373142	0.155093	0.247751	0.149869	0.181242	0.297324	0.093061	0.249417	0.749796	0.562698	0.152394	0.108849	0.562875	0.340182	0.105606	0.385681	0.355418	0.171156	0.050779	0.330266	0.295698	0.198824	0.114872	0.320381	0.199366	0.286993	0.378857	0.289607	0.487391	0.340667	0.158546	0.108260	0.304941	0.746979	0.160395	0.146512	0.339032	0.378115	0.089057	0.167794	0.247172	0.281424	0.102662	0.170338	0.477572	0.233298	0.220510	0.251516	0.314433	0.181022	0.247575	0.309404	0.218107	0.149261	0.114339	0.194696	0.764767	0.506492	0.265541	0.556501	0.485654	0.197411
61	0.189264	0.506954	0.400528	0.168498	0.255067	0.154769	0.130268	0.292214	0.095664	0.234751	0.722649	0.333330	0.094917	0.102454	0.555641	0.332073	0.107301	0.380006	0.386308	0.182905	0.043822	0.343142	0.295102	0.191910	0.118388	0.373175	0.217629	0.271887	0.365451	0.247107	0.442893	0.337703	0.154911	0.099052	0.304212	0.557372	0.161430	0.133679	0.337005	0.552519	0.074531	0.142816	0.176495	0.275319	0.071811	0.229280	0.415171	0.223384	0.226971	0.247726	0.327695	0.183451	0.248183	0.319264	0.214405	0.147282	0.109975	0.192843	0.726330	0.490001	0.287508	0.435258	0.499443	0.299260
62	0.196403	0.517035	0.327197	0.142026	0.256468	0.155135	0.127764	0.283671	0.099792	0.244482	0.438016	0.317222	0.080046	0.120497	0.535770	0.301441	0.115834	0.416255	0.359701	0.180379	0.035704	0.341150	0.293812	0.194096	0.121628	0.394764	0.252449	0.139225	0.096183	0.142443	0.309464	0.248271	0.162861	0.103103	0.277092	0.441567	0.171990	0.130214	0.360593	0.609738	0.064233	0.111840	0.189571	0.207189	0.063810	0.258825	0.428116	0.209321	0.227731	0.245698	0.466540	0.186604	0.247023	0.287776	0.170664	0.148886	0.107745	0.196007	0.636633	0.474284	0.292807	0.331425	0.535829	0.324724
63	0.197668	0.509908	0.339666	0.148302	0.268399	0.155430	0.148093	0.279839	0.102608	0.307563	0.354026	0.266032	0.100839	0.178089	0.532111	0.227376	0.131412	0.431945	0.380829	0.195802	0.031758	0.385492	0.291719	0.193737	0.147335	0.403831	0.257846	0.130245	0.049868	0.134757	0.206698	0.198014	0.170985	0.105706	0.273613	0.303812	0.119846	0.119553	0.423883	0.610900	0.069030	0.118655	0.185875	0.277630	0.150541	0.265794	0.435547	0.214105	0.229723	0.219925	0.543413	0.193736	0.243868	0.279713	0.193347	0.151063	0.121509	0.217719	0.827236	0.451044	0.282964	0.326172	0.593461	0.371190
64	0.192626	0.499348	0.343128	0.160613	0.268496	0.153815	0.148983	0.273563	0.139606	0.333074	0.269571	0.201218	0.107429	0.194730	0.531735	0.228685	0.138711	0.430544	0.383913	0.197234	0.031617	0.345653	0.284501	0.194533	0.164594	0.408586	0.220120	0.149083	0.049278	0.127010	0.192713	0.157853	0.162649	0.108876	0.259872	0.164251	0.093217	0.131786	0.426546	0.609511	0.077294	0.119086	0.217578	0.364300	0.199848	0.258930	0.421800	0.207471	0.232162	0.217110	0.541408	0.196620	0.235961	0.283295	0.167898	0.159403	0.128849	0.224509	0.963265	0.425402	0.291424	0.321548	0.717651	0.375185
65	0.183186	0.475377	0.372635	0.263006	0.263737	0.150515	0.144893	0.256408	0.163826	0.344718	0.232437	0.151828	0.107733	0.195246	0.531481	0.231854	0.141344	0.425897	0.360266	0.185817	0.033274	0.293039	0.283225	0.168291	0.175858	0.380152	0.312607	0.158328	0.048962	0.114431	0.129664	0.143744	0.218370	0.097875	0.187298	0.146503	0.092655	0.143038	0.416238	0.585227	0.095913	0.105673	0.259808	0.397784	0.208272	0.256600	0.402918	0.193944	0.234185	0.224289	0.577449	0.197109	0.221839	0.287393	0.199607	0.163626	0.123614	0.217531	0.944562	0.426464	0.291662	0.353643	0.713341	0.383076
66	0.166531	0.471595	0.431346	0.274518	0.219742	0.161132	0.189525	0.197123	0.158281	0.339001	0.230332	0.107084	0.098026	0.199003	0.529961	0.228855	0.129693	0.399610	0.357192	0.183176	0.030400	0.294172	0.207430	0.156915	0.181040	0.286116	0.338826	0.179243	0.048584	0.086189	0.098371	0.096616	0.208154	0.096984	0.157324	0.156998	0.094577	0.163889	0.386274	0.597134	0.109987	0.095239	0.278611	0.401026	0.210472	0.256685	0.376867	0.149856	0.229296	0.227338	0.592637	0.210525	0.142595	0.296129	0.211471	0.165888	0.120340	0.216905	0.973509	0.461216	0.290030	0.379104	0.702103	0.386770
67	0.132996	0.418551	0.432254	0.312110	0.200702	0.162589	0.208794	0.308812	0.206324	0.306981	0.232178	0.095787	0.099366	0.213224	0.357005	0.203135	0.131083	0.249259	0.358959	0.215848	0.035648	0.297076	0.191085	0.115561	0.173705	0.190782	0.437110	0.225264	0.049376	0.088869	0.093423	0.086143	0.207723	0.085828	0.145990	0.116940	0.090590	0.170818	0.366363	0.593017	0.109766	0.093093	0.293857	0.376825	0.211608	0.255677	0.366470	0.215420	0.209049	0.213797	0.589150	0.206227	0.170382	0.248059	0.221878	0.144479	0.121334	0.212936	1.019038	0.452534	0.281252	0.386224	0.713623	0.380600
68	0.089635	0.269893	0.460953	0.575489	0.177620	0.139517	0.274640	0.338355	0.247244	0.302804	0.251546	0.116331	0.101465	0.268498	0.252177	0.200456	0.123114	0.248378	0.353321	0.216169	0.035819	0.292780	0.214775	0.136072	0.158813	0.138543	0.426829	0.237093	0.052332	0.157454	0.098289	0.089578	0.196873	0.107138	0.140979	0.123757	0.089623	0.168897	0.367851	0.592311	0.112501	0.083397	0.344792	0.370981	0.218257	0.250940	0.343744	0.303151	0.194991	0.171798	0.562654	0.178312	0.178094	0.179595	0.231411	0.116269	0.120549	0.192100	0.996434	0.447708	0.239492	0.389540	0.715191	0.378794
69	0.087650	0.206577	0.519300	0.599115	0.158654	0.157484	0.339000	0.370635	0.271617	0.287468	0.257184	0.116269	0.093232	0.258913	0.246102	0.156981	0.114231	0.248592	0.348750	0.212920	0.036058	0.294222	0.289394	0.133632	0.128562	0.120629	0.442682	0.214416	0.073690	0.202760	0.099749	0.089755	0.193311	0.117517	0.169443	0.121786	0.089662	0.169539	0.358288	0.583792	0.112733	0.103246	0.344310	0.373645	0.220672	0.234259	0.266452	0.319490	0.122621	0.144678	0.551188	0.196144	0.188652	0.148430	0.227839	0.116126	0.120637	0.194145	0.987877	0.465171	0.207874	0.313481	0.653592	0.369928
70	0.082270	0.158392	0.489902	0.652199	0.138365	0.173826	0.376875	0.375809	0.272367	0.286525	0.285571	0.128951	0.091467	0.268211	0.183802	0.212417	0.112737	0.247914	0.279991	0.194416	0.036365	0.282264	0.305710	0.133352	0.106325	0.128025	0.438740	0.205371	0.090869	0.431210	0.100080	0.088066	0.194640	0.182058	0.198774	0.144035	0.089485	0.169199	0.364549	0.554605	0.110108	0.101156	0.340857	0.316090	0.220407	0.179316	0.243851	0.323731	0.092126	0.141211	0.545970	0.204939	0.232750	0.155171	0.235123	0.103485	0.120195	0.205771	0.991137	0.490192	0.153999	0.296760	0.621238	0.295421
71	0.053595	0.126543	0.489947	0.661271	0.131661	0.183797	0.382213	0.386243	0.275365	0.286730	0.295570	0.129337	0.079735	0.249959	0.143782	0.212244	0.109162	0.248847	0.328299	0.190051	0.035137	0.253866	0.315707	0.131395	0.075312	0.130550	0.386261	0.201877	0.116694	0.449446	0.101233	0.088500	0.183928	0.211945	0.203507	0.145266	0.087070	0.166335	0.367004	0.388483	0.104783	0.092479	0.331298	0.269011	0.227418	0.151160	0.231114	0.339133	0.100644	0.142816	0.492136	0.204604	0.249009	0.154920	0.212496	0.140562	0.123532	0.206073	0.981448	0.487148	0.172133	0.300474	0.582771	0.268268
72	0.042113	0.146303	0.535633	0.659962	0.135526	0.200304	0.408466	0.396358	0.275720	0.261269	0.294610	0.127544	0.067255	0.238973	0.139941	0.223820	0.094610	0.223623	0.314479	0.231281	0.036845	0.202218	0.334694	0.130715	0.070609	0.121093	0.341545	0.234598	0.118641	0.456173	0.101112	0.089250	0.168771	0.226758	0.216756	0.195371	0.062000	0.152049	0.321518	0.268026	0.082880	0.117469	0.304808	0.117927	0.196612	0.135527	0.194462	0.369766	0.102985	0.140072	0.331062	0.209838	0.254529	0.137987	0.218081	0.136314	0.120658	0.182798	0.829782	0.488576	0.199186	0.318903	0.568145	0.178870
73	0.042408	0.140112	0.615282	0.662297	0.114876	0.213417	0.453491	0.399628	0.266823	0.181315	0.292905	0.127274	0.099277	0.259737	0.133157	0.216696	0.077521	0.327652	0.281867	0.275300	0.039548	0.163386	0.343286	0.134987	0.080360	0.130778	0.229169	0.231995	0.120647	0.459034	0.089113	0.094467	0.104664	0.247181	0.223474	0.224753	0.055627	0.155295	0.211302	0.271014	0.053153	0.168892	0.275118	0.105104	0.136162	0.137505	0.196008	0.392772	0.110966	0.120336	0.329160	0.204287	0.256971	0.136331	0.184124	0.138887	0.110490	0.158981	0.621827	0.488387	0.200744	0.332469	0.383835	0.106150
74	0.039630	0.137237	0.608890	0.627639	0.110536	0.216969	0.484319	0.397503	0.246995	0.176904	0.294661	0.123855	0.114790	0.334159	0.136436	0.214940	0.066952	0.450308	0.272241	0.280565	0.071744	0.129396	0.340093	0.115597	0.100113	0.134197	0.238616	0.214019	0.132803	0.459857	0.090739	0.093058	0.103136	0.258562	0.223090	0.237150	0.058905	0.155574	0.196282	0.266184	0.058755	0.208535	0.245936	0.089337	0.123355	0.127067	0.199035	0.395447	0.102017	0.095656	0.257648	0.231071	0.247385	0.104308	0.183440	0.136036	0.109380	0.156234	0.617293	0.466135	0.210585	0.402283	0.272640	0.111621
75	0.038500	0.135910	0.575689	0.629365	0.110904	0.218873	0.493857	0.407149	0.236847	0.185896	0.285987	0.115731	0.133587	0.460535	0.187644	0.269786	0.059349	0.456873	0.274212	0.279828	0.079594	0.095090	0.349662	0.127440	0.107301	0.117032	0.197739	0.227978	0.140550	0.462437	0.097221	0.151431	0.108569	0.263854	0.230106	0.259964	0.058953	0.149505	0.210233	0.269257	0.066051	0.277385	0.211651	0.146623	0.122633	0.135508	0.196842	0.395767	0.094903	0.086896	0.183106	0.239167	0.218676	0.097716	0.178052	0.137042	0.102550	0.140225	0.578594	0.380493	0.285847	0.374906	0.249837	0.102592
76	0.035438	0.142190	0.558847	0.593890	0.110581	0.218135	0.480188	0.411163	0.229956	0.186207	0.231271	0.112429	0.139619	0.449413	0.217957	0.275769	0.056791	0.456173	0.273087	0.268719	0.084460	0.088012	0.345673	0.114625	0.146431	0.109222	0.244723	0.294886	0.162158	0.450951	0.098325	0.173418	0.250912	0.251904	0.251566	0.299857	0.059752	0.142856	0.241219	0.222313	0.064639	0.294755	0.221952	0.455054	0.123515	0.147447	0.163067	0.360630	0.097735	0.102852	0.178159	0.254861	0.193523	0.101557	0.168098	0.159368	0.101501	0.133649	0.470258	0.437276	0.302804	0.359653	0.163888	0.110117
77	0.034498	0.139535	0.526080	0.360472	0.107202	0.195574	0.472748	0.324120	0.137255	0.199225	0.194636	0.096157	0.141699	0.439500	0.244631	0.279067	0.052770	0.453695	0.271085	0.240841	0.086236	0.082652	0.289651	0.098965	0.165758	0.210186	0.287753	0.329836	0.170659	0.439508	0.091187	0.180809	0.285246	0.247474	0.216629	0.303780	0.113830	0.146781	0.268015	0.197332	0.068043	0.303111	0.245365	0.533060	0.106377	0.144285	0.165990	0.275913	0.096251	0.101206	0.184446	0.306366	0.186865	0.101576	0.165767	0.181527	0.106884	0.132351	0.409814	0.422807	0.305562	0.351456	0.110116	0.112966
78	0.041770	0.153156	0.445355	0.308825	0.105858	0.212659	0.435598	0.290869	0.118389	0.240569	0.184484	0.091308	0.141501	0.437420	0.256659	0.267717	0.056659	0.457168	0.266858	0.308833	0.093564	0.072073	0.253363	0.093656	0.170080	0.334799	0.302927	0.297640	0.157865	0.330771	0.116711	0.193828	0.286125	0.414251	0.187750	0.292376	0.133229	0.152708	0.265973	0.203045	0.075275	0.311255	0.258988	0.560397	0.099260	0.144354	0.192418	0.254168	0.097732	0.114237	0.241774	0.520890	0.123893	0.087853	0.148435	0.182930	0.136941	0.121757	0.324905	0.354894	0.305262	0.342198	0.128886	0.126546
79	0.041972	0.161509	0.444350	0.169647	0.103244	0.237539	0.387419	0.260155	0.074580	0.309974	0.155982	0.079487	0.139012	0.443568	0.318628	0.257656	0.058046	0.456712	0.278429	0.335657	0.152086	0.071434	0.264922	0.096566	0.182047	0.466843	0.359139	0.277312	0.149561	0.160733	0.140358	0.224582	0.326991	0.540504	0.203864	0.291854	0.137335	0.226142	0.290340	0.196892	0.082092	0.304355	0.374429	0.563313	0.094650	0.144589	0.209396	0.251545	0.095861	0.121761	0.264034	0.581186	0.086689	0.092153	0.214651	0.149115	0.154532	0.109377	0.297284	0.312705	0.301673	0.352187	0.149212	0.149494
80	0.125696	0.152508	0.436984	0.149876	0.097553	0.242947	0.355397	0.243236	0.061396	0.318366	0.115949	0.109632	0.137973	0.465872	0.317164	0.254468	0.058861	0.457418	0.324199	0.347683	0.170656	0.073171	0.244176	0.183461	0.261159	0.508880	0.352893	0.274164	0.135399	0.092681	0.284126	0.234376	0.333492	0.561866	0.211370	0.267364	0.137834	0.262118	0.339647	0.221265	0.085345	0.338941	0.410763	0.566653	0.074429	0.133608	0.202722	0.230492	0.087545	0.119185	0.312787	0.763227	0.052738	0.094884	0.274965	0.145976	0.155998	0.108875	0.273919	0.328171	0.290050	0.348024	0.151654	0.154224
81	0.187782	0.129635	0.355875	0.283387	0.085674	0.237575	0.356961	0.227768	0.053284	0.320819	0.115174	0.220709	0.125514	0.530375	0.323843	0.250364	0.055978	0.443714	0.318471	0.381047	0.172404	0.069842	0.228728	0.234329	0.360469	0.571418	0.348960	0.209641	0.136336	0.082257	0.333753	0.243865	0.340297	0.654772	0.275859	0.393185	0.138442	0.319000	0.348276	0.304571	0.096385	0.353335	0.430964	0.568002	0.051791	0.164610	0.184353	0.175953	0.078469	0.119123	0.335598	0.794383	0.046072	0.097414	0.269962	0.136577	0.150400	0.121572	0.282518	0.337224	0.266621	0.363984	0.154041	0.160571
82	0.453102	0.172870	0.192166	0.540843	0.068472	0.224469	0.329912	0.271554	0.049142	0.327029	0.152442	0.337402	0.099405	0.515901	0.327622	0.254839	0.056234	0.424201	0.334912	0.371265	0.183894	0.069383	0.193633	0.285501	0.362381	0.611158	0.280028	0.170543	0.131115	0.071408	0.354852	0.241712	0.343540	0.702514	0.326170	0.382080	0.145276	0.320702	0.370731	0.313912	0.163365	0.588453	0.418997	0.567739	0.054019	0.192494	0.188958	0.120214	0.061877	0.118592	0.362933	0.793578	0.047221	0.100311	0.270908	0.132154	0.226104	0.181166	0.312263	0.407368	0.249034	0.348269	0.169996	0.163813
83	0.523220	0.237153	0.330488	0.592467	0.055557	0.211360	0.287920	0.271120	0.046712	0.327698	0.239186	0.368839	0.090936	0.489989	0.308018	0.211832	0.053412	0.295907	0.371464	0.390837	0.185722	0.085248	0.219079	0.339955	0.363627	0.586126	0.282546	0.112947	0.120422	0.060195	0.465437	0.262288	0.353869	0.705305	0.322666	0.366095	0.150223	0.317979	0.373777	0.317093	0.176188	0.689505	0.400816	0.384776	0.055726	0.211519	0.194484	0.111378	0.056014	0.116735	0.458921	0.784529	0.044027	0.093947	0.265989	0.155377	0.280915	0.208048	0.313473	0.454517	0.247540	0.297328	0.180872	0.172744
84	0.536679	0.293941	0.471695	0.714369	0.053276	0.207770	0.253983	0.269974	0.045009	0.315381	0.287754	0.397184	0.054708	0.412337	0.297273	0.170558	0.044738	0.127839	0.417931	0.389598	0.190774	0.090136	0.224733	0.348460	0.375398	0.450370	0.221938	0.164561	0.100695	0.061121	0.549688	0.273231	0.275752	0.707277	0.303584	0.397233	0.151072	0.312516	0.385030	0.311813	0.193084	0.708588	0.366654	0.279918	0.046342	0.201162	0.188412	0.115696	0.068086	0.130883	0.528708	0.776381	0.041313	0.091478	0.264774	0.206259	0.283280	0.210356	0.302561	0.456247	0.174162	0.222454	0.204695	0.170714
85	0.610479	0.403199	0.527084	0.743360	0.051578	0.209451	0.246254	0.254010	0.047855	0.309715	0.288800	0.404924	0.049688	0.431365	0.278171	0.147697	0.044856	0.101332	0.419816	0.389904	0.222354	0.104801	0.244925	0.349099	0.365908	0.405969	0.220034	0.240839	0.070065	0.116501	0.566803	0.303924	0.239014	0.708460	0.308896	0.422037	0.185238	0.313961	0.395137	0.301612	0.210189	0.736842	0.356294	0.159427	0.036389	0.185642	0.192228	0.114343	0.069898	0.131157	0.554281	0.771896	0.038864	0.091076	0.263630	0.192226	0.290566	0.224075	0.273197	0.406106	0.088819	0.225165	0.204616	0.160592
86	0.852412	0.449785	0.528741	0.783136	0.050831	0.205202	0.245430	0.233141	0.050128	0.308076	0.375349	0.430216	0.048029	0.456950	0.270986	0.118457	0.046735	0.095940	0.426763	0.392289	0.234711	0.100197	0.314607	0.396974	0.232018	0.411741	0.228509	0.249948	0.067280	0.136490	0.564444	0.386334	0.234378	0.585912	0.560146	0.425341	0.243904	0.319374	0.385073	0.300054	0.209778	0.743524	0.279638	0.181756	0.035516	0.185675	0.191976	0.112579	0.067028	0.126980	0.550785	0.765922	0.039496	0.086648	0.263458	0.193637	0.296597	0.242193	0.260792	0.435028	0.098243	0.228728	0.206912	0.169076
87	0.858875	0.448262	0.528496	0.834528	0.051399	0.209266	0.241672	0.254110	0.046457	0.292792	0.478773	0.437013	0.058946	0.460055	0.225831	0.083020	0.049413	0.091683	0.476505	0.402558	0.212739	0.100402	0.337379	0.543907	0.197417	0.399756	0.226037	0.305653	0.067242	0.136969	0.563199	0.394733	0.235270	0.483157	0.630600	0.441420	0.239928	0.314940	0.380837	0.301290	0.213488	0.739644	0.190388	0.331278	0.040188	0.186511	0.258772	0.109354	0.064239	0.118488	0.544213	0.663540	0.046672	0.092082	0.264360	0.193331	0.288672	0.244907	0.347040	0.454153	0.164347	0.227973	0.234213	0.179575
88	0.865230	0.443069	0.542465	0.875187	0.046386	0.222477	0.240304	0.254432	0.048136	0.213150	0.498683	0.435873	0.078403	0.507105	0.166816	0.088491	0.046757	0.088607	0.498884	0.387466	0.185082	0.100387	0.332075	0.536027	0.196509	0.395102	0.232159	0.331422	0.070091	0.136678	0.567105	0.387743	0.228203	0.442411	0.632531	0.447048	0.242105	0.311145	0.380677	0.293523	0.218738	0.720868	0.229768	0.452927	0.045233	0.184659	0.297244	0.103957	0.060724	0.110667	0.519650	0.605473	0.055442	0.103519	0.273279	0.279005	0.279122	0.241137	0.360681	0.497093	0.178971	0.223678	0.226992	0.165924
89	0.857170	0.442639	0.599017	0.886908	0.035639	0.194043	0.239926	0.245489	0.109440	0.151082	0.499493	0.434301	0.079711	0.452120	0.200215	0.089093	0.047317	0.093196	0.492076	0.376015	0.189880	0.107536	0.371886	0.530372	0.190868	0.396818	0.194484	0.412974	0.071535	0.135104	0.539691	0.379001	0.276243	0.257953	0.605366	0.349958	0.256898	0.276526	0.353186	0.285702	0.182513	0.675158	0.342125	0.525597	0.046997	0.179882	0.298443	0.095522	0.060717	0.110705	0.521774	0.392393	0.060059	0.103379	0.337625	0.334323	0.288399	0.239458	0.446523	0.567338	0.210416	0.211954	0.229468	0.164901
90	0.844205	0.445837	0.640956	0.863982	0.034851	0.181600	0.232485	0.246641	0.128197	0.143112	0.499380	0.409462	0.077539	0.420608	0.246803	0.140753	0.046153	0.090797	0.478434	0.378498	0.189455	0.117352	0.450602	0.558702	0.188295	0.399246	0.192366	0.418018	0.076214	0.132852	0.534083	0.375372	0.285320	0.125379	0.603858	0.342922	0.275560	0.253347	0.292168	0.261595	0.151292	0.386771	0.448924	0.612815	0.054049	0.154030	0.307247	0.084189	0.059368	0.110651	0.501384	0.095965	0.064460	0.109698	0.349740	0.416061	0.333071	0.230544	0.556351	0.829962	0.213138	0.205441	0.231424	0.183716
91	0.728025	0.432053	0.640737	0.729885	0.036893	0.190698	0.224885	0.236293	0.131821	0.117388	0.497154	0.306662	0.076073	0.379592	0.271277	0.184557	0.046099	0.090641	0.528624	0.344853	0.184556	0.113605	0.485191	0.516302	0.191514	0.390459	0.120444	0.441463	0.121148	0.144416	0.488321	0.375209	0.278735	0.100428	0.599123	0.331836	0.317417	0.176634	0.276118	0.152448	0.144023	0.368499	0.466115	0.695800	0.066524	0.122697	0.311946	0.135641	0.053953	0.109830	0.506946	0.111716	0.069009	0.113950	0.554523	0.428340	0.304337	0.205219	0.612190	0.817613	0.212689	0.165853	0.224972	0.182523
92	0.691650	0.403759	0.551338	0.712002	0.035764	0.201365	0.221676	0.158041	0.135393	0.105963	0.480881	0.278683	0.079887	0.365884	0.301679	0.190228	0.042597	0.088867	0.589863	0.314487	0.198915	0.126906	0.470927	0.502592	0.238417	0.301606	0.140027	0.590232	0.199888	0.154414	0.372373	0.352993	0.282387	0.090696	0.599837	0.266418	0.333999	0.181737	0.244895	0.134628	0.105145	0.275277	0.634158	0.788735	0.069791	0.078745	0.319749	0.155792	0.053023	0.111342	0.452213	0.121604	0.075527	0.138762	0.662939	0.403308	0.360349	0.184569	0.610027	0.789621	0.218290	0.152483	0.218974	0.177622
93	0.687800	0.355432	0.450142	0.590773	0.035098	0.201198	0.179692	0.148199	0.141828	0.101893	0.448865	0.193190	0.088458	0.335894	0.292239	0.191476	0.055477	0.104888	0.569079	0.266575	0.228908	0.127427	0.471982	0.500683	0.224530	0.129024	0.417101	0.562728	0.275022	0.137790	0.294706	0.355334	0.294610	0.102764	0.597031	0.252225	0.332591	0.189857	0.236958	0.103402	0.092025	0.228119	0.687520	0.787097	0.108347	0.087318	0.318979	0.159746	0.044969	0.101700	0.338127	0.121552	0.100590	0.188351	0.668404	0.403400	0.407564	0.181789	0.646653	0.786883	0.218639	0.155074	0.195501	0.173181
94	0.607097	0.232627	0.395749	0.545072	0.039638	0.201045	0.122755	0.147545	0.165267	0.100274	0.444762	0.189385	0.085760	0.311430	0.290020	0.193322	0.061637	0.112625	0.546182	0.266172	0.197254	0.128282	0.437306	0.495485	0.217857	0.112333	0.487418	0.599714	0.325883	0.150296	0.303384	0.275667	0.298139	0.121872	0.341474	0.267218	0.332957	0.209986	0.213567	0.099343	0.089930	0.216833	0.686400	0.747184	0.118573	0.104020	0.314092	0.224020	0.028611	0.071229	0.262477	0.132910	0.111570	0.206283	0.677463	0.415684	0.404940	0.174473	0.700550	0.820229	0.217875	0.243285	0.198002	0.171108
95	0.232611	0.152008	0.406980	0.505110	0.044113	0.200992	0.093305	0.145890	0.243064	0.089065	0.420858	0.206692	0.084653	0.289803	0.307084	0.202834	0.061509	0.112009	0.549878	0.264671	0.206651	0.142863	0.405986	0.334966	0.210897	0.150719	0.522856	0.607066	0.357789	0.172146	0.338996	0.211937	0.259935	0.115459	0.237014	0.243696	0.316555	0.214154	0.173698	0.086190	0.069229	0.193189	0.685780	0.708746	0.133611	0.105015	0.315118	0.256873	0.036590	0.137235	0.258147	0.159066	0.109809	0.202121	0.666728	0.428612	0.402943	0.171831	0.765819	0.843225	0.212484	0.282219	0.195606	0.180913
96	0.218999	0.143537	0.409097	0.404425	0.080190	0.210073	0.092596	0.145567	0.256789	0.102967	0.286966	0.174475	0.070347	0.235574	0.342227	0.214214	0.059300	0.105162	0.546116	0.262353	0.209087	0.152821	0.405233	0.269987	0.196563	0.166703	0.666733	0.614955	0.396544	0.177435	0.332154	0.212418	0.258376	0.116105	0.325921	0.227080	0.270848	0.194043	0.157841	0.073963	0.069741	0.115642	0.644835	0.718022	0.183204	0.106709	0.253642	0.264277	0.041057	0.138917	0.256799	0.161009	0.112561	0.196079	0.650207	0.370372	0.399624	0.201270	0.751362	0.840296	0.167014	0.415869	0.171893	0.187790
97	0.207781	0.148161	0.393931	0.321528	0.191359	0.244889	0.091739	0.099905	0.263487	0.104949	0.210515	0.173253	0.056354	0.110634	0.380908	0.219652	0.056598	0.101926	0.506296	0.227805	0.224617	0.180238	0.399006	0.249864	0.280655	0.169118	0.700853	0.555171	0.399776	0.177343	0.282634	0.228328	0.174214	0.114009	0.465236	0.302307	0.253581	0.194862	0.094137	0.067895	0.078542	0.099265	0.620527	0.650267	0.189965	0.108353	0.180479	0.264842	0.050501	0.135867	0.257578	0.169759	0.118415	0.194028	0.625201	0.333907	0.401734	0.210850	0.746398	0.812738	0.150364	0.440186	0.129883	0.190954
98	0.206851	0.144465	0.302691	0.279360	0.269724	0.219286	0.092165	0.086260	0.254950	0.095163	0.209015	0.179017	0.056247	0.100973	0.354848	0.217168	0.054824	0.099253	0.493166	0.154417	0.273023	0.177429	0.333661	0.150676	0.260595	0.187350	0.691213	0.434815	0.399200	0.177763	0.258603	0.357348	0.171926	0.114184	0.452779	0.496473	0.242161	0.197579	0.079362	0.066734	0.066480	0.095779	0.637228	0.659413	0.223195	0.116099	0.177248	0.268712	0.061621	0.135707	0.262870	0.176369	0.119137	0.188037	0.616903	0.240068	0.396208	0.210307	0.697723	0.771722	0.102857	0.455395	0.139772	0.198983
99	0.270208	0.143354	0.221734	0.251186	0.292706	0.218165	0.089432	0.074171	0.235870	0.077446	0.246304	0.187985	0.055741	0.084645	0.333402	0.153267	0.052602	0.097437	0.487277	0.143941	0.331017	0.178030	0.257258	0.089854	0.281998	0.214504	0.622614	0.430349	0.398765	0.176599	0.260684	0.365560	0.161848	0.114684	0.490068	0.647622	0.223976	0.219824	0.152608	0.066310	0.075520	0.124764	0.640213	0.544639	0.232014	0.136652	0.158987	0.285559	0.070785	0.135639	0.257912	0.180300	0.116537	0.189836	0.410586	0.206968	0.366117	0.209266	0.624790	0.485643	0.073113	0.448086	0.133181	0.205216
100	0.274262	0.134539	0.225912	0.256457	0.341660	0.225677	0.083867	0.064479	0.234732	0.072472	0.260518	0.188773	0.053822	0.081512	0.314553	0.133008	0.052735	0.105627	0.454394	0.099548	0.334846	0.168793	0.232080	0.094760	0.280368	0.206746	0.626107	0.375656	0.373561	0.166008	0.278309	0.371360	0.161817	0.120454	0.615154	0.769795	0.203677	0.226636	0.159321	0.064757	0.077786	0.148189	0.701445	0.625408	0.236243	0.140751	0.131578	0.263845	0.070940	0.135519	0.254577	0.170277	0.110870	0.170958	0.261994	0.213879	0.354718	0.195401	0.551852	0.449421	0.091111	0.449777	0.145257	0.223877
101	0.273752	0.154509	0.215840	0.261744	0.345204	0.216739	0.073443	0.062236	0.233268	0.072576	0.252266	0.188721	0.038772	0.060184	0.308481	0.150519	0.052735	0.108106	0.327191	0.083132	0.318403	0.158869	0.276821	0.093046	0.279251	0.170987	0.586914	0.452611	0.339777	0.164773	0.315448	0.347231	0.147987	0.126353	0.669144	0.767273	0.134009	0.242629	0.182059	0.076130	0.074677	0.148572	0.739172	0.630381	0.248831	0.141452	0.109615	0.261876	0.070970	0.144814	0.242878	0.149976	0.088230	0.116151	0.263774	0.211640	0.275043	0.193602	0.545873	0.448061	0.092252	0.450461	0.144014	0.224163
