	198_P_T3_sh_R_D_A_01.c3d	198_P_T3_sh_R_D_A_01.c3d	198_P_T3_sh_R_D_A_01.c3d	198_P_T3_sh_R_D_A_01.c3d	198_P_T3_sh_R_D_A_01.c3d	198_P_T3_sh_R_D_A_01.c3d	198_P_T3_sh_R_D_A_01.c3d	198_P_T3_sh_R_D_A_01.c3d	198_P_T3_sh_R_D_A_02.c3d	198_P_T3_sh_R_D_A_02.c3d	198_P_T3_sh_R_D_A_02.c3d	198_P_T3_sh_R_D_A_02.c3d	198_P_T3_sh_R_D_A_02.c3d	198_P_T3_sh_R_D_A_02.c3d	198_P_T3_sh_R_D_A_02.c3d	198_P_T3_sh_R_D_A_02.c3d	198_P_T3_sh_R_D_A_03.c3d	198_P_T3_sh_R_D_A_03.c3d	198_P_T3_sh_R_D_A_03.c3d	198_P_T3_sh_R_D_A_03.c3d	198_P_T3_sh_R_D_A_03.c3d	198_P_T3_sh_R_D_A_03.c3d	198_P_T3_sh_R_D_A_03.c3d	198_P_T3_sh_R_D_A_03.c3d	198_P_T3_sh_R_D_A_04.c3d	198_P_T3_sh_R_D_A_04.c3d	198_P_T3_sh_R_D_A_04.c3d	198_P_T3_sh_R_D_A_04.c3d	198_P_T3_sh_R_D_A_04.c3d	198_P_T3_sh_R_D_A_04.c3d	198_P_T3_sh_R_D_A_04.c3d	198_P_T3_sh_R_D_A_04.c3d	198_P_T3_sh_R_D_A_05.c3d	198_P_T3_sh_R_D_A_05.c3d	198_P_T3_sh_R_D_A_05.c3d	198_P_T3_sh_R_D_A_05.c3d	198_P_T3_sh_R_D_A_05.c3d	198_P_T3_sh_R_D_A_05.c3d	198_P_T3_sh_R_D_A_05.c3d	198_P_T3_sh_R_D_A_05.c3d	198_P_T3_sh_R_D_A_07.c3d	198_P_T3_sh_R_D_A_07.c3d	198_P_T3_sh_R_D_A_07.c3d	198_P_T3_sh_R_D_A_07.c3d	198_P_T3_sh_R_D_A_07.c3d	198_P_T3_sh_R_D_A_07.c3d	198_P_T3_sh_R_D_A_07.c3d	198_P_T3_sh_R_D_A_07.c3d	198_P_T3_sh_R_D_A_08.c3d	198_P_T3_sh_R_D_A_08.c3d	198_P_T3_sh_R_D_A_08.c3d	198_P_T3_sh_R_D_A_08.c3d	198_P_T3_sh_R_D_A_08.c3d	198_P_T3_sh_R_D_A_08.c3d	198_P_T3_sh_R_D_A_08.c3d	198_P_T3_sh_R_D_A_08.c3d	198_P_T3_sh_R_D_A_09.c3d	198_P_T3_sh_R_D_A_09.c3d	198_P_T3_sh_R_D_A_09.c3d	198_P_T3_sh_R_D_A_09.c3d	198_P_T3_sh_R_D_A_09.c3d	198_P_T3_sh_R_D_A_09.c3d	198_P_T3_sh_R_D_A_09.c3d	198_P_T3_sh_R_D_A_09.c3d	198_P_T3_sh_R_D_A_10.c3d	198_P_T3_sh_R_D_A_10.c3d	198_P_T3_sh_R_D_A_10.c3d	198_P_T3_sh_R_D_A_10.c3d	198_P_T3_sh_R_D_A_10.c3d	198_P_T3_sh_R_D_A_10.c3d	198_P_T3_sh_R_D_A_10.c3d	198_P_T3_sh_R_D_A_10.c3d
	Biceps femoris_lat	Semitendinosus_lat	Vastus lateralis_lat	Vastus medialis_lat	Biceps femoris_med	Semitendinosus_med	Vastus lateralis_med	Vastus medialis_med	Biceps femoris_lat	Semitendinosus_lat	Vastus lateralis_lat	Vastus medialis_lat	Biceps femoris_med	Semitendinosus_med	Vastus lateralis_med	Vastus medialis_med	Biceps femoris_lat	Semitendinosus_lat	Vastus lateralis_lat	Vastus medialis_lat	Biceps femoris_med	Semitendinosus_med	Vastus lateralis_med	Vastus medialis_med	Biceps femoris_lat	Semitendinosus_lat	Vastus lateralis_lat	Vastus medialis_lat	Biceps femoris_med	Semitendinosus_med	Vastus lateralis_med	Vastus medialis_med	Biceps femoris_lat	Semitendinosus_lat	Vastus lateralis_lat	Vastus medialis_lat	Biceps femoris_med	Semitendinosus_med	Vastus lateralis_med	Vastus medialis_med	Biceps femoris_lat	Semitendinosus_lat	Vastus lateralis_lat	Vastus medialis_lat	Biceps femoris_med	Semitendinosus_med	Vastus lateralis_med	Vastus medialis_med	Biceps femoris_lat	Semitendinosus_lat	Vastus lateralis_lat	Vastus medialis_lat	Biceps femoris_med	Semitendinosus_med	Vastus lateralis_med	Vastus medialis_med	Biceps femoris_lat	Semitendinosus_lat	Vastus lateralis_lat	Vastus medialis_lat	Biceps femoris_med	Semitendinosus_med	Vastus lateralis_med	Vastus medialis_med	Biceps femoris_lat	Semitendinosus_lat	Vastus lateralis_lat	Vastus medialis_lat	Biceps femoris_med	Semitendinosus_med	Vastus lateralis_med	Vastus medialis_med
	P2D	P2D	P2D	P2D	P2D	P2D	P2D	P2D	P2D	P2D	P2D	P2D	P2D	P2D	P2D	P2D	P2D	P2D	P2D	P2D	P2D	P2D	P2D	P2D	P2D	P2D	P2D	P2D	P2D	P2D	P2D	P2D	P2D	P2D	P2D	P2D	P2D	P2D	P2D	P2D	P2D	P2D	P2D	P2D	P2D	P2D	P2D	P2D	P2D	P2D	P2D	P2D	P2D	P2D	P2D	P2D	P2D	P2D	P2D	P2D	P2D	P2D	P2D	P2D	P2D	P2D	P2D	P2D	P2D	P2D	P2D	P2D
	EMG_lat	EMG_lat	EMG_lat	EMG_lat	EMG_med	EMG_med	EMG_med	EMG_med	EMG_lat	EMG_lat	EMG_lat	EMG_lat	EMG_med	EMG_med	EMG_med	EMG_med	EMG_lat	EMG_lat	EMG_lat	EMG_lat	EMG_med	EMG_med	EMG_med	EMG_med	EMG_lat	EMG_lat	EMG_lat	EMG_lat	EMG_med	EMG_med	EMG_med	EMG_med	EMG_lat	EMG_lat	EMG_lat	EMG_lat	EMG_med	EMG_med	EMG_med	EMG_med	EMG_lat	EMG_lat	EMG_lat	EMG_lat	EMG_med	EMG_med	EMG_med	EMG_med	EMG_lat	EMG_lat	EMG_lat	EMG_lat	EMG_med	EMG_med	EMG_med	EMG_med	EMG_lat	EMG_lat	EMG_lat	EMG_lat	EMG_med	EMG_med	EMG_med	EMG_med	EMG_lat	EMG_lat	EMG_lat	EMG_lat	EMG_med	EMG_med	EMG_med	EMG_med
ITEM	Y	Y	Y	Y	Y	Y	Y	Y	Y	Y	Y	Y	Y	Y	Y	Y	Y	Y	Y	Y	Y	Y	Y	Y	Y	Y	Y	Y	Y	Y	Y	Y	Y	Y	Y	Y	Y	Y	Y	Y	Y	Y	Y	Y	Y	Y	Y	Y	Y	Y	Y	Y	Y	Y	Y	Y	Y	Y	Y	Y	Y	Y	Y	Y	Y	Y	Y	Y	Y	Y	Y	Y
1	0.542053	0.491910	0.174671	0.198676	0.210611	0.445334	0.327524	0.355194	0.178063	0.276917	0.126063	0.192845	0.271762	0.109312	0.428709	0.254605	0.551201	0.207249	0.372209	0.191388	0.455408	0.347090	0.392490	0.166228	0.258431	0.343728	0.352221	0.364183	0.152186	0.074281	0.203801	0.227891	0.221676	0.291223	0.209208	0.243947	0.183978	0.828914	0.385860	0.094139	0.158642	0.244086	0.480005	0.284233	0.290095	0.243457	0.338540	0.212267	0.264732	0.403199	0.172785	0.195676	0.369479	0.140259	0.287842	0.242613	0.198718	0.296843	0.139293	0.296138	0.421606	0.147875	0.181137	0.183344	0.346371	0.192459	0.215957	0.243898	0.585182	0.124931	0.184101	0.201921
2	0.517978	0.398294	0.153198	0.240972	0.211675	0.450387	0.368862	0.355553	0.190752	0.270877	0.170394	0.197005	0.272522	0.107215	0.414284	0.263804	0.711326	0.213064	0.376810	0.179572	0.468642	0.262534	0.389766	0.171622	0.241060	0.356337	0.327061	0.327389	0.167627	0.098827	0.225828	0.231857	0.229687	0.159297	0.304429	0.278627	0.185375	0.969099	0.387418	0.094979	0.160487	0.313480	0.479958	0.279463	0.285056	0.162069	0.310006	0.189230	0.278849	0.387697	0.141673	0.150326	0.362735	0.122073	0.291548	0.211885	0.196786	0.302920	0.142126	0.263451	0.374161	0.144372	0.130849	0.191608	0.342643	0.192641	0.215113	0.226558	0.561224	0.109251	0.181183	0.170049
3	0.491973	0.305998	0.126464	0.246868	0.216905	0.443581	0.372372	0.323749	0.184564	0.263200	0.247251	0.198749	0.265959	0.109471	0.429105	0.277011	0.860727	0.262504	0.368993	0.167898	0.459141	0.274350	0.384775	0.200250	0.226064	0.391603	0.303186	0.322196	0.166893	0.181711	0.239419	0.249917	0.230438	0.144524	0.326077	0.278874	0.188276	1.001242	0.371630	0.090469	0.159972	0.373281	0.481838	0.235733	0.242424	0.133309	0.246373	0.161172	0.300544	0.348011	0.139229	0.106693	0.309997	0.116134	0.285386	0.235820	0.180534	0.215917	0.186287	0.235018	0.310601	0.123096	0.129218	0.202492	0.346984	0.199717	0.213675	0.216719	0.548128	0.115879	0.202637	0.135686
4	0.430776	0.279853	0.145002	0.290851	0.219535	0.438236	0.397384	0.333452	0.161864	0.211519	0.263156	0.164735	0.243734	0.104113	0.459897	0.282105	0.929321	0.272532	0.340079	0.164724	0.487032	0.296838	0.383724	0.195351	0.148220	0.405395	0.202361	0.308083	0.171665	0.188608	0.244990	0.333525	0.178592	0.174613	0.344921	0.277123	0.193427	1.016573	0.321931	0.087444	0.122099	0.358443	0.472425	0.211609	0.269175	0.103870	0.290690	0.156800	0.320943	0.309779	0.127256	0.126259	0.273255	0.114593	0.283883	0.225873	0.169273	0.162956	0.255657	0.219894	0.306609	0.125129	0.133197	0.246666	0.351037	0.199424	0.201920	0.218295	0.545080	0.116124	0.202403	0.127444
5	0.399290	0.277722	0.150224	0.330474	0.218956	0.439606	0.442452	0.321459	0.159793	0.238684	0.281634	0.157359	0.243952	0.094963	0.463469	0.283380	0.930979	0.302931	0.302686	0.163379	0.500632	0.284018	0.352997	0.187722	0.117055	0.382605	0.154326	0.282665	0.194031	0.347447	0.245840	0.345768	0.153509	0.186714	0.351431	0.257130	0.199865	1.018229	0.313712	0.088274	0.114600	0.353788	0.427276	0.212781	0.277743	0.135341	0.318576	0.163557	0.377644	0.214188	0.109503	0.150652	0.270799	0.090604	0.245429	0.188886	0.124830	0.145245	0.266412	0.233898	0.273723	0.119984	0.145195	0.282288	0.344100	0.170782	0.177883	0.220262	0.513497	0.116766	0.218880	0.131451
6	0.393489	0.256711	0.166132	0.337311	0.215943	0.413141	0.465106	0.289495	0.143287	0.244160	0.300463	0.188547	0.244832	0.094073	0.467389	0.302477	0.933862	0.311422	0.291042	0.174304	0.478318	0.285749	0.299455	0.189192	0.120444	0.373865	0.169177	0.294153	0.252510	0.407215	0.250131	0.342482	0.135837	0.186018	0.354161	0.240904	0.194617	1.021386	0.308927	0.091489	0.093763	0.441500	0.445508	0.251307	0.267062	0.226230	0.320495	0.157676	0.405311	0.158076	0.092949	0.153042	0.261228	0.088095	0.165925	0.164882	0.112292	0.127638	0.310176	0.271422	0.271192	0.150826	0.191810	0.301180	0.334753	0.161754	0.174526	0.197459	0.477549	0.108221	0.222866	0.109111
7	0.228303	0.157561	0.166416	0.343658	0.168420	0.386342	0.440659	0.280994	0.274712	0.217486	0.253155	0.188842	0.244046	0.086020	0.494562	0.359811	0.925250	0.311765	0.227075	0.212541	0.461779	0.274437	0.288729	0.179551	0.136150	0.340893	0.182630	0.322131	0.277142	0.422442	0.251900	0.369410	0.127703	0.185951	0.359209	0.279644	0.190449	1.023417	0.311887	0.097511	0.093488	0.456162	0.411482	0.262435	0.232818	0.432003	0.314869	0.146010	0.377257	0.127266	0.058589	0.153593	0.181019	0.078707	0.155361	0.169364	0.115362	0.139065	0.336080	0.300435	0.274383	0.139552	0.215808	0.309083	0.257399	0.144935	0.142946	0.138465	0.459301	0.112061	0.219454	0.096978
8	0.201917	0.125594	0.171580	0.376734	0.160883	0.306410	0.437494	0.302070	0.277491	0.201892	0.257817	0.196303	0.232080	0.093285	0.525570	0.369135	0.909937	0.310413	0.258599	0.238479	0.434090	0.232886	0.289554	0.216434	0.145371	0.314617	0.184406	0.324820	0.288886	0.429809	0.235238	0.369597	0.132653	0.163877	0.407970	0.301210	0.190159	0.939567	0.318192	0.133365	0.097861	0.473255	0.330094	0.230309	0.179689	0.468342	0.325615	0.192717	0.355763	0.114384	0.054095	0.155593	0.161783	0.108064	0.150476	0.164241	0.116686	0.141393	0.339237	0.303239	0.230893	0.167788	0.215978	0.318935	0.214402	0.132685	0.093269	0.092303	0.412066	0.109852	0.205197	0.095699
9	0.170156	0.102468	0.199516	0.362243	0.173964	0.258837	0.472811	0.279080	0.272644	0.185162	0.228345	0.213527	0.197760	0.122874	0.510676	0.357755	0.906564	0.310560	0.320011	0.254997	0.418752	0.219830	0.286952	0.288353	0.126820	0.314463	0.168726	0.325867	0.299881	0.485515	0.264199	0.357278	0.127961	0.159746	0.386996	0.272747	0.176578	0.764053	0.283172	0.151069	0.104092	0.458192	0.315065	0.213502	0.196578	0.473911	0.382842	0.218520	0.368444	0.132153	0.046565	0.133109	0.154342	0.131576	0.140361	0.172431	0.118890	0.130456	0.339606	0.302002	0.200113	0.192502	0.257882	0.360273	0.203465	0.101718	0.115178	0.088354	0.280943	0.107657	0.179519	0.099767
10	0.173992	0.115134	0.219164	0.359211	0.196528	0.275483	0.475042	0.287361	0.284145	0.152630	0.215689	0.218983	0.248335	0.309957	0.470270	0.352877	0.898779	0.302711	0.351768	0.257227	0.430519	0.238032	0.305226	0.301004	0.131721	0.301281	0.166958	0.315859	0.333443	0.519740	0.276888	0.356376	0.093697	0.162990	0.375444	0.260838	0.142268	0.750818	0.197387	0.161283	0.097906	0.432082	0.364513	0.230381	0.220858	0.487729	0.390313	0.216808	0.357455	0.150646	0.140666	0.149023	0.101100	0.267118	0.191411	0.254247	0.115657	0.119071	0.337478	0.281930	0.202124	0.193400	0.293684	0.375272	0.134483	0.094618	0.147951	0.116475	0.182662	0.098124	0.164605	0.113002
11	0.222525	0.120247	0.247284	0.360637	0.197587	0.353493	0.440396	0.313764	0.303209	0.124296	0.361988	0.270491	0.298792	0.383814	0.477678	0.392348	0.813438	0.293638	0.355573	0.307199	0.416986	0.236913	0.313967	0.300768	0.133806	0.243985	0.163718	0.324716	0.328692	0.537219	0.287417	0.357359	0.091444	0.156359	0.415064	0.268901	0.134092	0.566832	0.187628	0.162448	0.081390	0.366001	0.381976	0.242229	0.219826	0.514625	0.391368	0.218033	0.356019	0.154189	0.291239	0.205962	0.092813	0.316901	0.198211	0.274650	0.103969	0.119074	0.318303	0.304789	0.192960	0.201231	0.303562	0.377572	0.166878	0.068001	0.160099	0.202164	0.168749	0.125160	0.176662	0.220340
12	0.207931	0.122009	0.299248	0.319647	0.208206	0.354193	0.447742	0.343471	0.197693	0.143373	0.385304	0.279598	0.310265	0.402268	0.501060	0.398438	0.706716	0.283935	0.408879	0.365060	0.403129	0.279962	0.328139	0.313745	0.135726	0.189377	0.155926	0.314236	0.331330	0.515511	0.306359	0.352590	0.099063	0.106332	0.421560	0.282765	0.144688	0.368437	0.176497	0.161799	0.084502	0.369798	0.380952	0.244288	0.238468	0.526288	0.445911	0.217766	0.270258	0.165236	0.326689	0.206096	0.092313	0.324214	0.200732	0.261253	0.121688	0.125238	0.298545	0.340462	0.183765	0.211317	0.318159	0.387891	0.197750	0.069443	0.177983	0.270308	0.161465	0.128844	0.175772	0.290703
13	0.202683	0.122885	0.296011	0.298768	0.263265	0.354667	0.518251	0.352274	0.220977	0.138901	0.404399	0.342823	0.308724	0.448784	0.446121	0.390443	0.625322	0.224439	0.494167	0.387288	0.401790	0.258612	0.348149	0.330786	0.137846	0.174749	0.150939	0.303574	0.331284	0.511923	0.332151	0.306836	0.105848	0.098366	0.434946	0.291365	0.150762	0.315816	0.177964	0.163308	0.090423	0.369778	0.377871	0.245939	0.236477	0.530876	0.435147	0.214598	0.235378	0.163069	0.469867	0.230172	0.128309	0.390411	0.249212	0.304333	0.128480	0.155931	0.274909	0.330217	0.181780	0.211025	0.360806	0.365613	0.198490	0.064202	0.183465	0.276185	0.149982	0.149809	0.215515	0.293974
14	0.197119	0.121891	0.298255	0.302039	0.291190	0.370578	0.534712	0.341075	0.235898	0.125280	0.441904	0.358277	0.307365	0.500712	0.388889	0.388214	0.256497	0.195265	0.510568	0.392333	0.380300	0.242768	0.348397	0.330859	0.145746	0.173988	0.188482	0.393895	0.326940	0.458437	0.344003	0.252468	0.142617	0.105986	0.440045	0.286121	0.160457	0.253332	0.195874	0.174638	0.085697	0.276471	0.355434	0.210917	0.223555	0.528418	0.427037	0.212216	0.232166	0.191525	0.497411	0.241687	0.147852	0.446786	0.340842	0.358919	0.203426	0.146581	0.261656	0.341192	0.182608	0.212533	0.358632	0.331653	0.187756	0.046653	0.185793	0.299888	0.166699	0.153674	0.221250	0.324943
15	0.187020	0.113921	0.310891	0.255295	0.288749	0.382677	0.510415	0.340554	0.232276	0.113665	0.492347	0.363868	0.311620	0.526476	0.384235	0.387908	0.248384	0.147474	0.509103	0.392912	0.360199	0.252946	0.350495	0.344146	0.168434	0.171644	0.274734	0.398289	0.279087	0.368060	0.349235	0.255488	0.169913	0.126962	0.408290	0.222433	0.159832	0.250002	0.216350	0.193250	0.086342	0.235372	0.305708	0.168521	0.221883	0.502878	0.431427	0.213528	0.203189	0.183900	0.502725	0.249121	0.147449	0.463316	0.375018	0.372825	0.245227	0.134736	0.280202	0.351270	0.160290	0.198245	0.337200	0.307872	0.221958	0.069574	0.211719	0.344854	0.177602	0.174383	0.310011	0.378224
16	0.186892	0.104070	0.301153	0.218389	0.288793	0.384713	0.505497	0.331746	0.194771	0.087527	0.442698	0.362721	0.312178	0.544929	0.380055	0.373882	0.247632	0.103322	0.509524	0.395729	0.365037	0.252241	0.357470	0.367687	0.157331	0.105048	0.275030	0.369766	0.240754	0.351996	0.354422	0.214693	0.169202	0.144732	0.350105	0.191949	0.160519	0.229198	0.214697	0.192595	0.080371	0.196313	0.268908	0.161800	0.220983	0.348847	0.431235	0.218371	0.160738	0.174131	0.507206	0.292916	0.144446	0.461788	0.377354	0.371975	0.248079	0.146290	0.288150	0.354752	0.134082	0.192155	0.327197	0.294691	0.287916	0.074443	0.261944	0.380089	0.171183	0.220516	0.373160	0.425285
17	0.208293	0.089255	0.313904	0.310830	0.284061	0.382886	0.514268	0.408626	0.197689	0.082025	0.500199	0.362086	0.304448	0.548670	0.346067	0.320339	0.287488	0.095369	0.508418	0.387555	0.434255	0.250605	0.365497	0.435123	0.204483	0.100176	0.311758	0.392503	0.219795	0.341170	0.355774	0.187083	0.167881	0.142050	0.342056	0.187119	0.179697	0.234600	0.208084	0.194570	0.112692	0.159668	0.261705	0.159451	0.218343	0.284552	0.417377	0.181216	0.164854	0.159429	0.498380	0.315044	0.143072	0.461660	0.373325	0.374577	0.259271	0.175013	0.312133	0.383567	0.130479	0.179477	0.330433	0.291435	0.302249	0.095356	0.287714	0.405485	0.171538	0.249766	0.378978	0.445636
18	0.190335	0.078097	0.316655	0.295240	0.281652	0.372464	0.505516	0.557563	0.150426	0.096316	0.537210	0.349426	0.290353	0.546483	0.295736	0.313923	0.287203	0.101579	0.488463	0.356978	0.450978	0.261129	0.372423	0.475432	0.232785	0.096929	0.437766	0.430720	0.212891	0.299042	0.332440	0.188116	0.165331	0.142098	0.284212	0.175332	0.229644	0.266255	0.223112	0.240291	0.118978	0.234088	0.187624	0.132860	0.196707	0.273179	0.369176	0.145154	0.124698	0.156240	0.434048	0.283429	0.142364	0.455143	0.348191	0.347027	0.266408	0.186668	0.300815	0.415524	0.132638	0.136122	0.304494	0.253058	0.303001	0.104644	0.307344	0.413269	0.172878	0.354174	0.377648	0.446909
19	0.157403	0.103463	0.253080	0.278918	0.289320	0.360971	0.489070	0.591525	0.130014	0.117057	0.515034	0.322973	0.288545	0.541738	0.312779	0.363561	0.286344	0.098774	0.446788	0.336340	0.416470	0.263406	0.343141	0.454519	0.236465	0.128451	0.465972	0.443489	0.154287	0.244457	0.319801	0.186257	0.168098	0.145008	0.240865	0.164771	0.250072	0.239612	0.307666	0.269249	0.121598	0.321557	0.137819	0.115717	0.161650	0.251862	0.362209	0.177893	0.125212	0.136737	0.405257	0.285196	0.132206	0.451884	0.342464	0.299340	0.260315	0.187387	0.283211	0.371475	0.111627	0.135377	0.261662	0.217572	0.301649	0.110269	0.309113	0.413358	0.173697	0.354825	0.384825	0.449748
20	0.191125	0.108148	0.265136	0.279204	0.299019	0.336815	0.492150	0.591110	0.138194	0.134961	0.473382	0.376653	0.254136	0.464257	0.372454	0.364018	0.285137	0.087629	0.408805	0.386187	0.383300	0.244033	0.289627	0.440024	0.236150	0.142416	0.466993	0.438315	0.116069	0.187171	0.308988	0.196848	0.166211	0.153158	0.196360	0.193094	0.242491	0.288813	0.314602	0.278375	0.148445	0.330765	0.132824	0.145704	0.163052	0.205339	0.359662	0.230191	0.194785	0.131709	0.329169	0.376094	0.129895	0.458083	0.344287	0.295790	0.247915	0.184252	0.291873	0.423556	0.097164	0.159787	0.248205	0.212265	0.297412	0.114957	0.292236	0.410481	0.175119	0.357778	0.390360	0.430094
21	0.194947	0.180909	0.275014	0.342966	0.294554	0.360120	0.489948	0.641078	0.289260	0.149600	0.621120	0.716136	0.188142	0.403618	0.399301	0.323912	0.309172	0.083276	0.411616	0.424671	0.373397	0.239341	0.267093	0.443230	0.235130	0.146784	0.479413	0.435717	0.112612	0.217960	0.290448	0.224479	0.152093	0.177872	0.172735	0.183319	0.255184	0.434996	0.340173	0.346967	0.145054	0.376106	0.184853	0.162339	0.139044	0.199262	0.315025	0.234788	0.261565	0.095922	0.400206	0.414665	0.107265	0.429289	0.331128	0.262209	0.242525	0.161752	0.284448	0.445018	0.105383	0.157342	0.257636	0.195795	0.286957	0.117894	0.294757	0.400638	0.160297	0.363099	0.391719	0.364725
22	0.220641	0.202645	0.315689	0.403900	0.277476	0.368345	0.443811	0.693132	0.296364	0.158005	0.614769	0.783726	0.154957	0.399640	0.377928	0.311245	0.307705	0.089948	0.396361	0.391237	0.371309	0.193923	0.260410	0.439986	0.231773	0.158302	0.482086	0.386368	0.079647	0.239928	0.292256	0.223955	0.103920	0.176245	0.168441	0.173077	0.276955	0.528686	0.467974	0.434536	0.153601	0.388573	0.252946	0.262158	0.081595	0.204037	0.297339	0.235306	0.278145	0.136722	0.404084	0.409488	0.060811	0.374579	0.242235	0.185552	0.169227	0.182798	0.243137	0.412600	0.110987	0.156483	0.208952	0.201002	0.265829	0.121520	0.299498	0.349356	0.145254	0.388435	0.365832	0.353706
23	0.265404	0.208881	0.345010	0.430829	0.252656	0.398852	0.358060	0.697759	0.313719	0.197293	0.697335	0.931356	0.157930	0.422718	0.456858	0.345840	0.351518	0.094905	0.302912	0.356402	0.369871	0.269219	0.223566	0.406925	0.215249	0.178526	0.437017	0.318518	0.077379	0.248959	0.283369	0.216245	0.091999	0.158698	0.167716	0.174089	0.324610	0.535300	0.562209	0.475976	0.175304	0.386415	0.255377	0.274269	0.077704	0.178309	0.281877	0.250213	0.326306	0.159661	0.455634	0.430764	0.077396	0.349321	0.165978	0.153689	0.133583	0.183991	0.216974	0.403384	0.108300	0.166879	0.200470	0.241166	0.263041	0.122952	0.305729	0.327950	0.138674	0.437528	0.355749	0.352485
24	0.256998	0.207561	0.327222	0.442469	0.254358	0.400938	0.354320	0.704943	0.317204	0.270910	0.702424	0.943586	0.157662	0.386732	0.521173	0.382661	0.342923	0.096201	0.231508	0.366415	0.357371	0.305433	0.218768	0.406970	0.203070	0.185447	0.420659	0.365082	0.078030	0.254453	0.286731	0.205392	0.101805	0.151931	0.157770	0.179794	0.347390	0.547833	0.568123	0.476320	0.179462	0.385908	0.260565	0.304032	0.077591	0.174365	0.271890	0.248865	0.348486	0.158849	0.448225	0.446308	0.087710	0.343006	0.150626	0.159086	0.127522	0.169581	0.205772	0.402166	0.104207	0.175639	0.201388	0.239219	0.264196	0.124527	0.306786	0.322529	0.120778	0.462015	0.355370	0.343989
25	0.302722	0.207694	0.319900	0.468378	0.255012	0.401826	0.392550	0.721515	0.289973	0.310627	0.686319	0.877805	0.146173	0.389341	0.525240	0.397113	0.339676	0.111153	0.226566	0.411786	0.343483	0.292139	0.216873	0.404762	0.194164	0.178141	0.419106	0.386378	0.077710	0.254100	0.282835	0.199853	0.111959	0.206296	0.140425	0.205645	0.354839	0.571083	0.569981	0.480174	0.170559	0.385217	0.279613	0.319884	0.080234	0.172872	0.278854	0.249058	0.353319	0.160655	0.452699	0.447459	0.089237	0.345735	0.159000	0.161913	0.101191	0.156565	0.168925	0.357364	0.104617	0.164727	0.205310	0.231641	0.256129	0.118972	0.300079	0.279413	0.158563	0.491438	0.322335	0.300402
26	0.315020	0.201382	0.325703	0.466791	0.266436	0.413018	0.405890	0.697095	0.157831	0.328520	0.488425	0.628611	0.144585	0.362801	0.525797	0.398330	0.355732	0.135402	0.247528	0.454155	0.339013	0.322466	0.228298	0.434796	0.141344	0.179582	0.320529	0.341836	0.075954	0.252359	0.282647	0.199909	0.137786	0.328683	0.130754	0.225855	0.355468	0.625518	0.586248	0.499312	0.220159	0.350835	0.311054	0.357444	0.079569	0.171295	0.277817	0.246920	0.352934	0.163467	0.448605	0.430590	0.103821	0.319411	0.155168	0.176139	0.088987	0.151086	0.162189	0.332798	0.105897	0.162801	0.193656	0.231564	0.187683	0.116666	0.266782	0.227034	0.178795	0.490018	0.305898	0.255258
27	0.296333	0.197770	0.320011	0.464633	0.270679	0.413193	0.388730	0.565738	0.167497	0.378000	0.405533	0.459958	0.146927	0.359332	0.526277	0.412167	0.351148	0.137873	0.248412	0.466980	0.264041	0.360086	0.289905	0.433542	0.112887	0.166111	0.217067	0.309875	0.085154	0.245528	0.303091	0.199272	0.151008	0.350940	0.165878	0.199493	0.345136	0.643727	0.595580	0.499101	0.229353	0.245444	0.344224	0.418987	0.078088	0.172055	0.265068	0.245748	0.306642	0.162190	0.359317	0.343393	0.117463	0.252740	0.145998	0.202962	0.092936	0.149374	0.128398	0.300719	0.109756	0.163208	0.197128	0.244516	0.125123	0.122636	0.242811	0.167989	0.187984	0.438042	0.400659	0.269881
28	0.289967	0.164157	0.298992	0.452282	0.247662	0.410474	0.393372	0.537341	0.172352	0.408310	0.241947	0.122122	0.147172	0.360062	0.525883	0.418006	0.328733	0.147524	0.251078	0.468223	0.160458	0.356302	0.346844	0.374356	0.115379	0.154844	0.238258	0.297175	0.092452	0.204840	0.305423	0.234236	0.149743	0.390125	0.169446	0.203551	0.333316	0.641855	0.574634	0.471167	0.224040	0.229343	0.356059	0.427607	0.076460	0.168297	0.242630	0.231667	0.269859	0.152484	0.353403	0.402724	0.118486	0.239096	0.139588	0.215670	0.073103	0.146202	0.141809	0.196641	0.105616	0.163124	0.210285	0.292014	0.124599	0.140678	0.226348	0.142136	0.211572	0.418052	0.491929	0.303589
29	0.283937	0.116501	0.287865	0.360345	0.230466	0.332390	0.437497	0.547687	0.222138	0.445834	0.251552	0.110671	0.150998	0.362788	0.512605	0.364924	0.328945	0.147357	0.271291	0.466324	0.136931	0.351630	0.344585	0.338535	0.128119	0.146241	0.243273	0.310162	0.126089	0.198585	0.309399	0.267325	0.150344	0.566171	0.172917	0.217369	0.329076	0.641231	0.537592	0.462724	0.244214	0.297165	0.335695	0.422259	0.057096	0.148439	0.250207	0.173403	0.287273	0.092980	0.402213	0.459110	0.118833	0.220522	0.132416	0.217461	0.061691	0.295542	0.151938	0.152912	0.104772	0.139720	0.237013	0.320504	0.123912	0.187947	0.211558	0.175188	0.226759	0.420160	0.498642	0.310895
30	0.233067	0.091296	0.212875	0.347332	0.235680	0.286016	0.453379	0.486106	0.214318	0.415970	0.185043	0.172097	0.159296	0.370948	0.460546	0.323932	0.325654	0.185638	0.302802	0.445104	0.158508	0.351097	0.335478	0.345423	0.134199	0.145044	0.245498	0.345947	0.136431	0.185601	0.287997	0.255836	0.224083	0.656171	0.349599	0.542637	0.327419	0.567644	0.536530	0.437962	0.253510	0.445547	0.308726	0.443759	0.052578	0.110067	0.219687	0.159350	0.234484	0.082898	0.346256	0.402348	0.114154	0.210377	0.130821	0.216042	0.100882	0.390445	0.188128	0.159694	0.095979	0.119150	0.243344	0.333798	0.124899	0.201174	0.213590	0.218896	0.234031	0.418648	0.493394	0.316644
31	0.225932	0.107305	0.228606	0.262052	0.210796	0.276543	0.444263	0.369009	0.228490	0.384655	0.187276	0.286587	0.142065	0.380738	0.395809	0.328853	0.311665	0.196925	0.319428	0.401875	0.246344	0.351266	0.359736	0.371464	0.247014	0.155170	0.292564	0.381250	0.132867	0.129708	0.238318	0.237827	0.389733	0.836025	0.642065	0.703314	0.311455	0.465564	0.491600	0.368354	0.267668	0.510450	0.571644	0.651653	0.050844	0.054649	0.158684	0.156861	0.242649	0.122130	0.397840	0.382695	0.105012	0.190599	0.139975	0.228095	0.103699	0.423589	0.228415	0.164786	0.085913	0.119420	0.235761	0.330151	0.126910	0.260972	0.216468	0.223198	0.237687	0.412017	0.491889	0.318102
32	0.227960	0.106412	0.243776	0.249185	0.180933	0.210415	0.414161	0.331749	0.208682	0.350161	0.193700	0.388459	0.137070	0.367408	0.384452	0.323315	0.318044	0.217308	0.310519	0.361223	0.351313	0.351855	0.386215	0.408283	0.274725	0.156043	0.339292	0.379598	0.122389	0.103772	0.211691	0.236831	0.467077	0.866654	0.705032	0.710171	0.268998	0.405134	0.350101	0.273942	0.389573	0.613779	0.690199	0.700836	0.077959	0.048582	0.143588	0.129424	0.237296	0.210478	0.410571	0.385225	0.099485	0.184783	0.184545	0.244743	0.114532	0.440016	0.230554	0.152004	0.084053	0.106508	0.224165	0.302912	0.125536	0.264068	0.207043	0.222632	0.236335	0.356693	0.492064	0.315045
33	0.245793	0.091397	0.228859	0.315294	0.169419	0.141648	0.413466	0.327378	0.268029	0.202331	0.212669	0.448915	0.133618	0.274602	0.292116	0.295223	0.260430	0.244672	0.309174	0.358362	0.367218	0.313773	0.409897	0.434998	0.269092	0.174371	0.337154	0.310639	0.120235	0.064389	0.204101	0.233620	0.481292	0.831674	0.811103	0.713513	0.203383	0.463658	0.241512	0.224124	0.492370	0.641510	0.697137	0.694272	0.145146	0.046739	0.138671	0.132986	0.239940	0.229678	0.433299	0.385172	0.117827	0.184551	0.188649	0.281262	0.198825	0.469696	0.298980	0.261719	0.084943	0.071400	0.223315	0.288057	0.124784	0.286903	0.187612	0.243342	0.235221	0.372195	0.479267	0.274032
34	0.247786	0.087939	0.223886	0.325484	0.168243	0.139664	0.390507	0.283675	0.284168	0.110463	0.199665	0.448614	0.115954	0.229736	0.139149	0.247322	0.204718	0.244444	0.300884	0.354689	0.378197	0.253081	0.434278	0.443553	0.268094	0.182144	0.333292	0.298853	0.122544	0.061683	0.183136	0.262061	0.505514	0.813307	0.862163	0.796483	0.169155	0.477788	0.228178	0.217407	0.488046	0.642736	0.830758	0.708636	0.190962	0.038539	0.125886	0.137722	0.239672	0.230786	0.469781	0.393416	0.110276	0.175771	0.226094	0.330772	0.207391	0.506647	0.430221	0.328480	0.094554	0.058068	0.222003	0.294922	0.123640	0.316653	0.232540	0.270720	0.211778	0.307137	0.432883	0.234298
35	0.256642	0.094874	0.218274	0.333896	0.152593	0.072668	0.347942	0.277928	0.374346	0.118615	0.190946	0.412721	0.113207	0.156639	0.139542	0.221496	0.205829	0.241276	0.292133	0.315760	0.497474	0.243148	0.436436	0.438038	0.299626	0.269005	0.332910	0.317545	0.135356	0.073721	0.204114	0.437921	0.534266	0.794743	0.871729	0.921006	0.167632	0.543130	0.204520	0.176608	0.512150	0.643084	0.897166	0.746115	0.202267	0.048442	0.148299	0.136339	0.233562	0.239438	0.489592	0.325270	0.098179	0.148812	0.261608	0.322557	0.215053	0.508331	0.456396	0.335433	0.097413	0.061570	0.325362	0.379045	0.123300	0.323587	0.262933	0.294792	0.181217	0.289139	0.431431	0.242606
36	0.256622	0.100495	0.197816	0.374465	0.125163	0.081043	0.382308	0.391427	0.424297	0.113406	0.178534	0.370950	0.116410	0.182484	0.149953	0.222845	0.211240	0.249289	0.278419	0.250560	0.540844	0.226890	0.430406	0.405200	0.418346	0.317318	0.336106	0.408222	0.174038	0.089338	0.275896	0.580187	0.542560	0.724758	0.898782	0.972562	0.160693	0.549432	0.154390	0.145160	0.524670	0.644842	0.891308	0.774740	0.414913	0.055357	0.237855	0.203058	0.190912	0.241167	0.454652	0.265043	0.117266	0.137866	0.277451	0.381102	0.220562	0.498540	0.556943	0.370941	0.083433	0.092330	0.535298	0.505196	0.124525	0.333221	0.267228	0.307147	0.193921	0.289475	0.446442	0.320143
37	0.266932	0.104003	0.201754	0.390760	0.140345	0.091744	0.428808	0.436686	0.443492	0.103295	0.163064	0.205561	0.111835	0.212706	0.160058	0.197446	0.166950	0.365982	0.271758	0.194219	0.779852	0.139896	0.393477	0.337883	0.437626	0.359250	0.367624	0.451925	0.245391	0.120139	0.476707	0.616744	0.538610	0.707009	0.888582	0.914449	0.155325	0.544311	0.194765	0.307172	0.524983	0.606905	0.892484	0.782957	0.455536	0.073526	0.303997	0.301879	0.169528	0.244262	0.446573	0.269234	0.125263	0.126795	0.341119	0.424772	0.239669	0.374318	0.600926	0.425582	0.132711	0.121350	0.580551	0.517973	0.156071	0.420131	0.262608	0.312267	0.217548	0.278122	0.510447	0.471102
38	0.298922	0.087834	0.225298	0.407055	0.153302	0.100851	0.407226	0.442933	0.450322	0.095618	0.189443	0.184074	0.111838	0.216644	0.181520	0.231103	0.205203	0.524439	0.268540	0.172020	1.003407	0.117098	0.328207	0.315526	0.453595	0.364784	0.342821	0.429059	0.251938	0.153015	0.669760	0.602421	0.458155	0.496086	0.733214	0.735615	0.220408	0.570897	0.324510	0.336355	0.521617	0.481388	0.890432	0.758520	0.506412	0.081984	0.299399	0.308759	0.117685	0.213510	0.408043	0.264906	0.129598	0.182431	0.343601	0.428302	0.251797	0.343004	0.595289	0.449941	0.235044	0.152720	0.584827	0.502153	0.178123	0.632865	0.250781	0.308931	0.237517	0.281421	0.554669	0.537322
39	0.312046	0.155732	0.204505	0.385590	0.139885	0.118821	0.364320	0.447320	0.416927	0.094834	0.230100	0.166387	0.118471	0.211174	0.220390	0.317818	0.346840	0.550790	0.262335	0.170855	1.057104	0.146928	0.321873	0.357175	0.454023	0.357667	0.331635	0.397893	0.250320	0.152520	0.698474	0.647409	0.319719	0.362857	0.595484	0.702394	0.339424	0.569596	0.373868	0.347072	0.517427	0.430054	0.763848	0.584720	0.510408	0.082775	0.321025	0.312154	0.124225	0.262234	0.383562	0.260663	0.136163	0.204498	0.341785	0.420681	0.263007	0.272290	0.584834	0.450562	0.276070	0.184794	0.634798	0.516260	0.177755	0.679320	0.249641	0.303477	0.241191	0.271330	0.563173	0.537313
40	0.265502	0.169339	0.190149	0.306940	0.134644	0.120002	0.371245	0.495846	0.365230	0.086953	0.249881	0.168490	0.136014	0.193549	0.338967	0.407997	0.372343	0.658847	0.244374	0.227502	1.106758	0.184078	0.440507	0.432079	0.415211	0.343889	0.320183	0.364401	0.270756	0.158764	0.821818	0.744838	0.309166	0.356339	0.531400	0.713242	0.355255	0.571849	0.374261	0.381487	0.442789	0.349376	0.637159	0.489538	0.520756	0.086065	0.337263	0.327372	0.178946	0.433780	0.364433	0.259308	0.135238	0.215399	0.347737	0.404460	0.255049	0.268061	0.588975	0.475170	0.278638	0.187476	0.672516	0.553177	0.194104	0.683277	0.279540	0.395471	0.237915	0.274744	0.659925	0.590472
41	0.288061	0.419143	0.183396	0.270021	0.138577	0.140940	0.383566	0.534563	0.319640	0.076836	0.254025	0.164666	0.181103	0.174095	0.483164	0.417622	0.444906	0.762551	0.260486	0.361343	1.087298	0.187527	0.507732	0.548825	0.414122	0.339153	0.332123	0.353257	0.313988	0.189525	1.057559	0.813606	0.253551	0.349066	0.377497	0.676152	0.391001	0.572940	0.447234	0.424469	0.311375	0.362619	0.618926	0.489736	0.526399	0.118398	0.357472	0.378829	0.210258	0.509112	0.283922	0.212903	0.126441	0.221875	0.357060	0.385657	0.205113	0.149208	0.533435	0.441536	0.288456	0.202324	0.676900	0.574522	0.238659	0.671212	0.408890	0.593885	0.250666	0.271297	0.731221	0.657243
42	0.304059	0.488302	0.183008	0.268913	0.146378	0.167291	0.395228	0.552143	0.244002	0.073966	0.256082	0.191815	0.185157	0.177288	0.519491	0.431180	0.448121	0.808149	0.322350	0.502470	1.071136	0.186227	0.500153	0.636347	0.410060	0.330472	0.349412	0.353584	0.331613	0.239074	1.129655	0.828241	0.172585	0.343163	0.352205	0.494907	0.440271	0.565260	0.530256	0.457282	0.297885	0.364784	0.439957	0.456497	0.516272	0.181138	0.372948	0.421901	0.231262	0.688242	0.138840	0.138787	0.119345	0.222054	0.343473	0.335070	0.192485	0.088678	0.456843	0.427729	0.303935	0.218720	0.679234	0.600085	0.274920	0.808312	0.522730	0.679044	0.258402	0.235008	0.741891	0.699786
43	0.384822	0.612933	0.184779	0.223125	0.153658	0.167437	0.401214	0.561219	0.182736	0.080081	0.217830	0.241976	0.187139	0.182645	0.520348	0.454738	0.504303	0.807555	0.399145	0.589998	1.063515	0.193865	0.488727	0.629466	0.399358	0.307699	0.427834	0.354805	0.339336	0.251329	1.134303	0.826040	0.138818	0.342443	0.286403	0.317462	0.470792	0.535185	0.569436	0.468231	0.268530	0.365215	0.167564	0.352601	0.503045	0.214479	0.374725	0.429404	0.281084	0.765924	0.129598	0.139207	0.114899	0.219321	0.304626	0.310967	0.196456	0.111559	0.406467	0.444578	0.310535	0.247324	0.679616	0.614847	0.306257	0.917694	0.579012	0.679841	0.270807	0.227080	0.743048	0.714473
44	0.393176	0.664035	0.196692	0.179369	0.188903	0.206910	0.417933	0.562448	0.208346	0.115081	0.202924	0.284438	0.195834	0.221246	0.605465	0.503630	0.519939	0.805843	0.417132	0.594531	1.098189	0.202774	0.517061	0.683702	0.269730	0.198388	0.481107	0.303379	0.337753	0.249995	1.135087	0.776224	0.134828	0.292955	0.226818	0.297066	0.491307	0.514121	0.580029	0.469184	0.260723	0.364993	0.271207	0.330779	0.507983	0.219361	0.368874	0.426564	0.294233	0.773388	0.130986	0.160706	0.112649	0.220745	0.297344	0.252659	0.181836	0.290904	0.256404	0.416198	0.308367	0.266542	0.658040	0.587872	0.309926	0.920955	0.574229	0.683777	0.275460	0.215409	0.743897	0.718822
45	0.389004	0.671929	0.190301	0.184760	0.228361	0.236867	0.412825	0.509622	0.200346	0.138170	0.158306	0.288617	0.251340	0.231038	0.727406	0.555478	0.522425	0.806101	0.431676	0.627111	1.100896	0.212045	0.544147	0.783261	0.246231	0.171944	0.454884	0.167897	0.326251	0.245753	1.124036	0.666525	0.124547	0.081548	0.232043	0.309128	0.494978	0.408965	0.579839	0.469682	0.275748	0.360376	0.370332	0.343007	0.379413	0.259946	0.321176	0.399681	0.340063	0.772729	0.206308	0.181360	0.097485	0.239847	0.217234	0.126407	0.153209	0.379639	0.201034	0.381099	0.310521	0.262781	0.513367	0.477920	0.309615	0.918611	0.596313	0.704310	0.270814	0.201662	0.729288	0.700350
46	0.344485	0.663180	0.175983	0.168452	0.225217	0.242408	0.343064	0.429869	0.382217	0.145342	0.138864	0.274964	0.293810	0.252599	0.778316	0.575499	0.526901	0.806692	0.488566	0.720099	1.064848	0.235630	0.545267	0.851475	0.211356	0.133762	0.452102	0.179331	0.276528	0.241681	1.067431	0.606981	0.121913	0.067993	0.237255	0.314536	0.493613	0.509098	0.576900	0.433481	0.328487	0.357975	0.372923	0.341773	0.318163	0.268546	0.248046	0.343371	0.393774	0.735407	0.285553	0.245595	0.110428	0.212083	0.204216	0.085863	0.130055	0.508404	0.255538	0.393705	0.301985	0.252928	0.411717	0.399208	0.309723	0.923466	0.651168	0.749986	0.246706	0.197407	0.651949	0.622729
47	0.346698	0.659468	0.182872	0.194977	0.208499	0.247390	0.273616	0.367314	0.566989	0.239808	0.114304	0.247103	0.307204	0.257824	0.785231	0.577289	0.541184	0.788783	0.567567	0.816145	0.995474	0.244562	0.546288	0.873960	0.147613	0.132409	0.452266	0.184821	0.255750	0.225635	0.946702	0.599438	0.125365	0.071570	0.227695	0.313437	0.478590	0.489040	0.538367	0.352734	0.330604	0.354104	0.384372	0.362108	0.222708	0.270214	0.291135	0.399309	0.369483	0.640771	0.291301	0.265790	0.118279	0.208409	0.206498	0.087022	0.168319	0.515770	0.264585	0.393915	0.247932	0.240443	0.397931	0.390945	0.304203	0.917833	0.704413	0.804919	0.201720	0.222029	0.527875	0.509195
48	0.340731	0.618748	0.214663	0.302241	0.197956	0.273652	0.269879	0.364259	0.714268	0.271874	0.146423	0.172203	0.307562	0.329223	0.780507	0.556411	0.547805	0.711880	0.604902	0.862643	0.714441	0.252420	0.548708	0.878718	0.134461	0.141273	0.432500	0.210890	0.245554	0.222071	0.904993	0.562288	0.150944	0.069397	0.268721	0.348981	0.420831	0.479415	0.471643	0.346854	0.359926	0.290833	0.390916	0.435242	0.222792	0.281012	0.338018	0.409352	0.395568	0.589855	0.334785	0.338157	0.133260	0.265995	0.167710	0.104304	0.175222	0.517571	0.285178	0.326620	0.172310	0.212821	0.310363	0.370863	0.302251	0.823743	0.733915	0.843226	0.183777	0.225345	0.510529	0.489373
49	0.334019	0.484958	0.245673	0.319757	0.204697	0.387040	0.301303	0.356331	0.706630	0.253316	0.224297	0.350354	0.303519	0.360457	0.775479	0.512942	0.491156	0.701449	0.608335	0.875620	0.601288	0.249217	0.550075	0.869093	0.143902	0.139985	0.403537	0.266290	0.232214	0.229438	0.846296	0.436479	0.157509	0.059852	0.285341	0.373984	0.354106	0.476098	0.453026	0.323209	0.370351	0.136494	0.392756	0.458857	0.206966	0.282039	0.342163	0.402205	0.397160	0.353303	0.362673	0.338904	0.158882	0.265033	0.103011	0.106742	0.173706	0.518475	0.334287	0.317709	0.187009	0.206663	0.155965	0.298955	0.308752	0.713961	0.751159	0.860740	0.204959	0.213352	0.455203	0.457966
50	0.234147	0.358974	0.305970	0.389977	0.214794	0.430997	0.420519	0.415877	0.680117	0.239401	0.264586	0.401320	0.287646	0.365322	0.743590	0.439166	0.500332	0.761735	0.611023	0.874032	0.458922	0.224659	0.485584	0.835843	0.161506	0.139256	0.407121	0.289846	0.172471	0.221905	0.528798	0.257734	0.149574	0.058122	0.379621	0.468201	0.340308	0.471537	0.449605	0.274450	0.355883	0.120181	0.393074	0.459139	0.193190	0.275793	0.392579	0.370293	0.372287	0.214994	0.363318	0.340170	0.179565	0.262245	0.080803	0.109610	0.176305	0.521897	0.344880	0.356660	0.248437	0.201436	0.114723	0.280856	0.318050	0.695689	0.751394	0.850162	0.222563	0.228496	0.252604	0.356401
51	0.266988	0.188457	0.341569	0.429166	0.215631	0.424552	0.452591	0.430238	0.606918	0.239378	0.296012	0.414666	0.259209	0.383125	0.666973	0.423059	0.469168	0.647966	0.609157	0.840968	0.470087	0.220634	0.373860	0.768916	0.163039	0.139053	0.353772	0.287759	0.173937	0.166371	0.226071	0.223206	0.220855	0.064713	0.546667	0.528169	0.293085	0.474352	0.346714	0.205721	0.340946	0.118196	0.390597	0.462224	0.204237	0.240614	0.443964	0.331315	0.374818	0.197613	0.402441	0.356204	0.235778	0.279474	0.089832	0.110231	0.168984	0.498212	0.345053	0.341350	0.340961	0.205288	0.141272	0.240124	0.304096	0.692956	0.715065	0.742297	0.237476	0.265853	0.159423	0.232058
52	0.245188	0.091693	0.335204	0.439045	0.219004	0.434694	0.471529	0.415305	0.206436	0.105174	0.326321	0.418174	0.255558	0.422197	0.635499	0.418501	0.692105	0.567697	0.579219	0.774127	0.464589	0.219737	0.337525	0.661284	0.146776	0.139619	0.231562	0.276154	0.181128	0.139212	0.164820	0.252150	0.247751	0.114459	0.601203	0.532346	0.227428	0.451563	0.250916	0.189941	0.339229	0.109761	0.366039	0.469686	0.200326	0.209348	0.445648	0.324530	0.341818	0.194166	0.422582	0.393208	0.300145	0.294836	0.149061	0.118588	0.168690	0.427704	0.340925	0.337309	0.406036	0.222936	0.196853	0.191499	0.275049	0.633994	0.628040	0.613199	0.362743	0.265754	0.149459	0.145780
53	0.246276	0.077881	0.334759	0.442580	0.200163	0.425265	0.542384	0.434904	0.097265	0.103618	0.321993	0.374633	0.253454	0.431225	0.634103	0.394520	0.716095	0.548300	0.531059	0.683764	0.461971	0.207157	0.332984	0.632103	0.136920	0.120675	0.195543	0.270258	0.194989	0.135658	0.170068	0.307185	0.247467	0.147386	0.597420	0.529863	0.189690	0.423535	0.192834	0.206425	0.324042	0.136301	0.263610	0.458903	0.188329	0.207317	0.446347	0.322520	0.294482	0.174694	0.406529	0.378666	0.297985	0.280825	0.184515	0.121829	0.164951	0.464461	0.314573	0.307915	0.670243	0.220464	0.292168	0.224458	0.242566	0.378455	0.549831	0.580701	0.483793	0.251530	0.130783	0.101374
54	0.239689	0.085232	0.318081	0.434592	0.142785	0.406401	0.548093	0.471141	0.086160	0.101605	0.396242	0.248433	0.251856	0.424663	0.558973	0.332042	0.758787	0.553978	0.490153	0.659680	0.381720	0.189496	0.267638	0.596197	0.134535	0.116463	0.185062	0.260098	0.211026	0.145830	0.176423	0.340401	0.248078	0.144638	0.596508	0.515648	0.161170	0.420854	0.216679	0.230901	0.260628	0.141058	0.309333	0.499769	0.190157	0.159288	0.450186	0.325227	0.281930	0.133671	0.401217	0.354092	0.303581	0.275395	0.183830	0.122986	0.135898	0.423822	0.276298	0.298760	0.674331	0.213736	0.409521	0.309093	0.215695	0.238746	0.527693	0.580549	0.509683	0.281615	0.112082	0.087910
55	0.236770	0.095422	0.310922	0.385799	0.127362	0.397005	0.551900	0.480398	0.077681	0.147532	0.379338	0.145865	0.208379	0.424132	0.379122	0.259771	0.771136	0.610433	0.497260	0.671139	0.320649	0.185128	0.175353	0.482365	0.124313	0.178156	0.160017	0.240349	0.216906	0.151937	0.219556	0.357663	0.236910	0.145901	0.585688	0.491138	0.190101	0.303066	0.252902	0.255534	0.285349	0.146809	0.498084	0.593310	0.191395	0.178166	0.454152	0.314459	0.254116	0.131094	0.368238	0.334508	0.301657	0.264689	0.202946	0.128169	0.126600	0.456082	0.282143	0.307357	0.690442	0.210946	0.447121	0.357376	0.214470	0.227831	0.514919	0.558377	0.568963	0.338031	0.132101	0.149270
56	0.202653	0.177076	0.299039	0.346773	0.125430	0.397882	0.554798	0.481313	0.064818	0.156047	0.376577	0.132546	0.149766	0.400809	0.251742	0.234304	0.792066	0.670639	0.477684	0.656170	0.328507	0.158603	0.217270	0.373922	0.112997	0.218823	0.159342	0.231997	0.215343	0.157497	0.262147	0.440817	0.225379	0.202065	0.548692	0.435469	0.195502	0.138828	0.258489	0.256952	0.304738	0.162355	0.539034	0.583716	0.195040	0.187808	0.431219	0.234340	0.226473	0.112420	0.429130	0.570977	0.294603	0.228062	0.222061	0.113777	0.179416	0.453312	0.269210	0.329471	0.698664	0.210189	0.485465	0.359295	0.223354	0.195315	0.450888	0.512556	0.572163	0.328673	0.162352	0.180170
57	0.206595	0.270819	0.252540	0.301463	0.126171	0.387852	0.554841	0.481605	0.059763	0.138202	0.332580	0.160879	0.131905	0.379475	0.263042	0.228678	0.797218	0.690033	0.429748	0.570302	0.334406	0.142427	0.270028	0.310770	0.112278	0.230823	0.142670	0.184963	0.227778	0.154138	0.264441	0.463742	0.228364	0.207262	0.556368	0.451227	0.195088	0.106047	0.264903	0.301060	0.300555	0.160015	0.537173	0.562268	0.184226	0.181403	0.377818	0.240601	0.372751	0.106148	0.586811	0.757169	0.293062	0.231485	0.249005	0.128437	0.200968	0.452857	0.269506	0.287659	0.698916	0.209201	0.643685	0.371898	0.247450	0.156418	0.359995	0.473565	0.579132	0.313909	0.174906	0.190929
58	0.182216	0.275161	0.202117	0.201627	0.121625	0.287852	0.545015	0.468893	0.090458	0.136257	0.304945	0.152623	0.131848	0.327835	0.303713	0.239049	0.804434	0.693964	0.369418	0.523758	0.397142	0.149751	0.294572	0.286943	0.083911	0.292653	0.143407	0.275225	0.234051	0.170725	0.270240	0.464016	0.249718	0.208840	0.433515	0.345957	0.225019	0.114934	0.322477	0.374666	0.294967	0.163915	0.543367	0.568868	0.181520	0.192155	0.359394	0.287187	0.485967	0.133764	0.589578	0.744750	0.284962	0.252614	0.252465	0.128715	0.212150	0.446218	0.267949	0.222524	0.716893	0.211414	0.737054	0.415279	0.274839	0.155771	0.278621	0.451908	0.576449	0.315878	0.195518	0.217300
59	0.147385	0.331318	0.187943	0.158551	0.121644	0.166053	0.464738	0.370564	0.131505	0.158920	0.147227	0.136442	0.143003	0.303532	0.303903	0.255207	0.814459	0.680990	0.354373	0.540825	0.465850	0.141044	0.292995	0.288836	0.085177	0.322535	0.228066	0.380850	0.234499	0.170433	0.336682	0.475383	0.195133	0.190464	0.271106	0.288706	0.291962	0.124237	0.391957	0.450518	0.310538	0.166865	0.568178	0.584197	0.181110	0.192766	0.293062	0.280536	0.493821	0.162401	0.552056	0.778396	0.260438	0.310390	0.254134	0.130442	0.218011	0.445050	0.314813	0.212901	0.715030	0.224038	0.759173	0.442532	0.280952	0.175912	0.323034	0.492647	0.567826	0.313994	0.239976	0.272836
60	0.144839	0.353739	0.195910	0.262554	0.109947	0.149698	0.392417	0.293357	0.229389	0.116587	0.128142	0.133704	0.183376	0.301288	0.319711	0.266525	0.802601	0.554610	0.349745	0.551620	0.551959	0.141248	0.302103	0.288996	0.126716	0.329032	0.257720	0.385791	0.219606	0.175383	0.355843	0.462423	0.192003	0.165998	0.263445	0.289106	0.305114	0.175912	0.424879	0.497347	0.316815	0.165822	0.644620	0.670362	0.155559	0.202690	0.165877	0.285075	0.520504	0.176417	0.558490	0.864669	0.153992	0.307943	0.257566	0.184795	0.244499	0.323165	0.406562	0.233014	0.693471	0.228378	0.764858	0.447918	0.274930	0.194350	0.387444	0.515007	0.573306	0.286906	0.283473	0.287864
61	0.159961	0.419371	0.341013	0.410951	0.096991	0.103172	0.380544	0.294315	0.382903	0.172314	0.104066	0.105027	0.184649	0.285002	0.307720	0.272562	0.785230	0.484651	0.334313	0.555894	0.843073	0.137283	0.336251	0.295396	0.146672	0.327644	0.257068	0.401321	0.186625	0.170937	0.562622	0.451412	0.194790	0.160262	0.263108	0.314158	0.314933	0.432251	0.428773	0.495422	0.330389	0.155941	0.773721	0.669302	0.185291	0.202660	0.178088	0.331785	0.530212	0.197525	0.618252	0.882883	0.167635	0.317002	0.273572	0.262185	0.247275	0.221999	0.412453	0.231676	0.619865	0.199850	0.760432	0.452575	0.260047	0.205450	0.466953	0.547264	0.535406	0.261664	0.289795	0.306093
62	0.182546	0.441275	0.408780	0.416500	0.097064	0.103459	0.272839	0.290166	0.416439	0.308328	0.093770	0.058865	0.198716	0.236115	0.322148	0.300239	0.708923	0.478287	0.317672	0.615041	0.941408	0.155253	0.350741	0.307694	0.151830	0.326398	0.271042	0.418384	0.185330	0.174524	0.698937	0.446988	0.197742	0.160152	0.263501	0.333000	0.313399	0.480908	0.422892	0.482680	0.366063	0.154613	0.818865	0.647434	0.193692	0.203097	0.192768	0.360429	0.521072	0.199020	0.614802	0.879689	0.170868	0.316161	0.321008	0.276663	0.250813	0.110331	0.409354	0.232721	0.408294	0.159453	0.733655	0.443226	0.261012	0.197221	0.549313	0.557015	0.436690	0.252810	0.337356	0.385295
63	0.173922	0.432582	0.427481	0.415956	0.122486	0.107099	0.202321	0.253302	0.434001	0.312958	0.115041	0.142374	0.226728	0.220209	0.413341	0.304256	0.547298	0.468760	0.316138	0.698467	1.066515	0.172476	0.352541	0.319526	0.165279	0.323264	0.305625	0.438360	0.189301	0.173372	0.711199	0.430139	0.204716	0.116314	0.261635	0.330374	0.306626	0.562073	0.408980	0.474068	0.360385	0.161447	0.743110	0.591779	0.206165	0.201866	0.185731	0.363688	0.516981	0.192447	0.545798	0.711472	0.165870	0.313047	0.319268	0.292482	0.198618	0.093323	0.391508	0.213413	0.328282	0.159083	0.677402	0.408343	0.269230	0.176321	0.561941	0.565511	0.379643	0.247326	0.405673	0.471435
64	0.169356	0.379113	0.502619	0.428244	0.129166	0.120231	0.188789	0.249144	0.416495	0.373365	0.122828	0.171463	0.232024	0.198506	0.437198	0.301339	0.409176	0.441527	0.315758	0.754177	1.149086	0.172985	0.351639	0.334874	0.166835	0.417026	0.319654	0.458898	0.191667	0.163274	0.700312	0.428159	0.209913	0.163451	0.227789	0.257260	0.298531	0.619845	0.389588	0.464574	0.333812	0.150142	0.872681	0.631193	0.211355	0.166555	0.174207	0.361499	0.391203	0.176419	0.378600	0.564944	0.175680	0.299408	0.359227	0.308222	0.198510	0.240770	0.340979	0.182032	0.326752	0.162128	0.638149	0.369908	0.273669	0.164104	0.666510	0.599317	0.366167	0.165918	0.441546	0.523218
65	0.207854	0.380386	0.502531	0.448343	0.129943	0.119673	0.177220	0.249505	0.371272	0.384125	0.134261	0.181892	0.226250	0.192934	0.486579	0.317449	0.381921	0.405272	0.309282	0.779191	1.160537	0.172475	0.350093	0.324249	0.226146	0.416507	0.330081	0.465059	0.193175	0.158794	0.685726	0.351260	0.156487	0.232539	0.154082	0.190029	0.290189	0.640509	0.375017	0.464873	0.397095	0.146910	1.020064	0.688656	0.281672	0.147323	0.160167	0.353455	0.253344	0.148266	0.375309	0.584389	0.168350	0.282344	0.400776	0.315960	0.170430	0.267490	0.324449	0.178387	0.301182	0.162995	0.626208	0.366678	0.278091	0.161728	0.787909	0.661467	0.342892	0.154462	0.443756	0.519496
66	0.210675	0.353849	0.582500	0.457265	0.141835	0.119629	0.201753	0.259286	0.177298	0.310910	0.134106	0.201469	0.241973	0.198127	0.552064	0.337063	0.351664	0.299507	0.328694	0.764271	1.164729	0.165719	0.325902	0.261028	0.297693	0.401801	0.339926	0.439560	0.183337	0.152418	0.686148	0.297890	0.107226	0.298651	0.129163	0.187764	0.294304	0.642792	0.386660	0.492653	0.444129	0.171037	1.041403	0.694714	0.308385	0.133853	0.154836	0.331289	0.240992	0.128855	0.378937	0.511385	0.156650	0.290381	0.409552	0.321430	0.154518	0.304676	0.314461	0.178708	0.300345	0.175760	0.490297	0.360474	0.333914	0.161540	0.859398	0.738662	0.337107	0.162241	0.437495	0.514069
67	0.211260	0.320221	0.598250	0.427676	0.157376	0.125341	0.210894	0.259579	0.176618	0.249862	0.127373	0.202497	0.254272	0.208433	0.538254	0.347918	0.334088	0.171229	0.412260	0.730456	1.160815	0.163881	0.280650	0.239424	0.304964	0.393332	0.302270	0.310116	0.167903	0.135886	0.688400	0.298675	0.106078	0.335687	0.122582	0.182215	0.307807	0.641445	0.415390	0.476004	0.435953	0.198916	1.060806	0.764175	0.326501	0.135160	0.147517	0.287849	0.189083	0.125367	0.342195	0.359420	0.144113	0.217644	0.409168	0.321215	0.128850	0.312117	0.213115	0.162883	0.346133	0.176968	0.292612	0.322219	0.369396	0.162811	0.880580	0.807269	0.363825	0.153546	0.428386	0.509959
68	0.231541	0.258262	0.586192	0.276388	0.142617	0.135384	0.209811	0.247477	0.111555	0.246307	0.133867	0.157757	0.257020	0.207133	0.515635	0.341231	0.438043	0.119133	0.412640	0.693925	1.143574	0.138155	0.252901	0.246531	0.296089	0.476644	0.255152	0.274935	0.167583	0.229591	0.666140	0.282368	0.155538	0.336451	0.121434	0.161790	0.281782	0.640954	0.384789	0.419311	0.434084	0.204785	1.047077	0.671229	0.331693	0.133366	0.146565	0.275956	0.173009	0.105992	0.234969	0.317334	0.142608	0.207412	0.397467	0.305836	0.093156	0.309248	0.059586	0.140074	0.322811	0.196506	0.172671	0.278535	0.387591	0.164062	0.887562	0.833929	0.378720	0.150742	0.407217	0.490678
69	0.249319	0.190415	0.531587	0.265755	0.148255	0.354253	0.237818	0.243339	0.189298	0.110018	0.202299	0.160915	0.251454	0.192252	0.515042	0.328699	0.452594	0.126252	0.398010	0.639028	1.131694	0.134632	0.264087	0.239650	0.282728	0.510071	0.245506	0.258588	0.161643	0.297220	0.653877	0.270113	0.190850	0.346740	0.116667	0.085564	0.240226	0.641193	0.316853	0.342225	0.420374	0.199040	0.955210	0.680568	0.386518	0.119695	0.163291	0.257387	0.186773	0.100756	0.240942	0.296032	0.129905	0.195892	0.370995	0.237050	0.098031	0.312687	0.095862	0.163545	0.318867	0.199616	0.142015	0.326165	0.389956	0.180349	0.887881	0.813304	0.430336	0.162805	0.375900	0.473088
70	0.281840	0.204214	0.535274	0.272942	0.156886	0.437002	0.256693	0.236561	0.201676	0.101145	0.291842	0.235352	0.220121	0.192412	0.487367	0.316157	0.460806	0.165405	0.426051	0.615414	1.094810	0.125691	0.264458	0.235431	0.278622	0.513416	0.244416	0.230652	0.159569	0.305882	0.539747	0.263426	0.353417	0.362167	0.179116	0.131321	0.230466	0.594764	0.275385	0.295950	0.392985	0.195375	0.902144	0.706928	0.400603	0.121912	0.141450	0.180870	0.216671	0.108962	0.238102	0.308706	0.100456	0.201171	0.327831	0.201055	0.105833	0.310563	0.134353	0.161762	0.318204	0.197275	0.118636	0.446587	0.416644	0.187428	0.851363	0.779975	0.451199	0.156107	0.364868	0.473633
71	0.294821	0.204160	0.476579	0.265654	0.159401	0.530643	0.244312	0.223860	0.210289	0.112595	0.331480	0.282426	0.218220	0.206399	0.481664	0.307586	0.471665	0.198599	0.441085	0.614939	0.966667	0.125808	0.220316	0.243378	0.271503	0.528875	0.205879	0.200911	0.147364	0.305443	0.283110	0.198859	0.489266	0.356323	0.308488	0.201554	0.220900	0.446332	0.281806	0.295049	0.386868	0.191407	0.904138	0.686733	0.395108	0.117198	0.110160	0.105566	0.269180	0.121638	0.233810	0.305276	0.094260	0.202166	0.312873	0.193254	0.112953	0.285620	0.137080	0.159855	0.378484	0.217553	0.269696	0.528525	0.442454	0.186812	0.818948	0.757673	0.454994	0.156455	0.344482	0.438516
72	0.276026	0.215520	0.447838	0.226699	0.144094	0.558858	0.226258	0.179510	0.192272	0.130817	0.323974	0.279472	0.206071	0.193042	0.473225	0.264610	0.481669	0.204632	0.438334	0.593201	0.794810	0.118374	0.200797	0.285205	0.282517	0.492781	0.166071	0.146483	0.113178	0.322028	0.166051	0.133560	0.514505	0.297181	0.338082	0.200321	0.207028	0.417796	0.306255	0.291478	0.376287	0.201802	0.758593	0.608897	0.382555	0.111151	0.106261	0.080940	0.401574	0.125209	0.162087	0.233534	0.077436	0.201414	0.271180	0.158054	0.110480	0.191442	0.171124	0.179441	0.432731	0.242253	0.367160	0.532583	0.443681	0.181502	0.767841	0.750058	0.441762	0.156812	0.271388	0.350104
73	0.262533	0.466985	0.376166	0.196583	0.136929	0.553758	0.240883	0.158631	0.190076	0.117387	0.314478	0.275490	0.174843	0.184772	0.398895	0.245993	0.528314	0.239331	0.443489	0.504634	0.636803	0.077511	0.203606	0.340453	0.290386	0.448061	0.183943	0.114564	0.086082	0.369776	0.157387	0.101689	0.585666	0.285629	0.422976	0.271975	0.209499	0.287624	0.310507	0.287507	0.348005	0.202636	0.576082	0.549236	0.379840	0.104974	0.106186	0.078113	0.392211	0.118535	0.133064	0.177454	0.053286	0.202982	0.164399	0.121085	0.115519	0.174018	0.192955	0.212229	0.433570	0.259236	0.397873	0.550113	0.437445	0.181232	0.757009	0.770747	0.413741	0.145690	0.174991	0.224216
74	0.287733	0.586243	0.320769	0.197711	0.149584	0.567922	0.275774	0.160210	0.140388	0.108456	0.285523	0.285390	0.168704	0.185400	0.368187	0.244738	0.607574	0.275178	0.443968	0.396067	0.431533	0.075398	0.274595	0.334981	0.207090	0.446435	0.171483	0.104698	0.085758	0.388860	0.148969	0.100091	0.593575	0.175972	0.430101	0.343527	0.205233	0.185640	0.314475	0.279340	0.298795	0.182551	0.517788	0.553379	0.323920	0.104793	0.107641	0.080063	0.449380	0.091823	0.127699	0.192953	0.054356	0.170601	0.079504	0.087496	0.128319	0.147438	0.191976	0.223272	0.440949	0.262554	0.438550	0.604341	0.519571	0.181672	0.749942	0.810937	0.383328	0.123227	0.110531	0.149568
75	0.317086	0.645897	0.253362	0.277464	0.152803	0.580346	0.282928	0.147630	0.148948	0.117737	0.190992	0.265738	0.166981	0.180794	0.304372	0.200919	0.631871	0.357771	0.440773	0.313474	0.516668	0.076562	0.350487	0.346780	0.174393	0.439982	0.172691	0.107732	0.090902	0.390426	0.134800	0.092080	0.593275	0.180184	0.467939	0.351580	0.196889	0.192606	0.314920	0.250328	0.336255	0.156773	0.479417	0.443022	0.307263	0.144429	0.110915	0.082362	0.450391	0.089733	0.119193	0.186972	0.067151	0.169707	0.071596	0.081922	0.147656	0.198285	0.191586	0.231885	0.482846	0.275944	0.524780	0.652333	0.745530	0.193867	0.673725	0.856303	0.381456	0.103715	0.092520	0.147493
76	0.374645	0.722898	0.245853	0.460947	0.139148	0.578156	0.273430	0.133393	0.145780	0.104837	0.154219	0.258145	0.137266	0.186101	0.142315	0.118374	0.649407	0.373857	0.431145	0.280513	0.479353	0.087615	0.373337	0.398712	0.179349	0.356209	0.194018	0.150080	0.091831	0.405751	0.115086	0.081471	0.583781	0.177870	0.499147	0.448878	0.188392	0.308608	0.291055	0.164538	0.352769	0.162146	0.428652	0.403122	0.295385	0.166549	0.118131	0.081605	0.439858	0.105741	0.091269	0.183252	0.069744	0.151901	0.071833	0.082742	0.157129	0.219270	0.188724	0.238156	0.461028	0.315879	0.540691	0.661427	0.838519	0.212122	0.635303	0.967713	0.367643	0.090796	0.094966	0.146949
77	0.345797	0.715947	0.296625	0.480778	0.138311	0.577959	0.278363	0.134121	0.195860	0.073195	0.153610	0.325587	0.097956	0.184852	0.121715	0.075139	0.703525	0.373647	0.367898	0.317314	0.451493	0.113084	0.461652	0.440014	0.183578	0.272469	0.208202	0.211744	0.096755	0.392389	0.093982	0.102215	0.543747	0.124351	0.538755	0.545551	0.199843	0.348550	0.223553	0.130027	0.366896	0.171295	0.431822	0.456382	0.287436	0.196603	0.137398	0.074091	0.456276	0.100126	0.065711	0.180062	0.069981	0.113931	0.091956	0.097126	0.147698	0.283630	0.171575	0.201288	0.437469	0.320929	0.548095	0.657564	0.895178	0.218483	0.719342	1.008608	0.319068	0.089004	0.094869	0.137783
78	0.367911	0.714283	0.287552	0.480133	0.137193	0.518450	0.275276	0.139049	0.215294	0.123100	0.130876	0.346484	0.090539	0.173748	0.119197	0.074054	0.682994	0.402892	0.285866	0.331925	0.450702	0.133091	0.496674	0.466362	0.183784	0.254952	0.237940	0.214798	0.099856	0.321040	0.079832	0.192216	0.388837	0.105927	0.512125	0.553357	0.200330	0.358209	0.206120	0.165912	0.442960	0.165310	0.450642	0.444045	0.210414	0.247730	0.142434	0.065860	0.418949	0.131236	0.076945	0.171181	0.093181	0.101791	0.094175	0.112514	0.168660	0.298129	0.157234	0.233340	0.436829	0.311831	0.554966	0.631877	0.936617	0.257244	0.750886	0.953964	0.337840	0.068038	0.092014	0.123742
79	0.374027	0.705326	0.288027	0.527702	0.125557	0.406312	0.258191	0.141674	0.210424	0.194951	0.137860	0.328209	0.090966	0.192894	0.094351	0.074201	0.623606	0.406894	0.310777	0.333243	0.440493	0.144288	0.491777	0.470671	0.194300	0.248955	0.253042	0.229182	0.111792	0.323940	0.113189	0.238567	0.352375	0.100284	0.473075	0.548520	0.202513	0.442074	0.216773	0.172864	0.432040	0.166521	0.420822	0.452812	0.152691	0.253474	0.139807	0.060835	0.327881	0.132228	0.077134	0.171985	0.114371	0.102022	0.096388	0.107360	0.212739	0.447513	0.165225	0.289284	0.440539	0.304873	0.578731	0.560250	1.017757	0.286505	0.770851	0.991222	0.315701	0.055033	0.094655	0.109243
80	0.392495	0.647931	0.357642	0.647885	0.117505	0.326440	0.261782	0.156439	0.207051	0.194900	0.167209	0.346673	0.090318	0.199662	0.090354	0.084000	0.613185	0.402557	0.306836	0.330896	0.422137	0.145811	0.485063	0.488374	0.205552	0.168673	0.283964	0.229197	0.124528	0.322607	0.138692	0.241541	0.214300	0.082492	0.414096	0.538921	0.192726	0.454697	0.215913	0.173097	0.427939	0.163906	0.433185	0.507388	0.144522	0.252568	0.140453	0.056654	0.394081	0.132423	0.075145	0.169129	0.117659	0.107181	0.096226	0.112982	0.211231	0.468188	0.169878	0.280245	0.405469	0.289418	0.578256	0.465462	1.031765	0.271261	0.821896	1.078379	0.339774	0.053204	0.090720	0.093728
81	0.452146	0.502052	0.485013	0.677565	0.116756	0.212619	0.287058	0.162370	0.239407	0.200104	0.186493	0.333852	0.096962	0.176542	0.088928	0.108537	0.603652	0.385333	0.268140	0.332602	0.415885	0.146166	0.501788	0.508323	0.179704	0.140868	0.346162	0.228228	0.129518	0.315030	0.145589	0.275783	0.196909	0.078957	0.393842	0.478917	0.184411	0.454289	0.183200	0.170957	0.396246	0.157181	0.374116	0.514277	0.146645	0.254631	0.146709	0.068329	0.322489	0.134839	0.088031	0.148600	0.122184	0.098641	0.109130	0.123951	0.219530	0.494500	0.181349	0.271399	0.358239	0.269427	0.523423	0.435450	1.044046	0.256319	0.838866	1.129696	0.334294	0.058272	0.078808	0.078853
82	0.492133	0.539965	0.485999	0.678586	0.114977	0.215323	0.318720	0.138167	0.206294	0.217247	0.194546	0.280430	0.109475	0.184683	0.143897	0.172625	0.595250	0.375718	0.276150	0.356075	0.406946	0.152434	0.519330	0.487073	0.219402	0.145920	0.366678	0.227994	0.130271	0.265766	0.172293	0.302549	0.193400	0.055333	0.365382	0.481759	0.189532	0.454565	0.173464	0.244503	0.370924	0.159704	0.352809	0.506792	0.145999	0.256576	0.153982	0.100546	0.336733	0.128606	0.166979	0.154443	0.127482	0.080538	0.125327	0.131975	0.209502	0.502007	0.213133	0.301782	0.351062	0.247882	0.488475	0.418031	1.049075	0.264226	0.864675	1.145020	0.448800	0.083266	0.069846	0.067591
83	0.428503	0.408755	0.477361	0.575343	0.099408	0.183569	0.295487	0.116600	0.221906	0.157265	0.204916	0.253177	0.128937	0.270362	0.202589	0.196409	0.581392	0.367838	0.302499	0.429179	0.404164	0.166219	0.521877	0.442791	0.217317	0.133747	0.392355	0.224205	0.137258	0.215785	0.216134	0.343096	0.191749	0.055987	0.391914	0.512011	0.197154	0.456498	0.207250	0.325698	0.339317	0.156635	0.355809	0.514478	0.143679	0.256345	0.163045	0.133608	0.332955	0.119088	0.279239	0.304614	0.126995	0.082628	0.164107	0.132897	0.199178	0.484455	0.245244	0.332888	0.367259	0.239433	0.475759	0.343197	1.051987	0.283122	0.869965	1.140008	0.708863	0.081180	0.070133	0.060733
84	0.514811	0.442229	0.459450	0.507551	0.077095	0.130321	0.288856	0.128394	0.233705	0.113546	0.194984	0.238546	0.135945	0.311279	0.208483	0.195077	0.507441	0.354536	0.315759	0.464038	0.372243	0.179327	0.510434	0.420139	0.239251	0.130405	0.456168	0.276717	0.133952	0.235730	0.247195	0.369161	0.212147	0.049966	0.385920	0.582035	0.214445	0.448543	0.235509	0.333753	0.312958	0.156040	0.301747	0.517709	0.126837	0.238603	0.163599	0.135220	0.298796	0.116915	0.299025	0.338506	0.124309	0.083062	0.169125	0.134013	0.199583	0.475036	0.270987	0.329245	0.329899	0.225936	0.378331	0.223712	1.056886	0.294455	0.854447	1.112980	0.709945	0.081634	0.071782	0.053701
85	0.645918	0.452590	0.450351	0.588576	0.065614	0.136021	0.298612	0.134864	0.222547	0.110385	0.179097	0.119663	0.133814	0.314323	0.214286	0.199432	0.442090	0.292912	0.322918	0.475964	0.248949	0.179808	0.468088	0.409373	0.284408	0.156598	0.483763	0.336332	0.133393	0.283766	0.253956	0.374648	0.221756	0.070409	0.380858	0.553775	0.245988	0.409485	0.231033	0.334207	0.282795	0.161301	0.283601	0.437441	0.091017	0.210566	0.158521	0.159174	0.294928	0.070264	0.334734	0.383776	0.124891	0.083223	0.162583	0.158769	0.215477	0.447180	0.270181	0.328884	0.328961	0.162651	0.332541	0.157963	0.930486	0.298332	0.830027	1.059589	0.722420	0.092210	0.065267	0.047180
86	0.642131	0.458082	0.511922	0.672572	0.061631	0.137990	0.312746	0.135083	0.197617	0.094584	0.178568	0.105127	0.167084	0.308236	0.236964	0.212957	0.424560	0.235915	0.322965	0.466623	0.119351	0.179716	0.466793	0.363632	0.299263	0.195209	0.497534	0.349352	0.149267	0.275838	0.254217	0.370499	0.229436	0.082146	0.426426	0.644603	0.246534	0.335869	0.227972	0.335067	0.147810	0.172540	0.259274	0.377039	0.075869	0.183208	0.140392	0.179608	0.355236	0.084543	0.417175	0.472371	0.121471	0.082057	0.167594	0.156092	0.183826	0.405455	0.273843	0.316191	0.343370	0.108358	0.328440	0.156817	0.788722	0.290882	0.797095	0.958827	0.729755	0.096220	0.070177	0.044565
87	0.645811	0.454894	0.512084	0.620554	0.098388	0.122160	0.334667	0.130909	0.197860	0.035632	0.160489	0.062257	0.201151	0.306557	0.260400	0.252697	0.333827	0.243082	0.310802	0.430648	0.116775	0.160074	0.388038	0.306215	0.301642	0.241472	0.484757	0.346795	0.201074	0.314575	0.262311	0.344516	0.248286	0.092022	0.519791	0.699718	0.221499	0.320520	0.231609	0.325036	0.177035	0.172092	0.259412	0.361383	0.076350	0.095998	0.115695	0.184874	0.307583	0.142197	0.481709	0.550483	0.120862	0.070693	0.176415	0.173058	0.173986	0.275056	0.258309	0.286656	0.340655	0.071650	0.314020	0.152552	0.742988	0.290472	0.688061	0.774504	0.728792	0.097576	0.076694	0.044279
88	0.643014	0.450132	0.406681	0.563141	0.136094	0.114861	0.348245	0.133787	0.152212	0.033029	0.152795	0.097566	0.212484	0.306763	0.265505	0.289212	0.234566	0.215266	0.307394	0.407058	0.117750	0.142193	0.323289	0.245540	0.292161	0.267099	0.491256	0.379721	0.201776	0.304299	0.276255	0.308484	0.213997	0.183976	0.575045	0.745722	0.224183	0.296492	0.215191	0.318830	0.234060	0.157619	0.245633	0.298335	0.072337	0.068122	0.111172	0.182296	0.312583	0.198374	0.487803	0.557620	0.140835	0.057005	0.175146	0.176609	0.178005	0.289248	0.227249	0.283156	0.337632	0.070155	0.293786	0.162603	0.606729	0.280912	0.567028	0.724469	0.700882	0.104058	0.079319	0.133586
89	0.578687	0.335153	0.378608	0.627692	0.139295	0.110613	0.339080	0.119368	0.167034	0.060527	0.174089	0.119539	0.212706	0.314975	0.266353	0.298404	0.192606	0.193564	0.302761	0.424512	0.115333	0.128217	0.308655	0.227899	0.329911	0.280320	0.466468	0.442434	0.297603	0.320050	0.270409	0.324936	0.216741	0.229748	0.576546	0.746485	0.220355	0.131149	0.213193	0.317929	0.233218	0.157058	0.351345	0.386297	0.064534	0.070003	0.111280	0.183033	0.297910	0.338137	0.461327	0.576903	0.138361	0.075093	0.179429	0.168448	0.170681	0.258573	0.228848	0.286557	0.352068	0.069802	0.177755	0.196035	0.532777	0.221553	0.555993	0.684816	0.671552	0.112467	0.121924	0.226843
90	0.570631	0.309149	0.404127	0.707867	0.141763	0.099940	0.331740	0.108913	0.167289	0.066705	0.161060	0.148071	0.245989	0.331805	0.268443	0.298053	0.131541	0.179125	0.273452	0.429459	0.128386	0.125683	0.309576	0.208774	0.325951	0.286453	0.459968	0.475988	0.306560	0.331077	0.269228	0.308210	0.235280	0.229860	0.550549	0.747791	0.220137	0.127999	0.213240	0.341058	0.246629	0.156437	0.445690	0.485722	0.057182	0.063689	0.110667	0.183871	0.307532	0.406911	0.416566	0.507079	0.165346	0.120040	0.183240	0.162986	0.173315	0.252064	0.207267	0.245596	0.351191	0.073257	0.150558	0.206203	0.421073	0.199645	0.451201	0.517110	0.687148	0.123320	0.145919	0.233550
91	0.571187	0.199216	0.415647	0.719219	0.154420	0.092035	0.303483	0.254759	0.222969	0.081770	0.206195	0.202043	0.259258	0.333316	0.267425	0.288902	0.140789	0.170492	0.273077	0.423593	0.140336	0.127625	0.287447	0.124517	0.307332	0.286150	0.464306	0.478692	0.304274	0.332285	0.265893	0.282631	0.242489	0.248176	0.529784	0.680619	0.222398	0.134817	0.216660	0.369337	0.274169	0.162305	0.449898	0.491498	0.099561	0.056727	0.104725	0.176092	0.325273	0.450435	0.409133	0.493092	0.191189	0.119072	0.154731	0.170348	0.196118	0.243242	0.176558	0.235327	0.308785	0.081056	0.152374	0.193852	0.378658	0.200322	0.410899	0.410443	0.667418	0.106319	0.148463	0.251348
92	0.403313	0.192823	0.387768	0.683318	0.202278	0.099517	0.388281	0.462404	0.230230	0.090093	0.339233	0.229308	0.280032	0.328008	0.239196	0.257495	0.147988	0.172539	0.267284	0.452111	0.136539	0.126725	0.241041	0.111096	0.300761	0.287007	0.409854	0.476215	0.297561	0.334372	0.240958	0.244900	0.245794	0.272522	0.520836	0.628132	0.226186	0.150696	0.203058	0.311922	0.281543	0.196163	0.477181	0.502566	0.112710	0.069847	0.088250	0.156668	0.340208	0.450270	0.392688	0.560057	0.194631	0.119730	0.142779	0.173292	0.231381	0.254906	0.170753	0.272498	0.287636	0.090068	0.141885	0.179933	0.328625	0.198776	0.442718	0.456413	0.421883	0.106314	0.164653	0.269523
93	0.277777	0.179249	0.341760	0.588977	0.218386	0.131111	0.440636	0.496955	0.270881	0.117585	0.399885	0.224340	0.292002	0.264431	0.187492	0.246930	0.168336	0.172069	0.264360	0.424757	0.197533	0.109110	0.217647	0.119245	0.257538	0.279370	0.362381	0.414563	0.315691	0.319798	0.228787	0.198150	0.286764	0.271808	0.509933	0.579814	0.217710	0.157207	0.162977	0.268399	0.275004	0.195825	0.499106	0.548138	0.116897	0.077102	0.083695	0.153966	0.289061	0.449489	0.433472	0.539638	0.196504	0.121410	0.144466	0.161537	0.217085	0.261624	0.157366	0.282765	0.258993	0.090023	0.129234	0.178864	0.364053	0.190859	0.578762	0.585852	0.318143	0.112363	0.193845	0.275481
94	0.268563	0.175685	0.290165	0.529707	0.236436	0.140261	0.429425	0.505023	0.251090	0.163129	0.422711	0.214552	0.292839	0.213843	0.189737	0.318741	0.303365	0.179469	0.303377	0.374756	0.337826	0.083544	0.247649	0.141243	0.242135	0.255593	0.359939	0.380443	0.317088	0.297110	0.224603	0.182966	0.343256	0.271588	0.409667	0.502112	0.191608	0.170201	0.138829	0.267234	0.274606	0.183144	0.494296	0.550250	0.132556	0.108973	0.083361	0.130652	0.270967	0.442165	0.454738	0.528692	0.195094	0.119877	0.135818	0.144927	0.209660	0.255013	0.159083	0.262282	0.233502	0.088879	0.130558	0.185484	0.450662	0.192303	0.664577	0.684132	0.317205	0.127366	0.199141	0.275411
95	0.246878	0.170797	0.299916	0.520146	0.241071	0.145901	0.436181	0.578428	0.263818	0.229255	0.434928	0.204364	0.295880	0.211310	0.201396	0.377926	0.443966	0.170007	0.303616	0.343947	0.378048	0.077421	0.255728	0.158162	0.233945	0.199731	0.356684	0.403757	0.317141	0.268901	0.226393	0.186378	0.356457	0.242458	0.306263	0.424199	0.156346	0.188187	0.136955	0.270237	0.255548	0.250576	0.486503	0.549769	0.147787	0.136336	0.086097	0.100558	0.259904	0.407023	0.506919	0.600449	0.183291	0.119496	0.125009	0.131717	0.201719	0.230634	0.202292	0.276195	0.242246	0.088519	0.132951	0.189883	0.560559	0.229744	0.662838	0.697669	0.311248	0.124226	0.199305	0.275719
96	0.249901	0.173698	0.372678	0.475375	0.274659	0.150366	0.458416	0.641040	0.260469	0.234093	0.412910	0.135397	0.285247	0.210940	0.210023	0.375863	0.517265	0.173640	0.303997	0.336962	0.455887	0.079095	0.239668	0.164069	0.236761	0.185423	0.341726	0.390854	0.290738	0.216502	0.226998	0.181766	0.368364	0.182499	0.276224	0.432111	0.153636	0.184024	0.134474	0.295866	0.249694	0.321426	0.483957	0.557413	0.271572	0.137352	0.075335	0.086131	0.273523	0.328930	0.572559	0.583611	0.169527	0.121982	0.123199	0.108426	0.198568	0.188405	0.243790	0.270903	0.344334	0.085775	0.124271	0.240254	0.592273	0.262670	0.697821	0.759009	0.331939	0.128792	0.196731	0.280889
97	0.252300	0.180516	0.356190	0.317834	0.288054	0.198922	0.471487	0.660659	0.233189	0.236146	0.337859	0.149375	0.265778	0.213717	0.221634	0.353039	0.525733	0.182048	0.322333	0.359578	0.483236	0.109676	0.260351	0.164521	0.216232	0.136472	0.327482	0.326203	0.284716	0.195719	0.202539	0.180234	0.521051	0.177953	0.341669	0.416966	0.129486	0.184613	0.141592	0.337256	0.328500	0.330134	0.424344	0.484358	0.301182	0.146357	0.066964	0.088362	0.260319	0.214171	0.586146	0.646624	0.168427	0.119650	0.117310	0.117944	0.235126	0.154204	0.367317	0.260470	0.400888	0.070701	0.168440	0.280379	0.669507	0.262153	0.795420	0.895902	0.351496	0.129287	0.197367	0.284065
98	0.239668	0.194129	0.336401	0.240290	0.283903	0.223615	0.471545	0.663362	0.211723	0.205217	0.240345	0.182125	0.259122	0.214551	0.221444	0.323288	0.584083	0.212251	0.403043	0.427903	0.496363	0.112980	0.314048	0.173734	0.144506	0.155617	0.299008	0.242071	0.230642	0.177785	0.177924	0.184068	0.645371	0.167416	0.341655	0.410467	0.142270	0.179048	0.148302	0.337921	0.338912	0.334344	0.344919	0.372562	0.318118	0.154608	0.065662	0.103287	0.258181	0.156499	0.622663	0.696486	0.153434	0.067342	0.100862	0.135105	0.233581	0.206640	0.390774	0.289521	0.498565	0.078327	0.243706	0.281059	0.733595	0.284022	0.851985	1.007219	0.365024	0.126802	0.199821	0.213662
99	0.246686	0.152907	0.397852	0.349632	0.283255	0.230496	0.479483	0.669009	0.230399	0.356714	0.224206	0.228599	0.269125	0.204012	0.254831	0.318016	0.621648	0.210751	0.472279	0.489915	0.496637	0.115756	0.314351	0.173026	0.142045	0.160263	0.244184	0.227867	0.149532	0.148945	0.176121	0.174570	0.694997	0.113977	0.308497	0.479951	0.143172	0.180685	0.153283	0.337682	0.361786	0.354834	0.347997	0.353133	0.324735	0.169826	0.053841	0.106515	0.231695	0.154764	0.621574	0.595527	0.156101	0.051613	0.093600	0.131398	0.210016	0.328171	0.384385	0.256623	0.502419	0.134635	0.257498	0.277296	0.773735	0.327182	0.863444	1.042103	0.405025	0.133627	0.189899	0.180968
100	0.282969	0.140468	0.394530	0.373315	0.278956	0.230738	0.475953	0.649704	0.225278	0.315350	0.266425	0.284786	0.261839	0.267740	0.256479	0.347951	0.642683	0.205290	0.504784	0.499230	0.494333	0.127039	0.315485	0.170234	0.145870	0.190145	0.242783	0.220874	0.152623	0.138682	0.167240	0.179157	0.777893	0.087141	0.299770	0.463801	0.147299	0.177848	0.155012	0.317585	0.360539	0.334547	0.319335	0.373749	0.319556	0.169722	0.045014	0.096813	0.198736	0.152175	0.543022	0.607793	0.206039	0.050980	0.096228	0.125828	0.171545	0.372391	0.384275	0.224883	0.502831	0.161245	0.255885	0.277968	0.780167	0.356874	0.860919	1.042869	0.390073	0.140096	0.184312	0.171643
101	0.300598	0.139579	0.404916	0.465890	0.253144	0.227621	0.444277	0.524571	0.185112	0.314874	0.335909	0.280006	0.265008	0.462743	0.259202	0.371468	0.643033	0.207855	0.504481	0.498499	0.493367	0.131656	0.315846	0.171093	0.148777	0.202062	0.212265	0.207733	0.150300	0.132117	0.158803	0.178337	0.874769	0.108926	0.313747	0.467540	0.160698	0.166606	0.164710	0.299318	0.364940	0.328382	0.345523	0.285321	0.337080	0.166043	0.047265	0.088432	0.227444	0.146801	0.595208	0.563358	0.333930	0.092278	0.093959	0.128983	0.167942	0.390286	0.385681	0.211041	0.502518	0.163154	0.256221	0.278618	0.771763	0.367089	0.869340	1.056216	0.394986	0.139000	0.181168	0.136033
