	199_P_T2_sh_R_D_A_01.c3d	199_P_T2_sh_R_D_A_01.c3d	199_P_T2_sh_R_D_A_01.c3d	199_P_T2_sh_R_D_A_01.c3d	199_P_T2_sh_R_D_A_01.c3d	199_P_T2_sh_R_D_A_01.c3d	199_P_T2_sh_R_D_A_01.c3d	199_P_T2_sh_R_D_A_01.c3d	199_P_T2_sh_R_D_A_02.c3d	199_P_T2_sh_R_D_A_02.c3d	199_P_T2_sh_R_D_A_02.c3d	199_P_T2_sh_R_D_A_02.c3d	199_P_T2_sh_R_D_A_02.c3d	199_P_T2_sh_R_D_A_02.c3d	199_P_T2_sh_R_D_A_02.c3d	199_P_T2_sh_R_D_A_02.c3d	199_P_T2_sh_R_D_A_03.c3d	199_P_T2_sh_R_D_A_03.c3d	199_P_T2_sh_R_D_A_03.c3d	199_P_T2_sh_R_D_A_03.c3d	199_P_T2_sh_R_D_A_03.c3d	199_P_T2_sh_R_D_A_03.c3d	199_P_T2_sh_R_D_A_03.c3d	199_P_T2_sh_R_D_A_03.c3d	199_P_T2_sh_R_D_A_04.c3d	199_P_T2_sh_R_D_A_04.c3d	199_P_T2_sh_R_D_A_04.c3d	199_P_T2_sh_R_D_A_04.c3d	199_P_T2_sh_R_D_A_04.c3d	199_P_T2_sh_R_D_A_04.c3d	199_P_T2_sh_R_D_A_04.c3d	199_P_T2_sh_R_D_A_04.c3d	199_P_T2_sh_R_D_A_05.c3d	199_P_T2_sh_R_D_A_05.c3d	199_P_T2_sh_R_D_A_05.c3d	199_P_T2_sh_R_D_A_05.c3d	199_P_T2_sh_R_D_A_05.c3d	199_P_T2_sh_R_D_A_05.c3d	199_P_T2_sh_R_D_A_05.c3d	199_P_T2_sh_R_D_A_05.c3d	199_P_T2_sh_R_D_A_06.c3d	199_P_T2_sh_R_D_A_06.c3d	199_P_T2_sh_R_D_A_06.c3d	199_P_T2_sh_R_D_A_06.c3d	199_P_T2_sh_R_D_A_06.c3d	199_P_T2_sh_R_D_A_06.c3d	199_P_T2_sh_R_D_A_06.c3d	199_P_T2_sh_R_D_A_06.c3d	199_P_T2_sh_R_D_A_07.c3d	199_P_T2_sh_R_D_A_07.c3d	199_P_T2_sh_R_D_A_07.c3d	199_P_T2_sh_R_D_A_07.c3d	199_P_T2_sh_R_D_A_07.c3d	199_P_T2_sh_R_D_A_07.c3d	199_P_T2_sh_R_D_A_07.c3d	199_P_T2_sh_R_D_A_07.c3d	199_P_T2_sh_R_D_A_08.c3d	199_P_T2_sh_R_D_A_08.c3d	199_P_T2_sh_R_D_A_08.c3d	199_P_T2_sh_R_D_A_08.c3d	199_P_T2_sh_R_D_A_08.c3d	199_P_T2_sh_R_D_A_08.c3d	199_P_T2_sh_R_D_A_08.c3d	199_P_T2_sh_R_D_A_08.c3d	199_P_T2_sh_R_D_A_09.c3d	199_P_T2_sh_R_D_A_09.c3d	199_P_T2_sh_R_D_A_09.c3d	199_P_T2_sh_R_D_A_09.c3d	199_P_T2_sh_R_D_A_09.c3d	199_P_T2_sh_R_D_A_09.c3d	199_P_T2_sh_R_D_A_09.c3d	199_P_T2_sh_R_D_A_09.c3d	199_P_T2_sh_R_D_A_10.c3d	199_P_T2_sh_R_D_A_10.c3d	199_P_T2_sh_R_D_A_10.c3d	199_P_T2_sh_R_D_A_10.c3d	199_P_T2_sh_R_D_A_10.c3d	199_P_T2_sh_R_D_A_10.c3d	199_P_T2_sh_R_D_A_10.c3d	199_P_T2_sh_R_D_A_10.c3d
	Biceps femoris_lat	Semitendinosus_lat	Vastus lateralis_lat	Vastus medialis_lat	Biceps femoris_med	Semitendinosus_med	Vastus lateralis_med	Vastus medialis_med	Biceps femoris_lat	Semitendinosus_lat	Vastus lateralis_lat	Vastus medialis_lat	Biceps femoris_med	Semitendinosus_med	Vastus lateralis_med	Vastus medialis_med	Biceps femoris_lat	Semitendinosus_lat	Vastus lateralis_lat	Vastus medialis_lat	Biceps femoris_med	Semitendinosus_med	Vastus lateralis_med	Vastus medialis_med	Biceps femoris_lat	Semitendinosus_lat	Vastus lateralis_lat	Vastus medialis_lat	Biceps femoris_med	Semitendinosus_med	Vastus lateralis_med	Vastus medialis_med	Biceps femoris_lat	Semitendinosus_lat	Vastus lateralis_lat	Vastus medialis_lat	Biceps femoris_med	Semitendinosus_med	Vastus lateralis_med	Vastus medialis_med	Biceps femoris_lat	Semitendinosus_lat	Vastus lateralis_lat	Vastus medialis_lat	Biceps femoris_med	Semitendinosus_med	Vastus lateralis_med	Vastus medialis_med	Biceps femoris_lat	Semitendinosus_lat	Vastus lateralis_lat	Vastus medialis_lat	Biceps femoris_med	Semitendinosus_med	Vastus lateralis_med	Vastus medialis_med	Biceps femoris_lat	Semitendinosus_lat	Vastus lateralis_lat	Vastus medialis_lat	Biceps femoris_med	Semitendinosus_med	Vastus lateralis_med	Vastus medialis_med	Biceps femoris_lat	Semitendinosus_lat	Vastus lateralis_lat	Vastus medialis_lat	Biceps femoris_med	Semitendinosus_med	Vastus lateralis_med	Vastus medialis_med	Biceps femoris_lat	Semitendinosus_lat	Vastus lateralis_lat	Vastus medialis_lat	Biceps femoris_med	Semitendinosus_med	Vastus lateralis_med	Vastus medialis_med
	P2D	P2D	P2D	P2D	P2D	P2D	P2D	P2D	P2D	P2D	P2D	P2D	P2D	P2D	P2D	P2D	P2D	P2D	P2D	P2D	P2D	P2D	P2D	P2D	P2D	P2D	P2D	P2D	P2D	P2D	P2D	P2D	P2D	P2D	P2D	P2D	P2D	P2D	P2D	P2D	P2D	P2D	P2D	P2D	P2D	P2D	P2D	P2D	P2D	P2D	P2D	P2D	P2D	P2D	P2D	P2D	P2D	P2D	P2D	P2D	P2D	P2D	P2D	P2D	P2D	P2D	P2D	P2D	P2D	P2D	P2D	P2D	P2D	P2D	P2D	P2D	P2D	P2D	P2D	P2D
	EMG_lat	EMG_lat	EMG_lat	EMG_lat	EMG_med	EMG_med	EMG_med	EMG_med	EMG_lat	EMG_lat	EMG_lat	EMG_lat	EMG_med	EMG_med	EMG_med	EMG_med	EMG_lat	EMG_lat	EMG_lat	EMG_lat	EMG_med	EMG_med	EMG_med	EMG_med	EMG_lat	EMG_lat	EMG_lat	EMG_lat	EMG_med	EMG_med	EMG_med	EMG_med	EMG_lat	EMG_lat	EMG_lat	EMG_lat	EMG_med	EMG_med	EMG_med	EMG_med	EMG_lat	EMG_lat	EMG_lat	EMG_lat	EMG_med	EMG_med	EMG_med	EMG_med	EMG_lat	EMG_lat	EMG_lat	EMG_lat	EMG_med	EMG_med	EMG_med	EMG_med	EMG_lat	EMG_lat	EMG_lat	EMG_lat	EMG_med	EMG_med	EMG_med	EMG_med	EMG_lat	EMG_lat	EMG_lat	EMG_lat	EMG_med	EMG_med	EMG_med	EMG_med	EMG_lat	EMG_lat	EMG_lat	EMG_lat	EMG_med	EMG_med	EMG_med	EMG_med
ITEM	Y	Y	Y	Y	Y	Y	Y	Y	Y	Y	Y	Y	Y	Y	Y	Y	Y	Y	Y	Y	Y	Y	Y	Y	Y	Y	Y	Y	Y	Y	Y	Y	Y	Y	Y	Y	Y	Y	Y	Y	Y	Y	Y	Y	Y	Y	Y	Y	Y	Y	Y	Y	Y	Y	Y	Y	Y	Y	Y	Y	Y	Y	Y	Y	Y	Y	Y	Y	Y	Y	Y	Y	Y	Y	Y	Y	Y	Y	Y	Y
1	0.234945	0.499802	0.268878	0.273618	0.391711	0.096960	0.565919	0.262837	0.101730	0.387855	0.373014	0.288335	0.047045	0.362453	0.354883	0.288029	0.471432	0.188385	0.242746	0.246295	0.037185	0.371838	0.288014	0.279087	0.180276	0.079016	0.201452	0.288086	0.028969	0.304733	0.430335	0.431389	0.324464	0.267890	0.151933	0.258747	0.896914	0.280746	0.249798	0.246049	0.294427	0.361658	0.342991	0.234095	0.140378	0.054441	0.245154	0.384764	0.247836	0.221289	0.317300	0.349735	0.088443	0.258761	0.305078	0.259629	0.080269	0.103033	0.321241	0.225759	0.190153	0.263434	0.326195	0.330038	0.042932	0.065894	0.216759	0.461333	0.222938	0.185636	0.258327	0.105783	0.579467	0.129636	0.364995	0.437625	0.073392	0.292412	0.263442	0.245175
2	0.234800	0.426555	0.245581	0.282945	0.377276	0.101067	0.564866	0.261898	0.103356	0.386742	0.382636	0.298305	0.058175	0.433708	0.375348	0.268349	0.446132	0.214658	0.229449	0.255881	0.040455	0.456961	0.263706	0.323731	0.116736	0.077974	0.160527	0.329511	0.028993	0.306086	0.408762	0.430522	0.322757	0.401952	0.186130	0.193667	0.891640	0.275572	0.248435	0.244798	0.317559	0.362950	0.352918	0.223859	0.147056	0.044060	0.250415	0.412925	0.244946	0.273528	0.293189	0.343312	0.082676	0.260397	0.305171	0.232203	0.151420	0.087394	0.348381	0.235547	0.213710	0.229631	0.325064	0.329024	0.032746	0.066408	0.228778	0.461488	0.265222	0.181794	0.253331	0.137757	0.691006	0.128180	0.368924	0.446428	0.074481	0.258111	0.287184	0.261428
3	0.146104	0.130215	0.242293	0.303886	0.329858	0.115291	0.545665	0.263884	0.101890	0.324183	0.376608	0.314186	0.069484	0.455015	0.383227	0.267155	0.434959	0.198781	0.230419	0.324422	0.063408	0.519337	0.240776	0.357735	0.065516	0.078921	0.242081	0.335755	0.033196	0.311749	0.396717	0.433118	0.323585	0.542692	0.219805	0.199852	0.869298	0.249082	0.247289	0.249361	0.313610	0.333110	0.291514	0.218026	0.158699	0.038153	0.250822	0.495296	0.245303	0.237073	0.292915	0.335971	0.084194	0.283795	0.294721	0.199425	0.158631	0.107809	0.362945	0.235793	0.309142	0.209394	0.292052	0.320689	0.032336	0.070189	0.233753	0.460280	0.274668	0.179639	0.253172	0.140775	0.693107	0.126447	0.347163	0.504768	0.075494	0.252445	0.276484	0.281997
4	0.100047	0.115840	0.191695	0.263785	0.276470	0.128344	0.436253	0.265993	0.091910	0.287935	0.328580	0.293762	0.072525	0.502876	0.385084	0.256080	0.305205	0.190079	0.222222	0.351020	0.085726	0.528214	0.238457	0.352893	0.053091	0.087890	0.257320	0.328848	0.038318	0.310896	0.397226	0.434933	0.301951	0.600541	0.245976	0.204465	0.812959	0.268572	0.232277	0.242752	0.303997	0.318998	0.161065	0.137182	0.159372	0.070062	0.255653	0.564063	0.243406	0.245628	0.291821	0.309700	0.111063	0.292966	0.266868	0.189207	0.226734	0.134782	0.372444	0.262819	0.336012	0.170690	0.259292	0.292466	0.032910	0.070047	0.210672	0.468686	0.337492	0.176997	0.248005	0.149892	0.692402	0.122076	0.287682	0.529960	0.077605	0.178933	0.225510	0.298821
5	0.106740	0.161641	0.180136	0.269005	0.259074	0.135712	0.267494	0.260421	0.086909	0.261585	0.337186	0.299504	0.085018	0.510638	0.383520	0.224531	0.267434	0.208803	0.199855	0.360795	0.090878	0.576183	0.250376	0.356289	0.056259	0.092353	0.259751	0.329233	0.039353	0.309160	0.386712	0.436720	0.282345	0.771327	0.247162	0.207911	0.725402	0.276579	0.208647	0.222379	0.290861	0.311730	0.151593	0.134009	0.156992	0.084342	0.293986	0.601438	0.231197	0.247537	0.274572	0.321672	0.137712	0.315743	0.250696	0.142927	0.239274	0.131758	0.296660	0.295599	0.338447	0.144743	0.246505	0.303062	0.033724	0.080272	0.156608	0.471122	0.430568	0.167701	0.215596	0.149223	0.691466	0.115287	0.256020	0.529184	0.070385	0.082183	0.177143	0.269811
6	0.103540	0.154562	0.183026	0.326113	0.259732	0.138273	0.223941	0.224003	0.082579	0.224809	0.316180	0.312408	0.112492	0.511271	0.416899	0.278656	0.238972	0.218318	0.163774	0.361529	0.102095	0.596595	0.273482	0.362998	0.058857	0.093361	0.259347	0.329314	0.038610	0.279218	0.355565	0.423647	0.287444	0.780819	0.245077	0.210015	0.708945	0.269525	0.211201	0.197491	0.287872	0.250887	0.153125	0.151680	0.155878	0.131266	0.333463	0.598698	0.381391	0.244897	0.299443	0.253036	0.153598	0.357742	0.255902	0.148948	0.237968	0.135583	0.298285	0.267235	0.336411	0.143272	0.245563	0.302516	0.034556	0.091855	0.149311	0.467652	0.440371	0.165264	0.201555	0.144289	0.689765	0.116993	0.294729	0.522775	0.069620	0.100757	0.168091	0.266994
7	0.103050	0.249871	0.175613	0.406309	0.238800	0.141851	0.226772	0.200034	0.058178	0.253117	0.245069	0.331411	0.135368	0.512522	0.447836	0.331755	0.185237	0.197308	0.230321	0.381362	0.118146	0.591143	0.275336	0.365226	0.048426	0.086150	0.250287	0.293746	0.033294	0.200742	0.268771	0.435090	0.202397	0.779870	0.227646	0.336286	0.619782	0.251508	0.213149	0.207795	0.285499	0.237320	0.192612	0.186814	0.150723	0.160403	0.351093	0.594359	0.382217	0.245164	0.326330	0.230987	0.156547	0.331571	0.269254	0.124040	0.237551	0.144330	0.290600	0.306209	0.333819	0.122916	0.232958	0.301086	0.033677	0.107923	0.182191	0.381162	0.440633	0.145953	0.202385	0.172574	0.674107	0.117304	0.302230	0.505828	0.078581	0.160997	0.167879	0.278004
8	0.078836	0.275579	0.370429	0.405935	0.217433	0.151838	0.220051	0.225208	0.051154	0.258103	0.267117	0.489849	0.138024	0.514924	0.458486	0.341699	0.157538	0.194759	0.239407	0.354642	0.123741	0.574304	0.269812	0.385451	0.038823	0.092660	0.255067	0.251720	0.035962	0.185007	0.216350	0.434924	0.196519	0.780876	0.244482	0.414160	0.364756	0.211056	0.217326	0.235717	0.270917	0.168067	0.215948	0.199521	0.134442	0.169921	0.346286	0.648215	0.355318	0.249221	0.314664	0.235272	0.180509	0.316896	0.274656	0.111097	0.229579	0.153196	0.263574	0.370750	0.333223	0.118790	0.210339	0.281671	0.030774	0.121140	0.252972	0.303262	0.439154	0.118014	0.202426	0.204822	0.615992	0.164653	0.294919	0.498231	0.079166	0.277198	0.198465	0.265408
9	0.069846	0.355809	0.396474	0.403001	0.204587	0.172207	0.208456	0.231865	0.060722	0.259264	0.275405	0.474111	0.153804	0.460641	0.524268	0.362049	0.075886	0.164888	0.298843	0.413861	0.144624	0.571754	0.305208	0.351384	0.054846	0.449712	0.259978	0.269149	0.041084	0.180592	0.277364	0.443029	0.201114	0.754699	0.232754	0.420791	0.171325	0.204177	0.218332	0.232793	0.146163	0.151357	0.243979	0.208567	0.122016	0.172455	0.340357	0.643345	0.348628	0.283267	0.295575	0.244342	0.194662	0.312188	0.272111	0.105733	0.188892	0.158333	0.285165	0.363550	0.331955	0.129186	0.180164	0.272160	0.022622	0.125578	0.260559	0.291605	0.436322	0.106484	0.202492	0.213818	0.549085	0.241233	0.317895	0.467670	0.081079	0.308063	0.285918	0.271127
10	0.076595	0.394785	0.444620	0.397562	0.204764	0.295669	0.200908	0.270886	0.060091	0.227734	0.348784	0.497024	0.169311	0.442777	0.544791	0.369699	0.046592	0.149402	0.337849	0.410240	0.184506	0.542973	0.357982	0.338436	0.074353	0.532474	0.269268	0.302210	0.045203	0.169583	0.322317	0.428231	0.204045	0.624116	0.218609	0.452943	0.148651	0.205761	0.217927	0.215078	0.087940	0.155870	0.221644	0.343488	0.109096	0.173685	0.336602	0.629946	0.343361	0.242301	0.294798	0.254896	0.256027	0.309576	0.264632	0.136824	0.185116	0.138817	0.331772	0.375349	0.324209	0.127611	0.206810	0.257682	0.027555	0.142289	0.260057	0.301305	0.424420	0.108931	0.198260	0.245118	0.165960	0.256152	0.365636	0.491615	0.087252	0.314395	0.326338	0.272235
11	0.072789	0.383498	0.459901	0.409341	0.204899	0.312101	0.199223	0.267409	0.063409	0.259745	0.353504	0.563053	0.169584	0.443541	0.515127	0.427828	0.037129	0.134982	0.369922	0.391368	0.193455	0.525767	0.387671	0.345673	0.077568	0.583088	0.274646	0.270174	0.047209	0.153054	0.331232	0.435838	0.205391	0.591078	0.192047	0.495465	0.112650	0.202686	0.198555	0.236892	0.081562	0.157457	0.219306	0.376016	0.100640	0.200941	0.324531	0.618475	0.344779	0.210936	0.319279	0.285827	0.270720	0.310018	0.259026	0.163717	0.084741	0.119464	0.328538	0.352999	0.295538	0.138483	0.255246	0.251213	0.036982	0.188252	0.271622	0.294629	0.395178	0.107894	0.193402	0.247165	0.075575	0.326221	0.403624	0.422753	0.087012	0.335876	0.332574	0.424717
12	0.061187	0.371969	0.450310	0.420888	0.195499	0.325111	0.200126	0.265107	0.075456	0.273257	0.359454	0.560699	0.168170	0.437462	0.490710	0.537463	0.044712	0.101841	0.399141	0.386551	0.193263	0.540570	0.411312	0.391973	0.077293	0.688976	0.209494	0.293062	0.083160	0.149446	0.341313	0.460999	0.198501	0.322915	0.198823	0.495844	0.099657	0.176506	0.169968	0.242712	0.058772	0.158186	0.250372	0.412696	0.107455	0.236565	0.319712	0.581859	0.344352	0.192595	0.326739	0.281899	0.270684	0.309725	0.276055	0.191116	0.059403	0.115467	0.327130	0.328724	0.288782	0.135685	0.272015	0.257467	0.050249	0.268923	0.271711	0.261888	0.353276	0.098801	0.192279	0.230449	0.075395	0.333560	0.399099	0.378959	0.087312	0.352191	0.404710	0.534249
13	0.062288	0.360706	0.453348	0.315441	0.155578	0.336475	0.202749	0.261899	0.076387	0.259781	0.346800	0.521286	0.162663	0.384848	0.479351	0.598394	0.052281	0.079261	0.415236	0.376799	0.193334	0.499010	0.446325	0.454679	0.078702	0.710076	0.224463	0.289501	0.110781	0.121638	0.375246	0.456766	0.150785	0.191330	0.191814	0.497862	0.101184	0.148039	0.200166	0.330848	0.057003	0.156017	0.253972	0.408357	0.106147	0.290694	0.312920	0.572460	0.340813	0.191025	0.367956	0.289021	0.270393	0.306209	0.292608	0.309981	0.056866	0.095844	0.316787	0.326231	0.251009	0.127371	0.280514	0.255664	0.051879	0.272571	0.271355	0.255842	0.349200	0.121818	0.193774	0.268971	0.078645	0.337792	0.386161	0.352090	0.087976	0.369196	0.472061	0.535948
14	0.057735	0.306195	0.420770	0.272920	0.129696	0.347015	0.207094	0.253020	0.081605	0.259691	0.331178	0.346639	0.158653	0.362571	0.518062	0.613437	0.044839	0.064530	0.396381	0.390851	0.190658	0.425387	0.455820	0.465214	0.077753	0.710249	0.290009	0.315741	0.111528	0.094569	0.439617	0.450032	0.105593	0.191107	0.178711	0.458726	0.100230	0.142386	0.220450	0.393284	0.059632	0.140678	0.275035	0.406148	0.106977	0.359948	0.322172	0.561940	0.160672	0.189252	0.382164	0.283872	0.269457	0.282572	0.270926	0.385792	0.060576	0.093117	0.359530	0.240694	0.121419	0.125709	0.279313	0.254320	0.055737	0.279969	0.271014	0.251407	0.260695	0.138589	0.193191	0.291923	0.072759	0.336698	0.371354	0.296902	0.088018	0.385807	0.476406	0.542341
15	0.045814	0.297221	0.286621	0.216060	0.130964	0.392303	0.207501	0.267689	0.091441	0.248500	0.344163	0.340802	0.157903	0.293250	0.545063	0.616418	0.043451	0.039022	0.396611	0.408845	0.181918	0.403021	0.504988	0.478250	0.074676	0.709943	0.327115	0.312968	0.113301	0.100258	0.471632	0.467059	0.093544	0.191572	0.185591	0.352845	0.098596	0.093304	0.225189	0.393308	0.063054	0.145375	0.355873	0.393888	0.124071	0.366165	0.353742	0.527628	0.142535	0.205387	0.318986	0.293285	0.260153	0.262388	0.253303	0.396128	0.062612	0.113589	0.387336	0.167991	0.079112	0.134062	0.280324	0.287641	0.057892	0.304556	0.270300	0.250665	0.091613	0.141220	0.211544	0.291184	0.062312	0.338984	0.320225	0.279776	0.089902	0.386445	0.509911	0.541431
16	0.063777	0.189334	0.252443	0.205131	0.163654	0.630428	0.204428	0.273119	0.128595	0.249821	0.266016	0.351720	0.151263	0.283678	0.542536	0.630747	0.041923	0.040312	0.355755	0.368094	0.178103	0.381234	0.643326	0.500824	0.076533	0.710172	0.332183	0.307451	0.117160	0.106486	0.474292	0.472833	0.087803	0.173093	0.181096	0.339663	0.098673	0.068509	0.253489	0.480616	0.063489	0.130160	0.440506	0.391521	0.147999	0.376954	0.487510	0.631535	0.148914	0.203113	0.318072	0.303568	0.245892	0.228150	0.270890	0.396400	0.091357	0.213049	0.354856	0.181072	0.056706	0.140631	0.315794	0.266747	0.058116	0.316749	0.201021	0.200433	0.066829	0.141445	0.211491	0.289155	0.056488	0.334159	0.313791	0.279985	0.091577	0.385204	0.555339	0.542679
17	0.115782	0.189231	0.186995	0.182711	0.234488	0.803802	0.185544	0.285886	0.131686	0.195175	0.241855	0.230683	0.131275	0.294063	0.521760	0.641993	0.041413	0.057032	0.314259	0.321449	0.177725	0.327886	0.757681	0.564654	0.077658	0.707164	0.330864	0.325984	0.118774	0.106732	0.473723	0.468045	0.076169	0.155465	0.164949	0.282177	0.095392	0.067771	0.275691	0.502390	0.062310	0.126731	0.432501	0.380936	0.152480	0.419014	0.593762	0.710083	0.157776	0.167645	0.319635	0.294693	0.236942	0.207696	0.278462	0.405036	0.139614	0.273257	0.276707	0.164583	0.058406	0.144735	0.476781	0.228286	0.071941	0.328843	0.137573	0.169776	0.069083	0.144071	0.211829	0.266916	0.056172	0.291918	0.295202	0.268603	0.085399	0.364345	0.567112	0.559109
18	0.124361	0.210147	0.160251	0.173957	0.278972	0.817629	0.140494	0.298384	0.132772	0.130223	0.221272	0.203144	0.112161	0.294868	0.508454	0.633108	0.052268	0.068294	0.276833	0.324439	0.172850	0.302747	0.854772	0.607499	0.063356	0.534968	0.331610	0.337786	0.118829	0.111542	0.472088	0.464282	0.045849	0.219972	0.161762	0.179657	0.088120	0.066075	0.285994	0.489844	0.059031	0.117363	0.431179	0.266053	0.152696	0.445805	0.613558	0.723496	0.140664	0.160171	0.319829	0.282143	0.234314	0.283353	0.265294	0.421113	0.139495	0.305022	0.265287	0.157227	0.073234	0.155577	0.559829	0.216340	0.078681	0.351235	0.142128	0.185152	0.069533	0.144476	0.211203	0.250477	0.123202	0.232153	0.236720	0.175252	0.076666	0.286251	0.557133	0.566460
19	0.140769	0.259256	0.162235	0.142613	0.289307	0.880989	0.147857	0.303274	0.137656	0.101108	0.227876	0.213065	0.115053	0.273801	0.485110	0.626514	0.063304	0.101556	0.236125	0.312344	0.165387	0.283016	0.885209	0.623259	0.041920	0.483802	0.328339	0.330429	0.118389	0.112604	0.460605	0.456576	0.054714	0.222578	0.171409	0.150997	0.076486	0.066088	0.308044	0.482668	0.052065	0.125720	0.426078	0.210603	0.151055	0.443804	0.609798	0.708314	0.137696	0.179046	0.308600	0.254652	0.215862	0.282855	0.289045	0.422335	0.152949	0.314625	0.264748	0.162219	0.079823	0.138452	0.562761	0.212420	0.083333	0.421498	0.132117	0.172586	0.069460	0.149699	0.209233	0.297717	0.186911	0.191974	0.107530	0.161946	0.066866	0.255583	0.518355	0.563729
20	0.180519	0.270328	0.148555	0.131492	0.287758	0.978738	0.156487	0.313496	0.150969	0.091912	0.206049	0.210240	0.092430	0.245290	0.425610	0.613077	0.097687	0.153921	0.217978	0.304281	0.161949	0.279182	0.879332	0.626098	0.045391	0.410754	0.300600	0.324376	0.117108	0.114679	0.423820	0.372484	0.077831	0.224879	0.187831	0.131373	0.058977	0.066077	0.339301	0.485402	0.047477	0.147987	0.410997	0.143659	0.150250	0.441357	0.613863	0.668278	0.135217	0.185945	0.304602	0.255975	0.197713	0.291271	0.328642	0.428406	0.191437	0.328610	0.261399	0.242194	0.079628	0.135218	0.547437	0.210452	0.081075	0.377941	0.111290	0.212517	0.068490	0.148690	0.210065	0.311700	0.238130	0.174973	0.130910	0.164812	0.055802	0.250312	0.493423	0.567143
21	0.188619	0.264499	0.136173	0.126905	0.291056	1.046308	0.156974	0.312930	0.145065	0.104283	0.174450	0.340636	0.059395	0.231266	0.393883	0.607167	0.102956	0.191786	0.210131	0.281675	0.120922	0.278576	0.848889	0.628708	0.074539	0.199100	0.307430	0.320035	0.115899	0.140240	0.374949	0.331809	0.117162	0.224839	0.202392	0.099171	0.051460	0.062277	0.356742	0.486915	0.037070	0.196451	0.415471	0.129348	0.150871	0.443205	0.641713	0.671445	0.133993	0.204331	0.267378	0.238713	0.108444	0.366479	0.336785	0.420601	0.197701	0.331732	0.216663	0.251046	0.078304	0.144577	0.529983	0.209416	0.096914	0.399130	0.119381	0.220881	0.069122	0.146176	0.208982	0.310473	0.252346	0.170093	0.208715	0.169286	0.054783	0.229627	0.483060	0.476838
22	0.187200	0.250798	0.143053	0.183318	0.314942	1.073981	0.157941	0.325841	0.114271	0.115027	0.286324	0.342447	0.058350	0.229616	0.392521	0.563018	0.108496	0.270982	0.176590	0.238333	0.073420	0.279276	0.832510	0.629052	0.145665	0.133040	0.296856	0.326878	0.117551	0.181841	0.345083	0.330351	0.128796	0.224487	0.277165	0.094821	0.051299	0.063139	0.356527	0.472673	0.034187	0.205971	0.452337	0.375368	0.155902	0.442828	0.659906	0.755773	0.131788	0.231028	0.192494	0.212943	0.091082	0.414387	0.337443	0.419458	0.198991	0.312867	0.194268	0.277255	0.086452	0.243547	0.510675	0.206911	0.103344	0.420877	0.123906	0.222970	0.071753	0.207093	0.200545	0.308529	0.310095	0.179139	0.216208	0.178995	0.054909	0.216806	0.414077	0.332668
23	0.175159	0.225128	0.197052	0.250605	0.344065	1.056100	0.171496	0.290233	0.109834	0.123040	0.359547	0.338855	0.059318	0.170679	0.394298	0.459486	0.108581	0.271924	0.189831	0.216160	0.087293	0.273001	0.823230	0.609230	0.166442	0.130814	0.227896	0.301624	0.113620	0.221231	0.342299	0.279280	0.127753	0.219124	0.453488	0.276683	0.041958	0.055496	0.347358	0.466413	0.027040	0.195047	0.498603	0.520531	0.157977	0.427658	0.661220	0.841275	0.118996	0.247379	0.165664	0.178512	0.094917	0.417781	0.338727	0.409601	0.184635	0.250468	0.203650	0.265590	0.102875	0.335689	0.506293	0.194276	0.102241	0.408708	0.152195	0.230076	0.067578	0.201074	0.203494	0.268109	0.326169	0.177557	0.229248	0.182109	0.052607	0.188763	0.329673	0.304522
24	0.146628	0.215042	0.328679	0.239073	0.357918	1.050156	0.295578	0.268086	0.104064	0.130936	0.546737	0.421441	0.062054	0.128048	0.392133	0.380550	0.108747	0.272344	0.195972	0.201145	0.136149	0.335984	0.810340	0.556863	0.169655	0.135725	0.216133	0.344172	0.076172	0.229384	0.321032	0.252575	0.127225	0.216761	0.478924	0.296911	0.032237	0.049981	0.323402	0.407550	0.026843	0.185979	0.467046	0.535597	0.154761	0.408333	0.659031	0.866223	0.116465	0.281819	0.166875	0.142302	0.097515	0.419014	0.343043	0.329490	0.151261	0.201793	0.227090	0.261170	0.108518	0.341655	0.504115	0.193175	0.101950	0.395797	0.159394	0.246654	0.061745	0.213707	0.196695	0.248175	0.340021	0.173318	0.233912	0.197539	0.048257	0.156419	0.329834	0.266697
25	0.144824	0.182967	0.353022	0.280816	0.364127	1.046562	0.328779	0.302835	0.147037	0.172960	0.807819	0.440341	0.098949	0.135715	0.329934	0.356919	0.104115	0.269951	0.267349	0.289152	0.170535	0.354160	0.798451	0.504875	0.200406	0.139267	0.444745	0.339561	0.069231	0.259386	0.247514	0.278180	0.126382	0.139611	0.553448	0.300068	0.032186	0.050056	0.310809	0.351305	0.029891	0.184613	0.488251	0.542336	0.155261	0.369968	0.660744	0.868883	0.076827	0.289628	0.173649	0.112982	0.094862	0.419514	0.347901	0.239807	0.148729	0.150763	0.258138	0.268522	0.105915	0.376484	0.503466	0.166332	0.101353	0.382587	0.189825	0.330087	0.064994	0.245657	0.129202	0.254799	0.339415	0.173981	0.235695	0.222012	0.045060	0.161793	0.303855	0.267285
26	0.106039	0.102571	0.414587	0.304443	0.381501	1.040748	0.368722	0.333207	0.136899	0.178134	0.834005	0.521049	0.121631	0.140914	0.289602	0.352979	0.095811	0.260294	0.418584	0.320290	0.180294	0.339383	0.795935	0.460626	0.275829	0.145030	0.593091	0.353333	0.067457	0.277538	0.122654	0.270140	0.125400	0.076207	0.647343	0.334817	0.029441	0.044709	0.307253	0.346873	0.032363	0.180963	0.512500	0.547427	0.142434	0.315159	0.666873	0.851499	0.072451	0.289525	0.218335	0.100011	0.090519	0.419969	0.334411	0.221890	0.137203	0.131999	0.266286	0.252933	0.103809	0.410357	0.503258	0.113739	0.088552	0.376045	0.229575	0.363536	0.067793	0.249047	0.101018	0.302960	0.338149	0.172480	0.240881	0.249875	0.040934	0.149134	0.249865	0.284872
27	0.040530	0.094206	0.461208	0.331752	0.430364	1.036142	0.447195	0.333749	0.137367	0.179008	0.878308	0.452286	0.122996	0.138532	0.303856	0.341628	0.052375	0.234522	0.423333	0.469286	0.185388	0.325058	0.730002	0.452151	0.293559	0.129324	0.618804	0.405300	0.059653	0.278562	0.044227	0.239454	0.108558	0.105712	0.699568	0.358305	0.022040	0.039411	0.283675	0.204910	0.034706	0.170494	0.510522	0.552680	0.114412	0.310854	0.646288	0.810606	0.074969	0.279712	0.212671	0.097743	0.089973	0.413529	0.323738	0.219219	0.089017	0.109168	0.253898	0.182911	0.102286	0.410551	0.452590	0.116516	0.086669	0.312820	0.299979	0.391693	0.064300	0.248457	0.193243	0.317996	0.304787	0.185773	0.246262	0.431763	0.039924	0.149118	0.234466	0.247899
28	0.032049	0.092457	0.474892	0.346155	0.477565	1.024501	0.533659	0.327067	0.147282	0.174063	0.862580	0.437642	0.123299	0.124473	0.310783	0.266509	0.037936	0.206409	0.512418	0.545478	0.184870	0.315160	0.624877	0.378297	0.295203	0.104313	0.643299	0.422654	0.058983	0.278603	0.054242	0.241732	0.092065	0.133431	0.702098	0.368567	0.020448	0.043175	0.257657	0.148772	0.039442	0.159854	0.513768	0.558271	0.090299	0.287692	0.537152	0.683943	0.063538	0.267976	0.197233	0.082903	0.091635	0.387627	0.330052	0.197669	0.078832	0.120740	0.245471	0.223659	0.098019	0.409252	0.267105	0.162951	0.078813	0.254187	0.369948	0.396145	0.063631	0.249394	0.321950	0.324581	0.271684	0.163738	0.235488	0.454650	0.038280	0.145637	0.256615	0.233923
29	0.024583	0.075909	0.487850	0.294847	0.477806	0.909189	0.560686	0.336313	0.163612	0.168233	0.837609	0.461699	0.123218	0.131558	0.302567	0.220218	0.019820	0.074153	0.627099	0.587611	0.187899	0.319728	0.485531	0.281676	0.294301	0.098305	0.710008	0.497509	0.061626	0.277701	0.176057	0.265592	0.062304	0.277984	0.683004	0.370281	0.020576	0.124216	0.243212	0.157725	0.038698	0.084100	0.514687	0.613184	0.105931	0.210583	0.400668	0.593560	0.065567	0.255975	0.213073	0.083965	0.092005	0.336368	0.348369	0.222700	0.077422	0.123078	0.410427	0.318958	0.088405	0.405112	0.139410	0.313208	0.073727	0.244270	0.380738	0.424086	0.063810	0.246941	0.362596	0.276918	0.242147	0.180933	0.202439	0.461470	0.044052	0.172785	0.287634	0.277508
30	0.036594	0.076459	0.440869	0.298680	0.473471	0.748154	0.562703	0.325769	0.164217	0.183911	0.769600	0.398482	0.134856	0.130364	0.274822	0.225706	0.029084	0.088380	0.702974	0.587190	0.194543	0.326395	0.411419	0.205718	0.288553	0.093515	0.730766	0.504849	0.062394	0.280895	0.279406	0.265679	0.078818	0.331801	0.606967	0.310600	0.020744	0.184238	0.204247	0.140178	0.038248	0.071052	0.550912	0.525444	0.114464	0.160218	0.365903	0.584970	0.065660	0.235215	0.211276	0.090281	0.093347	0.329160	0.340528	0.337419	0.078934	0.119703	0.486333	0.321297	0.084857	0.405002	0.303216	0.374635	0.033761	0.137330	0.491318	0.510877	0.090705	0.248363	0.362260	0.276471	0.198547	0.171176	0.214175	0.505246	0.050926	0.197449	0.291621	0.291131
31	0.039632	0.067242	0.483067	0.310733	0.519032	0.727031	0.602229	0.317983	0.127667	0.152074	0.504368	0.379784	0.177217	0.139932	0.245615	0.244183	0.053882	0.091259	0.703687	0.601422	0.208876	0.338287	0.434841	0.141442	0.259495	0.091299	0.745558	0.510262	0.072994	0.312490	0.337903	0.264397	0.092524	0.401407	0.594327	0.268584	0.022118	0.187974	0.139408	0.134223	0.039648	0.068416	0.550682	0.450916	0.121330	0.191096	0.355657	0.573221	0.059569	0.215860	0.204553	0.117118	0.095430	0.313054	0.333687	0.425045	0.080172	0.118653	0.527171	0.321737	0.084766	0.406588	0.452904	0.378174	0.032624	0.124518	0.640362	0.545080	0.098129	0.234186	0.367932	0.317746	0.143540	0.167906	0.374208	0.534659	0.049993	0.187687	0.303325	0.296711
32	0.039530	0.056006	0.514619	0.265818	0.528733	0.662194	0.685665	0.317851	0.110587	0.144964	0.480039	0.250906	0.205499	0.140758	0.256227	0.267497	0.067532	0.126942	0.737921	0.578179	0.213635	0.384904	0.457122	0.112103	0.250341	0.091449	0.762129	0.512769	0.083974	0.332190	0.350014	0.268249	0.092818	0.404675	0.587643	0.289339	0.031021	0.200595	0.107719	0.223186	0.039389	0.069803	0.533435	0.431279	0.122539	0.208743	0.339559	0.584090	0.056972	0.133218	0.192690	0.131458	0.085037	0.221244	0.329163	0.452052	0.079835	0.113137	0.525331	0.351894	0.083845	0.396938	0.515768	0.385696	0.032784	0.111385	0.682400	0.547682	0.097575	0.185390	0.414831	0.389246	0.088962	0.173244	0.564350	0.545720	0.047627	0.171659	0.308153	0.311468
33	0.043142	0.053373	0.429600	0.257813	0.531284	0.503690	0.767717	0.315972	0.141849	0.141918	0.378202	0.239834	0.222921	0.134827	0.264939	0.289740	0.073167	0.126435	0.821717	0.627729	0.216537	0.443860	0.465779	0.122923	0.249612	0.086867	0.750114	0.485720	0.082416	0.315351	0.352590	0.275581	0.093891	0.405532	0.541036	0.377007	0.051856	0.263519	0.241011	0.286218	0.036619	0.070540	0.505929	0.426248	0.124121	0.246707	0.271913	0.592457	0.056117	0.115510	0.186662	0.130983	0.062976	0.113707	0.329665	0.521769	0.054860	0.106352	0.648300	0.405852	0.068855	0.315758	0.520079	0.437894	0.030523	0.090849	0.691234	0.531269	0.102304	0.181196	0.423180	0.396757	0.077780	0.175594	0.581813	0.537756	0.047193	0.169383	0.303038	0.316403
34	0.044674	0.050709	0.416926	0.221051	0.528845	0.328535	0.792813	0.429925	0.156808	0.161123	0.347306	0.222096	0.227454	0.133375	0.266444	0.291083	0.078661	0.134827	0.829232	0.545604	0.214967	0.437948	0.465779	0.200645	0.220450	0.082485	0.634685	0.487790	0.080639	0.290725	0.355700	0.289044	0.090924	0.396894	0.517396	0.385740	0.052431	0.272136	0.363126	0.288679	0.036374	0.078753	0.487888	0.423657	0.126426	0.249143	0.254440	0.448778	0.055961	0.100698	0.143102	0.135587	0.057292	0.101638	0.311763	0.594963	0.048876	0.100135	0.844367	0.414351	0.047886	0.251699	0.560960	0.518434	0.034056	0.078722	0.716047	0.493868	0.100932	0.140784	0.423725	0.404759	0.072260	0.175835	0.600207	0.535413	0.047836	0.174799	0.304485	0.330693
35	0.044653	0.055391	0.396215	0.226914	0.514341	0.198512	0.793986	0.681089	0.218391	0.316211	0.325072	0.166561	0.247595	0.139380	0.280281	0.291069	0.078648	0.144775	0.785036	0.469964	0.199153	0.386284	0.468227	0.231286	0.118602	0.152600	0.507270	0.456491	0.077926	0.264302	0.399912	0.395578	0.092996	0.394113	0.510356	0.405645	0.051864	0.272342	0.410064	0.304355	0.031948	0.098044	0.491599	0.415397	0.130410	0.248964	0.346415	0.351537	0.040504	0.091876	0.125314	0.162572	0.056693	0.101119	0.304810	0.677408	0.058304	0.107969	0.874408	0.370581	0.098454	0.250623	0.710265	0.562850	0.034517	0.085821	0.718578	0.715497	0.093288	0.079724	0.443191	0.412981	0.065153	0.180016	0.675290	0.451609	0.056355	0.226657	0.290718	0.328388
36	0.046630	0.102486	0.379371	0.229453	0.501634	0.129654	0.802789	0.887673	0.300334	0.308407	0.327527	0.204573	0.304630	0.183868	0.285423	0.292788	0.080456	0.141935	0.696206	0.413537	0.163134	0.338677	0.495660	0.233301	0.085372	0.207679	0.485450	0.387590	0.076871	0.251478	0.469884	0.392975	0.095067	0.338150	0.634484	0.481299	0.052481	0.272818	0.412043	0.317043	0.038963	0.111931	0.511065	0.417600	0.130963	0.247909	0.437523	0.343028	0.036639	0.099899	0.154253	0.174359	0.056563	0.101102	0.444374	0.741453	0.062521	0.126775	0.801363	0.294201	0.175572	0.171112	0.776357	0.566647	0.037548	0.064577	0.693569	0.814018	0.092249	0.077677	0.475401	0.375113	0.070713	0.149659	0.727716	0.424967	0.065504	0.253419	0.271565	0.305754
37	0.062604	0.147555	0.345968	0.170632	0.511101	0.122235	0.825568	0.992909	0.301801	0.303418	0.236444	0.208669	0.337088	0.287993	0.275954	0.296187	0.079581	0.131445	0.612206	0.412542	0.144342	0.337629	0.524018	0.234425	0.081305	0.314455	0.444685	0.345156	0.074585	0.240297	0.515664	0.387319	0.112673	0.298303	0.741579	0.484151	0.056503	0.273243	0.437775	0.376304	0.044933	0.109994	0.536059	0.349531	0.130037	0.237297	0.455692	0.363824	0.040429	0.125075	0.164363	0.192780	0.069211	0.112228	0.622748	0.746220	0.072433	0.221267	0.763856	0.293923	0.227112	0.116221	0.783426	0.572453	0.043772	0.065944	0.722847	0.816957	0.094954	0.076802	0.443418	0.370300	0.057693	0.135355	0.744463	0.480891	0.068673	0.254321	0.268739	0.296626
38	0.077017	0.163503	0.149141	0.164258	0.509563	0.121123	0.898694	1.019497	0.303994	0.301326	0.163241	0.221340	0.345343	0.320017	0.258509	0.270188	0.068565	0.122434	0.616572	0.398966	0.131866	0.357482	0.531663	0.243957	0.087210	0.337155	0.344206	0.213242	0.075094	0.233464	0.541713	0.380988	0.134658	0.184287	0.729604	0.485905	0.063667	0.273116	0.517784	0.446559	0.047739	0.147258	0.485441	0.338321	0.129037	0.236266	0.440657	0.367503	0.043688	0.128180	0.180552	0.218007	0.077950	0.118895	0.660100	0.751311	0.071739	0.248409	0.733360	0.293354	0.233339	0.114017	0.785218	0.570546	0.042310	0.065752	0.715271	0.847580	0.095733	0.077924	0.363803	0.363120	0.051853	0.127320	0.734662	0.462593	0.068134	0.253942	0.261079	0.291802
39	0.114690	0.187007	0.157808	0.166445	0.510299	0.122060	0.971725	1.017499	0.294266	0.365199	0.177471	0.269410	0.346638	0.354299	0.237093	0.266995	0.053878	0.082946	0.559571	0.376898	0.136425	0.445823	0.543735	0.266843	0.093812	0.348920	0.296975	0.201577	0.072620	0.232807	0.556537	0.383203	0.155679	0.166358	0.700030	0.488402	0.066619	0.275897	0.599408	0.450180	0.053795	0.155667	0.415458	0.357457	0.129477	0.238350	0.478685	0.417895	0.049807	0.174984	0.211738	0.223186	0.076974	0.118949	0.648604	0.753530	0.071663	0.256367	0.728401	0.221953	0.236131	0.113053	0.783902	0.550142	0.040898	0.063797	0.633779	0.966163	0.094817	0.087675	0.339517	0.350907	0.065356	0.146016	0.741679	0.467966	0.062765	0.230715	0.231795	0.264039
40	0.144673	0.219390	0.173735	0.143034	0.485593	0.130566	0.999748	1.082594	0.321116	0.423145	0.176140	0.297936	0.345777	0.453082	0.199415	0.269494	0.046916	0.082078	0.266779	0.284638	0.144091	0.498787	0.559370	0.310937	0.093803	0.360972	0.243086	0.178222	0.068374	0.236937	0.553551	0.372891	0.158330	0.255414	0.654841	0.407284	0.085082	0.252189	0.638947	0.452321	0.053889	0.159338	0.416789	0.375039	0.125489	0.235092	0.585330	0.501960	0.050520	0.194154	0.281263	0.221087	0.076534	0.118961	0.637394	0.737496	0.072124	0.305657	0.591007	0.145982	0.243193	0.114653	0.772757	0.470092	0.049861	0.074534	0.655058	1.008715	0.068012	0.087514	0.340839	0.337912	0.065393	0.151901	0.592487	0.459632	0.057936	0.214388	0.358600	0.275850
41	0.195404	0.272947	0.173459	0.130181	0.442967	0.145094	0.967559	1.196547	0.306991	0.379322	0.450544	0.353180	0.341366	0.467924	0.183023	0.264573	0.036377	0.069598	0.255771	0.288918	0.137958	0.492155	0.557910	0.319158	0.091291	0.365550	0.213163	0.171771	0.068424	0.236056	0.517105	0.381786	0.204021	0.257417	0.595422	0.353813	0.113295	0.217931	0.647810	0.453008	0.053731	0.176373	0.423275	0.381519	0.108734	0.229282	0.654211	0.526960	0.051505	0.226100	0.287580	0.220299	0.074920	0.116165	0.632304	0.707541	0.071379	0.326441	0.277446	0.149569	0.248068	0.114164	0.713533	0.446124	0.053216	0.078586	0.693238	1.008118	0.059288	0.086421	0.334611	0.295355	0.073612	0.156771	0.532231	0.457113	0.059333	0.219528	0.528088	0.274440
42	0.213068	0.310356	0.176353	0.092119	0.501479	0.160511	0.956760	1.285384	0.246129	0.395912	0.464949	0.634926	0.322512	0.466657	0.207532	0.294119	0.036742	0.042947	0.241498	0.266548	0.118819	0.527449	0.523090	0.312941	0.084047	0.365075	0.261980	0.196686	0.064194	0.214533	0.480222	0.394272	0.238153	0.256350	0.579458	0.342281	0.125732	0.217051	0.648110	0.452586	0.052851	0.192639	0.447735	0.406070	0.098204	0.206357	0.670833	0.526669	0.049398	0.224287	0.308126	0.259318	0.069948	0.099352	0.632024	0.673947	0.069386	0.322103	0.200148	0.153871	0.252647	0.110584	0.648223	0.445557	0.052996	0.078759	0.672111	1.016082	0.051818	0.093669	0.433517	0.434530	0.079866	0.158294	0.589712	0.458705	0.060885	0.222487	0.600502	0.287613
43	0.308865	0.297615	0.170828	0.093678	0.555620	0.157116	1.010083	1.348522	0.252160	0.404294	0.466626	0.774318	0.308410	0.466881	0.357226	0.320586	0.035395	0.108912	0.235859	0.253183	0.101242	0.550522	0.484773	0.313094	0.076931	0.375156	0.283017	0.198469	0.045812	0.157514	0.526049	0.404031	0.294397	0.250052	0.503915	0.195217	0.124401	0.227419	0.644543	0.415040	0.051285	0.207768	0.480776	0.410211	0.091665	0.178229	0.670528	0.524878	0.044714	0.215545	0.318003	0.250553	0.065127	0.089569	0.655453	0.653662	0.089637	0.338439	0.208639	0.149181	0.288707	0.117726	0.632631	0.434513	0.058361	0.106760	0.645920	1.004248	0.044329	0.092476	0.651323	0.518652	0.080730	0.157088	0.560612	0.471817	0.061442	0.224291	0.603388	0.319469
44	0.327323	0.298764	0.163924	0.081010	0.509305	0.142824	1.067730	1.380642	0.251229	0.409551	0.526838	0.797723	0.303862	0.466936	0.554297	0.306316	0.085550	0.145988	0.235419	0.247791	0.095645	0.526038	0.470290	0.314508	0.074925	0.350441	0.287957	0.255467	0.034390	0.142837	0.575157	0.395133	0.368993	0.257570	0.240670	0.135307	0.123155	0.158068	0.608471	0.385291	0.051913	0.202723	0.501902	0.390608	0.088835	0.137408	0.667454	0.516030	0.047333	0.219658	0.323366	0.253932	0.065405	0.090938	0.682189	0.598051	0.119835	0.289687	0.200461	0.153457	0.346698	0.120277	0.647746	0.375215	0.063309	0.106180	0.635803	0.811186	0.046987	0.092345	0.756492	0.511534	0.108579	0.145566	0.475311	0.436824	0.064790	0.223184	0.607863	0.316681
45	0.323185	0.305898	0.139964	0.073645	0.488820	0.138565	1.061051	1.391028	0.251121	0.368052	0.607082	0.839683	0.305570	0.467753	0.663299	0.307554	0.146252	0.186137	0.220952	0.231186	0.090405	0.503310	0.483302	0.294903	0.068237	0.312481	0.327678	0.279116	0.032436	0.138985	0.588627	0.390452	0.458489	0.263183	0.113283	0.105141	0.129449	0.146693	0.581332	0.384943	0.109673	0.214886	0.484662	0.368090	0.081595	0.067195	0.664426	0.498567	0.041858	0.207545	0.326408	0.286089	0.068098	0.092580	0.696059	0.540364	0.121842	0.306642	0.195763	0.165302	0.366023	0.125228	0.590653	0.260440	0.059017	0.110200	0.607388	0.789716	0.049118	0.093663	0.752007	0.517552	0.144315	0.147636	0.426212	0.337876	0.062638	0.170020	0.656600	0.357182
46	0.315119	0.368555	0.116703	0.085245	0.485603	0.138633	1.023324	1.398771	0.214152	0.311259	0.617056	0.888404	0.288184	0.466695	0.697545	0.332216	0.156506	0.204854	0.216870	0.227760	0.092531	0.503732	0.578723	0.318150	0.068720	0.219571	0.384557	0.278070	0.033353	0.135852	0.581406	0.315409	0.529171	0.281592	0.131608	0.086665	0.133169	0.147172	0.642360	0.379733	0.122143	0.214366	0.404222	0.278071	0.072018	0.076868	0.651541	0.491940	0.039095	0.218848	0.313694	0.284071	0.068054	0.088118	0.707398	0.491795	0.135077	0.320187	0.167957	0.190706	0.353673	0.114909	0.402766	0.213992	0.055971	0.113638	0.562329	0.764287	0.047295	0.095950	0.796419	0.578791	0.194546	0.138639	0.415415	0.313712	0.052546	0.123235	0.700508	0.360774
47	0.304967	0.356372	0.142379	0.187330	0.484408	0.138505	1.006664	1.380361	0.162387	0.223496	0.514565	0.893458	0.211850	0.447315	0.699538	0.434271	0.191725	0.234634	0.214808	0.191489	0.098661	0.503788	0.742105	0.416114	0.054209	0.206140	0.395495	0.272179	0.037246	0.139181	0.544375	0.246059	0.583714	0.245362	0.145154	0.072130	0.136504	0.147525	0.749499	0.386109	0.188410	0.224941	0.381095	0.240576	0.096364	0.102450	0.598844	0.454950	0.027767	0.208476	0.348934	0.265587	0.069718	0.086612	0.679074	0.448469	0.153305	0.270176	0.333328	0.197666	0.319420	0.098193	0.335849	0.203011	0.055919	0.115162	0.563559	0.619940	0.043624	0.096909	0.905115	0.646542	0.207834	0.114344	0.381206	0.252017	0.045731	0.117174	0.709640	0.450109
48	0.291142	0.295310	0.155535	0.363319	0.483170	0.138726	1.009966	1.282542	0.140787	0.197495	0.473002	0.704333	0.141024	0.385321	0.784902	0.488163	0.197653	0.287043	0.151627	0.087717	0.103949	0.502868	0.805634	0.439720	0.061586	0.251256	0.424994	0.267727	0.041592	0.123190	0.498194	0.264204	0.913023	0.240514	0.149931	0.068613	0.137359	0.147494	0.804014	0.328732	0.212085	0.230856	0.378769	0.208784	0.113977	0.108185	0.539751	0.427321	0.027329	0.243191	0.329657	0.270249	0.061497	0.064848	0.574128	0.457724	0.158052	0.266355	0.497687	0.233254	0.292656	0.095043	0.351566	0.360694	0.055031	0.119390	0.470740	0.387811	0.056630	0.103657	0.957792	0.647103	0.214197	0.100421	0.371583	0.167989	0.044725	0.117593	0.705529	0.491243
49	0.245574	0.289258	0.183536	0.398184	0.479013	0.141598	1.005101	1.147118	0.122600	0.180150	0.469169	0.531434	0.119970	0.361283	0.957741	0.493023	0.200612	0.339648	0.106857	0.084744	0.104163	0.498628	0.798827	0.561156	0.091248	0.246877	0.489020	0.269838	0.040281	0.086377	0.467669	0.271230	0.975587	0.245823	0.151602	0.193152	0.134044	0.148089	0.762734	0.266246	0.212336	0.214395	0.392741	0.182942	0.114935	0.145372	0.529125	0.410923	0.024898	0.270315	0.366365	0.325653	0.057315	0.047631	0.554075	0.451190	0.154610	0.262755	0.586199	0.294731	0.291544	0.094826	0.359512	0.404027	0.090065	0.122054	0.257217	0.354924	0.064874	0.101090	0.964631	0.651870	0.254524	0.095415	0.380047	0.161575	0.048018	0.121559	0.703517	0.508044
50	0.129276	0.281740	0.311476	0.450976	0.457718	0.145487	0.964068	1.053584	0.119260	0.186274	0.418066	0.489451	0.116235	0.318915	1.060761	0.508487	0.200238	0.391069	0.102473	0.073430	0.102930	0.453837	0.804786	0.592947	0.095745	0.310620	0.585133	0.274297	0.043657	0.078948	0.466454	0.288992	0.969577	0.246328	0.157937	0.250760	0.132801	0.141637	0.720582	0.265119	0.213209	0.190893	0.448592	0.116048	0.115900	0.172095	0.537852	0.401934	0.033853	0.294333	0.476601	0.406193	0.057422	0.060598	0.554978	0.480603	0.225947	0.238947	0.605532	0.317941	0.288247	0.092844	0.360178	0.412531	0.140599	0.207389	0.225760	0.361136	0.068279	0.097990	0.966724	0.658625	0.264268	0.102423	0.313845	0.221313	0.051620	0.109511	0.648813	0.501337
51	0.116378	0.275430	0.332511	0.469601	0.456555	0.147579	0.882817	1.036507	0.151185	0.234013	0.257780	0.394483	0.115477	0.143629	1.088345	0.506636	0.188142	0.388419	0.092945	0.062806	0.083181	0.362160	0.812070	0.580746	0.104739	0.323793	0.568774	0.266677	0.046427	0.071931	0.464254	0.353818	0.945504	0.228991	0.172758	0.389638	0.122060	0.134236	0.753764	0.255727	0.215754	0.167847	0.426029	0.134619	0.116142	0.170342	0.517605	0.329930	0.051477	0.327443	0.483709	0.402020	0.057430	0.066303	0.580932	0.598012	0.244108	0.220072	0.629452	0.596183	0.285769	0.091104	0.360220	0.482365	0.246643	0.285910	0.208046	0.287419	0.067674	0.091798	0.963110	0.641236	0.411661	0.191749	0.256596	0.224003	0.049897	0.097344	0.523666	0.495167
52	0.113229	0.225209	0.362656	0.491373	0.447819	0.149389	0.786555	1.040584	0.155250	0.319418	0.252143	0.261918	0.108714	0.085546	1.100457	0.518606	0.146398	0.384474	0.105796	0.065216	0.068494	0.334430	0.808038	0.585054	0.115492	0.311781	0.599367	0.288877	0.045022	0.064218	0.461753	0.355184	0.906609	0.197074	0.186244	0.454979	0.096588	0.129436	0.848535	0.258869	0.221294	0.161045	0.372168	0.134536	0.118933	0.185240	0.442619	0.289374	0.052670	0.323173	0.489447	0.400826	0.057683	0.067192	0.646477	0.696540	0.243528	0.192135	0.668238	0.638430	0.283630	0.090849	0.342412	0.540544	0.387332	0.301110	0.203388	0.248840	0.067633	0.084877	0.884021	0.505038	0.416888	0.209590	0.328367	0.233788	0.048774	0.090261	0.440176	0.484651
53	0.106460	0.143296	0.389049	0.485457	0.433989	0.147237	0.707332	0.990398	0.147245	0.333238	0.180699	0.216407	0.103498	0.076936	1.098223	0.504125	0.136731	0.380144	0.133362	0.071400	0.063728	0.307576	0.810339	0.617023	0.116882	0.315083	0.637391	0.239114	0.044482	0.061631	0.460554	0.339183	0.855311	0.176716	0.191026	0.459135	0.081264	0.128204	0.905954	0.304393	0.199901	0.155842	0.368451	0.131801	0.123156	0.193156	0.441947	0.328116	0.053117	0.322665	0.477441	0.409535	0.059672	0.089549	0.722420	0.737823	0.234119	0.149737	0.669914	0.713774	0.277717	0.091971	0.324500	0.562308	0.510981	0.312785	0.186155	0.227420	0.067114	0.085056	0.736841	0.450519	0.428870	0.212341	0.345621	0.268531	0.054692	0.104525	0.467730	0.471510
54	0.068558	0.116029	0.395050	0.473820	0.430678	0.133692	0.702803	0.865859	0.130395	0.338441	0.162080	0.208931	0.094642	0.071457	1.055080	0.481323	0.079122	0.362242	0.146949	0.192696	0.063585	0.222415	0.818141	0.709274	0.116508	0.315521	0.640804	0.236729	0.044724	0.060284	0.425785	0.324591	0.844607	0.106670	0.193718	0.479426	0.079543	0.080182	0.913962	0.339783	0.194632	0.189002	0.447401	0.179371	0.122146	0.191429	0.498761	0.335029	0.055043	0.315246	0.483129	0.413886	0.072163	0.093006	0.747705	0.743761	0.224088	0.141288	0.559503	0.731797	0.230044	0.092763	0.299668	0.563945	0.613035	0.326309	0.162793	0.165599	0.065410	0.085112	0.657802	0.446796	0.429429	0.211629	0.347383	0.269171	0.058615	0.107930	0.472042	0.472542
55	0.050929	0.121693	0.388361	0.384565	0.353020	0.106888	0.705733	0.733962	0.115892	0.347862	0.186228	0.216259	0.066767	0.067839	0.963493	0.489482	0.064985	0.350867	0.219012	0.217444	0.062065	0.105361	0.825266	0.750030	0.117971	0.314402	0.614038	0.244576	0.045692	0.060914	0.326936	0.316102	0.524960	0.121520	0.208758	0.515803	0.070542	0.088745	0.911486	0.332402	0.133991	0.245309	0.521853	0.444691	0.122051	0.211007	0.522826	0.334227	0.054948	0.311276	0.494087	0.406677	0.085830	0.122326	0.731970	0.753638	0.226173	0.111556	0.474852	0.749661	0.147091	0.090471	0.258018	0.556362	0.627460	0.382276	0.153585	0.165098	0.061540	0.082388	0.653019	0.427244	0.416834	0.218971	0.358316	0.276438	0.053053	0.107558	0.405070	0.450799
56	0.050589	0.138436	0.357454	0.374511	0.210418	0.090501	0.634698	0.607929	0.114090	0.343923	0.188027	0.215441	0.044306	0.061883	0.901134	0.491165	0.055768	0.316460	0.233765	0.292312	0.060723	0.063839	0.827930	0.756821	0.121319	0.295651	0.602409	0.244751	0.047074	0.058088	0.295732	0.323877	0.219756	0.149895	0.321554	0.559503	0.058232	0.094089	0.887326	0.341770	0.123211	0.292045	0.522037	0.815559	0.122666	0.225143	0.531622	0.388808	0.063336	0.267527	0.472480	0.411154	0.092717	0.152804	0.731545	0.782090	0.228108	0.097254	0.335681	0.738422	0.110814	0.083348	0.226191	0.544553	0.629867	0.386972	0.112466	0.161286	0.057589	0.076957	0.550739	0.316149	0.415788	0.228589	0.361688	0.305963	0.053940	0.118852	0.398046	0.461619
57	0.055089	0.124196	0.300800	0.293006	0.134181	0.094677	0.492119	0.522552	0.068218	0.330095	0.177678	0.217995	0.045757	0.057340	0.897012	0.478393	0.058336	0.238404	0.281817	0.365213	0.057692	0.063645	0.801621	0.771090	0.106650	0.253557	0.577326	0.239148	0.046230	0.057615	0.351905	0.323924	0.186156	0.192139	0.322908	0.599015	0.050189	0.107911	0.822032	0.332018	0.125461	0.391784	0.494328	0.857058	0.122480	0.230302	0.572817	0.405951	0.066230	0.231646	0.464128	0.397542	0.091213	0.152711	0.713615	0.752503	0.094917	0.076215	0.490302	0.738052	0.105085	0.080373	0.222684	0.544862	0.630634	0.419828	0.103823	0.119750	0.055403	0.072003	0.349126	0.185905	0.407353	0.244936	0.355026	0.315171	0.058517	0.145739	0.472801	0.396888
58	0.068246	0.126489	0.333863	0.425396	0.121573	0.096403	0.419835	0.673129	0.054191	0.232987	0.177538	0.224163	0.049620	0.050316	0.950842	0.391629	0.050959	0.224359	0.281525	0.443671	0.051503	0.061093	0.680687	0.758507	0.088354	0.235196	0.513853	0.227664	0.042242	0.052773	0.380994	0.337899	0.188289	0.210053	0.334253	0.541142	0.038663	0.106169	0.723410	0.313019	0.128909	0.405875	0.476126	0.976306	0.112869	0.232158	0.617858	0.475693	0.067994	0.178153	0.353460	0.313502	0.089247	0.153194	0.662148	0.720823	0.059480	0.059047	0.444519	0.718735	0.106039	0.080521	0.187168	0.525253	0.624184	0.460925	0.094446	0.078194	0.039763	0.058935	0.207403	0.177371	0.397301	0.254883	0.361407	0.303954	0.065403	0.167430	0.508579	0.352185
59	0.064381	0.191645	0.323689	0.443341	0.118210	0.111003	0.529224	0.897199	0.044695	0.221457	0.168882	0.213639	0.050831	0.049102	0.938349	0.344849	0.041701	0.208409	0.296278	0.449114	0.033598	0.063597	0.502440	0.783805	0.119736	0.135731	0.401477	0.270736	0.037981	0.046660	0.365415	0.347710	0.187184	0.209968	0.389841	0.520691	0.039058	0.126558	0.647465	0.320654	0.125090	0.407616	0.565861	1.104817	0.083898	0.236425	0.628815	0.510379	0.068764	0.106740	0.300921	0.312463	0.086639	0.154962	0.630783	0.711433	0.059521	0.055777	0.427026	0.713809	0.105797	0.080383	0.170355	0.428308	0.623985	0.398804	0.074638	0.040278	0.032342	0.080648	0.182655	0.153778	0.338647	0.242697	0.371551	0.270506	0.064573	0.164024	0.512484	0.319523
60	0.062624	0.249147	0.288240	0.436846	0.115831	0.111338	0.677991	0.908487	0.035159	0.203933	0.177245	0.219923	0.048821	0.043500	0.795014	0.368552	0.041686	0.208464	0.309620	0.460641	0.027183	0.063178	0.442547	0.755816	0.163614	0.110790	0.396524	0.306038	0.038886	0.050136	0.383215	0.327878	0.177118	0.203672	0.431800	0.559263	0.054886	0.178863	0.640593	0.294705	0.112285	0.410850	0.591172	1.158194	0.061944	0.236932	0.629519	0.515863	0.077831	0.169054	0.294357	0.311244	0.084099	0.156002	0.621667	0.716318	0.058466	0.060642	0.444013	0.655839	0.104229	0.080328	0.201044	0.409380	0.567555	0.384363	0.057609	0.011869	0.034505	0.088590	0.169546	0.127811	0.249474	0.235695	0.298284	0.277148	0.060312	0.164085	0.532015	0.296079
61	0.058500	0.258142	0.269688	0.491885	0.115401	0.125252	0.788536	0.908469	0.063007	0.203738	0.166641	0.224558	0.046453	0.039167	0.659511	0.357033	0.044488	0.210598	0.390554	0.430361	0.026274	0.059547	0.435629	0.687620	0.196776	0.103654	0.325319	0.439836	0.038813	0.048671	0.445812	0.329153	0.160161	0.203760	0.427656	0.553702	0.057669	0.194019	0.618625	0.289772	0.118321	0.420293	0.582214	1.164763	0.061720	0.211775	0.638185	0.524949	0.080808	0.222303	0.378510	0.413110	0.086055	0.150200	0.621199	0.694779	0.058513	0.069574	0.455066	0.664602	0.100808	0.080223	0.224157	0.386328	0.522285	0.438409	0.048010	0.013152	0.035653	0.091553	0.169450	0.122105	0.243217	0.252616	0.240832	0.240979	0.060103	0.165725	0.540568	0.292486
62	0.066204	0.266650	0.316050	0.498898	0.110767	0.130272	0.831614	0.972228	0.132253	0.257891	0.171653	0.235138	0.046074	0.038359	0.642637	0.358020	0.054189	0.178141	0.367023	0.480858	0.022769	0.055872	0.378802	0.682263	0.199405	0.097983	0.253361	0.809983	0.034180	0.042739	0.506925	0.296872	0.149315	0.209819	0.429126	0.520353	0.056503	0.211061	0.535419	0.289915	0.111642	0.390597	0.511962	1.158678	0.060268	0.200527	0.659786	0.539493	0.080606	0.257924	0.385583	0.637460	0.088309	0.152509	0.594926	0.602262	0.041627	0.063957	0.453288	0.673227	0.095694	0.078415	0.226716	0.275787	0.308058	0.475126	0.040405	0.018679	0.044855	0.131954	0.162230	0.096091	0.168740	0.257256	0.238486	0.233989	0.059462	0.169034	0.535841	0.278769
63	0.067887	0.300749	0.377983	0.549238	0.100620	0.168763	0.837199	1.047596	0.183073	0.255132	0.174618	0.243128	0.048252	0.039588	0.683783	0.341277	0.054299	0.141564	0.358034	0.455744	0.021958	0.054139	0.321193	0.669659	0.303880	0.110082	0.363642	0.960282	0.031616	0.042673	0.517296	0.249296	0.117798	0.167328	0.394985	0.496021	0.056446	0.215314	0.354486	0.284385	0.098703	0.364219	0.462690	1.047046	0.071725	0.209325	0.670578	0.534504	0.080108	0.259056	0.380857	0.706140	0.089704	0.155848	0.515274	0.462485	0.060362	0.065057	0.438167	0.689269	0.089543	0.074223	0.228989	0.175772	0.233234	0.479766	0.037018	0.021951	0.048169	0.135422	0.152415	0.072164	0.167450	0.261117	0.208151	0.230577	0.053943	0.169134	0.508209	0.265382
64	0.070853	0.305120	0.354738	0.610694	0.088647	0.176460	0.950320	1.081916	0.185015	0.259718	0.157977	0.209008	0.055239	0.048895	0.726160	0.323200	0.050782	0.120494	0.325494	0.405728	0.021891	0.065118	0.315090	0.654023	0.408065	0.109187	0.449184	0.997256	0.031866	0.043785	0.517482	0.250888	0.084924	0.139884	0.408589	0.379354	0.058244	0.247791	0.172131	0.231995	0.089012	0.329969	0.468637	0.831128	0.082814	0.214661	0.635234	0.497741	0.075722	0.259886	0.361548	0.725999	0.088486	0.150244	0.377324	0.367433	0.164709	0.116668	0.241491	0.641526	0.078160	0.069618	0.224771	0.107199	0.216175	0.464678	0.037497	0.023471	0.048676	0.136163	0.119209	0.076011	0.161962	0.293419	0.198346	0.203999	0.045156	0.166669	0.494970	0.248585
65	0.074900	0.299340	0.373747	0.550953	0.073151	0.186850	1.192267	1.093153	0.185644	0.255748	0.137131	0.196708	0.061193	0.058139	0.730345	0.304903	0.048378	0.214776	0.328033	0.331843	0.038558	0.160923	0.336153	0.593829	0.417227	0.089802	0.453819	1.091453	0.032474	0.045317	0.525200	0.276202	0.069205	0.122790	0.413668	0.373154	0.059646	0.256888	0.131802	0.170083	0.092960	0.269684	0.509111	0.801261	0.082403	0.216027	0.578437	0.476471	0.070701	0.260175	0.357125	0.752850	0.082221	0.157048	0.275117	0.355653	0.250032	0.415561	0.236988	0.442958	0.078645	0.152820	0.223625	0.089937	0.216033	0.471979	0.050661	0.023385	0.048030	0.135969	0.084840	0.077219	0.164293	0.277537	0.218386	0.169248	0.049888	0.201331	0.488134	0.225836
66	0.075980	0.263789	0.429398	0.566596	0.066726	0.183258	1.317071	1.084724	0.279760	0.280701	0.116074	0.213096	0.061211	0.059354	0.729796	0.288636	0.053355	0.224080	0.314004	0.326737	0.052563	0.245626	0.349155	0.489449	0.417931	0.097780	0.462466	1.187117	0.032997	0.046461	0.551849	0.291668	0.075680	0.132487	0.391094	0.359474	0.064981	0.316214	0.132228	0.163074	0.086117	0.261740	0.444287	0.645278	0.082218	0.216199	0.519079	0.476344	0.072368	0.261993	0.357164	0.769843	0.081882	0.152630	0.249884	0.329018	0.303553	0.480134	0.181706	0.402229	0.082598	0.234296	0.224767	0.089644	0.210830	0.409999	0.066496	0.025598	0.047542	0.135728	0.056138	0.075453	0.154421	0.273957	0.264388	0.159033	0.048939	0.213660	0.423748	0.213970
67	0.080953	0.204415	0.435815	0.554806	0.065079	0.183309	1.322179	1.073862	0.399117	0.269026	0.101886	0.215302	0.060481	0.060754	0.718586	0.284971	0.056356	0.306824	0.313111	0.309660	0.063325	0.308292	0.360160	0.475444	0.417154	0.098734	0.475506	1.240236	0.033074	0.049638	0.578844	0.305026	0.083938	0.140723	0.339628	0.283703	0.067729	0.329811	0.132269	0.135999	0.085939	0.259887	0.329625	0.419152	0.081460	0.190288	0.508679	0.475645	0.074686	0.264883	0.357275	0.835525	0.074826	0.127470	0.210397	0.208652	0.415302	0.619101	0.103667	0.394455	0.079465	0.249958	0.222115	0.087045	0.202024	0.394275	0.079647	0.193739	0.047480	0.135378	0.054438	0.079804	0.114765	0.246117	0.237574	0.140541	0.045721	0.205015	0.312430	0.183275
68	0.098325	0.207197	0.446999	0.502932	0.061466	0.183639	1.315739	1.060983	0.390790	0.208725	0.076853	0.196709	0.057687	0.057743	0.684465	0.278821	0.055397	0.368892	0.226465	0.324158	0.064733	0.310542	0.354434	0.453082	0.408715	0.094282	0.477625	1.234937	0.033060	0.052012	0.554655	0.312611	0.083288	0.141239	0.354134	0.271013	0.068581	0.327486	0.132580	0.130717	0.076522	0.253320	0.344456	0.304882	0.080953	0.181531	0.500490	0.413582	0.065230	0.223377	0.412119	0.866194	0.085609	0.238399	0.204677	0.187311	0.537656	0.635552	0.059186	0.341164	0.087173	0.299121	0.220358	0.072949	0.151746	0.393583	0.121579	0.378003	0.047518	0.128882	0.082412	0.163961	0.104983	0.235763	0.234591	0.110459	0.035694	0.188192	0.251399	0.168922
69	0.102105	0.181015	0.399284	0.528142	0.056988	0.184449	1.315072	1.059297	0.366104	0.303478	0.073116	0.187696	0.081984	0.108743	0.600957	0.269288	0.094366	0.428801	0.231855	0.389351	0.066463	0.315612	0.358098	0.420637	0.390091	0.099444	0.473232	1.254545	0.032945	0.050971	0.524175	0.307349	0.083794	0.135039	0.365756	0.271329	0.068608	0.334347	0.132681	0.129524	0.076715	0.226197	0.392520	0.616961	0.081070	0.169817	0.450997	0.394670	0.064796	0.265973	0.414131	0.843179	0.105188	0.368745	0.187901	0.187954	0.555398	0.647718	0.072665	0.223115	0.094477	0.330851	0.215235	0.056517	0.142293	0.364627	0.141396	0.394480	0.043952	0.129180	0.098851	0.219088	0.094470	0.197323	0.234369	0.125336	0.035163	0.189967	0.251189	0.189679
70	0.102778	0.150804	0.361080	0.474442	0.053243	0.185797	1.315043	1.058504	0.381002	0.361874	0.071754	0.163375	0.121842	0.293692	0.510741	0.236552	0.100666	0.431932	0.244622	0.467654	0.069788	0.335986	0.391462	0.335356	0.376084	0.099026	0.483887	1.206200	0.032965	0.048275	0.522348	0.281089	0.102258	0.228608	0.339995	0.292057	0.065137	0.335348	0.126336	0.112737	0.080682	0.219776	0.390602	0.723072	0.083726	0.166131	0.400311	0.297959	0.061975	0.241696	0.383491	0.697810	0.107490	0.384793	0.133698	0.185202	0.555428	0.658653	0.070477	0.170291	0.095522	0.335521	0.186695	0.055552	0.125838	0.254835	0.142296	0.444098	0.050858	0.186473	0.097561	0.230559	0.097417	0.190590	0.234488	0.150089	0.035274	0.189800	0.207596	0.202049
71	0.089856	0.139144	0.356276	0.385198	0.050886	0.185794	1.303769	0.974818	0.399803	0.368247	0.120766	0.161417	0.127845	0.383564	0.508472	0.173680	0.191135	0.433742	0.240963	0.489546	0.070190	0.344414	0.413629	0.232378	0.374248	0.092078	0.470858	0.980972	0.030153	0.042982	0.522019	0.267668	0.100423	0.250107	0.274313	0.288319	0.054122	0.310414	0.109782	0.108060	0.080141	0.420117	0.403608	0.833292	0.089483	0.180223	0.389912	0.256152	0.063168	0.243887	0.434441	0.574537	0.112256	0.458168	0.076288	0.162064	0.542298	0.642625	0.089732	0.166233	0.095641	0.336131	0.137162	0.065452	0.103795	0.246313	0.141986	0.513431	0.055332	0.203231	0.093152	0.243130	0.095830	0.200479	0.237180	0.165531	0.036128	0.190463	0.156109	0.215635
72	0.084995	0.144904	0.212144	0.366524	0.053562	0.181217	1.246167	0.743059	0.388882	0.356604	0.149204	0.273460	0.143853	0.445089	0.519961	0.152335	0.196249	0.414142	0.273859	0.514626	0.070977	0.348793	0.422156	0.208455	0.278739	0.073648	0.336158	0.877111	0.027641	0.038149	0.483830	0.267732	0.108179	0.391669	0.287675	0.284200	0.054084	0.302538	0.122735	0.118175	0.079270	0.575106	0.405408	0.914309	0.095327	0.218768	0.387068	0.246791	0.081269	0.312826	0.462137	0.561132	0.119224	0.535098	0.065847	0.149793	0.506240	0.523799	0.108811	0.161299	0.095881	0.337320	0.109073	0.072723	0.100956	0.285139	0.156308	0.557423	0.048571	0.184317	0.121624	0.301953	0.152959	0.153876	0.241086	0.178574	0.038182	0.190438	0.136904	0.214511
73	0.087022	0.193159	0.190514	0.371095	0.060583	0.182512	1.166183	0.694799	0.268797	0.403036	0.185787	0.278583	0.165816	0.537297	0.485006	0.168280	0.195649	0.409035	0.295636	0.543898	0.087047	0.414069	0.425978	0.207534	0.117573	0.069810	0.210872	0.827789	0.025865	0.036694	0.386623	0.249228	0.173070	0.435290	0.261073	0.253824	0.055266	0.291125	0.140091	0.123277	0.138571	0.576660	0.350257	0.917255	0.096025	0.221969	0.361372	0.219925	0.091961	0.474162	0.460986	0.528896	0.117947	0.536885	0.089273	0.102806	0.489299	0.458814	0.136588	0.147508	0.095820	0.337431	0.107551	0.078500	0.085910	0.301899	0.272523	0.603752	0.046420	0.217913	0.151486	0.332510	0.216303	0.147974	0.242512	0.175629	0.038387	0.196922	0.137217	0.214356
74	0.191323	0.187512	0.173160	0.382676	0.062486	0.188121	1.090386	0.686472	0.301956	0.430701	0.192734	0.315025	0.166355	0.541080	0.391981	0.165142	0.200226	0.363238	0.271474	0.558318	0.099144	0.450205	0.425561	0.201433	0.084652	0.071211	0.204165	0.748614	0.026744	0.038670	0.329714	0.235285	0.190120	0.475390	0.246778	0.222629	0.054355	0.289648	0.134564	0.125551	0.248485	0.589655	0.351309	0.901249	0.094904	0.221576	0.267656	0.195646	0.101186	0.517572	0.460868	0.556670	0.116795	0.536170	0.098784	0.097412	0.351102	0.269793	0.162749	0.126324	0.095615	0.337429	0.102979	0.073089	0.088763	0.441536	0.292853	0.620286	0.053495	0.232797	0.156202	0.331698	0.230001	0.146028	0.188972	0.182475	0.039290	0.193002	0.193245	0.220580
75	0.226256	0.186482	0.148646	0.367276	0.062642	0.183462	1.052201	0.601087	0.308015	0.393914	0.205773	0.319016	0.164281	0.540251	0.309689	0.179776	0.215808	0.306926	0.255753	0.554765	0.099557	0.450280	0.409889	0.199889	0.082102	0.059360	0.182976	0.612003	0.029608	0.043510	0.326023	0.246268	0.211774	0.485037	0.221497	0.201536	0.054655	0.264732	0.159923	0.134417	0.339516	0.635818	0.342517	0.894266	0.083302	0.222325	0.164949	0.182363	0.100526	0.514563	0.486134	0.511283	0.116556	0.535942	0.099415	0.098048	0.193235	0.285643	0.163600	0.173018	0.091840	0.331358	0.086229	0.083779	0.085061	0.448504	0.294387	0.681274	0.063070	0.242156	0.202286	0.330876	0.261254	0.145413	0.248135	0.181871	0.033607	0.154867	0.247277	0.221000
76	0.243489	0.178678	0.180551	0.352018	0.066541	0.185939	1.049590	0.444558	0.294081	0.303636	0.222542	0.396579	0.162581	0.539594	0.313659	0.176820	0.258799	0.215294	0.240097	0.472658	0.097102	0.438889	0.370438	0.192283	0.077490	0.088476	0.148412	0.511247	0.030103	0.044589	0.316354	0.235737	0.234288	0.542137	0.236253	0.266215	0.057720	0.259109	0.169965	0.147614	0.371386	0.699103	0.249645	0.893465	0.067458	0.226493	0.157591	0.271052	0.095770	0.512781	0.452867	0.534878	0.113753	0.534288	0.124664	0.107087	0.154772	0.252362	0.163037	0.266751	0.077028	0.292396	0.131498	0.197961	0.102700	0.448517	0.289058	0.722304	0.065229	0.243269	0.249406	0.337483	0.333984	0.147173	0.348748	0.181568	0.044792	0.130556	0.295538	0.291964
77	0.282757	0.204046	0.244382	0.370333	0.070311	0.210257	0.966033	0.279114	0.266621	0.307067	0.223974	0.391330	0.162144	0.540613	0.319615	0.174029	0.268976	0.214244	0.335967	0.380511	0.089328	0.405199	0.335215	0.178995	0.072332	0.100628	0.163928	0.491178	0.029033	0.043249	0.291588	0.205929	0.249697	0.513848	0.306254	0.275480	0.050847	0.169661	0.168920	0.154420	0.374532	0.702199	0.199442	0.666786	0.063769	0.231401	0.174824	0.402471	0.093583	0.494249	0.382416	0.587790	0.103540	0.528922	0.126483	0.105329	0.126010	0.234496	0.177881	0.353447	0.070502	0.236906	0.150406	0.260399	0.107938	0.448509	0.276143	0.684392	0.066727	0.243915	0.269637	0.339497	0.376105	0.161883	0.345500	0.176891	0.046817	0.135254	0.400154	0.332615
78	0.439715	0.209302	0.249385	0.390069	0.069959	0.198993	0.655453	0.142544	0.244030	0.536010	0.212067	0.319940	0.161050	0.541115	0.322416	0.169394	0.237887	0.211979	0.392306	0.487927	0.084136	0.354304	0.313012	0.177901	0.073040	0.104446	0.169245	0.426788	0.030789	0.084451	0.204755	0.202643	0.257733	0.508164	0.501433	0.290067	0.047589	0.139882	0.171533	0.180140	0.520415	0.704999	0.188201	0.593248	0.063730	0.231440	0.248660	0.425882	0.095182	0.463570	0.378656	0.625135	0.101612	0.527536	0.137129	0.092386	0.092680	0.232421	0.308930	0.362660	0.069564	0.220270	0.154066	0.261885	0.111708	0.447875	0.295517	0.681512	0.068006	0.244120	0.261807	0.339240	0.411011	0.156959	0.349635	0.152072	0.046749	0.137364	0.413232	0.326581
79	0.456305	0.199665	0.301455	0.433191	0.062101	0.198683	0.274840	0.125113	0.311192	0.754054	0.174045	0.309665	0.161542	0.551873	0.324156	0.165407	0.249170	0.175500	0.383980	0.478360	0.083728	0.344069	0.316652	0.168860	0.067000	0.108447	0.138444	0.425928	0.047638	0.174933	0.177343	0.176047	0.260547	0.402951	0.515176	0.463846	0.045301	0.134668	0.174729	0.180989	0.590881	0.562447	0.147369	0.386347	0.063928	0.231854	0.310156	0.440830	0.096253	0.463706	0.319061	0.670448	0.090902	0.484266	0.144469	0.084022	0.086825	0.201147	0.343685	0.401798	0.055302	0.137724	0.191771	0.264893	0.114010	0.447823	0.303661	0.651561	0.066072	0.226587	0.261591	0.330603	0.413013	0.155127	0.428362	0.264240	0.045109	0.134977	0.436466	0.319993
80	0.487733	0.171146	0.316965	0.423286	0.055160	0.199929	0.163187	0.117628	0.369585	0.866689	0.255192	0.280492	0.149606	0.547031	0.324229	0.170386	0.307757	0.172053	0.404470	0.455044	0.085969	0.343536	0.329311	0.147075	0.060862	0.109510	0.158251	0.406410	0.058789	0.232092	0.173066	0.171651	0.251000	0.360273	0.505439	0.490595	0.044920	0.118695	0.175848	0.172503	0.590372	0.443316	0.134985	0.172608	0.064344	0.232110	0.322627	0.509999	0.086516	0.424148	0.238514	0.679081	0.068199	0.396799	0.155558	0.100575	0.058811	0.194225	0.337945	0.499850	0.045245	0.075630	0.214548	0.275800	0.112926	0.400160	0.334678	0.620725	0.056995	0.181980	0.263914	0.328177	0.428843	0.177317	0.516245	0.305978	0.049468	0.135143	0.477713	0.330367
81	0.455664	0.168932	0.332887	0.400796	0.053980	0.201868	0.167828	0.120731	0.415004	1.036225	0.266541	0.359293	0.120504	0.473345	0.306169	0.174591	0.312123	0.132639	0.487442	0.490204	0.084324	0.335872	0.305354	0.152893	0.059228	0.117272	0.180118	0.471337	0.060694	0.242355	0.143314	0.177666	0.238295	0.296992	0.505265	0.536208	0.041569	0.092741	0.183654	0.164875	0.579296	0.426520	0.266767	0.191021	0.067018	0.234138	0.325448	0.531445	0.071266	0.328132	0.221115	0.746212	0.065927	0.385653	0.166414	0.156805	0.087404	0.188380	0.346573	0.635206	0.044510	0.064284	0.239655	0.274306	0.107859	0.360696	0.303275	0.612883	0.053947	0.168867	0.263970	0.315477	0.495503	0.279356	0.516319	0.549217	0.060911	0.140374	0.497105	0.325630
82	0.505051	0.148402	0.433846	0.482593	0.053460	0.201002	0.172207	0.133627	0.677541	1.084290	0.259875	0.281344	0.118381	0.415834	0.223259	0.170701	0.304404	0.142861	0.491775	0.608919	0.084443	0.313002	0.261063	0.170601	0.058655	0.119983	0.191795	0.666686	0.073449	0.313629	0.137519	0.177522	0.226171	0.279765	0.516863	0.541203	0.039905	0.092766	0.195084	0.166999	0.536377	0.406832	0.415392	0.183462	0.068491	0.230185	0.359209	0.559525	0.061282	0.111467	0.223887	0.739842	0.053724	0.288199	0.180156	0.314337	0.115124	0.129298	0.362302	0.702208	0.046054	0.063336	0.280529	0.271927	0.105567	0.273548	0.240669	0.600861	0.056276	0.162666	0.250688	0.258235	0.551673	0.287559	0.511301	0.581937	0.068246	0.141646	0.499348	0.346705
83	0.506451	0.146101	0.476297	0.499579	0.053441	0.197716	0.174525	0.133576	0.800865	1.083379	0.297195	0.286581	0.098551	0.341888	0.188273	0.163459	0.257284	0.146848	0.507723	0.645769	0.086557	0.312650	0.252610	0.168761	0.056990	0.119975	0.207814	0.639020	0.091275	0.341001	0.137550	0.176018	0.195716	0.176439	0.516364	0.544378	0.036917	0.090905	0.177744	0.161367	0.502108	0.298833	0.430446	0.404295	0.060811	0.202168	0.373247	0.563053	0.042045	0.114591	0.165962	0.740416	0.027073	0.105611	0.225870	0.413659	0.118541	0.125437	0.368831	0.657356	0.046107	0.058738	0.294621	0.269394	0.103566	0.038724	0.251063	0.585565	0.059007	0.117273	0.245416	0.232614	0.556362	0.312607	0.501978	0.593715	0.069918	0.119060	0.500630	0.367684
84	0.422917	0.133948	0.484087	0.540659	0.053460	0.200946	0.174178	0.127006	0.803838	1.012662	0.378394	0.297928	0.056277	0.176266	0.185972	0.147774	0.245650	0.151124	0.490784	0.645122	0.081607	0.285958	0.251314	0.176588	0.058268	0.135671	0.236762	0.622564	0.094067	0.345816	0.153835	0.182052	0.186289	0.135548	0.521091	0.566701	0.036568	0.094774	0.158647	0.159857	0.485897	0.155201	0.520498	0.901256	0.056256	0.162440	0.399799	0.610419	0.038074	0.130027	0.230296	0.691813	0.026886	0.094006	0.221836	0.450871	0.127774	0.134328	0.378407	0.641491	0.045720	0.058454	0.301854	0.268111	0.091854	0.054901	0.254251	0.431006	0.052530	0.085323	0.242121	0.254218	0.584361	0.320927	0.435455	0.600922	0.068753	0.115160	0.483723	0.369658
85	0.379984	0.207352	0.505383	0.581193	0.051346	0.201452	0.170304	0.117240	0.777223	0.826966	0.441735	0.379702	0.057144	0.192361	0.184819	0.156348	0.250668	0.148892	0.451570	0.582295	0.058312	0.146472	0.240025	0.200864	0.066542	0.366680	0.332512	0.648514	0.094214	0.347670	0.168970	0.193120	0.174439	0.134840	0.345225	0.581077	0.036248	0.096048	0.167242	0.160422	0.483930	0.135490	0.559943	0.924058	0.057014	0.159252	0.427769	0.675058	0.033845	0.133552	0.238773	0.630788	0.029870	0.095264	0.240680	0.455409	0.129459	0.095794	0.370602	0.660811	0.044704	0.057028	0.305175	0.284202	0.080159	0.059267	0.278671	0.354936	0.043575	0.065440	0.212245	0.271198	0.586049	0.315615	0.464731	0.602678	0.068084	0.110537	0.456056	0.364354
86	0.339371	0.215676	0.499712	0.553564	0.042676	0.200388	0.160984	0.107630	0.735934	0.746684	0.409731	0.398289	0.058809	0.201526	0.167674	0.131755	0.292831	0.145632	0.453991	0.557177	0.051917	0.128426	0.225637	0.211051	0.081796	0.396419	0.329983	0.685680	0.093644	0.347266	0.228248	0.193227	0.173949	0.134567	0.292451	0.519811	0.030842	0.083455	0.146755	0.169635	0.277676	0.136892	0.585377	0.997657	0.055093	0.156354	0.429960	0.683630	0.025541	0.133586	0.235885	0.627670	0.035477	0.089124	0.270128	0.481652	0.129943	0.094165	0.405220	0.655700	0.042381	0.052713	0.300344	0.276250	0.067387	0.081283	0.293868	0.346983	0.042454	0.062308	0.155241	0.266374	0.562440	0.305674	0.474262	0.614011	0.061805	0.105610	0.427044	0.298323
87	0.305075	0.261321	0.560576	0.554536	0.038616	0.187613	0.144419	0.104041	0.724302	0.434470	0.540983	0.337793	0.057432	0.200825	0.147373	0.112937	0.250435	0.145296	0.435622	0.561028	0.052171	0.129147	0.218515	0.214183	0.080404	0.538636	0.332947	0.745722	0.092958	0.346667	0.281800	0.311500	0.160540	0.131514	0.332999	0.475746	0.021698	0.070344	0.135292	0.163582	0.179629	0.149199	0.601371	1.059672	0.050477	0.128202	0.438219	0.683268	0.025590	0.133580	0.243636	0.551059	0.040230	0.082896	0.267761	0.571803	0.128545	0.096231	0.575060	0.612049	0.060228	0.043768	0.278873	0.190441	0.067850	0.164086	0.289388	0.336450	0.042660	0.060859	0.132748	0.257432	0.558626	0.307843	0.444314	0.613189	0.058823	0.082465	0.326946	0.246553
88	0.285441	0.279618	0.578426	0.560013	0.038405	0.185474	0.124917	0.105021	0.569683	0.292836	0.592290	0.442559	0.057351	0.197743	0.136844	0.098463	0.319616	0.156802	0.374355	0.516301	0.054986	0.139533	0.215273	0.215441	0.100597	0.548627	0.329021	0.779492	0.092928	0.346968	0.287667	0.496084	0.129402	0.123014	0.338245	0.477998	0.020903	0.068466	0.137089	0.167666	0.177255	0.128274	0.617082	1.082685	0.049453	0.085777	0.441699	0.636441	0.024129	0.151639	0.247131	0.589462	0.040689	0.082847	0.267837	0.648686	0.218706	0.113652	0.590964	0.437727	0.103337	0.036903	0.274465	0.160959	0.048997	0.186986	0.271091	0.315934	0.042161	0.060920	0.134386	0.206566	0.557614	0.307435	0.355918	0.592996	0.058837	0.074776	0.304197	0.246810
89	0.196100	0.295024	0.493673	0.448579	0.032659	0.160975	0.106789	0.112426	0.330418	0.272193	0.577772	0.482416	0.057728	0.195757	0.137777	0.096224	0.357651	0.140549	0.397573	0.375922	0.053995	0.140324	0.203400	0.217770	0.118185	0.552265	0.319270	0.780647	0.093119	0.346420	0.290432	0.534007	0.124946	0.149243	0.320503	0.489786	0.020054	0.068432	0.136615	0.156829	0.168411	0.121908	0.607625	1.080250	0.049934	0.071266	0.431169	0.572729	0.037612	0.189208	0.269806	0.569047	0.041117	0.083609	0.263551	0.679920	0.235641	0.115480	0.670043	0.438895	0.123682	0.034327	0.269602	0.175400	0.047021	0.247067	0.301222	0.281458	0.042102	0.060804	0.129101	0.195595	0.491987	0.209842	0.321509	0.451946	0.059725	0.075578	0.266119	0.240011
90	0.197016	0.313244	0.466542	0.505239	0.022376	0.105497	0.090406	0.123081	0.418992	0.284461	0.536231	0.540316	0.054471	0.162396	0.144655	0.097691	0.365697	0.109919	0.372655	0.287554	0.048565	0.129415	0.176182	0.226431	0.115684	0.550722	0.308365	0.736387	0.088987	0.324020	0.296705	0.552893	0.119767	0.157355	0.299068	0.595350	0.020027	0.066781	0.133134	0.160424	0.166325	0.121883	0.536169	1.086089	0.050314	0.070238	0.387354	0.563966	0.044367	0.217194	0.337774	0.621343	0.042171	0.085697	0.261355	0.697964	0.233972	0.113697	0.689699	0.460387	0.144899	0.034253	0.236422	0.177663	0.086318	0.254991	0.300606	0.267604	0.041877	0.059083	0.188160	0.204473	0.396028	0.182326	0.323640	0.296851	0.062082	0.084964	0.179578	0.214979
91	0.152178	0.311350	0.427976	0.585977	0.032416	0.103772	0.076425	0.133743	0.448864	0.265377	0.553957	0.546684	0.055448	0.150520	0.158183	0.107429	0.405883	0.148126	0.315536	0.287941	0.043152	0.112201	0.152573	0.230288	0.115351	0.550320	0.349361	0.607473	0.082220	0.281888	0.297306	0.635698	0.105277	0.142236	0.270370	0.590229	0.019536	0.060729	0.139531	0.164885	0.117287	0.121260	0.546787	0.984407	0.049666	0.070137	0.334194	0.548659	0.046442	0.251062	0.367065	0.571442	0.043025	0.082105	0.269388	0.702789	0.230305	0.096152	0.735098	0.544259	0.202868	0.038805	0.233031	0.168718	0.114628	0.254639	0.304690	0.287643	0.039640	0.054481	0.216488	0.357616	0.354435	0.141867	0.331735	0.299914	0.061580	0.091866	0.108182	0.208420
92	0.141095	0.273555	0.419690	0.564250	0.036791	0.118685	0.069577	0.136493	0.433405	0.228071	0.593584	0.607107	0.065820	0.178389	0.155497	0.136589	0.419318	0.177516	0.305444	0.227773	0.041350	0.108249	0.134164	0.220361	0.119184	0.552927	0.343556	0.628888	0.084685	0.259048	0.317985	0.703629	0.103913	0.141182	0.254209	0.631069	0.018889	0.058147	0.141070	0.161442	0.105285	0.137921	0.480505	0.699202	0.048710	0.071897	0.324353	0.485258	0.092424	0.254514	0.369902	0.708940	0.056301	0.067856	0.276870	0.705406	0.227963	0.097320	0.693828	0.581864	0.221371	0.038163	0.203071	0.168817	0.125718	0.258261	0.413743	0.278323	0.035012	0.049563	0.215167	0.443484	0.321366	0.129692	0.385917	0.271408	0.059845	0.109207	0.091509	0.172453
93	0.137755	0.328309	0.356750	0.572766	0.042791	0.133405	0.068838	0.135056	0.410820	0.188632	0.508027	0.813766	0.069627	0.286523	0.137494	0.167764	0.401033	0.199579	0.387710	0.215392	0.040579	0.108952	0.134709	0.194252	0.119172	0.545968	0.319820	0.648018	0.087067	0.223599	0.321891	0.749624	0.112733	0.141340	0.236459	0.639616	0.018159	0.057377	0.134219	0.155559	0.107458	0.141441	0.501052	0.731523	0.041408	0.060595	0.313795	0.475046	0.139436	0.255041	0.404745	0.744932	0.114300	0.064412	0.269684	0.666407	0.244425	0.098602	0.642443	0.564858	0.225116	0.035150	0.151833	0.172285	0.146026	0.264977	0.468499	0.272589	0.029481	0.043907	0.219837	0.450193	0.209277	0.126318	0.335598	0.332597	0.057843	0.120266	0.084399	0.114513
94	0.128167	0.324442	0.302262	0.577550	0.051685	0.133729	0.057219	0.126425	0.484358	0.184217	0.440729	0.844868	0.068554	0.309999	0.141410	0.179861	0.435178	0.196406	0.396083	0.244241	0.036119	0.108167	0.136362	0.182368	0.118491	0.424611	0.237702	0.788255	0.065255	0.113115	0.321638	0.779212	0.113779	0.141770	0.258917	0.641618	0.015836	0.055599	0.134050	0.155264	0.138218	0.124373	0.474944	0.626054	0.035018	0.053036	0.276597	0.449032	0.142458	0.257532	0.464216	0.780408	0.166771	0.065640	0.237874	0.630214	0.256302	0.088802	0.530324	0.566253	0.225886	0.034676	0.140222	0.179251	0.190484	0.264895	0.470466	0.273094	0.042143	0.042613	0.254309	0.456187	0.175433	0.127047	0.312062	0.340767	0.057845	0.144402	0.074867	0.080724
95	0.104631	0.313238	0.243269	0.580442	0.062048	0.181163	0.042312	0.111669	0.618545	0.190394	0.468992	0.868999	0.084727	0.375397	0.205378	0.192322	0.433911	0.215527	0.381775	0.378469	0.034343	0.101607	0.158266	0.212576	0.170581	0.395404	0.244945	0.833001	0.052233	0.080227	0.322640	0.780553	0.104398	0.125702	0.281340	0.672677	0.014992	0.042934	0.131273	0.154148	0.201439	0.107669	0.456650	0.550224	0.032264	0.067654	0.260432	0.444180	0.144806	0.259395	0.543745	0.796145	0.196012	0.064516	0.239396	0.609068	0.161860	0.127748	0.488479	0.578443	0.226812	0.037641	0.112421	0.197714	0.204109	0.257035	0.547314	0.274660	0.050032	0.047212	0.285322	0.467588	0.181347	0.131387	0.301824	0.470570	0.061857	0.150363	0.078314	0.069700
96	0.072233	0.277043	0.217758	0.614066	0.069839	0.225101	0.035882	0.151198	0.604863	0.187532	0.469195	0.931871	0.090204	0.387679	0.261108	0.185767	0.407273	0.218452	0.397802	0.385326	0.031707	0.096464	0.198865	0.230957	0.194953	0.174485	0.294502	0.874406	0.050711	0.064259	0.316021	0.776860	0.102384	0.091795	0.289529	0.669229	0.016106	0.034652	0.119551	0.153311	0.250835	0.098816	0.458878	0.520146	0.020964	0.067740	0.199970	0.350079	0.145749	0.249558	0.573093	0.777452	0.211551	0.059771	0.214861	0.606658	0.154382	0.160085	0.388670	0.512743	0.248546	0.064817	0.100821	0.180604	0.221387	0.207996	0.591877	0.269350	0.048598	0.047556	0.312217	0.468399	0.200825	0.131023	0.333268	0.504726	0.067316	0.153093	0.098115	0.066233
97	0.110627	0.337222	0.212608	0.421314	0.070385	0.242494	0.033620	0.179569	0.837534	0.226846	0.380408	0.914959	0.091136	0.384162	0.268791	0.193160	0.473893	0.278995	0.491151	0.396131	0.031645	0.095849	0.214845	0.229782	0.183516	0.154598	0.378238	1.004815	0.050682	0.060235	0.308426	0.774174	0.103858	0.033332	0.299695	0.592153	0.017190	0.050668	0.110489	0.139645	0.256725	0.102468	0.402568	0.567794	0.017629	0.069955	0.169101	0.233853	0.156881	0.198479	0.677146	0.744441	0.223350	0.069302	0.178776	0.585266	0.196343	0.193288	0.366292	0.500886	0.311218	0.097301	0.100341	0.181522	0.222139	0.190337	0.588368	0.265484	0.050029	0.057253	0.312986	0.476478	0.210280	0.136698	0.323342	0.523315	0.069581	0.165577	0.128265	0.074003
98	0.232668	0.375998	0.286408	0.422415	0.074271	0.239980	0.034522	0.186274	0.846541	0.226491	0.326641	0.872621	0.100163	0.384991	0.283617	0.202339	0.452073	0.293282	0.512007	0.392526	0.031855	0.093183	0.224555	0.231543	0.180847	0.156211	0.448219	1.011078	0.050605	0.060203	0.239368	0.768586	0.103647	0.188839	0.386544	0.535482	0.017052	0.066753	0.125240	0.136605	0.337175	0.110714	0.391894	0.594095	0.018289	0.071742	0.169491	0.218343	0.169212	0.188807	0.670689	0.706671	0.312699	0.085772	0.170967	0.494414	0.247175	0.194316	0.230700	0.327897	0.354299	0.113289	0.100526	0.170958	0.218456	0.318533	0.572982	0.228163	0.056829	0.070851	0.315232	0.502923	0.221793	0.135334	0.326701	0.542586	0.069372	0.166442	0.138493	0.077896
99	0.262811	0.363776	0.456948	0.480947	0.087811	0.256208	0.038894	0.185756	0.857666	0.228476	0.388192	0.717523	0.106666	0.418515	0.332847	0.202373	0.431582	0.300701	0.529603	0.401347	0.031176	0.091136	0.234196	0.270914	0.212940	0.173061	0.508332	1.020867	0.050896	0.059847	0.211173	0.668544	0.095994	0.214060	0.393985	0.493142	0.017283	0.074770	0.216333	0.145200	0.355995	0.109704	0.344481	0.679648	0.019334	0.074785	0.149496	0.200718	0.216080	0.148249	0.715323	0.708303	0.339489	0.087941	0.170040	0.387880	0.262754	0.202059	0.237586	0.277864	0.403860	0.118148	0.106534	0.158554	0.205543	0.355401	0.591450	0.195308	0.061142	0.077578	0.318600	0.532479	0.300468	0.126415	0.329096	0.544441	0.068438	0.164793	0.137927	0.081627
100	0.277277	0.340358	0.460486	0.554747	0.111003	0.291085	0.043077	0.187665	0.806218	0.215759	0.363537	0.574580	0.111527	0.435173	0.363394	0.201959	0.414359	0.406693	0.495318	0.409200	0.031115	0.068725	0.239105	0.278942	0.269374	0.174730	0.591896	1.011611	0.050626	0.056008	0.212203	0.595455	0.069678	0.219060	0.413755	0.409397	0.018059	0.095293	0.221449	0.128800	0.367703	0.087999	0.317824	0.604633	0.022668	0.083598	0.143060	0.163043	0.261289	0.139943	0.714949	0.682977	0.350105	0.088149	0.167970	0.334442	0.272836	0.270998	0.333733	0.386599	0.439467	0.119865	0.109927	0.139592	0.253572	0.422911	0.596949	0.209323	0.061930	0.078545	0.283199	0.523147	0.321417	0.115397	0.309678	0.546450	0.063265	0.158471	0.150231	0.114160
101	0.393297	0.332295	0.481783	0.581293	0.118214	0.297942	0.044784	0.192896	0.704744	0.226871	0.322529	0.529073	0.111558	0.435869	0.369514	0.202860	0.381487	0.419521	0.495296	0.378007	0.031925	0.061572	0.248449	0.282184	0.313723	0.166896	0.610739	1.004819	0.050289	0.053581	0.202904	0.583598	0.066760	0.234525	0.431445	0.396264	0.021097	0.106202	0.237547	0.127327	0.382398	0.128161	0.222403	0.577995	0.027530	0.118176	0.136950	0.155579	0.331929	0.134639	0.675240	0.590117	0.353829	0.086655	0.168707	0.295499	0.546749	0.311540	0.383077	0.508723	0.463320	0.150041	0.109342	0.130885	0.314125	0.418897	0.534580	0.213702	0.062043	0.077317	0.270804	0.418649	0.307765	0.095215	0.271371	0.531606	0.052710	0.148806	0.188661	0.121776
