	202_C_T2_ih_ND_01.c3d	202_C_T2_ih_ND_01.c3d	202_C_T2_ih_ND_01.c3d	202_C_T2_ih_ND_01.c3d	202_C_T2_ih_ND_01.c3d	202_C_T2_ih_ND_01.c3d	202_C_T2_ih_ND_01.c3d	202_C_T2_ih_ND_01.c3d	202_C_T2_ih_ND_02.c3d	202_C_T2_ih_ND_02.c3d	202_C_T2_ih_ND_02.c3d	202_C_T2_ih_ND_02.c3d	202_C_T2_ih_ND_02.c3d	202_C_T2_ih_ND_02.c3d	202_C_T2_ih_ND_02.c3d	202_C_T2_ih_ND_02.c3d	202_C_T2_ih_ND_04.c3d	202_C_T2_ih_ND_04.c3d	202_C_T2_ih_ND_04.c3d	202_C_T2_ih_ND_04.c3d	202_C_T2_ih_ND_04.c3d	202_C_T2_ih_ND_04.c3d	202_C_T2_ih_ND_04.c3d	202_C_T2_ih_ND_04.c3d	202_C_T2_ih_ND_05.c3d	202_C_T2_ih_ND_05.c3d	202_C_T2_ih_ND_05.c3d	202_C_T2_ih_ND_05.c3d	202_C_T2_ih_ND_05.c3d	202_C_T2_ih_ND_05.c3d	202_C_T2_ih_ND_05.c3d	202_C_T2_ih_ND_05.c3d	202_C_T2_ih_ND_06.c3d	202_C_T2_ih_ND_06.c3d	202_C_T2_ih_ND_06.c3d	202_C_T2_ih_ND_06.c3d	202_C_T2_ih_ND_06.c3d	202_C_T2_ih_ND_06.c3d	202_C_T2_ih_ND_06.c3d	202_C_T2_ih_ND_06.c3d	202_C_T2_ih_ND_07.c3d	202_C_T2_ih_ND_07.c3d	202_C_T2_ih_ND_07.c3d	202_C_T2_ih_ND_07.c3d	202_C_T2_ih_ND_07.c3d	202_C_T2_ih_ND_07.c3d	202_C_T2_ih_ND_07.c3d	202_C_T2_ih_ND_07.c3d	202_C_T2_ih_ND_08.c3d	202_C_T2_ih_ND_08.c3d	202_C_T2_ih_ND_08.c3d	202_C_T2_ih_ND_08.c3d	202_C_T2_ih_ND_08.c3d	202_C_T2_ih_ND_08.c3d	202_C_T2_ih_ND_08.c3d	202_C_T2_ih_ND_08.c3d	202_C_T2_ih_ND_10.c3d	202_C_T2_ih_ND_10.c3d	202_C_T2_ih_ND_10.c3d	202_C_T2_ih_ND_10.c3d	202_C_T2_ih_ND_10.c3d	202_C_T2_ih_ND_10.c3d	202_C_T2_ih_ND_10.c3d	202_C_T2_ih_ND_10.c3d
	Biceps femoris_lat	Semitendinosus_lat	Vastus lateralis_lat	Vastus medialis_lat	Biceps femoris_med	Semitendinosus_med	Vastus lateralis_med	Vastus medialis_med	Biceps femoris_lat	Semitendinosus_lat	Vastus lateralis_lat	Vastus medialis_lat	Biceps femoris_med	Semitendinosus_med	Vastus lateralis_med	Vastus medialis_med	Biceps femoris_lat	Semitendinosus_lat	Vastus lateralis_lat	Vastus medialis_lat	Biceps femoris_med	Semitendinosus_med	Vastus lateralis_med	Vastus medialis_med	Biceps femoris_lat	Semitendinosus_lat	Vastus lateralis_lat	Vastus medialis_lat	Biceps femoris_med	Semitendinosus_med	Vastus lateralis_med	Vastus medialis_med	Biceps femoris_lat	Semitendinosus_lat	Vastus lateralis_lat	Vastus medialis_lat	Biceps femoris_med	Semitendinosus_med	Vastus lateralis_med	Vastus medialis_med	Biceps femoris_lat	Semitendinosus_lat	Vastus lateralis_lat	Vastus medialis_lat	Biceps femoris_med	Semitendinosus_med	Vastus lateralis_med	Vastus medialis_med	Biceps femoris_lat	Semitendinosus_lat	Vastus lateralis_lat	Vastus medialis_lat	Biceps femoris_med	Semitendinosus_med	Vastus lateralis_med	Vastus medialis_med	Biceps femoris_lat	Semitendinosus_lat	Vastus lateralis_lat	Vastus medialis_lat	Biceps femoris_med	Semitendinosus_med	Vastus lateralis_med	Vastus medialis_med
	P2D	P2D	P2D	P2D	P2D	P2D	P2D	P2D	P2D	P2D	P2D	P2D	P2D	P2D	P2D	P2D	P2D	P2D	P2D	P2D	P2D	P2D	P2D	P2D	P2D	P2D	P2D	P2D	P2D	P2D	P2D	P2D	P2D	P2D	P2D	P2D	P2D	P2D	P2D	P2D	P2D	P2D	P2D	P2D	P2D	P2D	P2D	P2D	P2D	P2D	P2D	P2D	P2D	P2D	P2D	P2D	P2D	P2D	P2D	P2D	P2D	P2D	P2D	P2D
	EMG_lat	EMG_lat	EMG_lat	EMG_lat	EMG_med	EMG_med	EMG_med	EMG_med	EMG_lat	EMG_lat	EMG_lat	EMG_lat	EMG_med	EMG_med	EMG_med	EMG_med	EMG_lat	EMG_lat	EMG_lat	EMG_lat	EMG_med	EMG_med	EMG_med	EMG_med	EMG_lat	EMG_lat	EMG_lat	EMG_lat	EMG_med	EMG_med	EMG_med	EMG_med	EMG_lat	EMG_lat	EMG_lat	EMG_lat	EMG_med	EMG_med	EMG_med	EMG_med	EMG_lat	EMG_lat	EMG_lat	EMG_lat	EMG_med	EMG_med	EMG_med	EMG_med	EMG_lat	EMG_lat	EMG_lat	EMG_lat	EMG_med	EMG_med	EMG_med	EMG_med	EMG_lat	EMG_lat	EMG_lat	EMG_lat	EMG_med	EMG_med	EMG_med	EMG_med
ITEM	Y	Y	Y	Y	Y	Y	Y	Y	Y	Y	Y	Y	Y	Y	Y	Y	Y	Y	Y	Y	Y	Y	Y	Y	Y	Y	Y	Y	Y	Y	Y	Y	Y	Y	Y	Y	Y	Y	Y	Y	Y	Y	Y	Y	Y	Y	Y	Y	Y	Y	Y	Y	Y	Y	Y	Y	Y	Y	Y	Y	Y	Y	Y	Y
1	0.222374	0.155431	0.204255	0.122972	0.171850	0.125245	0.220507	0.118713	0.222445	0.116776	0.252023	0.075980	0.286860	0.126120	0.258877	0.134525	0.272491	0.232039	0.257736	0.148466	0.523201	0.253166	0.140884	0.176324	0.205070	0.115896	0.245096	0.152767	0.092480	0.118107	0.268596	0.103076	0.102587	0.182499	0.153935	0.127536	0.304421	0.180844	0.250835	0.135382	0.115703	0.236609	0.117649	0.095994	0.037439	0.044764	0.286355	0.191747	0.383155	0.359830	0.239749	0.162817	0.376611	0.213331	0.302169	0.239987	0.060325	0.152696	0.367483	0.256659	0.060740	0.051085	0.349951	0.092512
2	0.223157	0.158311	0.205005	0.154102	0.144235	0.111912	0.221110	0.105944	0.226710	0.117722	0.250971	0.073550	0.284992	0.117128	0.257661	0.134311	0.267254	0.231775	0.283994	0.203916	0.540658	0.257532	0.132762	0.162383	0.218486	0.115353	0.250073	0.152778	0.129102	0.118968	0.248603	0.090926	0.088839	0.180089	0.161849	0.149238	0.286077	0.234056	0.224164	0.101490	0.132346	0.247272	0.114755	0.106750	0.031420	0.039489	0.286496	0.191302	0.361009	0.342009	0.233859	0.146206	0.374229	0.211083	0.305339	0.231563	0.061780	0.149122	0.363817	0.238565	0.073097	0.054075	0.321983	0.085622
3	0.223912	0.157538	0.206404	0.194153	0.081699	0.099712	0.225996	0.106526	0.229399	0.119363	0.222506	0.073890	0.272739	0.111652	0.248558	0.137559	0.266645	0.226978	0.287286	0.247507	0.540890	0.258464	0.141646	0.156258	0.222640	0.115886	0.251437	0.152380	0.134717	0.136261	0.180768	0.054346	0.082494	0.152866	0.167763	0.169998	0.281714	0.261516	0.214599	0.124118	0.132109	0.219794	0.125536	0.129413	0.023477	0.029996	0.283099	0.182384	0.361332	0.341980	0.236730	0.145172	0.389333	0.200973	0.308798	0.187563	0.064802	0.133988	0.346794	0.191904	0.081870	0.055912	0.305103	0.088013
4	0.222624	0.162580	0.208972	0.251053	0.081280	0.134704	0.223920	0.105581	0.239853	0.118162	0.193241	0.088229	0.272574	0.104670	0.239773	0.142417	0.223784	0.216575	0.262200	0.247653	0.541677	0.257947	0.181521	0.150434	0.225957	0.126964	0.251749	0.152591	0.144472	0.132705	0.176375	0.045388	0.076539	0.130181	0.223095	0.171308	0.190817	0.248659	0.214518	0.153232	0.138561	0.193935	0.243334	0.261769	0.023594	0.029385	0.276299	0.153889	0.358569	0.330532	0.234033	0.146277	0.329247	0.167839	0.290446	0.133601	0.063344	0.133486	0.332157	0.220540	0.083307	0.067815	0.297005	0.088475
5	0.242038	0.176329	0.213104	0.256178	0.112744	0.133925	0.210012	0.103922	0.234324	0.116730	0.284760	0.088923	0.179003	0.066934	0.234808	0.141499	0.216969	0.214480	0.244901	0.244138	0.534019	0.245324	0.192772	0.139088	0.228421	0.128747	0.252300	0.162024	0.159884	0.116958	0.204927	0.065872	0.077753	0.127846	0.316340	0.189058	0.091130	0.227777	0.213477	0.151972	0.177602	0.171733	0.342691	0.306431	0.025962	0.029246	0.229728	0.137277	0.344864	0.294316	0.247418	0.175597	0.287091	0.138506	0.208512	0.107900	0.062440	0.121696	0.320498	0.222382	0.091529	0.078290	0.294863	0.080110
6	0.274248	0.178086	0.214840	0.263066	0.113937	0.134401	0.196295	0.114055	0.233464	0.127688	0.336570	0.085577	0.087508	0.060395	0.207115	0.135308	0.204261	0.208403	0.265157	0.248406	0.490504	0.214491	0.200838	0.131902	0.230629	0.129090	0.254734	0.170936	0.201917	0.129742	0.272896	0.071161	0.075610	0.125113	0.373904	0.198337	0.076795	0.235310	0.199209	0.147034	0.155185	0.147450	0.374351	0.321489	0.025612	0.028730	0.232228	0.142703	0.315327	0.232488	0.341470	0.363733	0.281731	0.117728	0.156382	0.103509	0.057841	0.072666	0.312036	0.218751	0.137642	0.096512	0.261441	0.076433
7	0.278587	0.179610	0.217216	0.269947	0.114911	0.127102	0.223626	0.117612	0.207720	0.133433	0.337591	0.087003	0.082579	0.112315	0.166877	0.124123	0.192795	0.115346	0.299777	0.267704	0.434989	0.189344	0.223386	0.129901	0.235232	0.131310	0.255994	0.160273	0.207169	0.152085	0.301703	0.078824	0.077546	0.125064	0.387291	0.197937	0.073617	0.239159	0.232333	0.156361	0.184276	0.138499	0.380281	0.358695	0.026318	0.033522	0.245812	0.148655	0.256222	0.229363	0.391860	0.484902	0.279000	0.090054	0.156123	0.103416	0.058517	0.068764	0.310291	0.248208	0.154326	0.100584	0.179715	0.100727
8	0.255068	0.179319	0.235769	0.276807	0.113532	0.136351	0.238050	0.107218	0.163877	0.115388	0.351590	0.121636	0.082923	0.128385	0.153681	0.126349	0.177815	0.047161	0.315482	0.275952	0.394894	0.175584	0.241114	0.138559	0.245185	0.130205	0.272299	0.150380	0.219038	0.203469	0.302577	0.096210	0.079714	0.125627	0.390959	0.211478	0.070855	0.239491	0.226444	0.158816	0.197089	0.128154	0.478048	0.389619	0.022618	0.044936	0.246154	0.145290	0.259182	0.275222	0.398332	0.496193	0.271157	0.088735	0.160602	0.116231	0.058360	0.058982	0.314904	0.287741	0.156504	0.100719	0.112364	0.114780
9	0.246789	0.175516	0.254299	0.280939	0.105783	0.135929	0.241093	0.096047	0.173126	0.120490	0.371987	0.141978	0.106793	0.182436	0.148031	0.136252	0.141536	0.050146	0.325110	0.276430	0.376868	0.173797	0.239418	0.140507	0.265206	0.132391	0.303061	0.153325	0.227489	0.208121	0.295345	0.094181	0.078010	0.124763	0.448883	0.229950	0.068793	0.232332	0.207122	0.172666	0.209828	0.133607	0.544760	0.390292	0.023334	0.047950	0.234486	0.155464	0.261445	0.306167	0.391769	0.500127	0.262815	0.085171	0.153549	0.113090	0.058658	0.050942	0.315494	0.314075	0.169284	0.108176	0.079298	0.116638
10	0.234169	0.168789	0.240993	0.283098	0.104580	0.138583	0.277854	0.090930	0.169459	0.117880	0.402588	0.142627	0.132382	0.205272	0.147115	0.138788	0.101193	0.055742	0.321835	0.284637	0.354925	0.152383	0.258062	0.129629	0.292770	0.132404	0.327161	0.138879	0.213047	0.205400	0.294420	0.093738	0.077662	0.124743	0.572187	0.261538	0.062214	0.225103	0.185489	0.173088	0.205813	0.111277	0.556768	0.391832	0.044191	0.098556	0.227665	0.197515	0.261627	0.314994	0.391940	0.516228	0.198043	0.071289	0.169948	0.122939	0.058086	0.046696	0.315290	0.319235	0.228343	0.136544	0.078783	0.116007
11	0.232341	0.166662	0.214251	0.286556	0.109720	0.148535	0.274192	0.092602	0.162414	0.116570	0.407727	0.177330	0.137732	0.209153	0.119203	0.143790	0.081938	0.047904	0.302705	0.302037	0.316245	0.132832	0.257679	0.120035	0.307619	0.130639	0.339635	0.127957	0.202712	0.221657	0.290572	0.094700	0.079789	0.117003	0.674072	0.286571	0.060098	0.209793	0.191295	0.174055	0.199351	0.086274	0.558417	0.390589	0.089048	0.220650	0.217725	0.207027	0.261615	0.317212	0.418866	0.531672	0.151776	0.047585	0.189518	0.130490	0.058868	0.046894	0.314440	0.318702	0.296967	0.150308	0.082672	0.115039
12	0.212308	0.144346	0.214624	0.288510	0.110983	0.151419	0.271553	0.100984	0.160050	0.116098	0.407733	0.181542	0.136119	0.209018	0.151450	0.170014	0.085157	0.047956	0.279086	0.329088	0.310523	0.128944	0.273728	0.114126	0.315572	0.131156	0.342924	0.127353	0.199930	0.246045	0.269320	0.124799	0.090781	0.121592	0.716185	0.307607	0.049137	0.119967	0.191707	0.172566	0.195785	0.083147	0.549997	0.377039	0.104790	0.256808	0.206685	0.208519	0.262417	0.314893	0.440948	0.535360	0.131516	0.049180	0.194978	0.132022	0.056037	0.047366	0.297303	0.315864	0.323363	0.150514	0.085252	0.124481
13	0.186889	0.127149	0.228719	0.298748	0.109448	0.118598	0.266506	0.107422	0.138091	0.112880	0.400388	0.176861	0.142549	0.211972	0.219782	0.184350	0.086750	0.050633	0.254557	0.322464	0.253170	0.111890	0.294539	0.113173	0.310854	0.127814	0.335965	0.128542	0.181582	0.262206	0.265130	0.147227	0.092701	0.119726	0.725930	0.325727	0.051290	0.103540	0.192521	0.157310	0.190522	0.078373	0.499214	0.294864	0.106603	0.260616	0.204864	0.220303	0.265777	0.308776	0.451454	0.539665	0.078188	0.058204	0.192292	0.132038	0.053688	0.050595	0.257294	0.315647	0.324695	0.156878	0.081638	0.131892
14	0.184085	0.125905	0.240497	0.302454	0.084018	0.116887	0.271062	0.105118	0.112134	0.109990	0.350888	0.189832	0.160468	0.218930	0.274859	0.186812	0.084605	0.054850	0.243228	0.285316	0.192182	0.103690	0.298787	0.112164	0.300230	0.126235	0.315864	0.132227	0.170149	0.259625	0.216343	0.147928	0.090924	0.096391	0.726727	0.335739	0.054920	0.094946	0.200592	0.141998	0.156467	0.066812	0.451405	0.294641	0.111238	0.271141	0.203043	0.234005	0.269141	0.304373	0.450963	0.545990	0.090584	0.071675	0.191039	0.130683	0.045629	0.045935	0.192091	0.329300	0.394167	0.201306	0.091208	0.130378
15	0.178470	0.124387	0.266628	0.278879	0.079023	0.114051	0.260124	0.144845	0.105006	0.091880	0.269990	0.210422	0.175582	0.231946	0.310465	0.181695	0.081400	0.057490	0.240844	0.282048	0.170248	0.111957	0.301087	0.107931	0.290469	0.123577	0.288441	0.137093	0.165058	0.257529	0.162957	0.173085	0.089514	0.071757	0.725711	0.337424	0.053271	0.087626	0.194494	0.156458	0.143657	0.057344	0.445045	0.270875	0.114686	0.276958	0.194799	0.240266	0.267843	0.292447	0.450770	0.550083	0.101897	0.087610	0.188699	0.131536	0.047537	0.045604	0.146905	0.337588	0.467153	0.228828	0.097851	0.132018
16	0.176399	0.108194	0.296661	0.255724	0.082000	0.101830	0.208511	0.196865	0.092419	0.071404	0.260826	0.216704	0.176887	0.232318	0.319678	0.173693	0.079256	0.057429	0.240456	0.283063	0.167332	0.118284	0.287504	0.111196	0.266365	0.109849	0.271729	0.137963	0.172596	0.216998	0.150274	0.194004	0.088879	0.068686	0.723193	0.329537	0.047354	0.052149	0.183761	0.221452	0.103217	0.053216	0.424945	0.218315	0.118830	0.282387	0.185845	0.243776	0.267464	0.284602	0.448637	0.551903	0.110385	0.103407	0.186621	0.156471	0.057716	0.045277	0.129813	0.337975	0.483520	0.231144	0.105876	0.137267
17	0.103332	0.057831	0.308328	0.254973	0.102434	0.086898	0.189645	0.201712	0.073053	0.057286	0.249649	0.211724	0.176709	0.230623	0.348317	0.160029	0.078928	0.057192	0.222585	0.281691	0.167288	0.119411	0.263804	0.115121	0.261138	0.103114	0.272307	0.139451	0.162386	0.199544	0.172308	0.213306	0.087865	0.068022	0.720842	0.317132	0.042620	0.023451	0.153472	0.223292	0.078008	0.035743	0.291727	0.180028	0.121432	0.285806	0.182209	0.242711	0.265313	0.283493	0.446280	0.550305	0.110578	0.104517	0.201361	0.156975	0.063953	0.052916	0.130806	0.333772	0.480596	0.310575	0.107951	0.139205
18	0.046466	0.038088	0.313755	0.247081	0.126126	0.091232	0.188344	0.238417	0.056693	0.042804	0.215878	0.193460	0.170989	0.210917	0.415609	0.159849	0.104380	0.061079	0.174042	0.262241	0.173490	0.117099	0.260836	0.107092	0.256418	0.094909	0.276088	0.140590	0.148436	0.203298	0.204698	0.222284	0.087012	0.066709	0.712589	0.315573	0.042621	0.052335	0.161422	0.234784	0.029027	0.018162	0.179513	0.184811	0.122653	0.286629	0.148919	0.238689	0.187017	0.262903	0.417709	0.529849	0.112269	0.105086	0.261121	0.144821	0.134828	0.107082	0.135834	0.314381	0.468149	0.354572	0.144877	0.131945
19	0.046688	0.036863	0.310478	0.239229	0.129644	0.086640	0.123723	0.288405	0.095396	0.080325	0.174156	0.196360	0.175393	0.206476	0.475631	0.168007	0.125587	0.076587	0.134418	0.250261	0.175252	0.124988	0.249004	0.095407	0.256399	0.086290	0.290944	0.138644	0.154256	0.209173	0.217564	0.222518	0.087451	0.066962	0.682272	0.314578	0.043793	0.078401	0.156366	0.253665	0.026812	0.015445	0.179065	0.196793	0.124903	0.285886	0.140228	0.234617	0.140625	0.258384	0.333583	0.385579	0.112224	0.106541	0.275963	0.155546	0.196285	0.138451	0.140933	0.314145	0.465572	0.359127	0.202261	0.114238
20	0.050989	0.037163	0.291059	0.228107	0.125044	0.094830	0.211499	0.312362	0.132879	0.104700	0.210742	0.209839	0.165852	0.163852	0.503832	0.187010	0.126771	0.075194	0.106355	0.249336	0.182515	0.144744	0.252954	0.098377	0.259899	0.093547	0.304944	0.123070	0.156467	0.173275	0.223791	0.216512	0.088017	0.071022	0.651683	0.319681	0.042302	0.092761	0.145935	0.268759	0.031868	0.018161	0.206925	0.230897	0.126121	0.284060	0.144796	0.233503	0.157480	0.223034	0.278579	0.278634	0.116563	0.108812	0.263665	0.150655	0.247765	0.149810	0.145377	0.318593	0.465264	0.381345	0.230559	0.104118
21	0.056511	0.035512	0.266927	0.226455	0.133449	0.170084	0.261558	0.323366	0.145515	0.106407	0.230025	0.234155	0.144363	0.128293	0.503461	0.209368	0.134748	0.076240	0.095602	0.236934	0.182772	0.154096	0.251333	0.099578	0.265078	0.098725	0.317047	0.118958	0.203750	0.161862	0.256418	0.201786	0.092503	0.084344	0.642225	0.330773	0.040684	0.093298	0.149855	0.268818	0.041724	0.026992	0.248070	0.266308	0.125539	0.283516	0.137397	0.206929	0.168114	0.158584	0.274664	0.272484	0.119540	0.114001	0.293078	0.154673	0.268684	0.151545	0.143861	0.302854	0.459199	0.385949	0.233538	0.104253
22	0.056109	0.035741	0.262154	0.229040	0.132344	0.176841	0.266413	0.322362	0.145734	0.106583	0.230966	0.237671	0.135681	0.118605	0.504475	0.227006	0.201603	0.111689	0.101852	0.215100	0.179907	0.155141	0.239726	0.110349	0.258255	0.094053	0.321379	0.120677	0.300818	0.197844	0.252634	0.206455	0.097287	0.089963	0.652741	0.343769	0.038551	0.094587	0.154576	0.262947	0.040583	0.027026	0.244943	0.256630	0.116341	0.260480	0.119517	0.150320	0.288841	0.199083	0.275012	0.259412	0.177691	0.154423	0.306236	0.160836	0.335688	0.191072	0.130801	0.262247	0.425298	0.400672	0.232285	0.102817
23	0.055101	0.037594	0.278386	0.264826	0.133975	0.235067	0.261734	0.320591	0.152402	0.116005	0.270705	0.230792	0.135864	0.119783	0.501726	0.221316	0.260121	0.132180	0.109020	0.189220	0.171994	0.155382	0.248190	0.192234	0.251050	0.097157	0.302753	0.117437	0.380649	0.206981	0.242550	0.194351	0.114427	0.090517	0.643190	0.344932	0.030706	0.103330	0.148622	0.258423	0.045054	0.026806	0.232612	0.243122	0.084465	0.178769	0.136777	0.137552	0.315490	0.211287	0.238472	0.214925	0.194696	0.151090	0.305648	0.163755	0.410930	0.220180	0.125098	0.230470	0.386645	0.404329	0.227045	0.103823
24	0.054933	0.041592	0.298703	0.281631	0.188335	0.266504	0.259320	0.306905	0.162324	0.126761	0.297925	0.209989	0.132298	0.122381	0.479287	0.208879	0.271843	0.134888	0.126582	0.165045	0.165165	0.154698	0.280711	0.254750	0.231787	0.108303	0.259573	0.120722	0.443320	0.253400	0.258889	0.167252	0.119296	0.094895	0.571810	0.327525	0.028680	0.114693	0.136977	0.257612	0.046027	0.028510	0.226846	0.246773	0.073711	0.171522	0.153005	0.131830	0.316138	0.210150	0.181378	0.170113	0.190568	0.150469	0.306674	0.164043	0.428135	0.226359	0.149574	0.240101	0.372011	0.404377	0.226625	0.099850
25	0.056829	0.046349	0.307503	0.265646	0.340028	0.325195	0.266478	0.276101	0.172702	0.137728	0.308809	0.200897	0.114873	0.120804	0.447254	0.204198	0.306481	0.150747	0.154212	0.158042	0.156827	0.149631	0.269521	0.261017	0.219664	0.117349	0.218219	0.138030	0.538506	0.322660	0.257357	0.133384	0.207265	0.138417	0.447835	0.301791	0.033097	0.122266	0.137642	0.229565	0.045988	0.029602	0.235486	0.248088	0.069644	0.165778	0.154162	0.108301	0.317974	0.209496	0.123061	0.157762	0.193433	0.140404	0.307511	0.156558	0.431809	0.226696	0.183780	0.248756	0.365469	0.397642	0.229731	0.120369
26	0.065765	0.049033	0.331972	0.241720	0.469532	0.355888	0.276038	0.280119	0.178381	0.137730	0.316814	0.195360	0.084272	0.096022	0.419733	0.205656	0.322952	0.159522	0.160325	0.151552	0.151686	0.144167	0.261159	0.268298	0.195448	0.116573	0.200572	0.139597	0.604836	0.343952	0.263116	0.111158	0.286669	0.168208	0.354796	0.287361	0.033927	0.137720	0.176844	0.190238	0.046464	0.034693	0.262827	0.252637	0.070923	0.156785	0.154401	0.076823	0.316740	0.207635	0.088665	0.150168	0.340296	0.161110	0.305052	0.143962	0.433647	0.228005	0.218725	0.250310	0.263705	0.373295	0.240345	0.132208
27	0.111131	0.049421	0.351695	0.230856	0.478112	0.368794	0.277830	0.258625	0.178984	0.138121	0.316403	0.196326	0.082354	0.091231	0.406487	0.204884	0.324093	0.163692	0.164237	0.148141	0.144297	0.134618	0.279023	0.283260	0.185778	0.116537	0.196486	0.138792	0.628614	0.340311	0.281808	0.105186	0.292126	0.173154	0.319707	0.284518	0.040474	0.156518	0.200589	0.192586	0.045412	0.036535	0.269547	0.253091	0.080185	0.165601	0.154404	0.055331	0.312749	0.205836	0.087514	0.127860	0.462915	0.174394	0.284596	0.153801	0.438599	0.229156	0.237493	0.250368	0.123673	0.365441	0.248437	0.129161
28	0.120324	0.060822	0.346645	0.225231	0.542174	0.406699	0.278402	0.209503	0.178211	0.146375	0.301749	0.204577	0.111636	0.115204	0.391183	0.205950	0.325996	0.167678	0.184777	0.148457	0.134518	0.125811	0.278759	0.296156	0.197448	0.120577	0.198463	0.141443	0.629304	0.336121	0.287016	0.108252	0.300943	0.181328	0.311371	0.288589	0.056237	0.155522	0.200115	0.171875	0.043454	0.036221	0.256377	0.253245	0.089034	0.185990	0.154803	0.055331	0.312110	0.205556	0.086898	0.120113	0.463720	0.181602	0.233678	0.149619	0.440160	0.229223	0.241695	0.236736	0.087480	0.355416	0.246704	0.127735
29	0.138620	0.074351	0.339632	0.224104	0.686440	0.438703	0.225664	0.170501	0.153888	0.161908	0.266565	0.183419	0.145052	0.140635	0.321794	0.209596	0.321074	0.167598	0.203321	0.148777	0.128066	0.122402	0.277951	0.306035	0.201036	0.121404	0.209576	0.165036	0.625255	0.328704	0.301081	0.110748	0.301091	0.181575	0.338673	0.297090	0.059207	0.147620	0.198844	0.147797	0.043310	0.035087	0.220525	0.228776	0.092798	0.200708	0.156555	0.131455	0.311903	0.205562	0.106915	0.119905	0.465337	0.185126	0.221062	0.132309	0.444346	0.231164	0.244359	0.222897	0.089246	0.280658	0.244048	0.130774
30	0.153728	0.080503	0.347978	0.227866	0.690087	0.416745	0.154123	0.143158	0.141311	0.170743	0.246670	0.129170	0.175163	0.150809	0.239675	0.212933	0.327881	0.177042	0.209490	0.157792	0.120845	0.126786	0.278007	0.314866	0.202596	0.121499	0.219057	0.202537	0.596417	0.309752	0.290610	0.097213	0.301499	0.182169	0.384164	0.305142	0.060008	0.144495	0.190348	0.135653	0.040555	0.029897	0.177844	0.201092	0.095653	0.210232	0.183617	0.247067	0.311496	0.205492	0.135038	0.115991	0.464930	0.186503	0.203547	0.120529	0.444186	0.232253	0.270127	0.231826	0.088304	0.236778	0.219288	0.130447
31	0.153221	0.080259	0.355641	0.240369	0.692722	0.413145	0.152591	0.138570	0.143630	0.178146	0.261139	0.135594	0.211589	0.152536	0.218715	0.203321	0.343562	0.186757	0.214830	0.180078	0.113918	0.131687	0.279671	0.318974	0.205284	0.124544	0.227750	0.239440	0.540275	0.291811	0.289243	0.085337	0.302221	0.182687	0.410525	0.307433	0.060064	0.144709	0.188803	0.136998	0.069461	0.038029	0.182536	0.198869	0.097319	0.211759	0.218487	0.284863	0.308995	0.204149	0.145584	0.115268	0.464800	0.202608	0.121798	0.113807	0.443771	0.231726	0.326091	0.255243	0.087740	0.232748	0.172923	0.129232
32	0.154167	0.079316	0.370002	0.255220	0.697003	0.386322	0.158084	0.141882	0.139368	0.174695	0.236977	0.148249	0.225786	0.175687	0.223536	0.181766	0.346671	0.185159	0.217250	0.193817	0.102193	0.116170	0.261090	0.316786	0.213816	0.135818	0.251926	0.266658	0.505318	0.290025	0.281120	0.085598	0.309370	0.187721	0.415509	0.306061	0.060384	0.140839	0.201453	0.147000	0.072466	0.037596	0.194957	0.283593	0.098644	0.214182	0.241885	0.286668	0.301662	0.202407	0.146352	0.120782	0.444994	0.178736	0.091205	0.110533	0.433108	0.216885	0.359046	0.268730	0.081573	0.190326	0.145310	0.132738
33	0.151692	0.077455	0.395187	0.257577	0.686986	0.366056	0.153973	0.150833	0.127910	0.166456	0.219294	0.175749	0.334502	0.255781	0.224678	0.161085	0.328180	0.170359	0.215926	0.185647	0.082690	0.095703	0.256998	0.312964	0.223118	0.145000	0.284460	0.282133	0.369658	0.196642	0.266344	0.093062	0.310900	0.189670	0.411571	0.306565	0.059796	0.136267	0.208912	0.155871	0.073342	0.037593	0.376187	0.462076	0.101156	0.241459	0.246405	0.301490	0.287592	0.202080	0.147822	0.128170	0.439649	0.178873	0.089354	0.111483	0.411085	0.195998	0.358976	0.270775	0.083255	0.179395	0.150331	0.148730
34	0.151710	0.076669	0.410815	0.237905	0.630709	0.316312	0.146972	0.153061	0.113456	0.156708	0.230306	0.181475	0.369461	0.290826	0.220481	0.140447	0.322652	0.162772	0.206665	0.193531	0.063168	0.087348	0.275447	0.313239	0.231346	0.150228	0.289873	0.288026	0.274861	0.127147	0.269942	0.093912	0.310874	0.189211	0.405334	0.317020	0.056173	0.123039	0.211796	0.156416	0.083041	0.045381	0.525012	0.556918	0.104139	0.255310	0.268325	0.337260	0.280470	0.196522	0.147816	0.125567	0.446313	0.180822	0.084652	0.111591	0.382067	0.183847	0.389494	0.350096	0.084590	0.118676	0.173324	0.154502
35	0.152896	0.075141	0.402374	0.193802	0.537122	0.277892	0.127489	0.147408	0.105447	0.154339	0.268475	0.185337	0.443180	0.319316	0.224825	0.133657	0.324302	0.158796	0.191273	0.203089	0.058158	0.083993	0.275969	0.293306	0.230805	0.146272	0.277240	0.286891	0.127722	0.099773	0.222169	0.113910	0.309478	0.184300	0.399032	0.343533	0.056358	0.121307	0.211201	0.150759	0.126842	0.071349	0.559868	0.568353	0.105516	0.241169	0.283669	0.374069	0.089842	0.063099	0.137496	0.124107	0.443689	0.200046	0.085947	0.106279	0.360298	0.182857	0.437487	0.449740	0.078806	0.112224	0.189492	0.152386
36	0.154614	0.072687	0.386713	0.177801	0.524475	0.264614	0.118977	0.139475	0.093785	0.153819	0.452319	0.237096	0.452023	0.320213	0.266124	0.133680	0.305934	0.153789	0.166431	0.206918	0.052971	0.086273	0.239463	0.226605	0.226238	0.147117	0.269932	0.289665	0.107662	0.106420	0.197516	0.170735	0.309079	0.181270	0.383353	0.348745	0.054068	0.087616	0.185048	0.149099	0.134873	0.076374	0.557858	0.576293	0.104960	0.243160	0.306021	0.392515	0.078684	0.043328	0.138828	0.128885	0.285492	0.190240	0.086554	0.093002	0.338679	0.166994	0.495847	0.558932	0.073665	0.125848	0.190052	0.151287
37	0.154099	0.071212	0.365461	0.186118	0.467478	0.206029	0.110118	0.124329	0.088722	0.156601	0.549345	0.257533	0.452724	0.319074	0.276802	0.131406	0.285099	0.145896	0.157406	0.210709	0.057061	0.103532	0.200242	0.200851	0.244292	0.166488	0.286753	0.312353	0.100754	0.106085	0.157396	0.224780	0.304674	0.180690	0.357806	0.337076	0.044930	0.060480	0.160008	0.148840	0.135071	0.077453	0.574077	0.613950	0.104628	0.248326	0.314983	0.397542	0.074945	0.037031	0.152304	0.144162	0.133922	0.190707	0.077545	0.074359	0.233149	0.135041	0.541267	0.606715	0.068089	0.149215	0.207800	0.149606
38	0.134668	0.070130	0.316778	0.199322	0.187257	0.100317	0.115181	0.143661	0.080404	0.132315	0.555136	0.256038	0.453153	0.319119	0.276866	0.128684	0.303811	0.163627	0.169190	0.229363	0.058882	0.110965	0.196718	0.197468	0.255128	0.174827	0.302356	0.341969	0.157062	0.137494	0.166853	0.238394	0.303679	0.179816	0.328139	0.332655	0.026141	0.039370	0.159477	0.135946	0.137516	0.080217	0.675557	0.631993	0.096987	0.242123	0.314397	0.402295	0.055798	0.030762	0.159352	0.146062	0.175246	0.204150	0.097446	0.067032	0.199965	0.131396	0.567975	0.604635	0.064088	0.156204	0.223316	0.161832
39	0.117049	0.068492	0.283424	0.266523	0.165222	0.088662	0.147681	0.195348	0.059598	0.125557	0.619982	0.262868	0.451709	0.315874	0.276814	0.126181	0.303706	0.164430	0.237213	0.257373	0.068477	0.111263	0.175669	0.177515	0.243010	0.170069	0.304423	0.382396	0.172607	0.138307	0.234472	0.239448	0.283907	0.161528	0.307428	0.333697	0.041629	0.061649	0.159696	0.122124	0.142876	0.089972	0.770857	0.651753	0.084956	0.228027	0.315909	0.428698	0.048184	0.032773	0.161509	0.147129	0.225307	0.206607	0.144437	0.079645	0.188023	0.134688	0.564537	0.603325	0.057628	0.157919	0.233805	0.171531
40	0.101769	0.054158	0.281677	0.295141	0.149794	0.083583	0.169052	0.226462	0.055067	0.118563	0.634982	0.255487	0.441967	0.304963	0.280941	0.126010	0.304181	0.165562	0.323970	0.278248	0.088874	0.129787	0.158198	0.155373	0.234967	0.170515	0.304290	0.416229	0.186653	0.139228	0.243359	0.246767	0.151609	0.104221	0.298738	0.336485	0.100618	0.098996	0.158402	0.120161	0.141048	0.097495	0.827337	0.682738	0.069121	0.206226	0.329989	0.454059	0.049757	0.041555	0.167182	0.155760	0.315912	0.214180	0.155772	0.102413	0.190138	0.138945	0.553535	0.623123	0.053141	0.158106	0.243520	0.168638
41	0.063833	0.035070	0.275138	0.296846	0.125227	0.079154	0.179923	0.227490	0.059405	0.118498	0.635431	0.261015	0.432194	0.298272	0.287237	0.121872	0.293475	0.155186	0.437340	0.319128	0.111463	0.165555	0.158029	0.136883	0.232683	0.171700	0.306677	0.429479	0.199590	0.143801	0.243235	0.272524	0.139589	0.096363	0.306457	0.325605	0.153804	0.125212	0.165080	0.119127	0.142112	0.102290	0.824764	0.639827	0.061043	0.190008	0.349012	0.431550	0.056550	0.049348	0.169621	0.147942	0.319426	0.197248	0.156805	0.108475	0.178873	0.136225	0.577291	0.656224	0.046526	0.152180	0.244967	0.166852
42	0.056945	0.035179	0.333896	0.321382	0.115865	0.078533	0.186337	0.237158	0.061070	0.119470	0.639127	0.323186	0.413895	0.297967	0.244890	0.101847	0.272807	0.138898	0.466287	0.351469	0.121704	0.173820	0.161326	0.119721	0.230066	0.171248	0.308043	0.430532	0.274822	0.168693	0.235875	0.289782	0.110631	0.071968	0.362463	0.320397	0.235057	0.152089	0.190122	0.135094	0.143713	0.104506	0.741097	0.528991	0.054982	0.182184	0.359214	0.385233	0.088528	0.057846	0.154150	0.143813	0.327868	0.216477	0.195122	0.103040	0.176664	0.136457	0.613892	0.691417	0.048636	0.152150	0.243616	0.178792
43	0.057267	0.039054	0.412268	0.340127	0.114207	0.078652	0.212755	0.240018	0.061391	0.122173	0.649267	0.400735	0.411494	0.305695	0.217922	0.104345	0.265036	0.142086	0.484443	0.345817	0.133315	0.192615	0.209366	0.131363	0.216109	0.169288	0.308406	0.430346	0.323016	0.177329	0.255207	0.298962	0.107158	0.068611	0.392316	0.328753	0.255059	0.155556	0.234006	0.153464	0.136307	0.100352	0.651459	0.448709	0.043987	0.180785	0.349586	0.379334	0.147336	0.077422	0.135607	0.153728	0.340406	0.228502	0.221093	0.098687	0.175647	0.140442	0.652377	0.729674	0.050459	0.156631	0.241873	0.187944
44	0.051003	0.038949	0.443769	0.332149	0.109873	0.073954	0.221796	0.235944	0.060257	0.123624	0.665015	0.431890	0.348105	0.290579	0.215810	0.138190	0.259838	0.148915	0.539890	0.368150	0.139478	0.211685	0.296848	0.210741	0.214960	0.169516	0.308615	0.424080	0.376048	0.207997	0.283552	0.283415	0.105340	0.066915	0.356108	0.322533	0.301070	0.185072	0.246618	0.155432	0.092906	0.083867	0.632008	0.441974	0.045619	0.178586	0.344528	0.387361	0.168488	0.080506	0.152627	0.210029	0.430419	0.247101	0.228320	0.103045	0.179259	0.144150	0.704735	0.762686	0.048526	0.156311	0.241709	0.184077
45	0.055998	0.038613	0.442760	0.338069	0.095706	0.061145	0.225709	0.255970	0.060229	0.124390	0.601281	0.423275	0.307991	0.264218	0.220237	0.164438	0.230681	0.143244	0.596255	0.394585	0.139220	0.213911	0.411147	0.278530	0.213545	0.169331	0.309336	0.416084	0.400070	0.215737	0.287068	0.244088	0.104437	0.066580	0.318644	0.326194	0.311831	0.208182	0.233815	0.155893	0.090077	0.081990	0.634539	0.414741	0.042372	0.134813	0.338280	0.376953	0.231689	0.147975	0.194851	0.254660	0.438192	0.229649	0.246162	0.114926	0.183587	0.147994	0.742339	0.782536	0.044627	0.148483	0.235092	0.171561
46	0.082384	0.045499	0.431307	0.369638	0.079788	0.046979	0.241803	0.283525	0.054269	0.113752	0.487128	0.400327	0.189742	0.225732	0.230754	0.173016	0.182021	0.145066	0.623255	0.384189	0.139192	0.212522	0.512839	0.316732	0.209650	0.165933	0.301178	0.423658	0.406222	0.213112	0.277538	0.211227	0.085444	0.056579	0.307808	0.354564	0.476413	0.274816	0.251062	0.164565	0.090293	0.090383	0.609158	0.349585	0.038145	0.119004	0.329244	0.342970	0.293237	0.202626	0.290461	0.311877	0.444022	0.283506	0.248663	0.133070	0.185677	0.151209	0.752566	0.782202	0.040942	0.142832	0.220763	0.170459
47	0.077338	0.043840	0.469156	0.412983	0.070773	0.039867	0.250533	0.279044	0.050740	0.096871	0.480392	0.430605	0.142273	0.251562	0.194910	0.174042	0.177659	0.140127	0.638494	0.403186	0.138262	0.211094	0.537029	0.320337	0.200559	0.157469	0.273151	0.452452	0.383396	0.194811	0.225632	0.205447	0.071558	0.046749	0.336219	0.386031	0.479552	0.276067	0.259113	0.181274	0.082355	0.088888	0.489626	0.329640	0.036118	0.115752	0.332410	0.305862	0.403668	0.245090	0.386933	0.390073	0.468918	0.332423	0.248346	0.136216	0.187416	0.154394	0.764353	0.780281	0.042503	0.143935	0.215322	0.170604
48	0.076816	0.044551	0.562714	0.454051	0.068770	0.050710	0.235083	0.258058	0.050845	0.066064	0.419248	0.471860	0.136983	0.252549	0.176763	0.191498	0.173189	0.138114	0.643187	0.437416	0.139682	0.211498	0.540047	0.335841	0.189455	0.150634	0.256842	0.494000	0.374593	0.193564	0.197617	0.210324	0.072739	0.048915	0.392560	0.409322	0.479437	0.275264	0.271074	0.190345	0.067994	0.078359	0.356613	0.337662	0.035516	0.075830	0.318258	0.286366	0.415968	0.254520	0.442404	0.419380	0.451987	0.343621	0.246252	0.163984	0.187769	0.156059	0.762902	0.753892	0.047426	0.131242	0.213144	0.160369
49	0.076769	0.043311	0.609381	0.469300	0.070102	0.051799	0.232292	0.281444	0.058853	0.064308	0.385868	0.486911	0.131965	0.253169	0.196606	0.213560	0.134054	0.113073	0.645731	0.457564	0.141489	0.207672	0.594139	0.379462	0.176408	0.143852	0.290518	0.520399	0.371250	0.191457	0.217491	0.190388	0.079419	0.058273	0.447542	0.419885	0.476588	0.267797	0.283215	0.191049	0.058364	0.068394	0.271523	0.307489	0.039956	0.062674	0.316025	0.282186	0.418532	0.260109	0.489092	0.418269	0.422916	0.405946	0.255512	0.202590	0.187727	0.156843	0.738581	0.706137	0.054585	0.115365	0.183131	0.143844
50	0.077065	0.041912	0.620859	0.447456	0.076147	0.052232	0.252160	0.321034	0.054787	0.060907	0.382151	0.489266	0.123713	0.253982	0.201881	0.217383	0.123771	0.102423	0.642475	0.456555	0.147199	0.205792	0.664998	0.408350	0.173672	0.145304	0.330495	0.525334	0.359760	0.199721	0.225193	0.148514	0.080466	0.059892	0.472369	0.433690	0.464356	0.253903	0.282783	0.192404	0.057783	0.071668	0.256285	0.287862	0.042507	0.062251	0.318123	0.269438	0.418644	0.261621	0.500864	0.412823	0.367493	0.401210	0.265100	0.208544	0.185942	0.152403	0.707654	0.648711	0.056853	0.111689	0.143983	0.125742
51	0.077516	0.041474	0.625263	0.417110	0.081442	0.054334	0.260538	0.324557	0.063086	0.067414	0.384596	0.455557	0.118211	0.253538	0.207569	0.218975	0.119193	0.098351	0.622810	0.455689	0.151502	0.206301	0.736148	0.423061	0.172554	0.139307	0.334585	0.521198	0.376813	0.286118	0.209224	0.126630	0.079310	0.060113	0.478253	0.431948	0.444125	0.241789	0.266851	0.191450	0.059691	0.081152	0.260231	0.286204	0.043494	0.057941	0.331395	0.215061	0.419811	0.265265	0.506317	0.411060	0.370436	0.398288	0.262994	0.204776	0.156857	0.131608	0.695710	0.641623	0.057595	0.099827	0.117887	0.114773
52	0.076406	0.040736	0.630440	0.414272	0.086270	0.058130	0.236759	0.321245	0.070839	0.071282	0.357351	0.381670	0.115688	0.253278	0.206700	0.222770	0.117547	0.097646	0.559752	0.462072	0.154870	0.227786	0.779706	0.427532	0.142205	0.115325	0.317403	0.541654	0.351329	0.287034	0.169668	0.127714	0.065811	0.059433	0.479980	0.497922	0.412402	0.229886	0.237741	0.203029	0.059089	0.084197	0.275756	0.295557	0.044146	0.058329	0.332642	0.165033	0.422820	0.270369	0.526587	0.425398	0.367318	0.386953	0.231787	0.207796	0.130720	0.113446	0.734953	0.686065	0.080235	0.105390	0.098621	0.113377
53	0.074429	0.039459	0.620879	0.408603	0.076079	0.056044	0.224929	0.320568	0.071536	0.067795	0.310955	0.344008	0.114712	0.251535	0.205026	0.225502	0.108416	0.092767	0.520261	0.448243	0.158963	0.307157	0.789054	0.429385	0.126048	0.099066	0.341224	0.670954	0.298606	0.274966	0.199824	0.139021	0.063311	0.058750	0.484971	0.606474	0.407408	0.226026	0.226026	0.223335	0.059263	0.094095	0.301404	0.328757	0.044145	0.055599	0.314734	0.161032	0.427372	0.276918	0.541282	0.472026	0.334457	0.376925	0.225237	0.214441	0.123262	0.105347	0.821122	0.725697	0.086732	0.112898	0.097218	0.105597
54	0.070530	0.034127	0.563610	0.377026	0.070124	0.065351	0.225581	0.304988	0.072458	0.068031	0.256469	0.330047	0.108727	0.240702	0.209971	0.221893	0.104946	0.087430	0.512899	0.448920	0.158392	0.356689	0.792182	0.429220	0.110255	0.082878	0.424747	0.839296	0.516868	0.420140	0.229696	0.137468	0.062809	0.057608	0.483101	0.651238	0.368837	0.198842	0.229026	0.225567	0.061553	0.094436	0.301018	0.338548	0.044073	0.054173	0.278808	0.141252	0.431871	0.282920	0.565489	0.525555	0.216404	0.366490	0.234920	0.217920	0.118536	0.099201	0.894678	0.723115	0.087537	0.108459	0.096108	0.079929
55	0.069725	0.031865	0.516025	0.364958	0.071541	0.090237	0.210055	0.281131	0.092273	0.093147	0.246897	0.343225	0.096156	0.191319	0.212070	0.202350	0.097595	0.079859	0.496976	0.459232	0.152747	0.368277	0.786930	0.426833	0.094541	0.072130	0.517614	0.928403	0.514421	0.450750	0.243919	0.148855	0.063535	0.057989	0.485251	0.660521	0.303468	0.145137	0.218781	0.228938	0.061032	0.089893	0.367766	0.440057	0.043944	0.049848	0.259491	0.103709	0.424576	0.281611	0.600498	0.570658	0.211179	0.364364	0.221390	0.212132	0.116819	0.099848	0.930788	0.697543	0.087987	0.104902	0.093211	0.059621
56	0.070352	0.031427	0.483291	0.364974	0.081578	0.120538	0.204983	0.279345	0.102993	0.103922	0.238332	0.332738	0.082922	0.160371	0.206377	0.176757	0.086972	0.072955	0.547030	0.478322	0.158830	0.446772	0.766681	0.436263	0.088908	0.071588	0.600259	0.943477	0.520295	0.456539	0.251047	0.143136	0.067668	0.060480	0.477450	0.660442	0.053091	0.111602	0.198554	0.246253	0.059822	0.126520	0.616671	0.538480	0.039746	0.038546	0.255308	0.065683	0.408790	0.278260	0.643606	0.592662	0.187468	0.302570	0.220523	0.221206	0.120316	0.104197	0.916864	0.667484	0.087930	0.103864	0.097774	0.057192
57	0.047080	0.023363	0.479048	0.349656	0.256041	0.188501	0.240821	0.280431	0.100534	0.102515	0.203677	0.261757	0.074034	0.229210	0.189385	0.165835	0.075213	0.063757	0.597996	0.492861	0.163828	0.466720	0.726599	0.434378	0.094546	0.075544	0.666463	0.946737	0.520451	0.457243	0.266244	0.141256	0.073303	0.063933	0.452963	0.649218	0.069507	0.221832	0.191842	0.268893	0.057705	0.148664	0.693806	0.510919	0.036076	0.028177	0.256435	0.033115	0.404205	0.275409	0.681324	0.580696	0.144422	0.273975	0.226429	0.245230	0.113342	0.099679	0.892309	0.632107	0.089251	0.102538	0.097561	0.055390
58	0.025739	0.016829	0.497638	0.412580	0.329227	0.195718	0.262456	0.238393	0.095326	0.099779	0.206290	0.206066	0.085287	0.267287	0.180820	0.163842	0.073421	0.064891	0.667270	0.523336	0.165650	0.472059	0.650612	0.411075	0.099161	0.079330	0.692058	0.970267	0.520437	0.455613	0.255470	0.153128	0.077135	0.068050	0.449770	0.650753	0.103605	0.428967	0.167694	0.278114	0.067032	0.155467	0.693392	0.526122	0.034621	0.027351	0.238647	0.031977	0.360889	0.236481	0.698198	0.562480	0.144712	0.232829	0.209552	0.240638	0.102470	0.092028	0.858078	0.625339	0.089793	0.102386	0.090858	0.048152
59	0.031720	0.022759	0.482936	0.520804	0.334378	0.260038	0.246324	0.176253	0.101165	0.101720	0.227721	0.205515	0.088982	0.290631	0.174072	0.149617	0.078531	0.067025	0.683539	0.566037	0.166140	0.473733	0.596625	0.399645	0.103062	0.084003	0.689748	0.997154	0.479572	0.415798	0.255150	0.152924	0.079524	0.070318	0.450651	0.665162	0.109388	0.439543	0.154100	0.279177	0.065931	0.158658	0.758996	0.605512	0.036496	0.030652	0.200101	0.059017	0.292621	0.192096	0.669984	0.538033	0.156008	0.142423	0.184262	0.215615	0.094543	0.084091	0.816677	0.653711	0.088909	0.105244	0.082425	0.063738
60	0.049343	0.036320	0.454652	0.545158	0.571690	0.398267	0.234139	0.142630	0.098979	0.097542	0.223084	0.221268	0.091734	0.300618	0.151267	0.110974	0.091981	0.069485	0.692477	0.572921	0.164349	0.472887	0.597853	0.400018	0.103527	0.085007	0.713026	1.009434	0.451922	0.397812	0.258287	0.150509	0.082070	0.072549	0.451949	0.669271	0.115795	0.571963	0.158236	0.326244	0.083129	0.158996	0.890281	0.670654	0.040284	0.036913	0.197817	0.105887	0.175932	0.158500	0.626354	0.490266	0.238360	0.156422	0.165436	0.205656	0.088024	0.079041	0.799128	0.686327	0.087486	0.109497	0.089641	0.088285
61	0.067031	0.051619	0.457144	0.559480	0.677684	0.433898	0.242104	0.128354	0.093226	0.090158	0.208991	0.230440	0.100014	0.321023	0.142119	0.104780	0.101923	0.080032	0.704512	0.575995	0.161641	0.472388	0.579712	0.380850	0.105074	0.086119	0.792247	1.011843	0.450912	0.397650	0.239048	0.160965	0.084095	0.074667	0.440133	0.652397	0.132232	0.648203	0.169511	0.373628	0.100274	0.154382	0.954808	0.685940	0.035600	0.039220	0.212441	0.143565	0.136868	0.137799	0.588534	0.479006	0.238476	0.163252	0.164232	0.218937	0.080826	0.071162	0.830055	0.724658	0.082424	0.104433	0.086816	0.088303
62	0.077601	0.060499	0.465863	0.574403	0.679751	0.434695	0.242005	0.130802	0.091840	0.088795	0.243679	0.213171	0.116299	0.385913	0.152211	0.135287	0.110880	0.093058	0.686593	0.580852	0.155892	0.470006	0.515446	0.361270	0.111544	0.092524	0.852566	1.004197	0.276564	0.304390	0.206977	0.188189	0.083091	0.073317	0.401072	0.631079	0.130489	0.650323	0.167056	0.357098	0.104761	0.151393	0.960772	0.677051	0.033965	0.039585	0.219293	0.154384	0.144123	0.139278	0.566473	0.480519	0.254150	0.270918	0.165288	0.237214	0.077039	0.065359	0.888581	0.751370	0.081691	0.104602	0.121573	0.096414
63	0.079839	0.062716	0.458271	0.583970	0.685506	0.434184	0.239679	0.128706	0.092891	0.089709	0.273498	0.215168	0.121517	0.408358	0.160246	0.162256	0.117972	0.101554	0.677484	0.585793	0.149233	0.468859	0.418252	0.347066	0.116764	0.098014	0.864567	0.983240	0.157036	0.230390	0.180143	0.191994	0.077940	0.068267	0.345032	0.606824	0.130112	0.652449	0.160230	0.356469	0.102662	0.154272	0.959991	0.663228	0.032396	0.047046	0.187989	0.156262	0.152833	0.142613	0.599332	0.504451	0.287663	0.465266	0.153664	0.234322	0.076441	0.064444	0.933751	0.753354	0.079972	0.105561	0.158555	0.126364
64	0.082529	0.065119	0.467863	0.662663	0.688188	0.430785	0.238313	0.123787	0.085901	0.073827	0.290211	0.214343	0.120101	0.412023	0.167015	0.168434	0.120071	0.104182	0.706996	0.662434	0.142122	0.466225	0.293521	0.337603	0.123305	0.107027	0.864190	0.974582	0.150259	0.257584	0.182422	0.191292	0.069705	0.062106	0.304125	0.581360	0.129618	0.653256	0.160590	0.375629	0.102021	0.151504	0.895417	0.579733	0.031749	0.075165	0.163957	0.167031	0.151090	0.135308	0.663821	0.528501	0.299558	0.501182	0.126563	0.233320	0.079315	0.067737	0.937455	0.743032	0.054442	0.104034	0.167448	0.141894
65	0.085519	0.070100	0.506347	0.728374	0.692027	0.438816	0.231381	0.117450	0.063364	0.044762	0.286841	0.208331	0.119238	0.412964	0.163351	0.170531	0.121078	0.103191	0.787632	0.764317	0.122752	0.426320	0.241914	0.336026	0.127449	0.114224	0.868832	0.983954	0.161867	0.330252	0.144543	0.189828	0.072254	0.062481	0.287808	0.572922	0.129861	0.655065	0.198797	0.379588	0.101606	0.110791	0.751956	0.512529	0.031607	0.084026	0.156480	0.180657	0.156168	0.131261	0.695368	0.523392	0.302195	0.589529	0.126958	0.230444	0.104697	0.080118	0.925754	0.705654	0.048691	0.096870	0.179233	0.142944
66	0.092837	0.084451	0.525673	0.748399	0.663590	0.447108	0.195566	0.094383	0.061064	0.038601	0.288334	0.217730	0.116274	0.412338	0.159536	0.189682	0.130792	0.110474	0.814839	0.769189	0.101256	0.361277	0.229453	0.337179	0.126837	0.116389	0.875731	1.002767	0.160206	0.333481	0.122046	0.175105	0.074330	0.066075	0.288070	0.545234	0.125401	0.640877	0.248658	0.358133	0.100539	0.096601	0.705736	0.530735	0.031802	0.090663	0.168658	0.189760	0.138962	0.111803	0.702643	0.479887	0.304133	0.645159	0.135995	0.211096	0.170567	0.096491	0.887884	0.657560	0.044083	0.100753	0.201925	0.152231
67	0.094614	0.087507	0.534247	0.750197	0.629184	0.446696	0.151372	0.079938	0.064320	0.038262	0.277017	0.236758	0.108244	0.412106	0.167773	0.200399	0.157686	0.132917	0.746160	0.746319	0.100402	0.405798	0.227087	0.336358	0.126527	0.115696	0.880026	0.995094	0.155206	0.354775	0.121272	0.171999	0.074370	0.066855	0.282665	0.441673	0.110964	0.578291	0.263151	0.338203	0.094620	0.076421	0.699606	0.493179	0.041207	0.115487	0.186498	0.192317	0.123714	0.101240	0.686163	0.425641	0.295950	0.638313	0.122570	0.177520	0.181753	0.100058	0.812374	0.617671	0.043377	0.113036	0.222459	0.192909
68	0.098164	0.088906	0.539158	0.751311	0.628118	0.417355	0.134296	0.082503	0.055206	0.036101	0.271782	0.236287	0.107960	0.387932	0.195386	0.202960	0.172768	0.146024	0.750943	0.754610	0.088179	0.497985	0.222973	0.318980	0.126917	0.115899	0.862771	0.895594	0.179660	0.428242	0.118751	0.167086	0.074432	0.066877	0.297155	0.395573	0.091342	0.491779	0.265155	0.332238	0.094019	0.068862	0.593688	0.382871	0.052774	0.158471	0.187447	0.193100	0.136058	0.113239	0.653763	0.391740	0.296992	0.636144	0.119554	0.155941	0.257113	0.126700	0.742284	0.622188	0.042141	0.114213	0.224815	0.228378
69	0.100787	0.090035	0.531277	0.735007	0.465899	0.403898	0.146742	0.097199	0.056069	0.038915	0.298542	0.223196	0.105211	0.339464	0.215017	0.204294	0.173313	0.146836	0.801534	0.748141	0.073582	0.549853	0.213070	0.273409	0.124950	0.115379	0.823535	0.721633	0.199466	0.460717	0.108186	0.148150	0.073921	0.066775	0.338769	0.398037	0.087240	0.491134	0.268099	0.325724	0.076675	0.065025	0.368734	0.280707	0.053665	0.160774	0.187213	0.206708	0.143297	0.119397	0.610893	0.395942	0.276030	0.634816	0.118098	0.143917	0.271067	0.132184	0.689005	0.630779	0.038005	0.116196	0.225977	0.232908
70	0.100281	0.090043	0.481599	0.640145	0.250916	0.385582	0.126679	0.117613	0.052695	0.041130	0.297238	0.204236	0.101985	0.305321	0.216077	0.222171	0.170124	0.144619	0.815071	0.728093	0.086822	0.584151	0.215578	0.255961	0.120805	0.113792	0.765404	0.620057	0.215086	0.471249	0.104285	0.103083	0.071200	0.065471	0.335455	0.395005	0.057056	0.177469	0.262644	0.245259	0.058658	0.069569	0.211520	0.244769	0.058653	0.215329	0.184969	0.218100	0.143479	0.120128	0.565419	0.401062	0.223395	0.632325	0.123309	0.143905	0.311829	0.156784	0.693062	0.636009	0.040425	0.117525	0.228008	0.243178
71	0.095601	0.087066	0.407250	0.561651	0.242920	0.407061	0.123730	0.125493	0.053518	0.046006	0.287203	0.217838	0.103732	0.300160	0.218352	0.233324	0.164056	0.142520	0.814108	0.703140	0.115176	0.730674	0.224768	0.258944	0.115851	0.110907	0.702423	0.606735	0.363555	0.501518	0.088580	0.058611	0.065812	0.061712	0.306760	0.394449	0.038877	0.130722	0.254923	0.192290	0.060659	0.072865	0.166286	0.242321	0.063938	0.242330	0.180731	0.212632	0.142360	0.119942	0.534986	0.396769	0.216690	0.629263	0.124190	0.121674	0.332420	0.167664	0.709949	0.647197	0.075985	0.110478	0.227391	0.256445
72	0.085072	0.079573	0.359464	0.547783	0.228315	0.419941	0.121935	0.125207	0.071633	0.094574	0.293470	0.241391	0.097385	0.295815	0.221759	0.234624	0.158277	0.138558	0.825703	0.712642	0.117731	0.740352	0.234050	0.256230	0.111346	0.108130	0.646391	0.594488	0.503906	0.498774	0.106294	0.078010	0.065141	0.058651	0.290881	0.391310	0.037143	0.110803	0.239702	0.188811	0.061163	0.069714	0.164416	0.246342	0.072337	0.241652	0.166686	0.193007	0.140540	0.114655	0.546066	0.391380	0.181871	0.572844	0.117280	0.101576	0.337699	0.167617	0.710787	0.622440	0.119742	0.103660	0.225874	0.259746
73	0.072926	0.072195	0.319701	0.524998	0.221481	0.428877	0.121426	0.123194	0.075952	0.106754	0.277742	0.229857	0.081644	0.354776	0.234568	0.241442	0.150519	0.129391	0.901841	0.748951	0.118254	0.740675	0.214254	0.241491	0.107067	0.106114	0.648901	0.547989	0.569910	0.499967	0.219766	0.418190	0.078380	0.058443	0.285594	0.401191	0.036003	0.114421	0.230512	0.158005	0.063621	0.073896	0.159884	0.243032	0.076648	0.241289	0.147072	0.171861	0.139282	0.112498	0.560478	0.445210	0.118899	0.439584	0.114840	0.109404	0.346854	0.178150	0.699179	0.569274	0.155073	0.101790	0.222278	0.264845
74	0.067104	0.069903	0.319616	0.562317	0.207772	0.448112	0.118833	0.119006	0.077102	0.108876	0.295324	0.213399	0.092974	0.410172	0.279775	0.234479	0.144461	0.122466	0.938039	0.759188	0.118895	0.747703	0.178855	0.221479	0.103920	0.105013	0.675903	0.533093	0.903627	0.557326	0.318090	0.583288	0.096275	0.057621	0.340932	0.448813	0.034173	0.100097	0.223638	0.107281	0.064212	0.075233	0.137799	0.234134	0.076595	0.241732	0.155501	0.173514	0.137629	0.112483	0.562942	0.582988	0.097752	0.414601	0.209486	0.120942	0.389084	0.200679	0.686646	0.516780	0.162181	0.105205	0.211890	0.262826
75	0.069598	0.074342	0.326458	0.591498	0.166232	0.435893	0.114567	0.118954	0.077693	0.112796	0.322589	0.193950	0.094814	0.414812	0.321203	0.223978	0.143369	0.119932	0.931186	0.692985	0.119067	0.760586	0.159241	0.236804	0.103649	0.105435	0.649904	0.560463	0.908344	0.555811	0.328962	0.592719	0.109295	0.053900	0.444107	0.512221	0.036249	0.091751	0.172179	0.082372	0.060733	0.074501	0.136851	0.252669	0.078771	0.239126	0.176003	0.172136	0.126998	0.113817	0.598720	0.712616	0.088055	0.217844	0.282906	0.138841	0.392386	0.201047	0.646748	0.472502	0.212897	0.110939	0.217818	0.251686
76	0.067045	0.073290	0.339608	0.553987	0.158845	0.431468	0.133157	0.260238	0.075975	0.114400	0.329450	0.176534	0.122503	0.535357	0.321676	0.262294	0.146203	0.122031	0.874120	0.598780	0.126087	0.771055	0.237641	0.270409	0.099975	0.104000	0.543198	0.574046	0.909184	0.501091	0.360506	0.655041	0.123651	0.059549	0.516368	0.547664	0.034384	0.086793	0.106409	0.096189	0.055081	0.074948	0.134038	0.246949	0.090700	0.235796	0.189620	0.161148	0.124423	0.124626	0.651954	0.773821	0.090802	0.079944	0.284819	0.142709	0.392001	0.201272	0.571031	0.425145	0.279226	0.106037	0.227441	0.246989
77	0.061530	0.062700	0.292044	0.507364	0.162152	0.439912	0.356274	0.649756	0.077666	0.115978	0.326854	0.183128	0.143713	0.586761	0.369450	0.304528	0.141514	0.118426	0.856643	0.601029	0.131442	0.777121	0.360376	0.279146	0.090717	0.102477	0.475313	0.613694	0.904073	0.456615	0.427004	0.736699	0.126507	0.060493	0.563060	0.558943	0.027161	0.087805	0.097074	0.098938	0.047705	0.075833	0.147620	0.256644	0.093423	0.266649	0.207108	0.154943	0.120914	0.143153	0.679132	0.786665	0.094661	0.069575	0.295360	0.147615	0.391779	0.201121	0.477312	0.411874	0.301969	0.153574	0.217150	0.246841
78	0.063778	0.056562	0.280352	0.536219	0.146757	0.367015	0.519124	0.767249	0.076921	0.116010	0.321942	0.197328	0.146294	0.588416	0.488617	0.333079	0.112271	0.091481	0.907097	0.589720	0.131338	0.776660	0.418764	0.276815	0.107264	0.110071	0.522558	0.686736	0.907637	0.443333	0.487917	0.788143	0.131409	0.063495	0.573975	0.556783	0.023152	0.077525	0.090383	0.102537	0.046508	0.079309	0.180018	0.260051	0.094054	0.285566	0.193897	0.146848	0.124264	0.153577	0.711629	0.785435	0.095251	0.071418	0.322946	0.151579	0.391299	0.199930	0.458651	0.407915	0.305599	0.174514	0.193157	0.237983
79	0.062561	0.054429	0.270816	0.603378	0.139426	0.336346	0.551840	0.782338	0.076051	0.122349	0.335586	0.193232	0.148890	0.588460	0.559892	0.345136	0.080848	0.061991	0.908682	0.568148	0.130808	0.767003	0.431939	0.278655	0.116296	0.107756	0.585115	0.725134	0.888198	0.443133	0.509580	0.802735	0.129209	0.068692	0.579701	0.575151	0.024351	0.072632	0.086354	0.112499	0.037371	0.074959	0.254936	0.291832	0.091289	0.278815	0.180267	0.150540	0.128174	0.158868	0.719143	0.784504	0.095838	0.073119	0.325568	0.157311	0.396575	0.201078	0.457459	0.402070	0.306189	0.169092	0.173327	0.207466
80	0.057232	0.053807	0.293712	0.652820	0.138339	0.314020	0.554136	0.856971	0.090227	0.139730	0.336318	0.192708	0.143742	0.590800	0.567172	0.350481	0.077468	0.054220	0.807862	0.546156	0.124938	0.692927	0.434106	0.276578	0.156171	0.126033	0.609553	0.717827	0.806712	0.397552	0.511218	0.804003	0.185541	0.111450	0.611596	0.604706	0.025816	0.072675	0.089320	0.116852	0.040982	0.096572	0.266315	0.296767	0.101697	0.343307	0.178211	0.149878	0.127525	0.154994	0.720255	0.798788	0.095095	0.075429	0.326138	0.153931	0.386504	0.201520	0.458693	0.393265	0.306292	0.169679	0.181703	0.184772
81	0.077028	0.063269	0.365537	0.672319	0.140614	0.302618	0.595824	0.930378	0.084186	0.123821	0.304574	0.155958	0.141998	0.591548	0.567294	0.350437	0.078792	0.054152	0.761911	0.520836	0.118854	0.574926	0.438646	0.269187	0.188944	0.138391	0.626175	0.685314	0.791608	0.392229	0.494662	0.761009	0.236327	0.137186	0.646556	0.606265	0.025923	0.073073	0.106071	0.117092	0.037403	0.094171	0.353948	0.299452	0.105054	0.357695	0.175029	0.126865	0.124855	0.156422	0.719804	0.851522	0.093008	0.076445	0.327878	0.150392	0.377546	0.203103	0.447915	0.383622	0.306415	0.168737	0.197378	0.184903
82	0.097613	0.076934	0.434774	0.676907	0.146380	0.300750	0.699586	0.970881	0.084461	0.162093	0.365334	0.255643	0.140284	0.594297	0.589245	0.352873	0.078499	0.057162	0.847717	0.560956	0.114465	0.556009	0.470157	0.259806	0.193021	0.143674	0.640006	0.648654	0.333336	0.227527	0.493298	0.607884	0.239160	0.137536	0.678198	0.575311	0.037630	0.090433	0.112676	0.116552	0.041991	0.125597	0.362443	0.305056	0.101274	0.320620	0.199483	0.120933	0.138025	0.158434	0.722166	0.931704	0.099484	0.079745	0.328434	0.130603	0.346558	0.190445	0.440935	0.379317	0.305353	0.179084	0.205063	0.165550
83	0.102912	0.083098	0.475786	0.671168	0.158878	0.260132	0.772585	0.985787	0.094732	0.180418	0.433732	0.359490	0.138729	0.595739	0.634231	0.359147	0.074718	0.053956	0.906404	0.591463	0.087798	0.379839	0.537980	0.255891	0.193335	0.145084	0.641532	0.640332	0.225326	0.209775	0.517894	0.620301	0.239577	0.137530	0.667845	0.543779	0.046547	0.092101	0.108507	0.114096	0.045341	0.143347	0.398906	0.263218	0.098175	0.310292	0.253910	0.135129	0.192521	0.166760	0.761458	0.982361	0.106211	0.083779	0.327519	0.126312	0.325788	0.185099	0.454801	0.389529	0.296939	0.188138	0.207203	0.137587
84	0.103274	0.084077	0.476852	0.670317	0.166364	0.247898	0.787339	0.988082	0.094441	0.179753	0.421011	0.371090	0.137679	0.545728	0.641530	0.349708	0.076668	0.054420	0.870687	0.536341	0.073422	0.252174	0.583500	0.255043	0.195306	0.148841	0.705776	0.684080	0.218681	0.224155	0.514327	0.594812	0.239456	0.138047	0.650679	0.536905	0.045263	0.094314	0.106193	0.108623	0.043393	0.143111	0.434240	0.225145	0.089656	0.310222	0.287434	0.154242	0.261572	0.174911	0.821341	0.989473	0.104938	0.082480	0.269613	0.116079	0.289189	0.163152	0.416486	0.379754	0.281368	0.190949	0.206596	0.122451
85	0.103880	0.083921	0.478244	0.668405	0.169368	0.281348	0.784503	0.965701	0.093851	0.177768	0.426085	0.423378	0.124470	0.460592	0.620590	0.335350	0.079932	0.057882	0.825750	0.548218	0.077212	0.255078	0.599161	0.263100	0.199324	0.152121	0.780305	0.738009	0.212850	0.225142	0.485079	0.497799	0.240049	0.141736	0.649550	0.539854	0.044013	0.095576	0.150559	0.094544	0.049603	0.140713	0.478426	0.268475	0.090009	0.311534	0.319563	0.161460	0.374741	0.187832	0.838057	0.984123	0.100534	0.080532	0.224795	0.116659	0.255712	0.145360	0.384110	0.364768	0.265419	0.190999	0.209059	0.111184
86	0.106887	0.085263	0.494132	0.644930	0.157975	0.274338	0.715776	0.769900	0.093439	0.178554	0.440761	0.463257	0.121631	0.454700	0.592744	0.335795	0.077652	0.056845	0.837401	0.601972	0.078467	0.252324	0.600543	0.276875	0.202413	0.152324	0.817790	0.773556	0.198929	0.226468	0.457631	0.399391	0.239699	0.142428	0.648402	0.540908	0.058410	0.098829	0.243768	0.098485	0.052900	0.139735	0.481190	0.265339	0.093075	0.316923	0.319708	0.160706	0.403245	0.196762	0.837942	0.949046	0.118492	0.087264	0.224396	0.121458	0.243441	0.141535	0.394168	0.388542	0.263240	0.188491	0.191198	0.101251
87	0.111940	0.088802	0.519084	0.611082	0.146753	0.286432	0.603825	0.640980	0.095693	0.176923	0.422931	0.469716	0.104002	0.351189	0.595172	0.317859	0.086053	0.059168	0.881443	0.600189	0.080666	0.222240	0.600488	0.256908	0.202788	0.152495	0.856546	0.776115	0.192320	0.216720	0.427410	0.355263	0.236041	0.141017	0.649072	0.526568	0.065821	0.114112	0.264008	0.109531	0.052033	0.137005	0.472783	0.256798	0.093359	0.324152	0.311221	0.160384	0.414114	0.232913	0.836579	0.862841	0.140550	0.112103	0.208521	0.115067	0.241428	0.138024	0.442820	0.413170	0.207854	0.220997	0.154501	0.096066
88	0.117573	0.092715	0.536382	0.608866	0.137544	0.277472	0.599613	0.631722	0.099840	0.177710	0.419276	0.481204	0.062121	0.192116	0.581596	0.276479	0.111730	0.075170	0.882298	0.555253	0.081991	0.198879	0.589251	0.218405	0.203403	0.154780	0.869936	0.780185	0.167455	0.190039	0.418039	0.351720	0.229320	0.139992	0.637487	0.473181	0.067379	0.125917	0.266182	0.127087	0.050463	0.132886	0.448798	0.220854	0.080817	0.321186	0.298378	0.158641	0.474972	0.310273	0.820901	0.780581	0.144591	0.125058	0.179837	0.111696	0.169066	0.097416	0.490359	0.419980	0.130148	0.248036	0.141550	0.095731
89	0.116547	0.090780	0.542818	0.595608	0.138000	0.276469	0.609207	0.531287	0.091585	0.165198	0.426582	0.482723	0.060732	0.183234	0.497837	0.228145	0.121856	0.085495	0.855944	0.550163	0.068910	0.158341	0.531614	0.210619	0.206561	0.156158	0.860870	0.756101	0.153447	0.174430	0.433816	0.358422	0.220618	0.139098	0.580575	0.393114	0.070669	0.161293	0.286280	0.133201	0.048958	0.122656	0.433811	0.228614	0.080006	0.288417	0.290036	0.152854	0.838635	0.437955	0.781675	0.733317	0.149505	0.165649	0.184715	0.145248	0.141775	0.089698	0.487627	0.412949	0.077939	0.215196	0.139653	0.100189
90	0.112553	0.088573	0.541964	0.545015	0.135137	0.278494	0.575381	0.387129	0.084532	0.162855	0.470425	0.487596	0.048110	0.188694	0.386371	0.194593	0.128000	0.087441	0.823450	0.543816	0.098122	0.154618	0.468825	0.214034	0.207112	0.156217	0.855869	0.718478	0.150236	0.173632	0.436030	0.384008	0.213989	0.138600	0.522689	0.329607	0.070260	0.162844	0.324577	0.134283	0.050159	0.123270	0.398284	0.248155	0.079103	0.276774	0.291556	0.153523	0.864526	0.436660	0.717210	0.721413	0.149712	0.180546	0.184676	0.200889	0.141691	0.090591	0.484265	0.403620	0.070728	0.217615	0.140619	0.102282
91	0.114131	0.089608	0.537384	0.483950	0.126917	0.274970	0.450373	0.262434	0.075779	0.126685	0.556663	0.485416	0.047810	0.183697	0.348055	0.188187	0.127951	0.086416	0.803755	0.542331	0.102072	0.154353	0.444408	0.211287	0.207068	0.154210	0.854964	0.685697	0.154848	0.178909	0.358359	0.349244	0.210850	0.140454	0.460077	0.302570	0.070767	0.174662	0.346536	0.162856	0.041910	0.091376	0.424953	0.285432	0.072330	0.260914	0.294222	0.148376	0.863027	0.442883	0.661333	0.716767	0.151338	0.202752	0.183848	0.209146	0.142195	0.091365	0.496313	0.406957	0.067813	0.220379	0.142749	0.095001
92	0.114575	0.087754	0.508291	0.440166	0.113017	0.267683	0.307935	0.195523	0.053454	0.060116	0.528670	0.458022	0.063651	0.181547	0.344554	0.171901	0.126848	0.085145	0.801101	0.537310	0.107460	0.191232	0.438732	0.212441	0.205422	0.147695	0.844473	0.646486	0.150002	0.172388	0.336185	0.326272	0.211136	0.141332	0.428253	0.317230	0.062635	0.169416	0.354870	0.199710	0.041652	0.080970	0.411873	0.302930	0.048518	0.127122	0.297014	0.148855	0.862629	0.444212	0.662407	0.724238	0.163664	0.282075	0.200207	0.213623	0.142964	0.096129	0.523295	0.410792	0.068110	0.219753	0.127475	0.079646
93	0.095971	0.075264	0.458592	0.445191	0.101242	0.243380	0.260920	0.181374	0.055309	0.059801	0.621868	0.465265	0.073169	0.175436	0.324072	0.152759	0.130770	0.086566	0.731839	0.487122	0.111586	0.262966	0.437806	0.211817	0.189008	0.137885	0.804714	0.576637	0.148419	0.168173	0.331750	0.327581	0.234131	0.171058	0.426777	0.313035	0.061026	0.168839	0.354930	0.215598	0.045029	0.081831	0.410607	0.310888	0.045271	0.111921	0.299756	0.148764	0.866307	0.447883	0.718586	0.735780	0.169431	0.299862	0.226276	0.214643	0.137465	0.104331	0.545304	0.414264	0.068073	0.225184	0.096564	0.076096
94	0.124052	0.080152	0.392870	0.449592	0.094081	0.199111	0.258115	0.180992	0.055429	0.061337	0.630281	0.440345	0.073076	0.157449	0.211783	0.139898	0.168748	0.101236	0.655524	0.424116	0.111759	0.272914	0.424843	0.200080	0.180109	0.132920	0.826920	0.554135	0.145807	0.158374	0.288293	0.353073	0.275786	0.187059	0.388533	0.265404	0.060812	0.164243	0.354431	0.219462	0.043327	0.089212	0.367685	0.291131	0.046856	0.114878	0.280206	0.141797	0.885117	0.454148	0.753073	0.729285	0.171730	0.300679	0.221402	0.208499	0.098128	0.088482	0.550017	0.412765	0.067984	0.217317	0.079221	0.083916
95	0.137020	0.080780	0.376237	0.453397	0.095120	0.192156	0.257995	0.176647	0.055083	0.058891	0.652935	0.424556	0.085918	0.176018	0.144971	0.155346	0.204578	0.120118	0.619644	0.426267	0.109056	0.276370	0.357201	0.185205	0.119856	0.100035	0.854476	0.577567	0.124844	0.121287	0.272246	0.386653	0.323606	0.187184	0.329731	0.221203	0.059244	0.163876	0.323400	0.216124	0.045145	0.091526	0.400466	0.382906	0.051034	0.122203	0.241924	0.127070	0.899957	0.456201	0.772934	0.692881	0.173375	0.302036	0.224435	0.200191	0.085311	0.078447	0.551738	0.405620	0.062589	0.211429	0.088068	0.096791
96	0.137715	0.082123	0.383282	0.456892	0.086651	0.135155	0.249167	0.144456	0.049683	0.056104	0.673634	0.413696	0.089624	0.174868	0.140955	0.162047	0.269731	0.146111	0.610597	0.407438	0.106612	0.284092	0.238377	0.193883	0.093799	0.091865	0.852285	0.580947	0.119908	0.121440	0.283235	0.397804	0.376414	0.191955	0.234366	0.229468	0.039631	0.154269	0.273413	0.210661	0.053077	0.091548	0.443171	0.420925	0.054239	0.123595	0.201042	0.110266	0.897519	0.453618	0.734901	0.681448	0.156208	0.297394	0.243015	0.213081	0.084367	0.075964	0.569878	0.385525	0.061065	0.209487	0.108098	0.107444
97	0.138235	0.079675	0.373989	0.444590	0.146096	0.130669	0.167442	0.113554	0.034186	0.049978	0.670602	0.444139	0.089450	0.161404	0.143214	0.159822	0.282771	0.152911	0.586768	0.349383	0.104621	0.311017	0.148665	0.193746	0.084999	0.085933	0.866138	0.585826	0.119721	0.109047	0.288701	0.400586	0.392756	0.204070	0.194938	0.246851	0.037262	0.147606	0.264395	0.209174	0.057736	0.090029	0.468740	0.415231	0.052881	0.118429	0.146431	0.098491	0.885777	0.455221	0.673506	0.693074	0.136721	0.287991	0.240100	0.217963	0.113489	0.077159	0.568974	0.342317	0.060068	0.213504	0.112343	0.111652
98	0.150879	0.089968	0.336677	0.392513	0.150834	0.135243	0.118376	0.111846	0.033745	0.038867	0.746021	0.471364	0.088376	0.149599	0.133124	0.152760	0.282917	0.164066	0.512968	0.440686	0.106872	0.365596	0.125518	0.171194	0.084526	0.083536	0.860196	0.584531	0.138432	0.117567	0.248201	0.387505	0.517868	0.233169	0.268873	0.276917	0.029013	0.116319	0.259822	0.198312	0.062602	0.085604	0.470077	0.418123	0.047395	0.100086	0.129839	0.103258	0.889855	0.461134	0.658813	0.696219	0.135069	0.284170	0.257990	0.279569	0.144732	0.081274	0.562778	0.334185	0.053578	0.212866	0.112130	0.112276
99	0.174710	0.102703	0.335407	0.328329	0.165605	0.170128	0.137137	0.117523	0.033903	0.035120	0.743087	0.470637	0.085512	0.144315	0.143414	0.137719	0.397631	0.212567	0.528499	0.572911	0.108406	0.372116	0.125678	0.157631	0.086015	0.079318	0.801157	0.542599	0.183548	0.111566	0.263107	0.394126	0.565146	0.238311	0.339245	0.289362	0.024957	0.090016	0.225259	0.193695	0.068832	0.081045	0.463469	0.394813	0.070291	0.093472	0.127431	0.106455	0.886146	0.456380	0.655915	0.694702	0.200107	0.283649	0.264725	0.345990	0.162178	0.091127	0.561732	0.328661	0.033738	0.168128	0.113137	0.115399
100	0.225646	0.110751	0.333839	0.352980	0.165563	0.173766	0.128997	0.129293	0.056395	0.038106	0.676599	0.518553	0.082520	0.135860	0.146638	0.126567	0.429968	0.225534	0.550425	0.614906	0.103857	0.363306	0.136104	0.167657	0.082838	0.077740	0.798633	0.477662	0.220091	0.105100	0.357197	0.404717	0.572810	0.237550	0.367289	0.292528	0.028206	0.093367	0.157079	0.186053	0.082817	0.079057	0.434059	0.372489	0.096581	0.103420	0.127561	0.104999	0.882993	0.443736	0.644061	0.691044	0.285073	0.312565	0.266060	0.356486	0.293203	0.134015	0.546047	0.299526	0.021977	0.137275	0.121014	0.122549
101	0.247449	0.114674	0.359120	0.413443	0.173978	0.195308	0.132050	0.132916	0.069092	0.045575	0.717084	0.502261	0.083355	0.129514	0.161795	0.124880	0.442179	0.227281	0.568283	0.616412	0.105998	0.359919	0.177566	0.189992	0.076847	0.077754	0.838949	0.447619	0.260004	0.105698	0.390817	0.405337	0.573694	0.238007	0.374275	0.293970	0.026873	0.063332	0.101788	0.151579	0.102471	0.088419	0.400553	0.418549	0.103005	0.112153	0.128210	0.103140	0.784026	0.350223	0.590804	0.671158	0.344129	0.328465	0.265773	0.359995	0.429869	0.156038	0.515037	0.245600	0.021881	0.134783	0.142467	0.134517
