	202_C_T1_sh_ND_01.c3d	202_C_T1_sh_ND_01.c3d	202_C_T1_sh_ND_01.c3d	202_C_T1_sh_ND_01.c3d	202_C_T1_sh_ND_01.c3d	202_C_T1_sh_ND_01.c3d	202_C_T1_sh_ND_01.c3d	202_C_T1_sh_ND_01.c3d	202_C_T1_sh_ND_02.c3d	202_C_T1_sh_ND_02.c3d	202_C_T1_sh_ND_02.c3d	202_C_T1_sh_ND_02.c3d	202_C_T1_sh_ND_02.c3d	202_C_T1_sh_ND_02.c3d	202_C_T1_sh_ND_02.c3d	202_C_T1_sh_ND_02.c3d	202_C_T1_sh_ND_03.c3d	202_C_T1_sh_ND_03.c3d	202_C_T1_sh_ND_03.c3d	202_C_T1_sh_ND_03.c3d	202_C_T1_sh_ND_03.c3d	202_C_T1_sh_ND_03.c3d	202_C_T1_sh_ND_03.c3d	202_C_T1_sh_ND_03.c3d	202_C_T1_sh_ND_05.c3d	202_C_T1_sh_ND_05.c3d	202_C_T1_sh_ND_05.c3d	202_C_T1_sh_ND_05.c3d	202_C_T1_sh_ND_05.c3d	202_C_T1_sh_ND_05.c3d	202_C_T1_sh_ND_05.c3d	202_C_T1_sh_ND_05.c3d	202_C_T1_sh_ND_06.c3d	202_C_T1_sh_ND_06.c3d	202_C_T1_sh_ND_06.c3d	202_C_T1_sh_ND_06.c3d	202_C_T1_sh_ND_06.c3d	202_C_T1_sh_ND_06.c3d	202_C_T1_sh_ND_06.c3d	202_C_T1_sh_ND_06.c3d	202_C_T1_sh_ND_07.c3d	202_C_T1_sh_ND_07.c3d	202_C_T1_sh_ND_07.c3d	202_C_T1_sh_ND_07.c3d	202_C_T1_sh_ND_07.c3d	202_C_T1_sh_ND_07.c3d	202_C_T1_sh_ND_07.c3d	202_C_T1_sh_ND_07.c3d	202_C_T1_sh_ND_08.c3d	202_C_T1_sh_ND_08.c3d	202_C_T1_sh_ND_08.c3d	202_C_T1_sh_ND_08.c3d	202_C_T1_sh_ND_08.c3d	202_C_T1_sh_ND_08.c3d	202_C_T1_sh_ND_08.c3d	202_C_T1_sh_ND_08.c3d	202_C_T1_sh_ND_10.c3d	202_C_T1_sh_ND_10.c3d	202_C_T1_sh_ND_10.c3d	202_C_T1_sh_ND_10.c3d	202_C_T1_sh_ND_10.c3d	202_C_T1_sh_ND_10.c3d	202_C_T1_sh_ND_10.c3d	202_C_T1_sh_ND_10.c3d
	Biceps femoris_lat	Semitendinosus_lat	Vastus lateralis_lat	Vastus medialis_lat	Biceps femoris_med	Semitendinosus_med	Vastus lateralis_med	Vastus medialis_med	Biceps femoris_lat	Semitendinosus_lat	Vastus lateralis_lat	Vastus medialis_lat	Biceps femoris_med	Semitendinosus_med	Vastus lateralis_med	Vastus medialis_med	Biceps femoris_lat	Semitendinosus_lat	Vastus lateralis_lat	Vastus medialis_lat	Biceps femoris_med	Semitendinosus_med	Vastus lateralis_med	Vastus medialis_med	Biceps femoris_lat	Semitendinosus_lat	Vastus lateralis_lat	Vastus medialis_lat	Biceps femoris_med	Semitendinosus_med	Vastus lateralis_med	Vastus medialis_med	Biceps femoris_lat	Semitendinosus_lat	Vastus lateralis_lat	Vastus medialis_lat	Biceps femoris_med	Semitendinosus_med	Vastus lateralis_med	Vastus medialis_med	Biceps femoris_lat	Semitendinosus_lat	Vastus lateralis_lat	Vastus medialis_lat	Biceps femoris_med	Semitendinosus_med	Vastus lateralis_med	Vastus medialis_med	Biceps femoris_lat	Semitendinosus_lat	Vastus lateralis_lat	Vastus medialis_lat	Biceps femoris_med	Semitendinosus_med	Vastus lateralis_med	Vastus medialis_med	Biceps femoris_lat	Semitendinosus_lat	Vastus lateralis_lat	Vastus medialis_lat	Biceps femoris_med	Semitendinosus_med	Vastus lateralis_med	Vastus medialis_med
	P2D	P2D	P2D	P2D	P2D	P2D	P2D	P2D	P2D	P2D	P2D	P2D	P2D	P2D	P2D	P2D	P2D	P2D	P2D	P2D	P2D	P2D	P2D	P2D	P2D	P2D	P2D	P2D	P2D	P2D	P2D	P2D	P2D	P2D	P2D	P2D	P2D	P2D	P2D	P2D	P2D	P2D	P2D	P2D	P2D	P2D	P2D	P2D	P2D	P2D	P2D	P2D	P2D	P2D	P2D	P2D	P2D	P2D	P2D	P2D	P2D	P2D	P2D	P2D
	EMG_lat	EMG_lat	EMG_lat	EMG_lat	EMG_med	EMG_med	EMG_med	EMG_med	EMG_lat	EMG_lat	EMG_lat	EMG_lat	EMG_med	EMG_med	EMG_med	EMG_med	EMG_lat	EMG_lat	EMG_lat	EMG_lat	EMG_med	EMG_med	EMG_med	EMG_med	EMG_lat	EMG_lat	EMG_lat	EMG_lat	EMG_med	EMG_med	EMG_med	EMG_med	EMG_lat	EMG_lat	EMG_lat	EMG_lat	EMG_med	EMG_med	EMG_med	EMG_med	EMG_lat	EMG_lat	EMG_lat	EMG_lat	EMG_med	EMG_med	EMG_med	EMG_med	EMG_lat	EMG_lat	EMG_lat	EMG_lat	EMG_med	EMG_med	EMG_med	EMG_med	EMG_lat	EMG_lat	EMG_lat	EMG_lat	EMG_med	EMG_med	EMG_med	EMG_med
ITEM	Y	Y	Y	Y	Y	Y	Y	Y	Y	Y	Y	Y	Y	Y	Y	Y	Y	Y	Y	Y	Y	Y	Y	Y	Y	Y	Y	Y	Y	Y	Y	Y	Y	Y	Y	Y	Y	Y	Y	Y	Y	Y	Y	Y	Y	Y	Y	Y	Y	Y	Y	Y	Y	Y	Y	Y	Y	Y	Y	Y	Y	Y	Y	Y
1	0.497888	0.368266	0.138178	0.139620	0.724896	0.466833	0.273201	0.099871	0.319774	0.232347	0.548066	0.354008	0.401978	0.303538	0.630428	0.144294	0.461481	0.316871	0.310192	0.121466	0.466276	0.335305	0.182787	0.064991	0.285708	0.440872	0.396902	0.182257	0.556264	0.367068	0.356622	0.164904	0.165066	0.171970	0.132503	0.173331	0.060313	0.044273	0.340743	0.184697	0.496844	0.407156	0.399627	0.166189	0.295938	0.311004	0.413353	0.128011	0.153254	0.113185	0.274265	0.121440	0.577156	0.457467	0.338726	0.132740	0.298222	0.144006	0.237918	0.070393	0.357889	1.032596	0.448097	0.198389
2	0.456151	0.288150	0.152561	0.147704	0.710614	0.464551	0.278796	0.125374	0.312727	0.219722	0.563203	0.355873	0.275105	0.243950	0.679091	0.132955	0.462691	0.317863	0.261817	0.118648	0.464175	0.330764	0.191142	0.065445	0.228435	0.391612	0.490541	0.210734	0.590748	0.375206	0.371197	0.150457	0.163980	0.166099	0.128451	0.162611	0.062772	0.073233	0.337232	0.179553	0.499375	0.397180	0.399391	0.152289	0.417560	0.357677	0.411080	0.120140	0.154415	0.113913	0.300939	0.122813	0.544506	0.440352	0.360418	0.127909	0.284192	0.141464	0.238651	0.072739	0.357881	1.007425	0.486511	0.210005
3	0.418396	0.276505	0.185256	0.148222	0.685649	0.455070	0.261002	0.133758	0.295104	0.173657	0.711405	0.395014	0.155162	0.210823	0.651821	0.184928	0.426188	0.326173	0.260130	0.130530	0.468779	0.233926	0.210841	0.079989	0.190277	0.296587	0.512615	0.219150	0.540296	0.366511	0.369692	0.119384	0.158914	0.154959	0.165143	0.156899	0.065878	0.079848	0.331154	0.145881	0.500719	0.398611	0.409360	0.164114	0.423567	0.388086	0.363716	0.122383	0.141747	0.105399	0.353610	0.124146	0.275499	0.219074	0.362819	0.130828	0.270732	0.142288	0.230613	0.076503	0.361354	1.000283	0.513969	0.231398
4	0.414274	0.307538	0.202100	0.149982	0.624714	0.421098	0.260093	0.136533	0.221478	0.134782	0.846721	0.423297	0.192250	0.228386	0.646931	0.212492	0.369735	0.330177	0.263306	0.124731	0.450377	0.200137	0.212718	0.078403	0.177692	0.216183	0.511117	0.220655	0.516059	0.371627	0.334478	0.128246	0.135999	0.150384	0.261269	0.152257	0.065948	0.080375	0.309409	0.110013	0.492772	0.389803	0.406869	0.168900	0.425600	0.414389	0.346171	0.101245	0.124564	0.098774	0.387512	0.125661	0.142628	0.193260	0.359631	0.109899	0.236614	0.137035	0.196406	0.124868	0.314756	0.870591	0.502511	0.238054
5	0.412512	0.329898	0.232758	0.161548	0.568293	0.385986	0.258606	0.136593	0.176250	0.126287	0.874764	0.426481	0.221566	0.220673	0.665876	0.216228	0.225825	0.311835	0.216520	0.127087	0.431898	0.199205	0.222929	0.074558	0.072379	0.181141	0.518006	0.242621	0.520814	0.391234	0.309555	0.139239	0.129549	0.154991	0.263776	0.153946	0.066082	0.080585	0.303940	0.113026	0.447446	0.370058	0.377612	0.182822	0.406792	0.400921	0.334845	0.068464	0.131195	0.108085	0.382437	0.129405	0.116373	0.099668	0.358746	0.102853	0.150418	0.130792	0.174659	0.171211	0.250490	0.597469	0.477193	0.246759
6	0.413569	0.331560	0.257832	0.173312	0.165287	0.195131	0.274070	0.134285	0.169500	0.107916	0.890502	0.454672	0.219761	0.217177	0.671270	0.239530	0.217920	0.298037	0.143178	0.119775	0.411767	0.193873	0.238421	0.073506	0.059447	0.097508	0.514759	0.248879	0.522842	0.422897	0.305433	0.139711	0.144318	0.176009	0.298098	0.154224	0.064516	0.081589	0.261037	0.110863	0.388415	0.351469	0.353250	0.184228	0.402939	0.399156	0.257981	0.065197	0.134004	0.114687	0.378093	0.133765	0.115197	0.071038	0.359147	0.107746	0.085489	0.131112	0.175226	0.176056	0.219298	0.487477	0.480405	0.301122
7	0.406347	0.331432	0.256558	0.184825	0.128272	0.193051	0.331627	0.128049	0.163473	0.107489	0.938166	0.508518	0.220614	0.204260	0.622312	0.248840	0.218642	0.282388	0.182679	0.106197	0.398121	0.166646	0.338305	0.080869	0.051333	0.062374	0.511442	0.258392	0.461798	0.415324	0.277178	0.137971	0.146181	0.177984	0.349872	0.151444	0.062130	0.084668	0.206227	0.096900	0.384770	0.353343	0.347711	0.184716	0.392076	0.387545	0.241140	0.081041	0.137875	0.126017	0.377073	0.136563	0.115298	0.069949	0.357128	0.103288	0.066412	0.123684	0.166777	0.183004	0.223267	0.474912	0.464317	0.333288
8	0.404703	0.328734	0.241338	0.181758	0.107742	0.189210	0.363187	0.133066	0.118032	0.072670	0.945612	0.525751	0.214030	0.214207	0.573958	0.252932	0.232322	0.281604	0.238189	0.129844	0.235490	0.180838	0.444929	0.099483	0.045574	0.057562	0.492297	0.271389	0.455798	0.379642	0.194240	0.152217	0.159164	0.199732	0.372088	0.207386	0.061502	0.084606	0.153389	0.089647	0.384831	0.353265	0.335978	0.185100	0.383988	0.370025	0.261695	0.131297	0.152854	0.127106	0.382531	0.139613	0.110055	0.039866	0.355808	0.097230	0.058213	0.075201	0.139142	0.188900	0.226533	0.476627	0.429461	0.353549
9	0.337342	0.313822	0.239796	0.178676	0.086177	0.170001	0.363332	0.130861	0.101616	0.070221	0.923894	0.482419	0.217663	0.237502	0.571440	0.250639	0.230360	0.275913	0.242542	0.143735	0.200225	0.182354	0.468135	0.099056	0.046371	0.046769	0.489226	0.261751	0.454489	0.385557	0.191651	0.154034	0.166659	0.206728	0.371950	0.197769	0.060859	0.083501	0.155159	0.123872	0.356588	0.324348	0.253590	0.180264	0.350101	0.314121	0.265312	0.137872	0.170313	0.124808	0.383661	0.135021	0.101734	0.037096	0.282479	0.083660	0.052572	0.064351	0.113427	0.191944	0.212616	0.454357	0.389726	0.383700
10	0.187623	0.288699	0.238158	0.184996	0.085574	0.163554	0.359662	0.138782	0.066929	0.068556	0.820313	0.507657	0.239294	0.263690	0.591414	0.258391	0.227092	0.268916	0.249728	0.148149	0.186854	0.195704	0.469612	0.111235	0.054015	0.044303	0.464941	0.265534	0.214978	0.309568	0.147564	0.148751	0.136672	0.198510	0.369735	0.207366	0.047209	0.082892	0.134667	0.149481	0.266813	0.255564	0.189722	0.161892	0.248285	0.277081	0.274689	0.137689	0.168727	0.124466	0.365689	0.101535	0.085727	0.037790	0.235321	0.079603	0.050933	0.053617	0.112230	0.206224	0.207091	0.359884	0.364722	0.392432
11	0.167574	0.269187	0.263175	0.182904	0.079761	0.141795	0.372812	0.129752	0.066379	0.066734	0.804915	0.572799	0.246390	0.274502	0.602052	0.258477	0.208122	0.241362	0.249956	0.152827	0.187387	0.213665	0.532689	0.128603	0.062500	0.049758	0.461451	0.295914	0.186337	0.304401	0.129552	0.151927	0.180709	0.229193	0.370745	0.246761	0.037711	0.084945	0.129050	0.192718	0.200349	0.181796	0.182493	0.176127	0.216819	0.277242	0.266605	0.135253	0.170864	0.162103	0.336363	0.121866	0.074974	0.040321	0.287029	0.080886	0.053553	0.051726	0.158315	0.236860	0.180750	0.222325	0.361796	0.385607
12	0.168286	0.257595	0.313554	0.169633	0.085337	0.154864	0.379476	0.110180	0.069560	0.070900	0.762516	0.593995	0.244595	0.273448	0.550363	0.259500	0.207220	0.233165	0.253995	0.142209	0.177833	0.214336	0.588999	0.131382	0.073775	0.051463	0.424248	0.305842	0.193468	0.332904	0.131402	0.140344	0.181701	0.225567	0.379350	0.293225	0.038074	0.089982	0.153554	0.202630	0.181022	0.136558	0.203816	0.187644	0.205872	0.195660	0.277784	0.150096	0.200464	0.224863	0.347232	0.262466	0.062869	0.056417	0.309033	0.087770	0.054488	0.050802	0.214988	0.298031	0.176813	0.191125	0.357853	0.383181
13	0.168899	0.251846	0.315055	0.171045	0.104136	0.175141	0.385767	0.109893	0.072357	0.086630	0.580338	0.571566	0.240828	0.277256	0.433680	0.259858	0.207682	0.243470	0.276840	0.139154	0.148269	0.209331	0.591516	0.125989	0.074597	0.063523	0.321481	0.334650	0.189236	0.337157	0.137318	0.123812	0.180068	0.222538	0.371884	0.320130	0.035573	0.085155	0.210548	0.233712	0.161640	0.124758	0.250802	0.180663	0.196199	0.169444	0.273303	0.156142	0.213224	0.229277	0.373099	0.338624	0.066636	0.092312	0.293212	0.090062	0.055537	0.064493	0.243253	0.329931	0.198559	0.210038	0.350112	0.392284
14	0.168866	0.241705	0.304490	0.199456	0.128214	0.185848	0.387123	0.105567	0.064821	0.103779	0.432347	0.565609	0.238896	0.290186	0.384006	0.249795	0.205999	0.219184	0.289048	0.150399	0.115612	0.211952	0.588162	0.125713	0.097759	0.086392	0.357481	0.361250	0.160901	0.301922	0.161841	0.121633	0.178507	0.220994	0.313458	0.327872	0.030986	0.081535	0.223757	0.268588	0.153133	0.119639	0.262176	0.160237	0.195136	0.170239	0.242513	0.165608	0.210896	0.229905	0.378964	0.372036	0.073101	0.132780	0.307261	0.075969	0.129301	0.149801	0.249874	0.331985	0.222203	0.219167	0.350212	0.389565
15	0.168215	0.196668	0.282270	0.213326	0.131955	0.180672	0.380095	0.106243	0.064826	0.152560	0.412953	0.550480	0.235075	0.288526	0.392856	0.221476	0.191176	0.159281	0.284870	0.154919	0.090029	0.241837	0.577968	0.124419	0.119562	0.103045	0.389858	0.357587	0.118630	0.239618	0.159720	0.120537	0.178713	0.219010	0.286145	0.324681	0.033663	0.084582	0.260165	0.273807	0.135103	0.119826	0.239512	0.169869	0.176695	0.167637	0.243502	0.164716	0.215218	0.234169	0.344254	0.372824	0.070744	0.134396	0.344215	0.079545	0.225764	0.228945	0.248997	0.328189	0.233668	0.209582	0.347983	0.389581
16	0.122236	0.128718	0.275194	0.213233	0.133290	0.170303	0.302676	0.102717	0.077812	0.229782	0.332139	0.526720	0.189704	0.269013	0.376469	0.208910	0.189624	0.146846	0.371083	0.164605	0.098655	0.271558	0.558330	0.126076	0.139706	0.112454	0.465908	0.342268	0.080155	0.212853	0.159953	0.120142	0.174007	0.221801	0.275122	0.330921	0.043225	0.109586	0.299038	0.281218	0.123891	0.113520	0.239050	0.172012	0.159972	0.170163	0.224691	0.131615	0.211591	0.233103	0.297561	0.390805	0.066705	0.133915	0.372046	0.095485	0.243636	0.264892	0.240351	0.336796	0.233024	0.204239	0.340423	0.388690
17	0.103089	0.084224	0.240248	0.199582	0.135832	0.154419	0.244834	0.091886	0.110119	0.237190	0.207673	0.476663	0.169729	0.267323	0.330532	0.207200	0.188885	0.147414	0.390048	0.165275	0.081864	0.270929	0.457895	0.134076	0.215187	0.187031	0.565310	0.337577	0.076912	0.203263	0.148026	0.102641	0.198167	0.265480	0.239697	0.343380	0.053337	0.136957	0.324199	0.296925	0.123117	0.104327	0.246645	0.167006	0.150015	0.181779	0.212286	0.117083	0.207483	0.230572	0.315266	0.431647	0.054003	0.151992	0.373667	0.111875	0.276734	0.278122	0.236455	0.350099	0.320838	0.262639	0.289846	0.377417
18	0.120609	0.114223	0.248041	0.193622	0.129652	0.142920	0.258112	0.093894	0.246542	0.432171	0.196997	0.488134	0.172721	0.270696	0.288668	0.172433	0.167604	0.150797	0.431154	0.178610	0.079279	0.269336	0.395468	0.201046	0.227785	0.190246	0.572028	0.332016	0.075765	0.197537	0.146928	0.116521	0.269151	0.320656	0.223382	0.336350	0.053264	0.137142	0.326195	0.304637	0.120847	0.097835	0.262795	0.170088	0.143677	0.198130	0.219413	0.136109	0.201996	0.227762	0.319498	0.468132	0.054078	0.153888	0.365756	0.118235	0.299794	0.293973	0.248982	0.356572	0.394215	0.347053	0.261683	0.363416
19	0.122815	0.132404	0.257240	0.190679	0.129399	0.136212	0.252187	0.089518	0.388803	0.580409	0.201486	0.459028	0.191971	0.291487	0.305380	0.159312	0.156950	0.153656	0.485501	0.242501	0.078121	0.265907	0.407029	0.250059	0.246533	0.213163	0.609375	0.344776	0.079991	0.210656	0.151927	0.114614	0.310521	0.349477	0.232147	0.319663	0.052924	0.146943	0.326530	0.303622	0.117448	0.090498	0.267412	0.171510	0.092150	0.152697	0.199141	0.139850	0.198607	0.216862	0.326477	0.481558	0.051353	0.159216	0.323897	0.112421	0.467747	0.407870	0.274479	0.336596	0.416187	0.381689	0.257149	0.369177
20	0.133441	0.135544	0.259045	0.206225	0.127636	0.131392	0.222812	0.086972	0.404488	0.591993	0.194782	0.364711	0.190528	0.299959	0.312334	0.157036	0.159978	0.154847	0.515106	0.315652	0.073647	0.237687	0.388599	0.243647	0.267694	0.247610	0.692344	0.389051	0.083370	0.210269	0.142527	0.107852	0.425719	0.423866	0.234709	0.316043	0.057357	0.148742	0.327896	0.290492	0.117973	0.094523	0.269597	0.174130	0.065018	0.143448	0.196650	0.129697	0.191054	0.215286	0.329507	0.484046	0.075604	0.239274	0.274253	0.110165	0.487007	0.428355	0.293432	0.332475	0.416593	0.382132	0.234290	0.370700
21	0.138258	0.136949	0.265925	0.207093	0.120513	0.127209	0.231167	0.110613	0.418779	0.601319	0.152463	0.275881	0.184160	0.291144	0.299619	0.151996	0.157569	0.145682	0.517816	0.361427	0.070301	0.226229	0.259261	0.240892	0.279698	0.263291	0.743697	0.420575	0.060881	0.144566	0.125416	0.108503	0.438707	0.436826	0.244080	0.293846	0.064863	0.149095	0.335793	0.277286	0.100070	0.115512	0.270280	0.173278	0.064989	0.145303	0.151447	0.117482	0.164749	0.225476	0.329860	0.483771	0.124828	0.301494	0.253789	0.149556	0.502404	0.453290	0.300981	0.332746	0.420675	0.383206	0.244505	0.340553
22	0.169743	0.178555	0.268349	0.200075	0.101342	0.105869	0.301096	0.112815	0.457799	0.637406	0.133462	0.245170	0.161985	0.270286	0.257628	0.149835	0.218868	0.176140	0.517889	0.388155	0.067582	0.216200	0.209002	0.251884	0.306776	0.282075	0.755083	0.418526	0.107240	0.138454	0.122981	0.104515	0.465216	0.504724	0.233737	0.262335	0.065831	0.147652	0.333164	0.249096	0.081670	0.118142	0.275926	0.156311	0.240719	0.282184	0.148123	0.112755	0.180430	0.245430	0.332223	0.485139	0.131717	0.294339	0.261275	0.157218	0.508303	0.462549	0.305699	0.328208	0.423809	0.375658	0.257253	0.315664
23	0.185124	0.194223	0.216919	0.199665	0.073308	0.091096	0.409304	0.118242	0.488552	0.656956	0.132190	0.236992	0.153158	0.285405	0.227167	0.154269	0.209791	0.184777	0.513456	0.399120	0.064366	0.212969	0.240337	0.258211	0.352878	0.330011	0.758140	0.411007	0.139323	0.138178	0.121831	0.103322	0.470777	0.507945	0.241363	0.233143	0.068935	0.142148	0.320341	0.245407	0.082539	0.135936	0.266242	0.142199	0.349920	0.378277	0.153635	0.109039	0.281070	0.306864	0.330588	0.488210	0.138340	0.312907	0.223823	0.156064	0.509861	0.462670	0.308938	0.328430	0.423730	0.372807	0.267091	0.295869
24	0.192562	0.210680	0.181467	0.206564	0.065950	0.087471	0.437807	0.115865	0.492300	0.663778	0.134174	0.244368	0.191786	0.469072	0.227586	0.150007	0.214674	0.183244	0.497489	0.396764	0.060310	0.205945	0.243907	0.258105	0.351380	0.357872	0.748266	0.373917	0.147493	0.142497	0.173143	0.102671	0.484080	0.508396	0.248599	0.215842	0.102994	0.135433	0.284921	0.277378	0.141631	0.267290	0.228638	0.223491	0.403577	0.417101	0.144448	0.115269	0.394919	0.375633	0.321646	0.459830	0.139963	0.314521	0.179906	0.151443	0.510618	0.463039	0.312718	0.327584	0.432191	0.378992	0.274005	0.257726
25	0.212739	0.240047	0.187645	0.203035	0.082358	0.179999	0.447612	0.131562	0.600539	0.782786	0.206093	0.314788	0.206316	0.519061	0.218086	0.150013	0.219252	0.197904	0.487913	0.395105	0.029921	0.120738	0.242764	0.259661	0.356340	0.382995	0.700950	0.343658	0.306119	0.226106	0.174119	0.101994	0.485710	0.510029	0.251115	0.217268	0.109233	0.171932	0.311108	0.275948	0.190551	0.339104	0.208217	0.404367	0.703922	0.607200	0.157267	0.111925	0.402527	0.382142	0.297796	0.393670	0.141591	0.313407	0.181156	0.140410	0.510078	0.462911	0.305664	0.326293	0.450744	0.398231	0.272909	0.248633
26	0.230554	0.245791	0.195301	0.244515	0.155557	0.339465	0.496158	0.180849	0.613521	0.800186	0.275943	0.353954	0.223435	0.517568	0.193140	0.139244	0.282021	0.277515	0.481140	0.405860	0.026672	0.108275	0.242839	0.266450	0.360489	0.393674	0.677564	0.343911	0.335040	0.237418	0.197952	0.087339	0.486327	0.508287	0.247810	0.227159	0.114212	0.211915	0.338079	0.275168	0.208778	0.343029	0.209443	0.460269	0.721304	0.616474	0.198601	0.087766	0.444138	0.408156	0.259448	0.347888	0.141178	0.312812	0.191196	0.147613	0.509937	0.463113	0.270626	0.308567	0.473261	0.432107	0.264528	0.250576
27	0.295614	0.280766	0.316966	0.347351	0.186261	0.370951	0.571619	0.195873	0.610531	0.803609	0.290855	0.341252	0.236957	0.513361	0.173920	0.118709	0.317856	0.313527	0.411267	0.420144	0.031983	0.096605	0.247314	0.256701	0.358427	0.395569	0.617533	0.350721	0.337169	0.234346	0.247269	0.075512	0.476276	0.488415	0.231416	0.222465	0.111401	0.202721	0.313817	0.272318	0.208595	0.342990	0.203107	0.457415	0.734019	0.640979	0.210268	0.097102	0.513413	0.448228	0.247447	0.344148	0.141156	0.311696	0.195326	0.157465	0.510085	0.463468	0.243368	0.276862	0.488251	0.465731	0.265912	0.246896
28	0.308379	0.289362	0.384603	0.427004	0.200856	0.494849	0.590028	0.198091	0.502551	0.629598	0.347408	0.323362	0.240340	0.524128	0.167095	0.108553	0.320971	0.313187	0.398661	0.435100	0.033771	0.112855	0.241493	0.220361	0.325216	0.367764	0.526741	0.411906	0.335051	0.216551	0.316392	0.077680	0.448855	0.451378	0.191547	0.188658	0.116903	0.259232	0.316279	0.255455	0.207993	0.342942	0.189176	0.472333	0.747839	0.648439	0.224615	0.101384	0.660963	0.523263	0.245721	0.343518	0.132577	0.261484	0.232211	0.157080	0.507515	0.456515	0.230016	0.269522	0.512018	0.503785	0.276967	0.225745
29	0.300738	0.284187	0.398715	0.496699	0.202807	0.511204	0.586875	0.193124	0.493078	0.612179	0.355431	0.342999	0.241653	0.547575	0.158851	0.103035	0.321057	0.310404	0.297094	0.429434	0.031663	0.116422	0.204758	0.213110	0.321550	0.366069	0.532513	0.454339	0.335647	0.220290	0.324187	0.078484	0.397297	0.402374	0.174723	0.184994	0.118064	0.272398	0.345218	0.257933	0.208666	0.343004	0.168984	0.516154	0.749570	0.650420	0.229411	0.104458	0.677923	0.523402	0.231244	0.314761	0.087411	0.168500	0.297103	0.134837	0.500742	0.463192	0.231333	0.284804	0.515627	0.514905	0.299340	0.229702
30	0.299565	0.280322	0.406621	0.500186	0.237501	0.512845	0.572980	0.179447	0.479981	0.605524	0.364287	0.438844	0.238565	0.559752	0.164167	0.106207	0.323146	0.311944	0.176054	0.380750	0.034569	0.117329	0.241860	0.228001	0.306961	0.354482	0.500423	0.442779	0.333469	0.239178	0.389369	0.083970	0.302894	0.350840	0.180879	0.187051	0.122330	0.270925	0.352082	0.277937	0.209227	0.343093	0.174354	0.569207	0.732131	0.628474	0.230617	0.133008	0.680335	0.527765	0.223583	0.252896	0.060109	0.146621	0.275491	0.133881	0.524973	0.480471	0.237288	0.299450	0.513917	0.516783	0.315524	0.231580
31	0.299664	0.281247	0.409640	0.503349	0.248581	0.514973	0.552954	0.176284	0.464689	0.590405	0.363197	0.494592	0.224523	0.553213	0.130167	0.105074	0.323390	0.313580	0.090310	0.324701	0.070090	0.152051	0.287795	0.280641	0.289400	0.333378	0.364875	0.406993	0.319266	0.246134	0.400469	0.083072	0.246626	0.287892	0.169986	0.187309	0.120624	0.270859	0.348904	0.287131	0.208939	0.344082	0.189772	0.609908	0.686794	0.562912	0.228335	0.161441	0.686630	0.550156	0.247851	0.223684	0.047150	0.095662	0.294414	0.136563	0.555479	0.494537	0.240059	0.309102	0.512504	0.510653	0.313012	0.231919
32	0.296027	0.283301	0.408461	0.532202	0.269078	0.518362	0.469626	0.172207	0.425585	0.546448	0.410950	0.493157	0.223099	0.544614	0.155057	0.119578	0.317716	0.310815	0.091587	0.275628	0.097277	0.191570	0.268695	0.310802	0.276262	0.320698	0.251596	0.369689	0.311158	0.250703	0.393012	0.082883	0.175488	0.166040	0.164501	0.170859	0.119867	0.273458	0.341126	0.292498	0.212288	0.342505	0.187361	0.628117	0.664359	0.554882	0.229339	0.157938	0.746295	0.621899	0.283788	0.214233	0.042509	0.091655	0.309113	0.136057	0.594135	0.503402	0.228221	0.294967	0.438852	0.470161	0.304103	0.234503
33	0.286077	0.268220	0.428135	0.559899	0.270187	0.519077	0.435839	0.174895	0.402139	0.535737	0.464481	0.557403	0.213292	0.542713	0.196627	0.148026	0.274780	0.288511	0.095129	0.246788	0.103904	0.191944	0.252753	0.328270	0.244267	0.304420	0.216432	0.343669	0.273859	0.221938	0.393207	0.080998	0.144261	0.107356	0.165390	0.146343	0.121423	0.273419	0.345137	0.293980	0.213946	0.342141	0.175602	0.638946	0.421457	0.346952	0.221906	0.161700	0.789064	0.665225	0.279417	0.215079	0.038160	0.069199	0.318372	0.198298	0.526771	0.452197	0.206614	0.289279	0.402894	0.446226	0.300957	0.231948
34	0.270106	0.245803	0.466784	0.576712	0.269117	0.513637	0.437578	0.172579	0.378246	0.479313	0.482537	0.657438	0.212305	0.543322	0.207936	0.158504	0.254613	0.270367	0.100891	0.238888	0.104478	0.194575	0.301228	0.329625	0.191140	0.262858	0.205308	0.344055	0.158983	0.206907	0.431628	0.077778	0.095105	0.109445	0.160599	0.154467	0.121582	0.273742	0.340560	0.293892	0.213185	0.345919	0.177604	0.651800	0.290750	0.274836	0.200889	0.160971	0.786658	0.658953	0.284411	0.215921	0.049526	0.068628	0.358247	0.204687	0.546710	0.452295	0.174080	0.288906	0.449645	0.477821	0.301237	0.217178
35	0.266160	0.242338	0.504090	0.579831	0.255780	0.437624	0.390932	0.135344	0.205024	0.229715	0.459063	0.687404	0.210140	0.521980	0.207384	0.152560	0.248633	0.268251	0.113378	0.246639	0.110588	0.196199	0.402646	0.337818	0.197087	0.221515	0.204629	0.369970	0.327089	0.306866	0.442412	0.108326	0.119778	0.167174	0.158521	0.159361	0.092964	0.272802	0.339160	0.246503	0.192662	0.293914	0.176751	0.646526	0.279397	0.240044	0.154632	0.158056	0.772187	0.648875	0.323613	0.215954	0.054655	0.089492	0.364916	0.215652	0.547089	0.437555	0.163807	0.293282	0.447908	0.477956	0.295536	0.182240
36	0.253468	0.215912	0.535410	0.587879	0.273832	0.427157	0.267098	0.101617	0.184859	0.209698	0.436732	0.678217	0.171351	0.357560	0.212523	0.154336	0.237010	0.241235	0.112890	0.237832	0.128526	0.216020	0.425897	0.338902	0.186404	0.187730	0.207894	0.398167	0.421789	0.335541	0.401024	0.115784	0.116367	0.166270	0.160975	0.139984	0.088024	0.250396	0.315092	0.219370	0.128581	0.153128	0.159253	0.560120	0.219956	0.202994	0.155083	0.166376	0.716632	0.593510	0.345709	0.208082	0.088640	0.125434	0.348770	0.250448	0.550824	0.426754	0.158483	0.324942	0.467471	0.480340	0.278288	0.168534
37	0.234234	0.198810	0.539662	0.599449	0.307889	0.350017	0.156074	0.106185	0.183270	0.168617	0.457217	0.686318	0.165231	0.320217	0.264989	0.154162	0.138341	0.136264	0.181666	0.212670	0.151496	0.269995	0.430830	0.330688	0.170394	0.157058	0.213319	0.409213	0.442857	0.371798	0.377673	0.136107	0.128562	0.168442	0.152368	0.142108	0.082140	0.219071	0.265052	0.207051	0.107474	0.145211	0.149195	0.517318	0.216146	0.213926	0.196647	0.167004	0.684163	0.566951	0.339900	0.200954	0.091102	0.141433	0.305946	0.261818	0.553965	0.426965	0.165517	0.330026	0.475847	0.483673	0.272041	0.178295
38	0.204108	0.188226	0.521212	0.586576	0.311975	0.292361	0.144097	0.108839	0.175552	0.165218	0.510508	0.691970	0.126231	0.309758	0.277859	0.158399	0.083042	0.082582	0.256885	0.177081	0.153803	0.349338	0.431186	0.319793	0.162255	0.145514	0.221167	0.404393	0.745113	0.547141	0.370090	0.173828	0.129126	0.169227	0.240103	0.266585	0.082188	0.217214	0.256063	0.197908	0.160875	0.189443	0.240251	0.528690	0.244110	0.216485	0.238153	0.152972	0.681584	0.573006	0.339739	0.198267	0.098552	0.216082	0.305308	0.257071	0.553499	0.426577	0.172815	0.335961	0.482952	0.488381	0.265725	0.181033
39	0.097335	0.124720	0.453525	0.586508	0.318430	0.319226	0.148766	0.116358	0.167491	0.179008	0.507511	0.663051	0.116215	0.306587	0.340836	0.159677	0.110657	0.097521	0.260355	0.169944	0.153918	0.356685	0.424666	0.318478	0.148713	0.146151	0.236594	0.378035	0.773551	0.565874	0.338908	0.188138	0.142962	0.180689	0.348695	0.393097	0.079988	0.132976	0.220205	0.201130	0.166028	0.195618	0.457479	0.543330	0.239490	0.234188	0.237993	0.113116	0.649381	0.566286	0.347377	0.200359	0.102048	0.223605	0.281865	0.259581	0.554996	0.427103	0.182430	0.356924	0.474469	0.481136	0.260509	0.206311
40	0.081224	0.122581	0.423138	0.510523	0.328637	0.329512	0.151331	0.120637	0.162762	0.184311	0.558391	0.607442	0.107014	0.278600	0.407306	0.164951	0.218989	0.176201	0.276900	0.306617	0.157823	0.403259	0.377965	0.280870	0.142694	0.153172	0.232370	0.355499	0.775889	0.567758	0.339589	0.216188	0.144789	0.181692	0.368804	0.444540	0.082854	0.111349	0.178108	0.205106	0.195620	0.208760	0.507482	0.536248	0.213868	0.250442	0.243534	0.103418	0.458974	0.476537	0.365212	0.186803	0.103594	0.232027	0.250749	0.261522	0.556379	0.427463	0.176959	0.358799	0.454151	0.464082	0.303818	0.238675
41	0.062989	0.101311	0.403224	0.494144	0.318711	0.320747	0.152388	0.120430	0.145580	0.177733	0.551144	0.587623	0.107586	0.232709	0.422540	0.164998	0.230691	0.176893	0.396236	0.372719	0.158013	0.475902	0.365283	0.220087	0.144859	0.157952	0.235202	0.388425	0.777079	0.567158	0.327267	0.325733	0.144791	0.180068	0.374123	0.447090	0.076182	0.100569	0.191285	0.198490	0.195954	0.215005	0.515614	0.506315	0.217281	0.263525	0.245079	0.097903	0.433232	0.479548	0.375706	0.202407	0.122811	0.324021	0.238662	0.225788	0.558589	0.426929	0.174553	0.350145	0.447682	0.466051	0.406666	0.251746
42	0.051403	0.089871	0.392464	0.537459	0.316846	0.319613	0.136983	0.119775	0.142890	0.181247	0.525373	0.575086	0.108272	0.194217	0.435334	0.163339	0.261299	0.203376	0.436630	0.375077	0.150245	0.480419	0.366761	0.181897	0.147714	0.159573	0.258994	0.467854	0.776103	0.565838	0.305568	0.361404	0.146405	0.174549	0.402813	0.458784	0.075273	0.097819	0.209801	0.194353	0.196104	0.213309	0.572356	0.454144	0.217657	0.302299	0.249596	0.102793	0.436480	0.530187	0.372250	0.292820	0.120296	0.330489	0.162443	0.203426	0.558917	0.426088	0.179344	0.375925	0.433941	0.450659	0.492322	0.247194
43	0.044281	0.068571	0.416118	0.570549	0.315609	0.315836	0.154214	0.117146	0.136228	0.180750	0.498494	0.463430	0.099561	0.163423	0.438072	0.158880	0.299099	0.265257	0.436330	0.422685	0.149806	0.484103	0.356195	0.173284	0.147976	0.159100	0.342814	0.498024	0.746550	0.529685	0.248665	0.365369	0.146419	0.171584	0.447847	0.485656	0.071169	0.094868	0.219110	0.187960	0.193944	0.204797	0.599094	0.423187	0.224191	0.381947	0.245699	0.111031	0.462049	0.542000	0.434015	0.332274	0.119197	0.345332	0.133603	0.187141	0.540366	0.394569	0.179901	0.396348	0.394381	0.402526	0.495377	0.243646
44	0.042676	0.067575	0.443953	0.636854	0.309445	0.306920	0.312979	0.138451	0.119666	0.169792	0.513402	0.308507	0.094501	0.148740	0.433913	0.163909	0.366182	0.308973	0.435184	0.461901	0.148011	0.482816	0.262012	0.159019	0.138443	0.152694	0.388410	0.528139	0.686173	0.493813	0.273669	0.384226	0.145130	0.175157	0.454157	0.547056	0.067656	0.096677	0.219380	0.193324	0.192075	0.197075	0.600146	0.436784	0.260855	0.409099	0.240868	0.129899	0.432170	0.501914	0.451569	0.326365	0.099008	0.336053	0.135057	0.135484	0.505267	0.338892	0.209570	0.393624	0.386943	0.388691	0.481842	0.245310
45	0.043549	0.062909	0.424318	0.704659	0.275055	0.271106	0.372060	0.134218	0.090613	0.147867	0.517829	0.209504	0.093029	0.148850	0.436332	0.160960	0.366657	0.309551	0.446611	0.472531	0.143601	0.483517	0.168257	0.131448	0.115342	0.138357	0.404407	0.574433	0.666586	0.501632	0.277107	0.413888	0.117055	0.116966	0.458330	0.591851	0.064201	0.095751	0.217128	0.187450	0.192230	0.188375	0.602026	0.459644	0.295164	0.401236	0.202283	0.128698	0.277449	0.390091	0.448216	0.333127	0.108079	0.344574	0.104503	0.092112	0.458796	0.295261	0.219527	0.374375	0.388024	0.387773	0.473285	0.247739
46	0.049032	0.060603	0.382476	0.740492	0.212949	0.200312	0.374709	0.125507	0.074811	0.137148	0.522202	0.221503	0.093687	0.147577	0.458944	0.147080	0.366854	0.316085	0.510835	0.539104	0.112110	0.457437	0.138073	0.128920	0.105200	0.140606	0.436759	0.593340	0.574729	0.474484	0.322866	0.421818	0.108372	0.106022	0.454593	0.617811	0.061822	0.094895	0.217248	0.182482	0.189593	0.171566	0.605216	0.450520	0.304582	0.396259	0.151792	0.143398	0.267697	0.383036	0.446198	0.334090	0.107906	0.303122	0.104515	0.098246	0.400850	0.285873	0.330154	0.366980	0.388782	0.387846	0.473544	0.263812
47	0.049278	0.053631	0.350497	0.736710	0.206603	0.192294	0.412488	0.128684	0.062347	0.131698	0.462636	0.207711	0.087582	0.129745	0.483534	0.152819	0.368708	0.337984	0.594139	0.614517	0.101065	0.416837	0.134703	0.184215	0.086976	0.110212	0.524991	0.580388	0.403167	0.421840	0.294808	0.409296	0.095962	0.101616	0.457586	0.623165	0.059608	0.092500	0.217573	0.189874	0.187313	0.165539	0.615949	0.466050	0.292818	0.429678	0.144862	0.157658	0.271196	0.380934	0.427338	0.329907	0.104126	0.295796	0.183202	0.102639	0.377385	0.303111	0.578788	0.374131	0.388411	0.390068	0.486619	0.271349
48	0.051573	0.048554	0.343681	0.723778	0.151218	0.130281	0.419976	0.121466	0.049356	0.113863	0.440383	0.181114	0.083957	0.113944	0.501620	0.178395	0.371486	0.344896	0.607326	0.660924	0.099612	0.382730	0.279167	0.214410	0.094759	0.108534	0.551442	0.572803	0.404229	0.414638	0.275940	0.413395	0.090232	0.097456	0.430781	0.592837	0.057080	0.089365	0.211753	0.204769	0.183076	0.164435	0.621010	0.470703	0.433530	0.638673	0.135403	0.180004	0.275831	0.375634	0.415309	0.326922	0.102690	0.293067	0.200315	0.126637	0.247201	0.227122	0.721235	0.377359	0.333662	0.336215	0.501687	0.311278
49	0.050711	0.040511	0.371389	0.703561	0.123508	0.096773	0.419948	0.117742	0.040562	0.085600	0.416202	0.192679	0.081660	0.101814	0.499223	0.213722	0.368311	0.345709	0.596622	0.680850	0.109687	0.381886	0.343709	0.233948	0.107212	0.115724	0.560493	0.571730	0.451355	0.463863	0.274065	0.396603	0.076779	0.082799	0.350552	0.533802	0.055583	0.085894	0.217293	0.231548	0.157465	0.123236	0.608917	0.451933	0.480156	0.655077	0.124986	0.256430	0.283703	0.372388	0.408381	0.337034	0.078618	0.187716	0.250778	0.195184	0.231433	0.225625	0.738659	0.385247	0.293621	0.324497	0.525452	0.364792
50	0.050371	0.037161	0.365981	0.687029	0.057121	0.055857	0.422678	0.116424	0.044125	0.090339	0.369733	0.188160	0.084937	0.099662	0.501548	0.224845	0.353112	0.334788	0.594441	0.673886	0.086987	0.225348	0.347197	0.234607	0.106033	0.113524	0.555028	0.547382	0.543227	0.480896	0.282703	0.315266	0.058503	0.064136	0.305635	0.496728	0.034075	0.056770	0.228479	0.236736	0.160804	0.140155	0.494221	0.426062	0.561889	0.659027	0.133605	0.299601	0.287175	0.365531	0.440675	0.361404	0.071956	0.165583	0.404822	0.224744	0.202595	0.211303	0.750719	0.377748	0.302392	0.348272	0.565573	0.412514
51	0.050745	0.038743	0.369028	0.718180	0.052441	0.052772	0.429230	0.134436	0.048648	0.093893	0.363626	0.207808	0.093665	0.111235	0.453434	0.228949	0.312644	0.312303	0.576575	0.616622	0.082629	0.173692	0.347564	0.244369	0.107575	0.106981	0.542171	0.535288	0.560635	0.494651	0.292895	0.307001	0.065947	0.074528	0.348086	0.509449	0.023183	0.044927	0.222041	0.221074	0.220938	0.191297	0.409998	0.395397	0.557939	0.617386	0.132067	0.303599	0.280539	0.344625	0.470455	0.379026	0.071748	0.131382	0.541230	0.232504	0.187347	0.207899	0.779176	0.370322	0.259717	0.349274	0.583781	0.467458
52	0.063536	0.060396	0.418874	0.789385	0.051577	0.047079	0.479777	0.158668	0.053272	0.093161	0.340171	0.231120	0.142967	0.162097	0.404525	0.278058	0.295888	0.303962	0.505354	0.597733	0.085766	0.149676	0.350618	0.285199	0.103928	0.091835	0.528428	0.514793	0.560284	0.508464	0.262591	0.293035	0.080929	0.093854	0.331348	0.507065	0.022659	0.044151	0.238082	0.201532	0.341177	0.227969	0.402868	0.358537	0.544813	0.585535	0.132235	0.310890	0.274996	0.332478	0.474225	0.383945	0.071085	0.130323	0.553017	0.235810	0.188186	0.209362	0.805164	0.380967	0.253109	0.347317	0.577884	0.503051
53	0.073801	0.075532	0.484498	0.847421	0.049762	0.039610	0.436142	0.142673	0.056248	0.094406	0.361033	0.235371	0.227088	0.225993	0.390843	0.305477	0.285600	0.288208	0.492483	0.597078	0.107389	0.165986	0.385601	0.320744	0.098586	0.085715	0.527174	0.443570	0.555378	0.564505	0.240361	0.246582	0.091172	0.107287	0.273013	0.493589	0.023782	0.046118	0.324550	0.194150	0.380532	0.275574	0.318451	0.349581	0.541298	0.598757	0.118462	0.324991	0.275524	0.333155	0.464042	0.380252	0.052999	0.110601	0.624393	0.280158	0.197922	0.214242	0.827163	0.357736	0.241082	0.342982	0.587668	0.506319
54	0.078684	0.080162	0.507599	0.866800	0.043402	0.031892	0.370473	0.134514	0.056436	0.094744	0.332508	0.245294	0.270148	0.247314	0.377968	0.310599	0.193840	0.205826	0.495204	0.548605	0.120765	0.198173	0.405167	0.334323	0.100866	0.086314	0.478906	0.412878	0.529855	0.614271	0.205501	0.196433	0.088366	0.104659	0.294304	0.430847	0.024737	0.041062	0.344220	0.191807	0.437365	0.343172	0.316797	0.357650	0.534157	0.608480	0.111585	0.332980	0.259695	0.289157	0.459661	0.326516	0.039737	0.119490	0.703276	0.325498	0.200597	0.217364	0.865034	0.329335	0.240714	0.345612	0.592843	0.499501
55	0.080939	0.080833	0.484541	0.823419	0.051052	0.034560	0.367061	0.131422	0.057125	0.095501	0.350893	0.286541	0.289027	0.251058	0.396905	0.311286	0.120652	0.176940	0.496003	0.535055	0.124406	0.201963	0.427124	0.328640	0.111989	0.089948	0.444817	0.371496	0.446059	0.536360	0.167964	0.175643	0.089347	0.105718	0.321402	0.382982	0.027307	0.042248	0.342769	0.189113	0.464507	0.350748	0.372693	0.373592	0.532292	0.600371	0.117310	0.329281	0.189501	0.173814	0.419207	0.248925	0.060107	0.140796	0.722205	0.340526	0.198562	0.218935	0.883265	0.334640	0.237159	0.337045	0.571556	0.553805
56	0.080438	0.080648	0.467580	0.739340	0.056605	0.057215	0.335688	0.125974	0.057648	0.095190	0.386559	0.497191	0.362240	0.296347	0.402818	0.309519	0.126052	0.179407	0.475186	0.509820	0.131111	0.198517	0.439711	0.314444	0.127046	0.089263	0.441922	0.311233	0.410490	0.518252	0.163911	0.174230	0.091251	0.107778	0.381985	0.364729	0.026700	0.043096	0.363591	0.190859	0.477212	0.376392	0.382305	0.337197	0.480796	0.421613	0.126705	0.325476	0.169476	0.161566	0.343594	0.243790	0.104198	0.143521	0.716271	0.334704	0.193017	0.218466	0.889147	0.377136	0.206569	0.296087	0.538604	0.609679
57	0.073455	0.078406	0.456731	0.687753	0.061268	0.059733	0.325942	0.123282	0.054234	0.085815	0.459268	0.554806	0.509794	0.388155	0.382141	0.310854	0.134377	0.157734	0.386627	0.427242	0.131886	0.193662	0.414532	0.291688	0.139719	0.077124	0.423362	0.261018	0.409275	0.520486	0.164064	0.135415	0.091165	0.106838	0.451079	0.343703	0.030792	0.048402	0.384236	0.179516	0.494983	0.394753	0.376790	0.344719	0.368723	0.281974	0.128849	0.297163	0.151539	0.149409	0.318425	0.242847	0.111876	0.173256	0.700013	0.304398	0.192714	0.214405	0.892693	0.342944	0.198192	0.273444	0.511513	0.650085
58	0.069126	0.080896	0.460380	0.693728	0.061000	0.062234	0.324740	0.123796	0.054877	0.077766	0.462544	0.610172	0.519323	0.398796	0.362570	0.310075	0.136536	0.110704	0.254088	0.328246	0.132085	0.192634	0.308708	0.269862	0.148534	0.107399	0.338683	0.292458	0.275793	0.486635	0.162882	0.089339	0.091129	0.106352	0.451468	0.343491	0.032177	0.046679	0.390865	0.162496	0.495267	0.398101	0.365433	0.329557	0.215294	0.256407	0.107817	0.224378	0.150081	0.157503	0.322271	0.238882	0.111312	0.183609	0.651910	0.279795	0.193361	0.212211	0.894396	0.343077	0.207468	0.285485	0.508564	0.669914
59	0.068805	0.086517	0.458129	0.713667	0.062462	0.071162	0.321388	0.124640	0.056810	0.070114	0.493468	0.666990	0.522443	0.411819	0.332659	0.304587	0.132727	0.099232	0.177535	0.269504	0.117426	0.180042	0.301098	0.265370	0.153145	0.128487	0.306478	0.354085	0.162073	0.495170	0.131560	0.081988	0.091346	0.106960	0.469540	0.328144	0.032679	0.057103	0.392013	0.152048	0.494680	0.397854	0.389352	0.298913	0.197050	0.227065	0.110521	0.220105	0.157844	0.169141	0.329073	0.238432	0.112964	0.204916	0.513975	0.274416	0.194471	0.213545	0.903804	0.413870	0.216231	0.291258	0.515026	0.673464
60	0.069363	0.091955	0.422240	0.725748	0.067655	0.084697	0.319106	0.110012	0.053595	0.060548	0.511881	0.722384	0.528526	0.423659	0.343993	0.287662	0.137764	0.097720	0.189765	0.255875	0.119893	0.179462	0.304207	0.262867	0.173154	0.129244	0.440349	0.384037	0.132522	0.479728	0.121271	0.076619	0.091041	0.107058	0.473864	0.311620	0.034539	0.058887	0.388697	0.118256	0.492378	0.397922	0.413107	0.317530	0.199188	0.229888	0.112467	0.194453	0.155118	0.170389	0.314029	0.241217	0.115754	0.202587	0.506683	0.273668	0.188196	0.203635	0.908003	0.517608	0.241610	0.300290	0.546593	0.677499
61	0.070644	0.095318	0.416019	0.717759	0.070144	0.101856	0.245396	0.068548	0.055819	0.062383	0.512813	0.749396	0.528825	0.425783	0.410637	0.268544	0.171673	0.148163	0.248740	0.262030	0.123755	0.179327	0.308575	0.234159	0.184500	0.173249	0.628418	0.404860	0.123251	0.443916	0.121802	0.055031	0.088824	0.103836	0.449310	0.277941	0.040440	0.069165	0.382088	0.111431	0.489169	0.391215	0.405995	0.321937	0.171424	0.193360	0.133047	0.188025	0.150339	0.177836	0.309302	0.255694	0.120761	0.196048	0.428177	0.254483	0.170112	0.151215	0.806044	0.622455	0.243570	0.300812	0.544252	0.728671
62	0.071108	0.096426	0.425135	0.690288	0.072992	0.119457	0.176796	0.049488	0.068032	0.084986	0.506039	0.764941	0.527731	0.432162	0.469499	0.268885	0.168049	0.147181	0.278366	0.261898	0.118493	0.181607	0.278225	0.173229	0.338121	0.366859	0.692587	0.483799	0.120769	0.327902	0.125730	0.053289	0.076422	0.098916	0.437746	0.328969	0.058221	0.101730	0.383716	0.176820	0.462074	0.364852	0.452204	0.371557	0.149226	0.154866	0.143358	0.173919	0.159524	0.185517	0.294184	0.252243	0.124795	0.195031	0.281752	0.252495	0.168892	0.122446	0.671461	0.669769	0.242870	0.295079	0.531672	0.748393
63	0.071164	0.096737	0.439637	0.633463	0.090873	0.141424	0.163656	0.052699	0.072498	0.098632	0.478186	0.767204	0.525762	0.428744	0.487568	0.258083	0.170291	0.141117	0.296993	0.265935	0.126145	0.156286	0.229267	0.126079	0.366060	0.379663	0.726052	0.492320	0.119539	0.235867	0.099775	0.058086	0.057907	0.108238	0.432292	0.322610	0.075435	0.124565	0.357718	0.281557	0.383882	0.331093	0.486670	0.465051	0.135914	0.117200	0.182743	0.170490	0.157542	0.181107	0.229008	0.239244	0.122018	0.185782	0.268076	0.272963	0.145512	0.110632	0.654587	0.676386	0.234757	0.283963	0.517292	0.730055
64	0.060888	0.084233	0.442141	0.532546	0.090358	0.188039	0.166632	0.070813	0.097486	0.110268	0.475144	0.762666	0.510118	0.406519	0.491003	0.196026	0.165948	0.140529	0.390356	0.299733	0.120828	0.137432	0.190947	0.112892	0.366027	0.380416	0.755111	0.488458	0.104196	0.237638	0.077503	0.065350	0.059390	0.120143	0.410950	0.325919	0.086074	0.130729	0.273173	0.290854	0.344550	0.317794	0.495617	0.516442	0.190788	0.119676	0.189948	0.160935	0.159848	0.193533	0.194463	0.250839	0.090885	0.184740	0.293943	0.295005	0.122918	0.101034	0.658301	0.668626	0.219403	0.251031	0.489350	0.706928
65	0.057650	0.078613	0.402370	0.413243	0.088083	0.184080	0.162407	0.076289	0.104570	0.113841	0.461394	0.730727	0.479646	0.383139	0.511667	0.159780	0.167321	0.151258	0.577546	0.378633	0.141319	0.217918	0.154812	0.100019	0.365385	0.380191	0.780659	0.489027	0.077969	0.221332	0.075128	0.068037	0.062365	0.125417	0.376992	0.336902	0.085975	0.141730	0.244899	0.302867	0.250930	0.208944	0.467465	0.517653	0.223755	0.128993	0.186674	0.146552	0.166313	0.193353	0.222072	0.248925	0.074748	0.156896	0.321903	0.294898	0.117755	0.103047	0.628716	0.667625	0.215136	0.223556	0.449165	0.685992
66	0.057926	0.077234	0.439960	0.389861	0.082799	0.185209	0.147297	0.078755	0.108190	0.114374	0.386670	0.598635	0.462795	0.382873	0.523430	0.155309	0.167659	0.153949	0.639335	0.384938	0.141344	0.257674	0.153282	0.067442	0.370977	0.391186	0.784629	0.489032	0.058175	0.191741	0.074142	0.067942	0.076011	0.123160	0.350096	0.396498	0.099001	0.148407	0.248940	0.319194	0.184265	0.193281	0.427114	0.507805	0.225557	0.132595	0.193529	0.152580	0.166725	0.190672	0.305971	0.248725	0.077443	0.152337	0.342085	0.318007	0.112614	0.103588	0.607060	0.659973	0.212597	0.213208	0.445747	0.672749
67	0.055791	0.077619	0.480899	0.398043	0.090896	0.224964	0.177638	0.078974	0.105911	0.115647	0.298101	0.612520	0.454972	0.382419	0.516090	0.149791	0.215584	0.218396	0.639518	0.414830	0.143018	0.257632	0.159661	0.063579	0.376006	0.406252	0.782412	0.473970	0.035418	0.133322	0.075046	0.066035	0.093829	0.162832	0.219567	0.461127	0.132492	0.149236	0.221605	0.321288	0.169177	0.172104	0.425698	0.510636	0.231301	0.138276	0.193255	0.166264	0.264049	0.264792	0.324282	0.250604	0.093071	0.131476	0.341589	0.362887	0.085473	0.092353	0.614290	0.671700	0.208250	0.210076	0.444167	0.673837
68	0.057226	0.077709	0.498027	0.391830	0.098027	0.263663	0.194625	0.085570	0.103669	0.116131	0.303205	0.538502	0.357421	0.336224	0.507527	0.122694	0.359437	0.334120	0.646343	0.430466	0.145170	0.268394	0.172920	0.062860	0.373920	0.412384	0.774655	0.465167	0.038610	0.122461	0.074929	0.061296	0.100531	0.166771	0.251214	0.470976	0.142691	0.151847	0.276672	0.327346	0.094315	0.111161	0.451779	0.509230	0.238310	0.141641	0.190302	0.170227	0.341599	0.303135	0.333259	0.248991	0.091043	0.134183	0.338091	0.385208	0.061042	0.080874	0.657391	0.710518	0.206701	0.208174	0.423281	0.718976
69	0.057550	0.081680	0.537154	0.380215	0.096097	0.262716	0.286271	0.091537	0.109462	0.123097	0.377750	0.478193	0.149825	0.264660	0.504152	0.133999	0.535651	0.491671	0.652192	0.429109	0.147527	0.271586	0.197850	0.070953	0.369928	0.407311	0.761012	0.444337	0.039752	0.122663	0.068238	0.058685	0.105776	0.171788	0.250871	0.473084	0.154904	0.158420	0.390476	0.348695	0.104782	0.120685	0.449219	0.503600	0.240964	0.145690	0.178500	0.155189	0.343010	0.308563	0.371138	0.240615	0.094529	0.158525	0.334901	0.381739	0.046663	0.072561	0.708025	0.735791	0.211224	0.218480	0.429924	0.771987
70	0.058713	0.085498	0.531390	0.384908	0.096697	0.263511	0.397035	0.108069	0.110353	0.123286	0.412204	0.396276	0.144155	0.264605	0.498690	0.204161	0.618449	0.565636	0.659285	0.449372	0.139165	0.271392	0.194963	0.083276	0.364020	0.401370	0.754097	0.399341	0.039548	0.112256	0.066316	0.064715	0.106868	0.173625	0.231115	0.479661	0.187969	0.161444	0.397562	0.357242	0.108163	0.131993	0.459072	0.503257	0.233271	0.145229	0.170981	0.132671	0.340677	0.305038	0.401724	0.238817	0.088353	0.161754	0.328847	0.340135	0.050420	0.074672	0.703798	0.740112	0.212216	0.204766	0.421318	0.759760
71	0.068619	0.089622	0.530286	0.419542	0.120881	0.257401	0.413330	0.118678	0.108115	0.129141	0.465660	0.349577	0.135260	0.313683	0.500829	0.297953	0.668866	0.611142	0.690291	0.510253	0.137279	0.268849	0.192148	0.086407	0.351200	0.399456	0.671891	0.401288	0.041394	0.129918	0.078459	0.125012	0.107322	0.173606	0.234776	0.505974	0.189004	0.161374	0.420894	0.357086	0.114204	0.137374	0.450442	0.502514	0.228118	0.154776	0.133111	0.120025	0.334390	0.297183	0.405838	0.238480	0.085388	0.151211	0.255512	0.299339	0.067895	0.091346	0.785850	0.748342	0.210791	0.189714	0.357664	0.730286
72	0.085358	0.096272	0.532248	0.448548	0.162753	0.278204	0.464102	0.123001	0.117601	0.145640	0.569313	0.336327	0.114843	0.322247	0.463339	0.389055	0.731147	0.709769	0.726059	0.536769	0.126785	0.270571	0.190302	0.105198	0.344283	0.379365	0.505532	0.406270	0.042607	0.142742	0.077007	0.143659	0.110426	0.171037	0.238241	0.507594	0.189136	0.157544	0.460473	0.353338	0.118175	0.139651	0.452948	0.511682	0.211332	0.151888	0.096641	0.122717	0.333483	0.295279	0.402042	0.240331	0.084261	0.154995	0.211630	0.269368	0.088560	0.111328	0.920183	0.759002	0.207408	0.184597	0.318389	0.708469
73	0.106438	0.098688	0.528409	0.465061	0.195664	0.251212	0.532484	0.163677	0.120082	0.138779	0.615318	0.384009	0.113861	0.318032	0.477070	0.436816	0.909711	0.890066	0.730173	0.535932	0.107074	0.265836	0.187099	0.112379	0.183762	0.196332	0.428427	0.314230	0.051430	0.167657	0.076250	0.169574	0.116366	0.160108	0.236211	0.499971	0.187576	0.175494	0.471644	0.323481	0.120441	0.140362	0.472642	0.497818	0.115119	0.138906	0.285205	0.171434	0.333389	0.290104	0.402533	0.225643	0.084446	0.165205	0.191527	0.300666	0.109276	0.132986	0.988962	0.730331	0.198415	0.175668	0.316123	0.697552
74	0.105543	0.098354	0.525807	0.458488	0.316822	0.333046	0.561460	0.199966	0.194118	0.206568	0.654578	0.384149	0.112719	0.307964	0.487710	0.441430	0.945065	0.907905	0.712400	0.535629	0.080215	0.264627	0.203335	0.161991	0.134066	0.175888	0.359316	0.302398	0.063524	0.194131	0.101170	0.197501	0.116048	0.145067	0.257608	0.499049	0.188875	0.224784	0.471352	0.243709	0.121496	0.141481	0.503599	0.428989	0.109584	0.141598	0.428313	0.244216	0.329979	0.285973	0.406226	0.197822	0.091834	0.217714	0.162916	0.334513	0.129277	0.154853	0.979359	0.675253	0.162563	0.168387	0.290563	0.695035
75	0.105048	0.098690	0.480715	0.506612	0.354402	0.356741	0.564201	0.203893	0.201157	0.218038	0.691612	0.439943	0.117670	0.308734	0.491009	0.463654	0.945714	0.908664	0.636641	0.516721	0.070795	0.181563	0.259317	0.234401	0.134697	0.174936	0.269415	0.376160	0.067944	0.198801	0.161428	0.214253	0.113555	0.135911	0.304063	0.491647	0.185879	0.229133	0.466303	0.234079	0.122327	0.145500	0.496662	0.394912	0.110097	0.149812	0.452930	0.253388	0.386632	0.411135	0.424480	0.174744	0.078363	0.211281	0.271407	0.301683	0.134145	0.160582	0.980270	0.586118	0.140267	0.163955	0.237167	0.678945
76	0.124594	0.105991	0.454644	0.553714	0.354774	0.345178	0.557526	0.203930	0.202449	0.218246	0.710906	0.422407	0.133942	0.311759	0.563175	0.482229	0.945639	0.907571	0.486981	0.515940	0.064364	0.180861	0.279005	0.246405	0.136089	0.176678	0.181319	0.379338	0.065952	0.190180	0.167408	0.246294	0.104655	0.134196	0.341876	0.410917	0.188504	0.260247	0.464609	0.217527	0.123754	0.149175	0.501083	0.436330	0.087704	0.141324	0.567485	0.251661	0.457452	0.483780	0.425997	0.124751	0.081937	0.209135	0.289346	0.266539	0.134096	0.160498	0.977628	0.506681	0.124907	0.162372	0.234638	0.616365
77	0.130696	0.109526	0.437765	0.561402	0.352035	0.309748	0.548870	0.205741	0.203127	0.220112	0.739191	0.386533	0.134069	0.299139	0.609801	0.502039	0.946079	0.907761	0.438540	0.510271	0.056942	0.186812	0.281795	0.253471	0.109939	0.150535	0.164491	0.385946	0.077279	0.192220	0.168555	0.291595	0.091429	0.091636	0.346805	0.336442	0.181810	0.264806	0.460104	0.189842	0.127197	0.154515	0.512410	0.435432	0.142105	0.210139	0.584070	0.275959	0.469789	0.483918	0.411864	0.119712	0.071950	0.195880	0.297303	0.258261	0.133704	0.160328	0.960472	0.495120	0.121581	0.157212	0.232406	0.607102
78	0.130278	0.109326	0.364836	0.567687	0.352281	0.315129	0.526468	0.205674	0.214480	0.221856	0.753018	0.375376	0.161024	0.301060	0.602006	0.525647	0.924709	0.884493	0.436190	0.501512	0.045229	0.174348	0.283359	0.272296	0.070740	0.104639	0.161582	0.387311	0.093797	0.195090	0.190586	0.313115	0.090415	0.081349	0.331723	0.300754	0.161762	0.269964	0.457552	0.188273	0.126475	0.155786	0.505006	0.417623	0.159388	0.213481	0.586089	0.292243	0.489239	0.483797	0.366274	0.193367	0.067481	0.183167	0.300900	0.259518	0.139998	0.173354	0.958057	0.503212	0.118244	0.151219	0.231697	0.618430
79	0.129846	0.114176	0.363482	0.596829	0.352739	0.320276	0.461045	0.204513	0.212519	0.218458	0.708896	0.402610	0.175673	0.327074	0.601869	0.539640	0.870388	0.842592	0.423873	0.527369	0.042610	0.183110	0.288117	0.288081	0.057383	0.077890	0.185483	0.387233	0.094371	0.195335	0.223886	0.315612	0.223762	0.183459	0.307554	0.428487	0.177979	0.282232	0.404288	0.179642	0.108249	0.138018	0.476314	0.401800	0.176087	0.229364	0.591938	0.297424	0.604246	0.624014	0.368166	0.233228	0.064571	0.183113	0.302463	0.261441	0.155365	0.194687	0.957981	0.521370	0.112683	0.146550	0.227752	0.629606
80	0.130113	0.116348	0.373160	0.596123	0.346948	0.318957	0.433362	0.204002	0.212098	0.217041	0.704999	0.436973	0.183223	0.330614	0.602293	0.565280	0.769540	0.754130	0.456812	0.527685	0.044585	0.183652	0.304271	0.307961	0.055667	0.067269	0.193970	0.387580	0.155234	0.243089	0.245613	0.320516	0.357757	0.260617	0.310146	0.444329	0.193495	0.282185	0.280402	0.132560	0.093877	0.114868	0.481558	0.433392	0.257448	0.336383	0.593548	0.297136	0.671689	0.713747	0.492064	0.236915	0.062902	0.179186	0.296048	0.262922	0.174913	0.213762	0.948968	0.535128	0.090530	0.146800	0.219013	0.626434
81	0.130489	0.110993	0.356287	0.594058	0.329097	0.302756	0.394940	0.200203	0.207045	0.198043	0.651725	0.458771	0.182948	0.319672	0.607681	0.562894	0.730827	0.727240	0.496838	0.488206	0.043341	0.173896	0.305720	0.308543	0.056824	0.068523	0.198136	0.425126	0.252933	0.267731	0.269406	0.322089	0.386429	0.269509	0.325197	0.497772	0.185792	0.279153	0.268211	0.095075	0.086284	0.100264	0.499044	0.464280	0.422271	0.478399	0.561765	0.281653	0.670896	0.714131	0.493453	0.247052	0.061048	0.173500	0.284179	0.241536	0.181996	0.218264	0.931058	0.531016	0.083936	0.150364	0.238023	0.608882
82	0.130030	0.107986	0.369668	0.564039	0.302369	0.290069	0.286118	0.180101	0.200901	0.188902	0.586502	0.428831	0.179305	0.302482	0.613980	0.533936	0.649460	0.652583	0.447871	0.420414	0.043383	0.169416	0.317197	0.302831	0.057791	0.079909	0.203463	0.445660	0.282905	0.264966	0.267356	0.297185	0.444232	0.392487	0.500160	0.471800	0.194999	0.283605	0.229345	0.092118	0.077254	0.097849	0.483152	0.450598	0.479955	0.486268	0.437936	0.223625	0.672900	0.713614	0.489663	0.249079	0.048730	0.095887	0.276776	0.186525	0.182037	0.220372	0.878276	0.483396	0.087664	0.144330	0.258896	0.596218
83	0.132091	0.107102	0.388633	0.525967	0.232904	0.225984	0.211149	0.121063	0.183531	0.178795	0.559135	0.405582	0.175122	0.231561	0.609639	0.489697	0.571126	0.515963	0.421579	0.424883	0.040001	0.162676	0.332310	0.300594	0.070556	0.099824	0.186010	0.474631	0.466717	0.344111	0.242884	0.308594	0.587554	0.502435	0.529192	0.484317	0.281921	0.336236	0.144875	0.108262	0.081527	0.145880	0.543837	0.433406	0.768742	0.785727	0.427384	0.184401	0.672967	0.714309	0.552502	0.250521	0.039658	0.054755	0.163941	0.181426	0.183241	0.223289	0.797127	0.438602	0.082146	0.138022	0.257833	0.545649
84	0.119458	0.105317	0.387568	0.513939	0.067737	0.150510	0.192705	0.105081	0.091050	0.074821	0.506135	0.404457	0.175232	0.213759	0.597466	0.409887	0.182784	0.140692	0.421394	0.446783	0.031517	0.145944	0.295096	0.242492	0.085186	0.115440	0.172453	0.581491	0.488893	0.357510	0.225893	0.306977	0.589585	0.504874	0.530460	0.486747	0.354632	0.333937	0.103602	0.116107	0.078017	0.151115	0.599595	0.458545	0.837213	0.812780	0.279584	0.182773	0.672231	0.714606	0.620913	0.251249	0.021899	0.062173	0.113604	0.183621	0.197500	0.237230	0.786401	0.378019	0.078744	0.133330	0.237150	0.486224
85	0.120535	0.112851	0.455986	0.524565	0.047984	0.132869	0.187196	0.106060	0.089644	0.075374	0.503339	0.351773	0.175319	0.213588	0.508208	0.377271	0.112608	0.122515	0.423329	0.485090	0.034870	0.148481	0.282729	0.210207	0.090228	0.118235	0.216182	0.591466	0.489117	0.357183	0.223539	0.289031	0.612493	0.506973	0.573766	0.492513	0.353810	0.299016	0.104091	0.122713	0.081752	0.170422	0.563877	0.574678	0.829989	0.804235	0.204175	0.147530	0.671366	0.714201	0.641582	0.272069	0.021155	0.078602	0.094850	0.184428	0.216087	0.238441	0.740382	0.347410	0.093733	0.142347	0.224976	0.471399
86	0.142285	0.119888	0.527738	0.513315	0.048361	0.133790	0.187288	0.117067	0.091688	0.079317	0.482903	0.463830	0.175756	0.213648	0.474353	0.361375	0.112244	0.119068	0.455278	0.484070	0.036209	0.144625	0.326138	0.207382	0.089513	0.118189	0.273983	0.654666	0.485920	0.354708	0.217719	0.247965	0.613983	0.509263	0.603200	0.508202	0.353156	0.305312	0.108853	0.140490	0.079306	0.176154	0.589422	0.572259	0.828753	0.801213	0.208443	0.148186	0.668470	0.714266	0.643289	0.315296	0.023210	0.086970	0.076767	0.188274	0.218584	0.233242	0.601956	0.362767	0.112873	0.146175	0.240631	0.462369
87	0.140128	0.118717	0.523109	0.446661	0.047651	0.123137	0.185206	0.112158	0.093743	0.076056	0.480139	0.516493	0.170260	0.210835	0.444665	0.334012	0.112501	0.114101	0.507049	0.459217	0.036419	0.133878	0.315839	0.187402	0.086413	0.125478	0.283685	0.751292	0.485125	0.364067	0.211152	0.246713	0.614615	0.513568	0.624474	0.523529	0.351448	0.273993	0.111319	0.152687	0.135099	0.207715	0.650635	0.555448	0.822519	0.797601	0.197765	0.143500	0.656643	0.683902	0.641663	0.349369	0.029159	0.111491	0.060908	0.197687	0.261375	0.282144	0.551730	0.420926	0.122767	0.145688	0.278886	0.459864
88	0.116504	0.108751	0.571332	0.414604	0.042002	0.100988	0.148519	0.105529	0.072962	0.078340	0.449656	0.513288	0.149274	0.207726	0.328711	0.310701	0.107514	0.104104	0.552652	0.457969	0.037213	0.134480	0.304185	0.154358	0.086621	0.125258	0.384243	0.790900	0.484384	0.363632	0.175276	0.288835	0.614360	0.514123	0.645932	0.530865	0.351444	0.267857	0.141286	0.151239	0.168477	0.244362	0.652363	0.645353	0.814760	0.778915	0.183719	0.141519	0.600051	0.612636	0.635580	0.360339	0.029239	0.112972	0.104130	0.200831	0.477336	0.436788	0.576566	0.444486	0.206071	0.246574	0.281346	0.457827
89	0.115800	0.108681	0.598095	0.400214	0.040820	0.108564	0.116934	0.088978	0.083313	0.090184	0.450044	0.475482	0.135674	0.209888	0.223948	0.274851	0.122235	0.134261	0.617562	0.443398	0.036020	0.131206	0.277469	0.105829	0.107252	0.141675	0.482052	0.791723	0.452749	0.322038	0.199382	0.318351	0.594087	0.498430	0.664393	0.476478	0.349839	0.263183	0.183632	0.147733	0.169779	0.243780	0.678487	0.673494	0.744900	0.679964	0.184422	0.141924	0.586325	0.603105	0.651946	0.362706	0.029513	0.114216	0.108727	0.192459	0.538308	0.466423	0.576226	0.492744	0.257889	0.309431	0.299845	0.463174
90	0.115789	0.107750	0.600312	0.335903	0.049040	0.105803	0.131421	0.082595	0.084858	0.093795	0.454091	0.445890	0.092093	0.186383	0.208818	0.235942	0.161599	0.217496	0.661739	0.477641	0.035441	0.134541	0.273489	0.065547	0.117923	0.147325	0.489189	0.795153	0.410023	0.304717	0.256520	0.324205	0.520002	0.454239	0.687935	0.457765	0.338296	0.250943	0.185108	0.147020	0.185704	0.250464	0.684722	0.684175	0.692261	0.668664	0.185508	0.146590	0.572794	0.602709	0.680910	0.347304	0.039232	0.122826	0.120843	0.169866	0.539248	0.479238	0.580827	0.531000	0.263150	0.313774	0.328521	0.483003
91	0.116341	0.102562	0.561674	0.344363	0.070216	0.122935	0.118670	0.079804	0.088267	0.091075	0.460959	0.439363	0.059216	0.134455	0.186500	0.192150	0.195237	0.290027	0.640099	0.529539	0.035452	0.135484	0.263745	0.089946	0.162356	0.165340	0.518242	0.800837	0.343371	0.240847	0.264231	0.321186	0.486685	0.449896	0.695227	0.400967	0.323337	0.247334	0.188460	0.160033	0.214093	0.271314	0.749074	0.689467	0.532286	0.429787	0.174212	0.148459	0.571154	0.617131	0.685752	0.314254	0.045165	0.123718	0.124947	0.128998	0.555008	0.503762	0.662378	0.549088	0.279193	0.317159	0.342288	0.492926
92	0.125988	0.108979	0.585965	0.363146	0.069920	0.121374	0.102148	0.078403	0.102027	0.105254	0.517467	0.436570	0.029908	0.092428	0.180370	0.104653	0.288793	0.425825	0.600156	0.531938	0.035439	0.144614	0.246778	0.127072	0.224830	0.203263	0.558226	0.867857	0.078558	0.160940	0.299977	0.317814	0.470922	0.392575	0.634576	0.360363	0.310932	0.247912	0.187189	0.183412	0.232296	0.291920	0.828762	0.698648	0.110388	0.171699	0.166245	0.149313	0.249617	0.322736	0.624509	0.345992	0.048701	0.120172	0.125455	0.122434	0.590802	0.521594	0.741104	0.553588	0.288912	0.317686	0.343466	0.503712
93	0.133862	0.119205	0.637805	0.350540	0.069437	0.124236	0.113058	0.081337	0.113174	0.119820	0.559802	0.451685	0.066880	0.114104	0.154025	0.094735	0.294039	0.464028	0.599359	0.515627	0.069361	0.182828	0.226222	0.125683	0.231750	0.200644	0.567511	0.855852	0.066972	0.154646	0.327442	0.322799	0.220326	0.144554	0.593585	0.392904	0.304916	0.243034	0.182323	0.194129	0.238423	0.297496	0.829921	0.695858	0.097710	0.130508	0.150914	0.148333	0.213880	0.306873	0.611900	0.379284	0.049745	0.100270	0.135569	0.122226	0.670610	0.558553	0.771299	0.538096	0.291080	0.319678	0.342385	0.516641
94	0.192366	0.191774	0.624674	0.338192	0.069157	0.129964	0.115404	0.082047	0.116327	0.121386	0.547170	0.478805	0.132361	0.143495	0.127506	0.110182	0.295459	0.474157	0.602811	0.498753	0.113325	0.206866	0.221725	0.135209	0.231137	0.202752	0.577969	0.855656	0.087377	0.163250	0.332344	0.329999	0.195044	0.135527	0.591752	0.406848	0.218934	0.158693	0.172872	0.186916	0.272808	0.294606	0.837722	0.694958	0.098203	0.153462	0.134538	0.106744	0.217144	0.305630	0.753473	0.406478	0.050795	0.101074	0.137587	0.115595	0.734620	0.558415	0.779497	0.551255	0.306736	0.343762	0.346900	0.522123
95	0.247434	0.230502	0.663700	0.324768	0.066834	0.130074	0.116249	0.058240	0.115434	0.118940	0.546391	0.431770	0.248412	0.214109	0.119763	0.136282	0.401311	0.719869	0.788437	0.471630	0.123723	0.264972	0.159287	0.146968	0.297758	0.293913	0.653021	0.802395	0.090364	0.166954	0.332441	0.331241	0.134789	0.128277	0.596815	0.400924	0.064621	0.125146	0.172330	0.179182	0.277246	0.297490	0.820975	0.682573	0.192134	0.231254	0.136735	0.080136	0.213393	0.303890	0.796956	0.501087	0.047299	0.073767	0.137452	0.103911	0.738137	0.570833	0.780038	0.622506	0.319142	0.380017	0.351902	0.518938
96	0.317607	0.250515	0.721170	0.319921	0.066977	0.121793	0.115356	0.051927	0.118226	0.115920	0.515190	0.306154	0.393748	0.285026	0.125283	0.157365	0.519632	0.820457	0.884843	0.424497	0.144721	0.305824	0.122004	0.152525	0.356053	0.377857	0.683911	0.789144	0.083118	0.102418	0.317015	0.307014	0.089606	0.122747	0.567888	0.406140	0.049776	0.115348	0.188713	0.177272	0.281722	0.288773	0.802105	0.594399	0.198607	0.234984	0.136875	0.075597	0.220804	0.305343	0.741496	0.512715	0.047641	0.069055	0.111557	0.101762	0.739227	0.584231	0.779586	0.692335	0.329841	0.414378	0.335901	0.506618
97	0.409454	0.280338	0.706349	0.320750	0.067808	0.119432	0.136619	0.050012	0.133174	0.122731	0.494164	0.285408	0.438433	0.328199	0.119670	0.158791	0.527255	0.821591	0.864327	0.429453	0.185255	0.355196	0.124733	0.152684	0.357593	0.380572	0.702195	0.705313	0.081189	0.091811	0.309846	0.235790	0.083105	0.107955	0.560689	0.442831	0.049483	0.078679	0.198608	0.192062	0.284913	0.288022	0.860482	0.555604	0.208138	0.248534	0.153101	0.075894	0.231982	0.320639	0.733273	0.510292	0.050372	0.068945	0.112537	0.100606	0.794214	0.655239	0.778632	0.738084	0.342365	0.459590	0.326389	0.485874
98	0.502376	0.338805	0.690965	0.354677	0.068326	0.103742	0.139443	0.049434	0.144793	0.126638	0.505390	0.287960	0.570302	0.488027	0.112179	0.159449	0.528377	0.822373	0.840980	0.465394	0.190568	0.359514	0.129948	0.150776	0.368091	0.391336	0.717208	0.610633	0.077682	0.083447	0.263235	0.191444	0.082663	0.102068	0.529747	0.441757	0.049760	0.073153	0.197897	0.187866	0.285644	0.287706	0.825517	0.555965	0.211792	0.253313	0.148546	0.069609	0.238272	0.333389	0.777025	0.492103	0.046370	0.057381	0.106151	0.092562	0.861794	0.680997	0.780083	0.769913	0.348542	0.481602	0.324891	0.461749
99	0.537760	0.345132	0.681791	0.384871	0.061207	0.100953	0.127392	0.046341	0.154126	0.133874	0.532179	0.286983	0.629325	0.564620	0.116140	0.158029	0.529994	0.825539	0.841978	0.465013	0.202150	0.369472	0.130382	0.149284	0.369570	0.392789	0.678256	0.565607	0.078679	0.084789	0.222781	0.188936	0.087561	0.107155	0.527507	0.428747	0.047715	0.069843	0.183328	0.189914	0.270456	0.246309	0.868518	0.444318	0.207958	0.241947	0.138717	0.063401	0.280424	0.380659	0.804458	0.466586	0.039309	0.053986	0.103691	0.114290	0.859129	0.692705	0.785728	0.782645	0.346816	0.483126	0.317793	0.420277
100	0.545447	0.349981	0.637229	0.398897	0.045883	0.085787	0.124939	0.050826	0.195660	0.156134	0.544029	0.285874	0.806603	0.662430	0.111602	0.154087	0.524684	0.824091	0.789551	0.450122	0.206391	0.376353	0.144376	0.147499	0.363766	0.386957	0.626393	0.589665	0.079184	0.091551	0.211760	0.177774	0.083988	0.099291	0.484960	0.397992	0.046287	0.065526	0.229056	0.191636	0.271030	0.249350	0.891794	0.380995	0.221254	0.244764	0.139203	0.052413	0.294104	0.382517	0.807130	0.465015	0.036024	0.054365	0.103043	0.134827	0.855084	0.701669	0.768743	0.770571	0.340659	0.482692	0.312299	0.391437
101	0.566834	0.367917	0.630714	0.406684	0.032352	0.066626	0.126734	0.057137	0.256622	0.203551	0.546601	0.287146	0.818224	0.664987	0.118360	0.149629	0.519138	0.809140	0.792196	0.389004	0.210414	0.373783	0.147355	0.114459	0.360996	0.385026	0.615338	0.595668	0.073720	0.101933	0.138112	0.154645	0.081720	0.097379	0.473421	0.410925	0.041400	0.051102	0.278339	0.197541	0.265024	0.245030	0.897880	0.392092	0.254097	0.254589	0.139429	0.038553	0.290712	0.371361	0.804086	0.501036	0.034467	0.053133	0.094992	0.146135	0.861778	0.690789	0.694229	0.735413	0.334832	0.506193	0.280466	0.381331
