	203_C_T2_ih_ND_01.c3d	203_C_T2_ih_ND_01.c3d	203_C_T2_ih_ND_01.c3d	203_C_T2_ih_ND_01.c3d	203_C_T2_ih_ND_01.c3d	203_C_T2_ih_ND_01.c3d	203_C_T2_ih_ND_01.c3d	203_C_T2_ih_ND_01.c3d	203_C_T2_ih_ND_02.c3d	203_C_T2_ih_ND_02.c3d	203_C_T2_ih_ND_02.c3d	203_C_T2_ih_ND_02.c3d	203_C_T2_ih_ND_02.c3d	203_C_T2_ih_ND_02.c3d	203_C_T2_ih_ND_02.c3d	203_C_T2_ih_ND_02.c3d	203_C_T2_ih_ND_03.c3d	203_C_T2_ih_ND_03.c3d	203_C_T2_ih_ND_03.c3d	203_C_T2_ih_ND_03.c3d	203_C_T2_ih_ND_03.c3d	203_C_T2_ih_ND_03.c3d	203_C_T2_ih_ND_03.c3d	203_C_T2_ih_ND_03.c3d	203_C_T2_ih_ND_04.c3d	203_C_T2_ih_ND_04.c3d	203_C_T2_ih_ND_04.c3d	203_C_T2_ih_ND_04.c3d	203_C_T2_ih_ND_04.c3d	203_C_T2_ih_ND_04.c3d	203_C_T2_ih_ND_04.c3d	203_C_T2_ih_ND_04.c3d	203_C_T2_ih_ND_05.c3d	203_C_T2_ih_ND_05.c3d	203_C_T2_ih_ND_05.c3d	203_C_T2_ih_ND_05.c3d	203_C_T2_ih_ND_05.c3d	203_C_T2_ih_ND_05.c3d	203_C_T2_ih_ND_05.c3d	203_C_T2_ih_ND_05.c3d	203_C_T2_ih_ND_06.c3d	203_C_T2_ih_ND_06.c3d	203_C_T2_ih_ND_06.c3d	203_C_T2_ih_ND_06.c3d	203_C_T2_ih_ND_06.c3d	203_C_T2_ih_ND_06.c3d	203_C_T2_ih_ND_06.c3d	203_C_T2_ih_ND_06.c3d	203_C_T2_ih_ND_08.c3d	203_C_T2_ih_ND_08.c3d	203_C_T2_ih_ND_08.c3d	203_C_T2_ih_ND_08.c3d	203_C_T2_ih_ND_08.c3d	203_C_T2_ih_ND_08.c3d	203_C_T2_ih_ND_08.c3d	203_C_T2_ih_ND_08.c3d	203_C_T2_ih_ND_09.c3d	203_C_T2_ih_ND_09.c3d	203_C_T2_ih_ND_09.c3d	203_C_T2_ih_ND_09.c3d	203_C_T2_ih_ND_09.c3d	203_C_T2_ih_ND_09.c3d	203_C_T2_ih_ND_09.c3d	203_C_T2_ih_ND_09.c3d	203_C_T2_ih_ND_10.c3d	203_C_T2_ih_ND_10.c3d	203_C_T2_ih_ND_10.c3d	203_C_T2_ih_ND_10.c3d	203_C_T2_ih_ND_10.c3d	203_C_T2_ih_ND_10.c3d	203_C_T2_ih_ND_10.c3d	203_C_T2_ih_ND_10.c3d
	Biceps femoris_lat	Semitendinosus_lat	Vastus lateralis_lat	Vastus medialis_lat	Biceps femoris_med	Semitendinosus_med	Vastus lateralis_med	Vastus medialis_med	Biceps femoris_lat	Semitendinosus_lat	Vastus lateralis_lat	Vastus medialis_lat	Biceps femoris_med	Semitendinosus_med	Vastus lateralis_med	Vastus medialis_med	Biceps femoris_lat	Semitendinosus_lat	Vastus lateralis_lat	Vastus medialis_lat	Biceps femoris_med	Semitendinosus_med	Vastus lateralis_med	Vastus medialis_med	Biceps femoris_lat	Semitendinosus_lat	Vastus lateralis_lat	Vastus medialis_lat	Biceps femoris_med	Semitendinosus_med	Vastus lateralis_med	Vastus medialis_med	Biceps femoris_lat	Semitendinosus_lat	Vastus lateralis_lat	Vastus medialis_lat	Biceps femoris_med	Semitendinosus_med	Vastus lateralis_med	Vastus medialis_med	Biceps femoris_lat	Semitendinosus_lat	Vastus lateralis_lat	Vastus medialis_lat	Biceps femoris_med	Semitendinosus_med	Vastus lateralis_med	Vastus medialis_med	Biceps femoris_lat	Semitendinosus_lat	Vastus lateralis_lat	Vastus medialis_lat	Biceps femoris_med	Semitendinosus_med	Vastus lateralis_med	Vastus medialis_med	Biceps femoris_lat	Semitendinosus_lat	Vastus lateralis_lat	Vastus medialis_lat	Biceps femoris_med	Semitendinosus_med	Vastus lateralis_med	Vastus medialis_med	Biceps femoris_lat	Semitendinosus_lat	Vastus lateralis_lat	Vastus medialis_lat	Biceps femoris_med	Semitendinosus_med	Vastus lateralis_med	Vastus medialis_med
	P2D	P2D	P2D	P2D	P2D	P2D	P2D	P2D	P2D	P2D	P2D	P2D	P2D	P2D	P2D	P2D	P2D	P2D	P2D	P2D	P2D	P2D	P2D	P2D	P2D	P2D	P2D	P2D	P2D	P2D	P2D	P2D	P2D	P2D	P2D	P2D	P2D	P2D	P2D	P2D	P2D	P2D	P2D	P2D	P2D	P2D	P2D	P2D	P2D	P2D	P2D	P2D	P2D	P2D	P2D	P2D	P2D	P2D	P2D	P2D	P2D	P2D	P2D	P2D	P2D	P2D	P2D	P2D	P2D	P2D	P2D	P2D
	EMG_lat	EMG_lat	EMG_lat	EMG_lat	EMG_med	EMG_med	EMG_med	EMG_med	EMG_lat	EMG_lat	EMG_lat	EMG_lat	EMG_med	EMG_med	EMG_med	EMG_med	EMG_lat	EMG_lat	EMG_lat	EMG_lat	EMG_med	EMG_med	EMG_med	EMG_med	EMG_lat	EMG_lat	EMG_lat	EMG_lat	EMG_med	EMG_med	EMG_med	EMG_med	EMG_lat	EMG_lat	EMG_lat	EMG_lat	EMG_med	EMG_med	EMG_med	EMG_med	EMG_lat	EMG_lat	EMG_lat	EMG_lat	EMG_med	EMG_med	EMG_med	EMG_med	EMG_lat	EMG_lat	EMG_lat	EMG_lat	EMG_med	EMG_med	EMG_med	EMG_med	EMG_lat	EMG_lat	EMG_lat	EMG_lat	EMG_med	EMG_med	EMG_med	EMG_med	EMG_lat	EMG_lat	EMG_lat	EMG_lat	EMG_med	EMG_med	EMG_med	EMG_med
ITEM	Y	Y	Y	Y	Y	Y	Y	Y	Y	Y	Y	Y	Y	Y	Y	Y	Y	Y	Y	Y	Y	Y	Y	Y	Y	Y	Y	Y	Y	Y	Y	Y	Y	Y	Y	Y	Y	Y	Y	Y	Y	Y	Y	Y	Y	Y	Y	Y	Y	Y	Y	Y	Y	Y	Y	Y	Y	Y	Y	Y	Y	Y	Y	Y	Y	Y	Y	Y	Y	Y	Y	Y
1	0.154035	0.242375	0.160017	0.268598	0.205486	0.779293	0.147230	0.241090	0.288657	0.522233	0.142953	0.216715	0.287205	0.386254	0.136343	0.335011	0.240908	0.185165	0.139392	0.215446	0.535023	0.585310	0.213928	0.383244	0.116758	0.150278	0.128522	0.492021	0.145490	0.315012	0.100431	0.209556	0.259853	0.367438	0.137975	0.469653	0.331258	0.419451	0.267708	0.193007	0.474592	0.445836	0.098955	0.420413	0.201673	0.306714	0.195792	0.167225	0.087217	0.302572	0.166567	0.096241	0.191862	0.226019	0.116828	0.168732	0.185641	0.233648	0.189367	0.279800	0.238787	0.247653	0.141617	0.245247	0.071748	0.078188	0.245948	0.256014	0.138626	0.301923	0.172195	0.135600
2	0.157264	0.235229	0.163673	0.263865	0.214650	0.785008	0.158201	0.241330	0.222016	0.452523	0.140113	0.201849	0.268952	0.367498	0.147009	0.335553	0.240344	0.169802	0.138990	0.191166	0.596845	0.644273	0.213011	0.381187	0.108805	0.150891	0.126481	0.405086	0.144954	0.362502	0.088048	0.226009	0.250642	0.350126	0.133259	0.506842	0.331450	0.422557	0.219327	0.169687	0.445718	0.410518	0.098588	0.384004	0.242382	0.285812	0.210849	0.177343	0.071130	0.237884	0.175550	0.151544	0.194574	0.226556	0.106558	0.172666	0.187179	0.234873	0.184132	0.217458	0.255564	0.245734	0.121475	0.251310	0.058458	0.074920	0.239205	0.231249	0.129560	0.304045	0.169645	0.132959
3	0.161631	0.234614	0.160690	0.260059	0.221300	0.794074	0.162126	0.242612	0.207671	0.413900	0.143206	0.226637	0.269125	0.364731	0.146985	0.340026	0.249801	0.192213	0.103641	0.180106	0.666466	0.694360	0.189845	0.375439	0.109871	0.153787	0.109655	0.401545	0.147040	0.426133	0.085987	0.228797	0.229624	0.308403	0.118130	0.491604	0.331379	0.423285	0.212988	0.135725	0.329467	0.260170	0.110229	0.336211	0.260249	0.293306	0.210856	0.201090	0.111989	0.174398	0.172328	0.273652	0.194032	0.214909	0.104415	0.183609	0.148808	0.189304	0.175499	0.214412	0.267315	0.259188	0.121402	0.319615	0.050535	0.075001	0.236046	0.219659	0.126700	0.310175	0.167181	0.132177
4	0.161941	0.227007	0.154930	0.259490	0.221582	0.798936	0.245080	0.234009	0.208346	0.421395	0.192789	0.265771	0.276745	0.372168	0.151076	0.351544	0.299530	0.223891	0.059862	0.181312	0.699918	0.710215	0.192692	0.327734	0.109276	0.158243	0.103734	0.327206	0.146577	0.443690	0.087452	0.228828	0.230719	0.259755	0.120385	0.448389	0.331674	0.423733	0.213747	0.180220	0.315555	0.268778	0.124008	0.346185	0.261651	0.294820	0.216490	0.213568	0.124221	0.163054	0.164027	0.309099	0.192938	0.196953	0.103573	0.193979	0.114522	0.162314	0.198553	0.236241	0.267077	0.264454	0.124564	0.506766	0.050190	0.074267	0.234135	0.201232	0.133362	0.324830	0.157684	0.127568
5	0.156514	0.223816	0.158521	0.258420	0.221405	0.803805	0.369072	0.241048	0.244711	0.431803	0.199247	0.272679	0.287440	0.373781	0.156719	0.358723	0.289574	0.205599	0.052666	0.181677	0.718974	0.723971	0.196843	0.260362	0.108531	0.178445	0.081615	0.297683	0.138996	0.442833	0.108404	0.229914	0.174701	0.258245	0.146060	0.481852	0.340715	0.432402	0.211176	0.224280	0.291148	0.302243	0.125966	0.270259	0.263145	0.289205	0.218282	0.219644	0.130804	0.169254	0.166027	0.378389	0.180628	0.200135	0.102998	0.189645	0.116626	0.166340	0.200165	0.229830	0.267517	0.264088	0.186351	0.634015	0.048479	0.065941	0.236795	0.247081	0.156412	0.348540	0.178232	0.122251
6	0.139054	0.204111	0.151888	0.264337	0.216430	0.812738	0.412701	0.262571	0.250144	0.417255	0.196247	0.391057	0.309832	0.370941	0.148369	0.333728	0.272272	0.183304	0.090526	0.204835	0.724340	0.721820	0.183370	0.262777	0.093878	0.163494	0.098144	0.301081	0.137400	0.453023	0.117424	0.231084	0.133919	0.193703	0.268746	0.591137	0.337184	0.447426	0.202774	0.226982	0.293909	0.307844	0.138089	0.287080	0.263914	0.271190	0.216157	0.221709	0.129401	0.158692	0.175467	0.420819	0.164196	0.200233	0.104983	0.192660	0.116297	0.163303	0.206376	0.170821	0.268083	0.264324	0.375252	0.662286	0.051352	0.064960	0.173120	0.241121	0.185658	0.359830	0.192817	0.120848
7	0.131064	0.200111	0.144891	0.267752	0.220520	0.805037	0.419179	0.269630	0.238085	0.385855	0.259653	0.510052	0.380020	0.404334	0.156653	0.307569	0.271665	0.221227	0.159044	0.202559	0.725591	0.714991	0.174158	0.372253	0.087853	0.153475	0.102632	0.287618	0.138240	0.449500	0.117749	0.231471	0.144426	0.147748	0.383670	0.599631	0.328848	0.466894	0.199911	0.240185	0.334178	0.356687	0.149009	0.295889	0.263210	0.259873	0.214963	0.222408	0.168820	0.231822	0.173560	0.432809	0.172762	0.200349	0.116432	0.201731	0.120636	0.155421	0.214358	0.158061	0.274385	0.273658	0.429584	0.661637	0.056521	0.063021	0.159150	0.239030	0.194344	0.339151	0.195799	0.121831
8	0.127852	0.189898	0.149088	0.270079	0.214938	0.743278	0.417012	0.269738	0.227830	0.310130	0.293172	0.529860	0.435697	0.502196	0.160450	0.305125	0.267614	0.234112	0.166401	0.219604	0.717645	0.703485	0.183774	0.383929	0.094887	0.147846	0.121936	0.284549	0.139427	0.450650	0.116678	0.250134	0.170668	0.168556	0.396353	0.597567	0.349391	0.490260	0.204315	0.246145	0.355292	0.384862	0.139069	0.300756	0.262305	0.257176	0.212600	0.224633	0.184619	0.252717	0.187565	0.479801	0.209864	0.220508	0.136608	0.204668	0.112899	0.137200	0.203973	0.152513	0.280995	0.281327	0.430857	0.669861	0.058748	0.084650	0.100842	0.230606	0.188628	0.323485	0.191216	0.127613
9	0.106682	0.147108	0.146753	0.251894	0.200740	0.663786	0.416490	0.263996	0.255917	0.290269	0.295272	0.638697	0.432153	0.525683	0.157825	0.293594	0.235594	0.260104	0.197432	0.285124	0.686035	0.657279	0.182334	0.388652	0.096122	0.151004	0.118009	0.279672	0.147549	0.454428	0.119236	0.314119	0.215201	0.226806	0.427562	0.593549	0.360924	0.496164	0.189797	0.247212	0.358289	0.402374	0.120939	0.255458	0.256349	0.241486	0.200275	0.234455	0.186451	0.256859	0.175438	0.504783	0.229690	0.236064	0.151617	0.198880	0.115581	0.196647	0.173412	0.155416	0.282325	0.280670	0.430921	0.688853	0.071949	0.099345	0.115151	0.250487	0.188320	0.323683	0.181147	0.139053
10	0.087483	0.126572	0.146208	0.197516	0.188986	0.577853	0.418720	0.246199	0.268126	0.293890	0.330574	0.713694	0.446752	0.519798	0.177854	0.303560	0.216301	0.284110	0.202825	0.306803	0.649969	0.606027	0.178752	0.395488	0.131132	0.168551	0.118540	0.241448	0.148830	0.455751	0.153077	0.332032	0.219560	0.236940	0.435369	0.581963	0.359030	0.493194	0.149074	0.247421	0.260527	0.307967	0.126099	0.200190	0.242375	0.230572	0.183189	0.232648	0.177082	0.258489	0.182002	0.503633	0.233978	0.238687	0.175884	0.189885	0.115124	0.203356	0.180473	0.151985	0.396031	0.351302	0.432423	0.709318	0.075579	0.101415	0.126707	0.254145	0.189248	0.319866	0.167599	0.154403
11	0.085486	0.124569	0.145686	0.173591	0.180825	0.520334	0.418918	0.250862	0.276803	0.303063	0.385457	0.716882	0.480417	0.525158	0.208868	0.319725	0.220039	0.273275	0.203727	0.307162	0.605425	0.557478	0.171894	0.396750	0.147602	0.184007	0.119432	0.219474	0.133655	0.460071	0.180282	0.326582	0.242848	0.259822	0.443671	0.571139	0.358362	0.491744	0.143223	0.247113	0.233523	0.281840	0.142405	0.205596	0.225127	0.231162	0.200741	0.217313	0.162080	0.253617	0.191260	0.530892	0.240138	0.227671	0.216904	0.242765	0.112326	0.206689	0.171677	0.160333	0.515429	0.422170	0.432505	0.726960	0.096173	0.112595	0.133292	0.262074	0.180022	0.298371	0.161286	0.157025
12	0.084817	0.120482	0.160348	0.179632	0.177392	0.479771	0.431333	0.265409	0.291471	0.305734	0.383095	0.720172	0.514843	0.533749	0.215198	0.310143	0.155438	0.248190	0.203229	0.303104	0.573865	0.532646	0.176997	0.376647	0.146534	0.204766	0.123460	0.212858	0.108143	0.462736	0.190775	0.330473	0.252356	0.259636	0.442903	0.569202	0.354798	0.486162	0.162709	0.241670	0.218660	0.256466	0.123671	0.247439	0.221693	0.229576	0.208051	0.208420	0.167899	0.253409	0.188230	0.541097	0.239124	0.221030	0.247333	0.293290	0.115554	0.206752	0.138582	0.134222	0.510863	0.416407	0.437754	0.736632	0.132601	0.182038	0.143160	0.252089	0.190691	0.301214	0.157547	0.153604
13	0.077691	0.117534	0.155954	0.170327	0.178557	0.453046	0.460950	0.278927	0.264938	0.261247	0.381914	0.712534	0.542200	0.538266	0.213666	0.297439	0.149629	0.275907	0.207816	0.303652	0.563645	0.521502	0.212935	0.368855	0.155099	0.214797	0.122265	0.144939	0.111253	0.469402	0.191541	0.325572	0.240341	0.244574	0.436655	0.554927	0.348431	0.469742	0.170729	0.239902	0.160574	0.309573	0.136041	0.302842	0.248375	0.220621	0.217365	0.208360	0.172830	0.254655	0.183774	0.565896	0.266210	0.244766	0.260606	0.296323	0.127526	0.268158	0.158756	0.128349	0.499657	0.413334	0.453198	0.742701	0.163397	0.247126	0.149624	0.229896	0.214672	0.303921	0.158248	0.155424
14	0.065056	0.105206	0.154628	0.162933	0.176817	0.431472	0.466455	0.292875	0.259888	0.249624	0.388683	0.648276	0.554400	0.515602	0.219405	0.314681	0.143094	0.317734	0.203929	0.290781	0.559324	0.529213	0.278705	0.370029	0.195053	0.304908	0.096317	0.081763	0.127867	0.473100	0.199848	0.315290	0.242458	0.314853	0.430059	0.477644	0.344691	0.451646	0.174663	0.238500	0.148093	0.355445	0.130778	0.306374	0.248082	0.204294	0.272082	0.210502	0.148170	0.218559	0.168064	0.554978	0.308648	0.267753	0.259267	0.305270	0.140797	0.306538	0.202226	0.136063	0.496853	0.418567	0.458829	0.745943	0.181602	0.266782	0.139512	0.196817	0.237581	0.338066	0.159637	0.160358
15	0.060310	0.096479	0.162265	0.162646	0.172682	0.410121	0.458926	0.314361	0.257263	0.255312	0.362468	0.641732	0.556816	0.475528	0.212391	0.323525	0.154059	0.378753	0.174006	0.273761	0.560223	0.529225	0.335121	0.391266	0.192752	0.304558	0.136837	0.104263	0.174830	0.461725	0.214094	0.308077	0.246618	0.451106	0.267875	0.358650	0.333612	0.428467	0.174529	0.233580	0.145630	0.373590	0.129274	0.301267	0.214890	0.169648	0.332491	0.210998	0.121392	0.182246	0.144148	0.532672	0.338938	0.283715	0.261228	0.329046	0.194159	0.377483	0.213230	0.149432	0.492937	0.415542	0.458462	0.744020	0.252758	0.372609	0.137896	0.201595	0.256503	0.369379	0.160930	0.169239
16	0.060342	0.106742	0.164987	0.163475	0.166063	0.393697	0.458379	0.312914	0.239667	0.287098	0.363909	0.619960	0.553959	0.453710	0.233952	0.390846	0.179823	0.459608	0.155437	0.264898	0.518587	0.485721	0.360165	0.410307	0.204060	0.336896	0.131819	0.103662	0.188857	0.383647	0.215134	0.324038	0.233648	0.457877	0.253662	0.351666	0.318632	0.405965	0.180227	0.226174	0.173655	0.404704	0.106458	0.290732	0.173626	0.129860	0.340685	0.192306	0.120397	0.190896	0.139173	0.488024	0.344451	0.287845	0.269135	0.364773	0.196508	0.386065	0.213511	0.147979	0.488984	0.396139	0.458779	0.742611	0.257749	0.382243	0.137555	0.205251	0.265437	0.381306	0.161463	0.177870
17	0.069090	0.149299	0.154384	0.157468	0.167169	0.394169	0.459762	0.311724	0.178586	0.239544	0.352575	0.556020	0.550230	0.443945	0.247233	0.441309	0.195664	0.486361	0.125704	0.203112	0.432445	0.393266	0.363848	0.420528	0.220255	0.341882	0.168186	0.142181	0.189770	0.338089	0.215291	0.326462	0.205831	0.462868	0.176491	0.296191	0.310905	0.395624	0.298578	0.262545	0.176382	0.423050	0.118158	0.427321	0.175031	0.138570	0.339839	0.171228	0.120315	0.201676	0.157740	0.472680	0.346700	0.289297	0.294078	0.409449	0.205185	0.394173	0.267959	0.147575	0.487808	0.391093	0.459349	0.741511	0.255962	0.389648	0.126655	0.182812	0.264799	0.377365	0.165087	0.191191
18	0.079278	0.161015	0.144323	0.149299	0.168391	0.389124	0.459928	0.311681	0.165580	0.233732	0.307093	0.515126	0.548700	0.443491	0.247590	0.438889	0.195192	0.474877	0.115020	0.111498	0.321326	0.318854	0.359554	0.421703	0.216522	0.336552	0.230321	0.164640	0.195422	0.340907	0.207136	0.343019	0.234588	0.526694	0.146829	0.190284	0.309507	0.393474	0.397370	0.332060	0.194076	0.413793	0.190318	0.373605	0.177600	0.161389	0.362513	0.165516	0.147235	0.262110	0.184034	0.412190	0.345007	0.285841	0.337866	0.449671	0.210340	0.399160	0.365163	0.207662	0.476640	0.385691	0.459490	0.738737	0.265373	0.407486	0.102341	0.150573	0.265901	0.373156	0.165228	0.193513
19	0.077537	0.159564	0.136003	0.132824	0.154346	0.368622	0.456273	0.314099	0.134304	0.223082	0.238496	0.504384	0.542407	0.442855	0.264270	0.431424	0.187749	0.478944	0.120822	0.122860	0.254972	0.283229	0.347557	0.440905	0.206932	0.339373	0.243050	0.166539	0.200817	0.332470	0.197732	0.364726	0.259812	0.585231	0.120254	0.141118	0.309170	0.392589	0.444463	0.356469	0.193556	0.374374	0.196884	0.360327	0.176273	0.176694	0.408278	0.168393	0.170393	0.313417	0.185258	0.387251	0.346751	0.293542	0.373207	0.473416	0.211525	0.401570	0.369683	0.207328	0.474528	0.376572	0.457302	0.689984	0.268965	0.430626	0.122161	0.142525	0.267836	0.370144	0.163235	0.199539
20	0.078331	0.206757	0.130608	0.117068	0.147854	0.350986	0.456004	0.323584	0.085972	0.266163	0.222059	0.487004	0.527797	0.441771	0.309078	0.432242	0.182052	0.494447	0.136092	0.128306	0.203557	0.262405	0.354359	0.478870	0.206335	0.321556	0.250833	0.182238	0.207409	0.328702	0.195440	0.384884	0.274932	0.701935	0.109418	0.137390	0.306975	0.390999	0.454661	0.324245	0.199579	0.304088	0.204058	0.360737	0.178439	0.181137	0.451105	0.171276	0.178837	0.319896	0.191210	0.234764	0.355129	0.320555	0.378604	0.478989	0.211694	0.408052	0.375704	0.225354	0.476223	0.378176	0.456825	0.553001	0.257435	0.428466	0.373063	0.307786	0.266962	0.360512	0.161951	0.222501
21	0.079273	0.240997	0.126034	0.114855	0.148431	0.340713	0.407492	0.340213	0.084915	0.283606	0.227216	0.485813	0.473018	0.432651	0.312682	0.436672	0.170078	0.484821	0.138331	0.126704	0.192484	0.270070	0.419439	0.497448	0.206670	0.316872	0.266792	0.187167	0.208502	0.322245	0.205984	0.395845	0.280165	0.710921	0.123706	0.183181	0.290424	0.377077	0.457951	0.320412	0.193192	0.283168	0.204255	0.359010	0.189706	0.214163	0.468860	0.167028	0.188719	0.324819	0.200182	0.230093	0.361758	0.344456	0.378845	0.478659	0.223796	0.398422	0.392234	0.237126	0.476331	0.382004	0.407288	0.450073	0.278267	0.465311	0.536635	0.474611	0.256991	0.339100	0.141533	0.245748
22	0.078944	0.242726	0.122307	0.112101	0.148782	0.327168	0.321012	0.343651	0.084547	0.283253	0.195747	0.419757	0.402788	0.334692	0.334324	0.436981	0.174043	0.476703	0.140137	0.231132	0.178289	0.249252	0.467790	0.462725	0.179299	0.230500	0.293022	0.236395	0.209154	0.303838	0.218035	0.365061	0.279917	0.704865	0.127843	0.203092	0.266994	0.352330	0.476805	0.347784	0.190939	0.251579	0.244636	0.227127	0.221905	0.285703	0.469010	0.152112	0.224140	0.360191	0.209058	0.207923	0.369813	0.356586	0.378671	0.475876	0.224662	0.380346	0.388809	0.236296	0.474524	0.379660	0.261711	0.449512	0.293973	0.503387	0.561675	0.511672	0.236930	0.315044	0.113248	0.264984
23	0.076646	0.249494	0.096369	0.095595	0.150623	0.301064	0.287771	0.343617	0.083708	0.271717	0.226590	0.422183	0.387356	0.246656	0.414533	0.435859	0.155769	0.406846	0.142622	0.299783	0.197767	0.239639	0.487879	0.466596	0.182443	0.239010	0.295427	0.233858	0.217687	0.291672	0.208907	0.316600	0.271793	0.623613	0.121601	0.210130	0.242418	0.321484	0.496348	0.386926	0.213085	0.265220	0.267641	0.207724	0.249142	0.315375	0.467195	0.195888	0.249420	0.381699	0.212947	0.203293	0.367481	0.354662	0.376929	0.471741	0.200974	0.335437	0.379775	0.228236	0.468760	0.373271	0.210775	0.449984	0.284637	0.485578	0.590103	0.563738	0.226598	0.313313	0.103862	0.271859
24	0.084067	0.291134	0.085953	0.102130	0.145990	0.254197	0.292048	0.354725	0.091464	0.247360	0.441041	0.416492	0.374922	0.240811	0.469057	0.419382	0.151918	0.374995	0.135686	0.314951	0.228822	0.267669	0.502447	0.456660	0.177462	0.205512	0.298992	0.229542	0.234449	0.303174	0.178566	0.306454	0.290425	0.603603	0.161840	0.208276	0.213203	0.280326	0.512933	0.420902	0.196781	0.254849	0.245006	0.230926	0.256192	0.318666	0.470864	0.211006	0.252043	0.383384	0.246059	0.188851	0.349053	0.341192	0.375199	0.471194	0.195172	0.323061	0.382737	0.230093	0.465296	0.369742	0.213886	0.422614	0.266461	0.457263	0.690741	0.624801	0.230257	0.317638	0.103962	0.272764
25	0.102299	0.345974	0.096118	0.132425	0.141222	0.214041	0.296506	0.368827	0.106275	0.249677	0.463697	0.330692	0.330978	0.223915	0.484761	0.395400	0.122056	0.285235	0.138765	0.330673	0.223698	0.274955	0.505260	0.450696	0.143115	0.171422	0.309086	0.221630	0.246554	0.328354	0.160229	0.304124	0.318778	0.587906	0.179302	0.207865	0.205327	0.254553	0.524990	0.443328	0.189746	0.244348	0.238025	0.252612	0.256456	0.343830	0.501705	0.208099	0.253929	0.369484	0.264426	0.159813	0.330599	0.327832	0.373760	0.471190	0.188102	0.284722	0.346434	0.227014	0.461870	0.365376	0.208433	0.385937	0.291897	0.474079	0.756621	0.649979	0.233339	0.319057	0.104887	0.266661
26	0.114377	0.368639	0.116450	0.168867	0.139947	0.194355	0.294573	0.372555	0.126884	0.257146	0.501744	0.306681	0.278317	0.222239	0.482485	0.380025	0.116325	0.278461	0.138957	0.337006	0.227494	0.274969	0.504840	0.448740	0.141996	0.179412	0.270810	0.213460	0.249296	0.326948	0.154657	0.296274	0.306421	0.537703	0.178476	0.195103	0.235299	0.239692	0.529313	0.451844	0.189697	0.255264	0.238550	0.251805	0.241812	0.348137	0.528897	0.214832	0.233209	0.308713	0.263855	0.151240	0.322715	0.325177	0.368574	0.467878	0.194669	0.305370	0.236852	0.174334	0.302691	0.254768	0.203461	0.343704	0.408175	0.579671	0.772223	0.650833	0.233247	0.322387	0.103867	0.256726
27	0.115377	0.388830	0.122995	0.222353	0.142045	0.187231	0.294151	0.367370	0.132121	0.236656	0.557847	0.318913	0.230414	0.233142	0.494640	0.368741	0.118416	0.266816	0.178516	0.331708	0.229117	0.259436	0.500714	0.448739	0.123915	0.170005	0.257585	0.222797	0.240865	0.304731	0.154257	0.288885	0.297038	0.515516	0.219957	0.203175	0.267773	0.238228	0.524857	0.455025	0.181675	0.257363	0.215337	0.232835	0.230292	0.351804	0.518141	0.226345	0.243452	0.297146	0.265504	0.148853	0.316054	0.324868	0.346972	0.445233	0.195115	0.311223	0.227277	0.153535	0.157053	0.146933	0.205420	0.304688	0.443937	0.603168	0.771654	0.648512	0.240641	0.365609	0.097475	0.249946
28	0.123715	0.414950	0.122921	0.246379	0.144487	0.185297	0.297289	0.354808	0.160329	0.186357	0.576683	0.321508	0.199260	0.243936	0.499403	0.353500	0.119420	0.240853	0.229293	0.348729	0.228335	0.253956	0.480310	0.454529	0.133204	0.180703	0.279922	0.215972	0.215522	0.274899	0.134758	0.287259	0.235099	0.270604	0.240962	0.206355	0.282557	0.235123	0.520333	0.456513	0.141301	0.233438	0.110883	0.169690	0.301528	0.399052	0.477614	0.228360	0.321802	0.317449	0.260321	0.161065	0.316080	0.326770	0.323752	0.408805	0.198860	0.324440	0.214680	0.148358	0.155606	0.144872	0.189517	0.274579	0.445734	0.588447	0.763869	0.646215	0.235584	0.381189	0.096863	0.249126
29	0.117994	0.406510	0.135755	0.253255	0.143279	0.179364	0.279213	0.342508	0.194821	0.238098	0.575842	0.321759	0.186419	0.246751	0.501355	0.348010	0.151598	0.240538	0.253635	0.370265	0.223140	0.226447	0.442068	0.457793	0.130460	0.191905	0.297974	0.214316	0.185622	0.268907	0.125505	0.263800	0.229068	0.184913	0.323678	0.245669	0.278886	0.242287	0.517831	0.456968	0.095141	0.177105	0.090757	0.155113	0.317089	0.441924	0.455035	0.229570	0.332843	0.298293	0.249150	0.163901	0.299718	0.307579	0.310948	0.402729	0.177842	0.286894	0.212985	0.287666	0.142518	0.134720	0.158858	0.257164	0.439156	0.573288	0.637756	0.503383	0.211502	0.368057	0.093571	0.248646
30	0.132411	0.432003	0.141669	0.292548	0.133601	0.167576	0.232907	0.328086	0.199703	0.245260	0.577148	0.291512	0.181497	0.248353	0.491011	0.292579	0.164889	0.276083	0.262770	0.353268	0.214012	0.257095	0.405122	0.440604	0.139945	0.213023	0.288576	0.187052	0.185318	0.281337	0.127732	0.252526	0.223781	0.171883	0.328591	0.216168	0.279388	0.251134	0.517232	0.456949	0.087121	0.165200	0.075917	0.092272	0.324008	0.458374	0.453733	0.232150	0.362833	0.288895	0.251069	0.247446	0.259399	0.282995	0.316630	0.402178	0.172124	0.280282	0.184482	0.311466	0.106942	0.111252	0.147244	0.246399	0.420530	0.520656	0.569322	0.460444	0.185186	0.336721	0.093607	0.246683
31	0.152711	0.451718	0.146290	0.348091	0.120129	0.156904	0.217788	0.312216	0.201068	0.237364	0.516693	0.177018	0.190466	0.268865	0.480970	0.170706	0.173769	0.290608	0.269382	0.298413	0.215181	0.306902	0.391136	0.422429	0.122445	0.182225	0.281453	0.169182	0.182140	0.271462	0.131090	0.240457	0.223326	0.178164	0.339701	0.211110	0.284851	0.253632	0.517236	0.456999	0.083348	0.157908	0.116603	0.144723	0.322398	0.454343	0.443761	0.227685	0.510016	0.376683	0.235474	0.327326	0.208493	0.263037	0.321580	0.414353	0.149845	0.261308	0.191740	0.343850	0.108743	0.124435	0.151750	0.236367	0.407695	0.487494	0.569271	0.391255	0.158946	0.303322	0.094604	0.244723
32	0.155866	0.432509	0.172601	0.401145	0.110304	0.153070	0.217630	0.300053	0.194014	0.235482	0.379979	0.178236	0.229336	0.301548	0.480677	0.117731	0.169994	0.263823	0.316498	0.311169	0.214587	0.312230	0.393622	0.414102	0.118189	0.176421	0.283901	0.172623	0.173003	0.280335	0.132760	0.208694	0.215910	0.172403	0.350423	0.264754	0.284575	0.258728	0.507692	0.453311	0.075528	0.127495	0.262375	0.169783	0.326181	0.448396	0.413173	0.229578	0.535831	0.370960	0.177821	0.333271	0.195647	0.259165	0.317483	0.431088	0.161665	0.259422	0.190069	0.362307	0.117848	0.140350	0.159779	0.230150	0.397303	0.475811	0.503887	0.299471	0.131376	0.280769	0.097410	0.243363
33	0.156715	0.428174	0.181293	0.423232	0.102975	0.156111	0.218798	0.312906	0.188384	0.232322	0.385473	0.159649	0.254070	0.312248	0.477733	0.105275	0.187149	0.272049	0.330547	0.286591	0.211236	0.325359	0.401792	0.407666	0.136120	0.198147	0.293754	0.203386	0.171110	0.287947	0.135132	0.171683	0.177868	0.165887	0.428643	0.322489	0.284911	0.265295	0.428284	0.419419	0.085578	0.098493	0.286361	0.163853	0.329463	0.446037	0.365802	0.267325	0.552588	0.377829	0.176279	0.354212	0.187644	0.253531	0.314103	0.415156	0.148937	0.239344	0.237845	0.395277	0.125570	0.149025	0.163836	0.227605	0.393645	0.467980	0.353161	0.157890	0.128293	0.285704	0.093109	0.250729
34	0.157320	0.429506	0.201672	0.426042	0.096940	0.163133	0.217225	0.322912	0.178640	0.217174	0.335959	0.148457	0.258080	0.316516	0.447344	0.100327	0.238849	0.305443	0.328404	0.277917	0.222899	0.371016	0.410427	0.380111	0.143753	0.203433	0.292002	0.223167	0.164493	0.285112	0.127025	0.137555	0.162487	0.157752	0.500398	0.341577	0.285150	0.265576	0.347069	0.370648	0.106927	0.162700	0.358906	0.167124	0.327838	0.443206	0.327169	0.323037	0.553521	0.376219	0.180421	0.488090	0.183636	0.252184	0.285458	0.372962	0.131434	0.206110	0.257595	0.430998	0.130032	0.155893	0.165320	0.225528	0.330580	0.385642	0.262989	0.113292	0.126242	0.290975	0.089363	0.270355
35	0.160134	0.415687	0.220506	0.485635	0.092997	0.171583	0.214289	0.324634	0.182612	0.210494	0.248512	0.121220	0.255759	0.316919	0.443519	0.094954	0.250919	0.321057	0.358512	0.281211	0.224645	0.371256	0.393222	0.320615	0.140749	0.190661	0.348063	0.241012	0.166307	0.289833	0.104768	0.107248	0.158829	0.179367	0.515336	0.357105	0.286197	0.272833	0.297875	0.357043	0.184903	0.267522	0.379602	0.186672	0.314202	0.405785	0.345027	0.336339	0.516451	0.352095	0.222576	0.517117	0.187951	0.250267	0.233135	0.331497	0.127401	0.191671	0.263384	0.435591	0.133830	0.159493	0.165548	0.224973	0.195500	0.257338	0.263922	0.147397	0.122316	0.290367	0.082531	0.291002
36	0.154887	0.378879	0.242007	0.546442	0.092557	0.173056	0.215580	0.320745	0.155773	0.170945	0.226718	0.118759	0.255438	0.301168	0.455428	0.126840	0.255440	0.334558	0.370224	0.286226	0.222796	0.368004	0.316078	0.234206	0.143517	0.201951	0.363427	0.252260	0.155292	0.282172	0.094662	0.092569	0.189512	0.211107	0.503129	0.352998	0.292243	0.296200	0.293078	0.392542	0.195260	0.336601	0.384102	0.189817	0.293009	0.373070	0.357503	0.325131	0.504868	0.344386	0.220912	0.524665	0.170796	0.219559	0.214545	0.310769	0.117287	0.151565	0.285979	0.494077	0.137419	0.151123	0.161177	0.215934	0.146132	0.234770	0.305432	0.175850	0.119171	0.292293	0.074188	0.293974
37	0.142985	0.337933	0.250515	0.549917	0.090810	0.170902	0.217769	0.308779	0.137640	0.116483	0.232549	0.118776	0.259953	0.320229	0.406969	0.248571	0.238571	0.325849	0.336139	0.246784	0.220747	0.367760	0.252722	0.182058	0.155390	0.213800	0.356674	0.247840	0.131569	0.260965	0.094262	0.091288	0.205994	0.210855	0.467893	0.322307	0.298115	0.306801	0.281353	0.429099	0.208897	0.390735	0.321145	0.137370	0.279297	0.363558	0.358358	0.346947	0.509925	0.341948	0.207961	0.509885	0.135456	0.177445	0.217019	0.306710	0.112574	0.150789	0.270929	0.536082	0.149977	0.150829	0.146923	0.176695	0.143742	0.231919	0.370337	0.381794	0.119314	0.294485	0.072630	0.281079
38	0.136887	0.330290	0.308509	0.536867	0.089624	0.168661	0.220306	0.292056	0.152382	0.124825	0.241013	0.174562	0.268757	0.361453	0.326174	0.293709	0.226895	0.319793	0.330786	0.237438	0.198484	0.360833	0.208963	0.173167	0.142802	0.182192	0.335023	0.245248	0.099728	0.220109	0.091081	0.093652	0.207694	0.205391	0.460045	0.338064	0.298752	0.316669	0.245384	0.426338	0.214696	0.416178	0.269629	0.135686	0.288901	0.357186	0.330926	0.398781	0.372164	0.224447	0.230457	0.467936	0.121195	0.173748	0.218625	0.313167	0.111366	0.137537	0.261451	0.559668	0.151682	0.149997	0.149772	0.132227	0.155586	0.226794	0.475633	0.443529	0.119463	0.293311	0.073501	0.262866
39	0.137818	0.278972	0.316394	0.538299	0.089160	0.170191	0.235498	0.284442	0.155709	0.126619	0.294675	0.243082	0.269892	0.368717	0.267851	0.296933	0.223727	0.310957	0.320326	0.203653	0.167339	0.352580	0.178534	0.172819	0.142043	0.181243	0.334505	0.282035	0.075413	0.193537	0.090846	0.123895	0.208674	0.205314	0.463685	0.378244	0.296523	0.342678	0.199704	0.398682	0.215916	0.442614	0.205873	0.134352	0.300034	0.356967	0.246536	0.430871	0.290349	0.193249	0.247721	0.467262	0.139625	0.199409	0.220926	0.336215	0.132345	0.134499	0.259086	0.544101	0.152747	0.150781	0.162025	0.138046	0.177239	0.250724	0.484494	0.511828	0.119123	0.295302	0.073313	0.248263
40	0.129120	0.258441	0.408199	0.539299	0.084707	0.164855	0.236183	0.272320	0.158342	0.129046	0.356442	0.251791	0.266890	0.363579	0.262890	0.338616	0.219455	0.312694	0.307042	0.225659	0.155082	0.347464	0.174009	0.172735	0.146455	0.217377	0.400261	0.439426	0.068522	0.200848	0.091972	0.151653	0.208482	0.217446	0.467682	0.437382	0.293398	0.352789	0.148102	0.364830	0.197671	0.519135	0.122281	0.096877	0.300390	0.353355	0.225987	0.439878	0.258610	0.180527	0.237627	0.457757	0.188008	0.228667	0.217233	0.345507	0.170401	0.205496	0.261812	0.531846	0.161504	0.168100	0.167836	0.151237	0.182056	0.272830	0.518990	0.573524	0.120335	0.308933	0.073557	0.242110
41	0.135421	0.278747	0.495698	0.541626	0.079051	0.160295	0.225426	0.250247	0.160885	0.145920	0.343490	0.255078	0.256290	0.347221	0.249379	0.402435	0.213967	0.301983	0.374036	0.345945	0.145979	0.342109	0.176412	0.172807	0.150859	0.209879	0.435975	0.539608	0.067747	0.199788	0.090061	0.154032	0.207285	0.228426	0.448050	0.532729	0.277285	0.339633	0.116971	0.343011	0.234342	0.563426	0.083875	0.075741	0.257347	0.328601	0.222445	0.440860	0.234347	0.177296	0.239794	0.327662	0.277781	0.267398	0.205424	0.346480	0.198037	0.253806	0.223862	0.510137	0.178354	0.190546	0.172672	0.154405	0.179043	0.275015	0.592340	0.619329	0.124542	0.329665	0.072405	0.241342
42	0.146745	0.281857	0.505845	0.564630	0.074936	0.160182	0.222671	0.230339	0.171236	0.176029	0.377587	0.256317	0.240712	0.332119	0.233333	0.448901	0.163597	0.250674	0.532520	0.425629	0.141761	0.341864	0.179761	0.162454	0.156824	0.197600	0.538730	0.578174	0.070357	0.200643	0.085299	0.164674	0.201041	0.224655	0.406334	0.552561	0.227920	0.313627	0.115723	0.334841	0.225114	0.511695	0.084739	0.046454	0.214230	0.268154	0.207478	0.440311	0.237305	0.247235	0.196963	0.226435	0.311116	0.281507	0.198442	0.355641	0.223265	0.417252	0.199891	0.485568	0.192621	0.207615	0.173306	0.165939	0.211167	0.307707	0.605957	0.638373	0.131232	0.336645	0.071629	0.241375
43	0.137288	0.271262	0.513196	0.532943	0.074408	0.158411	0.229107	0.228590	0.156095	0.168283	0.398258	0.260080	0.238967	0.339258	0.228225	0.471592	0.165886	0.243262	0.582235	0.467023	0.139536	0.341932	0.186742	0.137911	0.198206	0.214968	0.562897	0.600177	0.089521	0.210846	0.082340	0.189944	0.227846	0.266556	0.353330	0.625762	0.176427	0.302061	0.117896	0.335133	0.225452	0.500676	0.071675	0.043920	0.192284	0.194851	0.204709	0.439472	0.223278	0.281121	0.191902	0.197542	0.317118	0.278852	0.196881	0.358147	0.234262	0.502611	0.191519	0.486272	0.211167	0.227285	0.167253	0.184604	0.253074	0.360510	0.637747	0.638955	0.122358	0.295033	0.071265	0.242964
44	0.138011	0.265299	0.547076	0.512869	0.068749	0.147049	0.224029	0.228091	0.146576	0.163816	0.403778	0.265059	0.246326	0.348608	0.231635	0.480350	0.197345	0.252679	0.556820	0.462915	0.140002	0.338805	0.188137	0.111722	0.215911	0.228095	0.578001	0.722329	0.105660	0.227160	0.079449	0.220670	0.215622	0.269190	0.361422	0.726508	0.171269	0.311449	0.118191	0.337080	0.206002	0.451138	0.072523	0.080364	0.184786	0.173633	0.210369	0.440660	0.155270	0.263534	0.193275	0.198301	0.321791	0.274465	0.200734	0.359613	0.246410	0.546372	0.152671	0.418352	0.226677	0.238519	0.158959	0.181365	0.276899	0.415583	0.630877	0.639324	0.111180	0.257979	0.070596	0.243273
45	0.138870	0.265883	0.553845	0.515300	0.069235	0.139621	0.215605	0.230557	0.131919	0.161088	0.435701	0.289261	0.253224	0.350162	0.232262	0.482384	0.216125	0.266789	0.596234	0.487989	0.142570	0.296375	0.183282	0.103884	0.206379	0.217632	0.665136	0.796848	0.115113	0.234432	0.080548	0.244135	0.190916	0.262149	0.407857	0.781196	0.166531	0.302884	0.116420	0.336886	0.180210	0.338154	0.132583	0.307028	0.183474	0.178793	0.208110	0.441980	0.115917	0.259535	0.175556	0.158417	0.322484	0.272135	0.209491	0.359109	0.265001	0.601017	0.104201	0.257219	0.229765	0.240610	0.155996	0.181453	0.280074	0.416857	0.610804	0.635886	0.125777	0.272565	0.073231	0.250345
46	0.146311	0.268681	0.549004	0.506449	0.076764	0.147955	0.209030	0.252756	0.122227	0.176901	0.427190	0.228318	0.234324	0.329698	0.230083	0.482614	0.214525	0.250087	0.637944	0.560306	0.143661	0.260996	0.174969	0.106581	0.235612	0.231770	0.700735	0.808312	0.113902	0.219092	0.078407	0.252855	0.210538	0.316299	0.439841	0.792858	0.149175	0.294507	0.116170	0.337218	0.132250	0.209076	0.143777	0.315510	0.170256	0.173768	0.201543	0.433230	0.113772	0.258633	0.110723	0.131662	0.326382	0.271187	0.211367	0.366895	0.284384	0.658922	0.098150	0.158346	0.228107	0.238024	0.157375	0.192090	0.276977	0.434618	0.567670	0.505831	0.146417	0.295021	0.071471	0.266694
47	0.147982	0.270060	0.564047	0.438890	0.077156	0.148021	0.256237	0.266048	0.119269	0.205527	0.368674	0.197608	0.200203	0.305929	0.225466	0.488298	0.211350	0.219888	0.664059	0.597304	0.143531	0.258434	0.164257	0.110727	0.287378	0.275254	0.702055	0.805610	0.113327	0.218026	0.076743	0.247949	0.229832	0.352681	0.435374	0.779410	0.142818	0.295608	0.116153	0.338124	0.114644	0.150843	0.149433	0.323131	0.171546	0.175164	0.200214	0.402698	0.122053	0.269985	0.120754	0.247972	0.330207	0.273773	0.202919	0.364832	0.273828	0.656003	0.084771	0.144986	0.226051	0.240351	0.157462	0.215237	0.266703	0.439341	0.533612	0.488909	0.152559	0.299788	0.062818	0.274712
48	0.150663	0.272162	0.586421	0.434438	0.079079	0.150023	0.289852	0.269381	0.118639	0.210948	0.316066	0.155339	0.189290	0.305011	0.225529	0.562314	0.225145	0.214140	0.680294	0.597612	0.130059	0.215214	0.143045	0.115021	0.292538	0.262626	0.681606	0.785116	0.112724	0.215679	0.078465	0.244160	0.234165	0.421268	0.425445	0.745902	0.147510	0.294223	0.116399	0.339787	0.153448	0.194349	0.164859	0.332689	0.171543	0.179048	0.176877	0.380772	0.131363	0.279477	0.095899	0.259836	0.330063	0.272375	0.201564	0.324466	0.267950	0.692775	0.078479	0.171137	0.223952	0.236047	0.163054	0.244351	0.240625	0.415931	0.525332	0.405121	0.153515	0.292985	0.057815	0.270515
49	0.154210	0.270236	0.580427	0.438978	0.085089	0.157903	0.295077	0.276385	0.102008	0.218146	0.301900	0.151981	0.191250	0.303105	0.237642	0.710115	0.261441	0.259457	0.649180	0.529141	0.104229	0.144127	0.118233	0.119505	0.286623	0.258922	0.671427	0.717260	0.125510	0.209726	0.075267	0.244247	0.240352	0.473641	0.418938	0.715104	0.148418	0.293595	0.116444	0.341584	0.193799	0.217748	0.176798	0.349571	0.171494	0.179324	0.123746	0.380658	0.120297	0.219586	0.109618	0.281570	0.331858	0.273686	0.198971	0.291890	0.267651	0.784523	0.064444	0.203965	0.218203	0.236955	0.171007	0.263529	0.242778	0.447222	0.447388	0.337197	0.154033	0.282179	0.056869	0.259923
50	0.156850	0.270118	0.571000	0.424958	0.088447	0.157201	0.294490	0.269448	0.085678	0.237570	0.243737	0.149951	0.194588	0.311246	0.217516	0.749987	0.309368	0.404584	0.539751	0.476191	0.103594	0.142061	0.111442	0.117525	0.284133	0.273979	0.608660	0.662478	0.129434	0.214033	0.082314	0.250861	0.238668	0.493676	0.404978	0.828672	0.150421	0.295955	0.116154	0.352927	0.202927	0.209603	0.161206	0.236628	0.167043	0.176881	0.112597	0.365654	0.122945	0.197739	0.146811	0.294061	0.331469	0.274576	0.187286	0.290413	0.246263	0.716632	0.070293	0.192843	0.211694	0.244215	0.171604	0.268327	0.241942	0.481136	0.372222	0.254311	0.154806	0.275787	0.063472	0.291087
51	0.155552	0.276378	0.547241	0.428322	0.094819	0.161268	0.299201	0.257666	0.087759	0.264244	0.234946	0.195974	0.189966	0.302107	0.202110	0.728774	0.300774	0.423584	0.442424	0.456034	0.107887	0.142988	0.117605	0.120804	0.259509	0.281883	0.571834	0.649027	0.129853	0.238358	0.099466	0.307156	0.229094	0.516154	0.468329	0.868903	0.166696	0.297117	0.116763	0.363337	0.198713	0.208538	0.200131	0.325725	0.154438	0.166920	0.106090	0.314111	0.118235	0.187177	0.144915	0.292836	0.332304	0.289820	0.181382	0.291025	0.236353	0.659358	0.083822	0.180969	0.205426	0.246393	0.172448	0.268807	0.197612	0.449247	0.348123	0.251471	0.157510	0.276209	0.069725	0.427054
52	0.154681	0.272951	0.472080	0.507243	0.122727	0.186195	0.319207	0.257103	0.093416	0.268788	0.216362	0.256350	0.174954	0.247150	0.198117	0.713401	0.291388	0.434772	0.428154	0.491933	0.103250	0.136661	0.153435	0.180149	0.259092	0.424747	0.586781	0.533791	0.130633	0.245386	0.101500	0.375181	0.223058	0.515156	0.486364	0.777790	0.170688	0.273769	0.117340	0.321408	0.183007	0.211318	0.241917	0.345563	0.119350	0.136742	0.104052	0.254500	0.112304	0.178244	0.151530	0.307680	0.332470	0.326904	0.184789	0.295171	0.223502	0.623388	0.189658	0.177506	0.198734	0.247084	0.197772	0.294219	0.145980	0.407358	0.291361	0.428572	0.159730	0.272866	0.077678	0.446647
53	0.130075	0.216518	0.470176	0.575619	0.146005	0.207318	0.332367	0.259605	0.102686	0.264618	0.159224	0.271102	0.175790	0.236357	0.201868	0.718019	0.270902	0.440558	0.384349	0.484725	0.081795	0.109262	0.177849	0.271336	0.287652	0.536012	0.483614	0.382206	0.130964	0.242558	0.098134	0.423543	0.240579	0.515467	0.529096	0.746217	0.163536	0.283394	0.117076	0.264739	0.187893	0.225572	0.247198	0.343413	0.118945	0.130291	0.105150	0.217208	0.099971	0.177783	0.155008	0.311370	0.332561	0.341529	0.182202	0.350886	0.203310	0.579724	0.254144	0.230628	0.193688	0.265769	0.240112	0.358181	0.115182	0.379094	0.380586	0.503317	0.164758	0.270745	0.093806	0.441109
54	0.119424	0.178621	0.513024	0.576858	0.148485	0.210065	0.329909	0.264387	0.114325	0.268541	0.151456	0.282063	0.186329	0.245243	0.218993	0.706890	0.297476	0.491693	0.313291	0.413761	0.086048	0.110224	0.178354	0.299266	0.287084	0.609777	0.409090	0.334498	0.136581	0.236810	0.096109	0.470517	0.246725	0.509548	0.498567	0.763694	0.165181	0.300049	0.112753	0.222407	0.149455	0.244592	0.367716	0.368718	0.122851	0.125741	0.102923	0.218104	0.092446	0.165868	0.141913	0.231360	0.330347	0.330717	0.187239	0.438507	0.174341	0.546730	0.326651	0.304480	0.195258	0.277074	0.248423	0.406104	0.134328	0.380054	0.353897	0.513978	0.176596	0.283207	0.138180	0.446214
55	0.141294	0.207744	0.505368	0.578153	0.153020	0.210646	0.331507	0.260376	0.116581	0.254020	0.160820	0.317322	0.188142	0.244892	0.234022	0.675284	0.325268	0.576247	0.250832	0.338337	0.116978	0.143013	0.178020	0.301403	0.234255	0.603317	0.401129	0.328610	0.137835	0.236675	0.109776	0.485431	0.233904	0.481176	0.482010	0.776260	0.169134	0.301283	0.118388	0.218117	0.149146	0.263205	0.375425	0.355140	0.106697	0.109260	0.096192	0.279329	0.079803	0.138151	0.159407	0.207239	0.336036	0.334476	0.210655	0.439307	0.168707	0.552707	0.380535	0.312997	0.192251	0.279412	0.296414	0.418237	0.147873	0.360878	0.293040	0.520241	0.201240	0.320353	0.147502	0.477305
56	0.150861	0.207365	0.476927	0.588018	0.167977	0.217793	0.324937	0.252707	0.134520	0.292208	0.174749	0.355239	0.192619	0.252430	0.229262	0.643667	0.324138	0.592818	0.196423	0.327626	0.146716	0.163365	0.185906	0.306940	0.214852	0.603747	0.394655	0.260948	0.136913	0.224956	0.235527	0.483938	0.260254	0.487977	0.480438	0.776124	0.165904	0.293781	0.131671	0.227625	0.150778	0.285440	0.368696	0.312434	0.122714	0.114799	0.100265	0.333109	0.077337	0.118970	0.178006	0.213307	0.359588	0.363562	0.265709	0.430612	0.121377	0.476736	0.415397	0.331484	0.179307	0.267907	0.302756	0.417500	0.141427	0.338328	0.281812	0.557684	0.226026	0.351996	0.149723	0.534827
57	0.157168	0.211862	0.478665	0.632529	0.187080	0.231660	0.327513	0.256902	0.152972	0.284663	0.187523	0.358914	0.192646	0.249598	0.227105	0.628145	0.307348	0.581244	0.159144	0.327037	0.183067	0.198388	0.190093	0.365891	0.216866	0.616217	0.341068	0.185072	0.175690	0.209868	0.283260	0.501829	0.255237	0.382624	0.477404	0.764028	0.161443	0.295976	0.141274	0.228689	0.150111	0.283165	0.324628	0.195764	0.184538	0.184089	0.093796	0.349965	0.068410	0.089091	0.156114	0.193412	0.330114	0.356278	0.312605	0.446551	0.109323	0.310177	0.429964	0.413434	0.163819	0.254377	0.300732	0.413941	0.161791	0.417509	0.316381	0.568224	0.227895	0.342754	0.151400	0.555042
58	0.150760	0.216003	0.473337	0.639130	0.197411	0.238134	0.335739	0.267724	0.209421	0.377907	0.187060	0.376354	0.183335	0.243055	0.222446	0.626025	0.333707	0.514408	0.170281	0.338419	0.212757	0.226403	0.196289	0.417270	0.211028	0.617934	0.360260	0.287036	0.200146	0.205322	0.293639	0.503980	0.265330	0.406120	0.434368	0.654934	0.159382	0.297294	0.158884	0.235122	0.153620	0.293015	0.323314	0.205155	0.228212	0.216958	0.093002	0.346340	0.077157	0.116977	0.159221	0.205313	0.298737	0.339996	0.315885	0.456001	0.136109	0.308934	0.473335	0.555416	0.154519	0.250989	0.300338	0.414464	0.142103	0.356079	0.351929	0.598003	0.225081	0.329296	0.158016	0.557761
59	0.150059	0.208969	0.430528	0.615034	0.204429	0.240784	0.344141	0.279079	0.235918	0.461839	0.191409	0.354815	0.170695	0.241454	0.222995	0.626680	0.463981	0.572479	0.182546	0.322033	0.219168	0.231237	0.199111	0.423722	0.210124	0.632025	0.315121	0.464016	0.211778	0.203950	0.297183	0.496629	0.276637	0.423968	0.389154	0.416843	0.155717	0.276492	0.202196	0.243774	0.184619	0.442107	0.424030	0.438647	0.246455	0.221715	0.091688	0.357015	0.082533	0.132667	0.159437	0.186655	0.315577	0.339108	0.325317	0.465258	0.162061	0.321759	0.504922	0.592948	0.138742	0.252271	0.305490	0.440950	0.192913	0.380551	0.355640	0.633451	0.238774	0.336853	0.166792	0.560077
60	0.146855	0.208457	0.403655	0.610205	0.215333	0.247695	0.345347	0.281642	0.267769	0.559532	0.196231	0.316637	0.155936	0.229978	0.226680	0.626882	0.490709	0.610443	0.187458	0.210981	0.216450	0.228791	0.217202	0.467056	0.227524	0.619329	0.224075	0.478968	0.212089	0.201278	0.313843	0.494953	0.250621	0.373380	0.333385	0.410531	0.176942	0.288652	0.220583	0.245756	0.248259	0.558627	0.385186	0.452364	0.252119	0.256757	0.091660	0.379780	0.095471	0.221468	0.158168	0.182189	0.316343	0.338828	0.359958	0.477630	0.208222	0.408593	0.499635	0.602205	0.130197	0.254252	0.327897	0.474375	0.207274	0.405494	0.357756	0.602961	0.252459	0.353082	0.177024	0.561158
61	0.143839	0.209174	0.386404	0.610073	0.231408	0.264660	0.346911	0.283711	0.286247	0.635890	0.274712	0.312799	0.151920	0.228375	0.227674	0.641031	0.517694	0.595199	0.192751	0.195660	0.217613	0.232416	0.225139	0.498940	0.190678	0.480457	0.210867	0.494837	0.217990	0.217299	0.325270	0.502603	0.236744	0.380168	0.241108	0.379016	0.196294	0.307826	0.227789	0.246666	0.296588	0.578860	0.413339	0.536529	0.248916	0.262283	0.115285	0.398995	0.102948	0.240271	0.170016	0.189681	0.315547	0.338984	0.410503	0.486493	0.264016	0.481717	0.491634	0.582924	0.128304	0.255039	0.351314	0.489897	0.224571	0.416932	0.339340	0.457195	0.259916	0.356839	0.203877	0.560166
62	0.141061	0.205227	0.393746	0.607152	0.250143	0.281985	0.345689	0.280421	0.287710	0.641817	0.304047	0.309836	0.154111	0.233824	0.227867	0.629184	0.531210	0.576063	0.173855	0.169148	0.217867	0.233512	0.247241	0.509480	0.183981	0.411516	0.267054	0.527942	0.230849	0.281531	0.338575	0.517863	0.224641	0.421698	0.196885	0.249279	0.196655	0.309366	0.274887	0.273499	0.297811	0.573857	0.425955	0.536040	0.253465	0.265856	0.123064	0.424229	0.108344	0.262247	0.197912	0.287727	0.330684	0.341307	0.446171	0.489243	0.270446	0.456385	0.449865	0.549563	0.129570	0.253096	0.364242	0.485029	0.247962	0.416363	0.269822	0.465183	0.258647	0.348192	0.234194	0.554876
63	0.140605	0.200299	0.397920	0.577168	0.263104	0.286910	0.341857	0.259194	0.289970	0.638157	0.305070	0.262450	0.154286	0.228813	0.214529	0.459102	0.522774	0.510500	0.228504	0.192525	0.218113	0.233808	0.287265	0.541717	0.172802	0.366687	0.275438	0.556208	0.231375	0.354916	0.341284	0.535218	0.219713	0.419592	0.208434	0.114181	0.204306	0.307182	0.312007	0.308768	0.295964	0.567858	0.441477	0.537960	0.264651	0.297738	0.116718	0.430467	0.112580	0.278111	0.199474	0.282066	0.345662	0.341467	0.461986	0.473976	0.272969	0.446945	0.406401	0.545897	0.127768	0.241689	0.362954	0.473576	0.267332	0.432844	0.271718	0.457539	0.258375	0.357997	0.251987	0.551060
64	0.142348	0.185228	0.362803	0.493688	0.269840	0.287283	0.306525	0.254875	0.283073	0.624564	0.344640	0.320848	0.149350	0.226144	0.191593	0.345761	0.516323	0.491333	0.271949	0.273538	0.223689	0.244514	0.317950	0.600898	0.187693	0.373981	0.273075	0.558715	0.233781	0.364531	0.337359	0.546862	0.176718	0.382273	0.215432	0.097155	0.214539	0.306174	0.338441	0.330602	0.273782	0.496720	0.331122	0.404672	0.265230	0.311448	0.116490	0.426088	0.139235	0.288083	0.203573	0.275790	0.354240	0.339490	0.469519	0.460537	0.275053	0.448346	0.369353	0.530193	0.127776	0.240780	0.358568	0.459515	0.288990	0.442663	0.278437	0.435660	0.261445	0.379445	0.256313	0.552206
65	0.142466	0.177197	0.305831	0.534975	0.269913	0.289045	0.312268	0.276919	0.300017	0.703461	0.344325	0.334509	0.146446	0.227731	0.182928	0.359308	0.531483	0.510437	0.280340	0.300583	0.255439	0.275780	0.327802	0.637570	0.206768	0.367196	0.271293	0.553135	0.233637	0.359146	0.335028	0.521962	0.162973	0.388976	0.237083	0.107883	0.220499	0.317186	0.374721	0.340250	0.276229	0.408195	0.242620	0.335586	0.271476	0.335404	0.117750	0.423658	0.159763	0.274782	0.197094	0.277539	0.364508	0.338289	0.465564	0.454846	0.262029	0.421926	0.355425	0.469122	0.129429	0.237217	0.356117	0.451336	0.290552	0.411433	0.281087	0.387550	0.270386	0.403899	0.256214	0.553451
66	0.119509	0.125570	0.276832	0.604785	0.282802	0.288829	0.356039	0.303941	0.280102	0.670073	0.345654	0.380879	0.144736	0.226812	0.178922	0.376560	0.569341	0.549857	0.357350	0.305678	0.285351	0.298137	0.324193	0.637348	0.205549	0.339677	0.249896	0.536272	0.257144	0.362217	0.337194	0.490105	0.153728	0.378158	0.259165	0.110746	0.225664	0.329491	0.396950	0.333400	0.219324	0.319261	0.219245	0.125186	0.292620	0.348253	0.118791	0.423754	0.262378	0.352591	0.193282	0.280543	0.372942	0.337481	0.458152	0.448649	0.252095	0.411779	0.300933	0.301647	0.133737	0.238791	0.355877	0.449881	0.287747	0.358950	0.224657	0.377283	0.279274	0.414372	0.257614	0.540525
67	0.119347	0.136902	0.273362	0.627824	0.306141	0.290082	0.396538	0.308403	0.269821	0.644272	0.362065	0.425591	0.138433	0.222755	0.176709	0.374234	0.486016	0.497704	0.356700	0.310257	0.310652	0.319467	0.306988	0.619328	0.202636	0.309837	0.244272	0.393176	0.369772	0.429489	0.339857	0.432863	0.123910	0.324695	0.268731	0.111008	0.229693	0.345663	0.406419	0.318755	0.207753	0.347153	0.173644	0.170652	0.295044	0.361291	0.117695	0.419585	0.264555	0.343201	0.202513	0.287875	0.374576	0.329216	0.457372	0.447628	0.237397	0.410199	0.240252	0.220941	0.146599	0.260363	0.354459	0.449179	0.284721	0.360967	0.207597	0.355845	0.283743	0.416971	0.259599	0.438508
68	0.125468	0.150217	0.273011	0.596615	0.314827	0.281763	0.415306	0.302491	0.218413	0.519426	0.363070	0.455277	0.128960	0.205813	0.167830	0.373131	0.414282	0.366217	0.353262	0.349450	0.337242	0.372733	0.308008	0.592740	0.185884	0.279055	0.268331	0.332589	0.480511	0.531862	0.342431	0.399575	0.108915	0.299694	0.259299	0.134641	0.244214	0.377740	0.409207	0.308127	0.284445	0.395802	0.181538	0.245575	0.341772	0.452090	0.109245	0.394919	0.260128	0.303225	0.243008	0.292908	0.373200	0.295448	0.456819	0.447595	0.214217	0.362244	0.191309	0.199098	0.150983	0.259539	0.332056	0.422727	0.250697	0.356259	0.260174	0.385802	0.286407	0.421342	0.256398	0.373790
69	0.166255	0.165854	0.263450	0.630582	0.304498	0.259826	0.407944	0.303443	0.198715	0.465434	0.321869	0.452209	0.138544	0.216216	0.124052	0.376873	0.398116	0.371098	0.345950	0.441602	0.344096	0.398830	0.316959	0.585925	0.156804	0.220206	0.269370	0.306744	0.540150	0.560154	0.311449	0.394607	0.112950	0.288810	0.249065	0.166061	0.260486	0.401340	0.409307	0.306860	0.298386	0.396967	0.213289	0.264153	0.403752	0.527728	0.106891	0.351098	0.261047	0.293394	0.255886	0.218348	0.374064	0.266058	0.459347	0.424371	0.226286	0.418653	0.243155	0.284715	0.145700	0.238387	0.316859	0.367945	0.251285	0.282028	0.372457	0.411560	0.284972	0.421503	0.254931	0.374745
70	0.190733	0.174976	0.270707	0.735689	0.297366	0.249602	0.398853	0.305542	0.187987	0.463147	0.307372	0.450391	0.145948	0.217395	0.115130	0.377639	0.372759	0.385790	0.346543	0.559237	0.336448	0.391671	0.318838	0.585399	0.151637	0.217615	0.208517	0.238091	0.554425	0.556050	0.234717	0.371212	0.085729	0.197339	0.244168	0.175703	0.272306	0.418010	0.409615	0.305690	0.268072	0.345088	0.241473	0.290533	0.414962	0.526941	0.108764	0.317839	0.274217	0.326020	0.246420	0.196330	0.374581	0.263195	0.458939	0.327289	0.247547	0.451373	0.482252	0.336633	0.144467	0.229867	0.299399	0.322923	0.218909	0.277485	0.451831	0.403132	0.279660	0.421073	0.236021	0.372834
71	0.188364	0.176696	0.276428	0.799555	0.298131	0.251184	0.407005	0.311326	0.182193	0.465291	0.288909	0.452100	0.134613	0.206305	0.112999	0.369423	0.371152	0.390313	0.329916	0.597260	0.323542	0.384117	0.310654	0.576402	0.143305	0.194518	0.251605	0.207943	0.557125	0.552871	0.211937	0.334384	0.077678	0.173507	0.206226	0.188823	0.284373	0.445411	0.404871	0.294570	0.306308	0.387979	0.315500	0.305734	0.458343	0.542033	0.113795	0.312796	0.283634	0.336127	0.234734	0.227666	0.365371	0.248067	0.450752	0.281411	0.262362	0.461750	0.569032	0.361525	0.149098	0.241037	0.265851	0.314062	0.207073	0.268581	0.485199	0.358364	0.267516	0.406783	0.224504	0.347290
72	0.195861	0.199611	0.278976	0.812225	0.296509	0.251237	0.418966	0.314478	0.176692	0.457198	0.269356	0.564492	0.128743	0.196814	0.112187	0.357672	0.400963	0.447120	0.269015	0.570897	0.303385	0.381557	0.306594	0.531480	0.135795	0.166973	0.307828	0.211492	0.651267	0.571914	0.205236	0.331501	0.075088	0.167559	0.237082	0.207603	0.290545	0.456711	0.400400	0.289925	0.295690	0.324554	0.343947	0.300150	0.479345	0.561613	0.114425	0.303923	0.264366	0.349646	0.259234	0.237041	0.330437	0.196548	0.425102	0.279135	0.309855	0.490336	0.586012	0.407460	0.156243	0.259948	0.264524	0.312835	0.139714	0.245213	0.707859	0.371088	0.249525	0.377285	0.224387	0.257236
73	0.239766	0.276659	0.348667	0.812013	0.295376	0.256541	0.429886	0.313559	0.096170	0.237403	0.347547	0.717896	0.129398	0.180576	0.117246	0.348817	0.414406	0.448300	0.266252	0.575493	0.286851	0.370976	0.298276	0.506231	0.093146	0.127650	0.314555	0.239065	0.673784	0.573892	0.183234	0.330940	0.071529	0.154300	0.339380	0.221236	0.290130	0.456669	0.395973	0.288495	0.280731	0.401702	0.408578	0.273961	0.507756	0.561099	0.116365	0.273458	0.185782	0.317431	0.285923	0.233797	0.311035	0.256560	0.384744	0.255213	0.329759	0.498151	0.624141	0.504661	0.162029	0.265483	0.266349	0.311127	0.127855	0.250136	0.791833	0.378451	0.247944	0.357798	0.224253	0.178947
74	0.299198	0.363080	0.411158	0.812034	0.304259	0.270038	0.436528	0.312466	0.080533	0.188426	0.390172	0.693067	0.128612	0.174403	0.123955	0.348128	0.322028	0.398385	0.173528	0.570950	0.284421	0.370930	0.295965	0.494412	0.075441	0.126610	0.312113	0.259930	0.675763	0.573513	0.159273	0.327923	0.069163	0.126968	0.449142	0.338833	0.295048	0.471537	0.385261	0.280817	0.256953	0.415691	0.529348	0.327254	0.512471	0.570160	0.104692	0.231545	0.168325	0.291811	0.288878	0.224136	0.307581	0.299295	0.377092	0.223872	0.330679	0.498730	0.701998	0.510802	0.158875	0.252641	0.266467	0.283168	0.132990	0.264616	0.812488	0.368672	0.266677	0.358651	0.221391	0.168806
75	0.352485	0.441563	0.427931	0.807262	0.320284	0.290269	0.434263	0.305653	0.096669	0.166790	0.379200	0.699916	0.127914	0.176493	0.124421	0.331774	0.274464	0.369956	0.148191	0.570259	0.284083	0.373021	0.279922	0.449136	0.087023	0.119602	0.318997	0.337824	0.677429	0.577439	0.126205	0.309049	0.079395	0.128616	0.500884	0.441414	0.296569	0.479790	0.365409	0.270614	0.335280	0.463864	0.568585	0.326253	0.536073	0.664023	0.080637	0.173443	0.165056	0.293666	0.267199	0.218545	0.288717	0.302924	0.374169	0.197229	0.331115	0.499003	0.763717	0.517956	0.161953	0.260794	0.254836	0.217887	0.180950	0.290140	0.809826	0.359561	0.269783	0.356734	0.216175	0.161115
76	0.359148	0.477391	0.431279	0.752334	0.318679	0.321868	0.426653	0.294634	0.123339	0.175402	0.370227	0.723679	0.129967	0.176125	0.129329	0.283955	0.284499	0.379908	0.259700	0.567261	0.282666	0.370214	0.276477	0.422538	0.094598	0.117271	0.339359	0.377879	0.687965	0.564260	0.104570	0.280799	0.099614	0.122431	0.504175	0.571897	0.280215	0.466260	0.362039	0.268357	0.375405	0.533216	0.629329	0.337986	0.558983	0.736696	0.085762	0.118286	0.170864	0.310168	0.224806	0.210718	0.275885	0.335345	0.346353	0.164797	0.342210	0.504279	0.790502	0.534088	0.185902	0.294522	0.220638	0.140552	0.177088	0.272889	0.808249	0.236856	0.258265	0.345604	0.209382	0.156613
77	0.386611	0.496087	0.417255	0.690273	0.315404	0.340526	0.425732	0.290061	0.153009	0.290795	0.388746	0.751402	0.135940	0.188393	0.134459	0.274400	0.293967	0.392840	0.288589	0.558345	0.283096	0.372511	0.246399	0.407043	0.105657	0.127743	0.332623	0.471289	0.698079	0.545636	0.100438	0.237706	0.106204	0.107603	0.556241	0.608083	0.273153	0.458543	0.353126	0.264600	0.362559	0.534607	0.696495	0.381597	0.573246	0.749654	0.114563	0.104279	0.154033	0.288504	0.219630	0.247861	0.275557	0.346239	0.285989	0.127487	0.402215	0.470732	0.771391	0.540120	0.232675	0.321438	0.182924	0.105463	0.186245	0.276988	0.799164	0.275937	0.247065	0.330059	0.190831	0.155494
78	0.426500	0.493886	0.424012	0.662542	0.331968	0.330033	0.432551	0.294937	0.160455	0.285435	0.443300	0.773216	0.152595	0.204498	0.135079	0.264604	0.282132	0.385445	0.321668	0.446085	0.285417	0.375333	0.196335	0.345349	0.151777	0.114431	0.379142	0.487357	0.700836	0.546455	0.102673	0.176858	0.117560	0.114676	0.624315	0.625170	0.289603	0.471874	0.317706	0.226496	0.346778	0.483032	0.708264	0.382987	0.577886	0.745964	0.124789	0.103863	0.138435	0.257844	0.216433	0.227221	0.260291	0.345845	0.204320	0.097297	0.501533	0.513294	0.653451	0.522997	0.257269	0.325258	0.160168	0.109632	0.193818	0.289566	0.794637	0.349678	0.234860	0.320791	0.147692	0.148907
79	0.472171	0.494264	0.490510	0.718177	0.385688	0.368556	0.440654	0.301422	0.161256	0.318715	0.459772	0.766046	0.172855	0.247897	0.125939	0.234400	0.253691	0.357102	0.325042	0.369112	0.277325	0.364736	0.151926	0.227512	0.217147	0.109906	0.414551	0.488203	0.700418	0.542040	0.106213	0.125498	0.144669	0.140397	0.672602	0.633369	0.301746	0.490414	0.287787	0.176742	0.348785	0.483909	0.615801	0.335473	0.570488	0.745846	0.133482	0.103953	0.137853	0.255717	0.195440	0.212243	0.230924	0.353502	0.152291	0.086260	0.571288	0.561570	0.579266	0.530042	0.260148	0.379303	0.158806	0.112870	0.209262	0.292568	0.867130	0.401440	0.226261	0.298643	0.107767	0.138135
80	0.507000	0.497223	0.503927	0.772489	0.424803	0.514082	0.460415	0.319513	0.162978	0.331031	0.434064	0.628022	0.175390	0.280669	0.125795	0.234180	0.209625	0.260568	0.327308	0.377964	0.241090	0.339996	0.133153	0.133677	0.242704	0.115741	0.419554	0.476363	0.672996	0.532138	0.106511	0.108997	0.178729	0.189090	0.689488	0.635784	0.300465	0.500457	0.252902	0.139545	0.329993	0.496109	0.537385	0.318296	0.561304	0.744661	0.144645	0.105039	0.132533	0.231879	0.164116	0.209693	0.216416	0.355084	0.124443	0.087198	0.548554	0.541777	0.574040	0.504196	0.290525	0.440618	0.153066	0.115459	0.252072	0.322526	0.800027	0.471930	0.220764	0.269832	0.088943	0.124645
81	0.513910	0.489642	0.505551	0.691690	0.449161	0.603027	0.470470	0.354102	0.165685	0.346760	0.378248	0.884824	0.178200	0.280622	0.134659	0.286426	0.160107	0.197834	0.332777	0.356124	0.230779	0.325246	0.132895	0.125533	0.300984	0.194165	0.430656	0.464340	0.598680	0.432710	0.117887	0.132305	0.211631	0.222488	0.664631	0.627207	0.299699	0.501551	0.195213	0.109671	0.252461	0.449249	0.541005	0.330153	0.552859	0.716264	0.145185	0.113956	0.117607	0.200405	0.178748	0.228132	0.197685	0.355052	0.122956	0.096227	0.550594	0.539789	0.544998	0.390695	0.324395	0.469402	0.154139	0.119198	0.279005	0.335146	0.671372	0.495696	0.210758	0.234451	0.088034	0.113174
82	0.576811	0.564033	0.499135	0.601189	0.459343	0.628269	0.449946	0.346852	0.173347	0.346302	0.352063	0.927702	0.184265	0.317544	0.151893	0.312033	0.153681	0.197400	0.340298	0.352091	0.249470	0.292500	0.125692	0.097461	0.315919	0.205346	0.432553	0.457904	0.528633	0.351242	0.147695	0.144020	0.230746	0.245229	0.602621	0.612028	0.292515	0.495928	0.155112	0.092252	0.233239	0.435761	0.404220	0.327142	0.511088	0.672464	0.145887	0.122599	0.121987	0.203479	0.184750	0.223739	0.176496	0.356112	0.131096	0.108889	0.554176	0.546305	0.435728	0.392207	0.371102	0.471356	0.156687	0.127173	0.279165	0.335220	0.634408	0.524499	0.205229	0.219262	0.081947	0.109940
83	0.830399	0.749245	0.500272	0.599255	0.453094	0.635991	0.414507	0.307842	0.161826	0.354942	0.494796	0.908800	0.173478	0.369367	0.178519	0.333483	0.169594	0.205164	0.377775	0.453780	0.262852	0.219585	0.100350	0.067502	0.347490	0.390866	0.456014	0.485229	0.490347	0.344329	0.157304	0.143060	0.248224	0.317789	0.513384	0.505922	0.274810	0.480467	0.130607	0.083424	0.236182	0.468832	0.409546	0.302855	0.482849	0.673517	0.145087	0.108551	0.117352	0.195692	0.179138	0.220353	0.166689	0.358284	0.141234	0.119069	0.576521	0.557850	0.317518	0.433614	0.398577	0.468252	0.157336	0.129182	0.268407	0.335748	0.629110	0.532142	0.204584	0.227082	0.070746	0.109563
84	0.919230	0.816954	0.485012	0.631071	0.440074	0.638988	0.391083	0.297975	0.228002	0.393607	0.550801	0.905096	0.178468	0.399628	0.186195	0.331599	0.163969	0.189714	0.381142	0.452409	0.277383	0.214975	0.072467	0.063136	0.359783	0.454788	0.540151	0.505120	0.481108	0.347322	0.155332	0.138496	0.245082	0.338769	0.515777	0.443276	0.259167	0.462521	0.123014	0.083124	0.224934	0.465007	0.484270	0.294412	0.447941	0.665455	0.161077	0.115365	0.113360	0.187683	0.183004	0.183788	0.171372	0.363981	0.149123	0.119070	0.684138	0.774476	0.252717	0.467938	0.407568	0.472612	0.154355	0.129564	0.271551	0.348358	0.632588	0.569950	0.199178	0.220385	0.066978	0.106851
85	0.929912	0.807820	0.428440	0.660182	0.434026	0.642002	0.387842	0.308140	0.348191	0.403407	0.539324	0.991979	0.231909	0.477695	0.189004	0.366334	0.148710	0.154323	0.367042	0.415164	0.282471	0.221725	0.068395	0.063382	0.396044	0.529078	0.608540	0.411819	0.379790	0.327592	0.159124	0.136028	0.243868	0.350670	0.492048	0.329784	0.249574	0.450028	0.123177	0.082871	0.163050	0.365640	0.470989	0.327527	0.379931	0.632307	0.168929	0.124797	0.090040	0.167450	0.212286	0.204657	0.198013	0.379158	0.152361	0.124092	0.733878	0.809829	0.281743	0.430546	0.421603	0.479575	0.144750	0.126643	0.271710	0.328514	0.629589	0.579088	0.196874	0.219545	0.064102	0.099554
86	0.914061	0.771501	0.393906	0.665152	0.433682	0.642257	0.393740	0.321294	0.423680	0.421192	0.549137	1.084312	0.272845	0.525205	0.198806	0.420674	0.157467	0.162623	0.536002	0.424169	0.282863	0.211929	0.075439	0.063047	0.454231	0.580047	0.621947	0.381798	0.255891	0.310365	0.170637	0.137484	0.249449	0.359446	0.441536	0.313447	0.237956	0.416142	0.127356	0.094742	0.163517	0.357099	0.474205	0.281376	0.339751	0.620286	0.173168	0.126987	0.073634	0.159070	0.231771	0.186358	0.212654	0.397723	0.155241	0.148404	0.713917	0.774154	0.290740	0.465648	0.428598	0.482362	0.118294	0.115686	0.272087	0.325159	0.605229	0.556656	0.196767	0.212098	0.060851	0.088426
87	0.904339	0.741203	0.384514	0.666688	0.432577	0.640660	0.398116	0.333698	0.481530	0.455399	0.597224	1.103568	0.284196	0.534674	0.200840	0.454756	0.166229	0.168183	0.538586	0.527607	0.282288	0.194006	0.091262	0.065117	0.462434	0.601236	0.592630	0.373484	0.239885	0.311646	0.179548	0.136164	0.276528	0.431646	0.378733	0.288973	0.223072	0.385287	0.140794	0.129685	0.163529	0.478327	0.562681	0.365440	0.327169	0.619797	0.220651	0.128591	0.086012	0.190497	0.232950	0.189936	0.218096	0.409917	0.157387	0.149767	0.667109	0.739133	0.342650	0.506320	0.434807	0.475452	0.096521	0.103312	0.281030	0.336688	0.473016	0.496258	0.193691	0.197857	0.059118	0.077762
88	0.902865	0.728367	0.404841	0.709529	0.432220	0.639813	0.390838	0.341488	0.550731	0.503154	0.609328	1.052826	0.282056	0.534245	0.194322	0.465117	0.172037	0.174546	0.540704	0.642816	0.282363	0.231327	0.109581	0.081484	0.459730	0.636529	0.587129	0.364781	0.230990	0.292842	0.181979	0.132542	0.372321	0.548278	0.347878	0.271628	0.227553	0.403683	0.149987	0.160207	0.126451	0.406094	0.683287	0.401153	0.311324	0.564728	0.306257	0.154436	0.089302	0.194932	0.231425	0.172976	0.219704	0.413434	0.158268	0.153277	0.674608	0.743304	0.411203	0.532794	0.433058	0.467119	0.085310	0.097902	0.332787	0.390346	0.360811	0.478665	0.187109	0.167672	0.055929	0.068099
89	0.889361	0.730787	0.394348	0.709812	0.435154	0.639313	0.365989	0.350159	0.671046	0.669565	0.619733	0.793338	0.283973	0.535397	0.190848	0.466189	0.202185	0.218585	0.575116	0.644518	0.282705	0.253028	0.124832	0.091804	0.445163	0.633748	0.597503	0.388762	0.203728	0.237701	0.200546	0.141251	0.465622	0.586464	0.322660	0.298957	0.233474	0.412912	0.148037	0.165826	0.138556	0.413866	0.674441	0.471206	0.284178	0.442807	0.370662	0.176734	0.089291	0.213610	0.250431	0.182865	0.204253	0.368973	0.158056	0.160690	0.679848	0.753789	0.398890	0.634021	0.434406	0.465574	0.082943	0.097732	0.422795	0.464481	0.380452	0.383942	0.173806	0.175980	0.051525	0.059304
90	0.870576	0.732463	0.333151	0.681027	0.444425	0.642936	0.338373	0.350477	0.709677	0.713907	0.597271	0.794237	0.284479	0.535121	0.187073	0.465743	0.246635	0.272014	0.598780	0.648467	0.286254	0.255159	0.143228	0.094823	0.428612	0.643475	0.623984	0.427197	0.157887	0.191923	0.220058	0.145468	0.471173	0.604067	0.353531	0.335401	0.226940	0.395436	0.146179	0.163998	0.196717	0.461199	0.775274	0.523600	0.273573	0.404997	0.387546	0.182968	0.088834	0.242885	0.296197	0.226318	0.180606	0.316559	0.157492	0.171935	0.710841	0.777007	0.449039	0.672483	0.432235	0.462828	0.081983	0.102020	0.503145	0.497147	0.293934	0.438122	0.146558	0.190206	0.054998	0.050450
91	0.842800	0.721118	0.271957	0.594865	0.452137	0.660918	0.322502	0.345016	0.724265	0.722439	0.471097	0.850996	0.282267	0.531087	0.183966	0.465729	0.390030	0.425233	0.599993	0.593295	0.290239	0.254732	0.169712	0.100974	0.417016	0.590512	0.615244	0.372218	0.116792	0.167547	0.228670	0.143078	0.462073	0.567520	0.380876	0.362452	0.223753	0.394561	0.146905	0.167172	0.223622	0.513039	0.823239	0.488820	0.293623	0.423225	0.384536	0.183429	0.101283	0.296744	0.317977	0.225105	0.171409	0.311289	0.164165	0.183555	0.696957	0.775715	0.546851	0.648504	0.425668	0.443524	0.082104	0.100911	0.528904	0.493652	0.287300	0.524633	0.110087	0.183931	0.064378	0.042317
92	0.827779	0.723265	0.315995	0.557566	0.457682	0.676851	0.317391	0.342725	0.692632	0.683919	0.461223	1.057543	0.276972	0.523950	0.181735	0.466180	0.568639	0.527171	0.554147	0.566331	0.289546	0.250645	0.204760	0.102354	0.394079	0.495692	0.540996	0.287635	0.116819	0.165207	0.228654	0.143225	0.479812	0.576395	0.381015	0.352512	0.226363	0.396618	0.141985	0.176125	0.223163	0.392360	0.817856	0.474001	0.373309	0.448697	0.382654	0.183706	0.194611	0.401297	0.307119	0.198874	0.174095	0.286605	0.183428	0.196249	0.579036	0.526555	0.629584	0.620047	0.409453	0.419275	0.082225	0.098114	0.605319	0.507322	0.360873	0.567223	0.102564	0.175220	0.060932	0.034098
93	0.824935	0.715093	0.317934	0.562220	0.468365	0.667518	0.317802	0.342680	0.646759	0.665644	0.480483	0.968188	0.264453	0.507625	0.180405	0.465020	0.687629	0.547136	0.552482	0.554650	0.287239	0.249133	0.230455	0.100013	0.378926	0.443044	0.441927	0.283639	0.123620	0.161817	0.225644	0.154241	0.504687	0.585286	0.369513	0.323855	0.221357	0.394461	0.138797	0.191522	0.237847	0.382526	0.658385	0.378955	0.517133	0.506053	0.382826	0.182575	0.207101	0.437989	0.361329	0.202030	0.180226	0.281880	0.197399	0.206495	0.437449	0.378988	0.633921	0.628949	0.385569	0.404559	0.082500	0.097300	0.662462	0.591052	0.423010	0.551796	0.100090	0.172258	0.060959	0.026198
94	0.654373	0.575406	0.359551	0.516798	0.470106	0.657021	0.314110	0.339764	0.628721	0.670105	0.419443	0.956263	0.260758	0.489755	0.179700	0.452917	0.730078	0.574283	0.410113	0.604469	0.288838	0.255037	0.233708	0.100557	0.283844	0.351794	0.390688	0.282640	0.127432	0.163034	0.248425	0.146492	0.549531	0.606073	0.350294	0.289501	0.189627	0.382367	0.148913	0.212765	0.234716	0.362255	0.640326	0.316364	0.553865	0.522827	0.398511	0.179425	0.205162	0.440699	0.415402	0.220516	0.188564	0.308063	0.205074	0.209323	0.347848	0.352659	0.646238	0.689406	0.376035	0.398131	0.083199	0.097216	0.661880	0.624115	0.414908	0.550044	0.111137	0.175982	0.067321	0.020196
95	0.392728	0.370066	0.448417	0.468618	0.450496	0.662525	0.304519	0.333617	0.598814	0.640718	0.410073	0.988440	0.259445	0.491221	0.173782	0.398929	0.960664	0.721074	0.563586	0.692883	0.288743	0.253186	0.236091	0.110382	0.222433	0.305635	0.365404	0.354181	0.128320	0.159155	0.277952	0.131647	0.578123	0.614806	0.308835	0.293294	0.167273	0.363522	0.164439	0.228012	0.203481	0.390600	0.588081	0.562247	0.557188	0.515096	0.410463	0.167374	0.279384	0.449517	0.407540	0.221125	0.191289	0.308316	0.201617	0.209087	0.321022	0.343246	0.705172	0.671846	0.369470	0.333544	0.083960	0.096940	0.664774	0.630414	0.411307	0.551683	0.151455	0.194521	0.075200	0.045220
96	0.263845	0.269104	0.459117	0.418333	0.404018	0.670648	0.291803	0.326910	0.506198	0.565966	0.393372	0.982695	0.256123	0.487039	0.159367	0.371751	1.085601	0.819775	0.821982	0.698478	0.261482	0.252672	0.260836	0.126792	0.164620	0.233069	0.320635	0.401075	0.140248	0.172781	0.273641	0.145091	0.555580	0.529949	0.344983	0.407126	0.188612	0.371698	0.168969	0.232862	0.172521	0.343873	0.633069	0.590062	0.562072	0.487617	0.413945	0.162788	0.356027	0.440767	0.393942	0.211100	0.191285	0.310762	0.195667	0.208403	0.301223	0.323703	0.695216	0.642449	0.343964	0.261640	0.082377	0.095821	0.658626	0.616933	0.409877	0.577418	0.203222	0.211069	0.081880	0.068400
97	0.212292	0.237952	0.452348	0.393206	0.360286	0.606447	0.257815	0.303683	0.376804	0.384481	0.382066	0.963127	0.255967	0.443467	0.126891	0.344646	1.105629	0.848140	0.860253	0.723323	0.202950	0.253784	0.299020	0.138335	0.228333	0.290842	0.266756	0.428043	0.183908	0.195615	0.272700	0.162688	0.464170	0.429090	0.453866	0.544776	0.231334	0.379323	0.168933	0.231768	0.213032	0.380455	0.629267	0.682946	0.627017	0.526493	0.410860	0.159313	0.418359	0.441433	0.360801	0.151444	0.193789	0.316230	0.191039	0.205143	0.291135	0.316332	0.696076	0.544541	0.309059	0.216365	0.076935	0.089503	0.615047	0.567618	0.394176	0.595780	0.260029	0.222748	0.089001	0.071004
98	0.207921	0.233976	0.468876	0.390018	0.331285	0.559637	0.232392	0.255279	0.344056	0.350163	0.394539	0.972247	0.256454	0.410950	0.109321	0.339286	1.128814	0.877403	0.839602	0.721042	0.148998	0.248401	0.335973	0.144460	0.250227	0.277939	0.175685	0.424624	0.199550	0.198419	0.277840	0.179321	0.517571	0.396831	0.496239	0.546598	0.251117	0.370820	0.168610	0.233820	0.268032	0.409074	0.684458	0.821906	0.689145	0.577045	0.402420	0.151281	0.424494	0.400922	0.321681	0.138757	0.199686	0.320652	0.185778	0.198935	0.203984	0.238409	0.674996	0.483256	0.242181	0.198730	0.072834	0.077605	0.578888	0.520724	0.366900	0.601520	0.321969	0.228261	0.097457	0.071123
99	0.207112	0.227529	0.567624	0.358988	0.317648	0.544273	0.229965	0.233427	0.333365	0.335816	0.435796	0.828891	0.223601	0.336783	0.107897	0.314911	1.107074	0.848174	0.881077	0.804623	0.124739	0.249721	0.366674	0.148290	0.262946	0.286320	0.166027	0.429202	0.198840	0.188389	0.280898	0.194935	0.574462	0.418339	0.485108	0.583222	0.266270	0.369732	0.167724	0.241004	0.441517	0.466938	0.821245	0.831851	0.731030	0.603136	0.402777	0.147668	0.504800	0.415136	0.317205	0.133315	0.207379	0.329506	0.178632	0.192392	0.193366	0.203294	0.601228	0.497969	0.205292	0.198997	0.071776	0.070300	0.616125	0.532718	0.393006	0.661073	0.352248	0.218814	0.097876	0.071144
100	0.207237	0.230429	0.622652	0.266763	0.310692	0.536182	0.224478	0.232565	0.332772	0.334497	0.388786	0.651603	0.165104	0.229578	0.090518	0.242354	1.038569	0.778735	0.931554	0.872627	0.132727	0.273684	0.383467	0.148979	0.315447	0.293817	0.169343	0.429428	0.208022	0.192206	0.277984	0.206133	0.602382	0.439759	0.504644	0.681874	0.276828	0.355450	0.168287	0.243283	0.456646	0.474811	0.816066	0.841157	0.777083	0.626752	0.392732	0.147092	0.530568	0.420113	0.266854	0.125946	0.228712	0.359846	0.170053	0.188724	0.203087	0.229573	0.554250	0.542007	0.187217	0.243298	0.069356	0.068255	0.586578	0.584949	0.385273	0.601759	0.369768	0.217821	0.099128	0.072352
101	0.226536	0.238845	0.634792	0.272741	0.308982	0.533192	0.196244	0.225799	0.289641	0.283588	0.428175	0.652116	0.121923	0.189202	0.074308	0.149203	0.958568	0.769318	0.994952	0.883413	0.137612	0.288548	0.383681	0.149281	0.318360	0.310757	0.225362	0.520061	0.240393	0.218551	0.280792	0.209399	0.589849	0.439342	0.518628	0.842289	0.276749	0.330269	0.168921	0.245242	0.497512	0.439282	0.765407	0.849907	0.776094	0.625848	0.346271	0.129615	0.530356	0.389724	0.163790	0.100169	0.249959	0.368719	0.160893	0.185812	0.214160	0.228597	0.532781	0.592260	0.164411	0.274274	0.064531	0.067705	0.686619	0.810783	0.310261	0.599765	0.376123	0.217079	0.102666	0.076570
