	203_C_T1_sh_ND_01.c3d	203_C_T1_sh_ND_01.c3d	203_C_T1_sh_ND_01.c3d	203_C_T1_sh_ND_01.c3d	203_C_T1_sh_ND_01.c3d	203_C_T1_sh_ND_01.c3d	203_C_T1_sh_ND_01.c3d	203_C_T1_sh_ND_01.c3d	203_C_T1_sh_ND_02.c3d	203_C_T1_sh_ND_02.c3d	203_C_T1_sh_ND_02.c3d	203_C_T1_sh_ND_02.c3d	203_C_T1_sh_ND_02.c3d	203_C_T1_sh_ND_02.c3d	203_C_T1_sh_ND_02.c3d	203_C_T1_sh_ND_02.c3d	203_C_T1_sh_ND_03.c3d	203_C_T1_sh_ND_03.c3d	203_C_T1_sh_ND_03.c3d	203_C_T1_sh_ND_03.c3d	203_C_T1_sh_ND_03.c3d	203_C_T1_sh_ND_03.c3d	203_C_T1_sh_ND_03.c3d	203_C_T1_sh_ND_03.c3d	203_C_T1_sh_ND_04.c3d	203_C_T1_sh_ND_04.c3d	203_C_T1_sh_ND_04.c3d	203_C_T1_sh_ND_04.c3d	203_C_T1_sh_ND_04.c3d	203_C_T1_sh_ND_04.c3d	203_C_T1_sh_ND_04.c3d	203_C_T1_sh_ND_04.c3d	203_C_T1_sh_ND_06.c3d	203_C_T1_sh_ND_06.c3d	203_C_T1_sh_ND_06.c3d	203_C_T1_sh_ND_06.c3d	203_C_T1_sh_ND_06.c3d	203_C_T1_sh_ND_06.c3d	203_C_T1_sh_ND_06.c3d	203_C_T1_sh_ND_06.c3d	203_C_T1_sh_ND_07.c3d	203_C_T1_sh_ND_07.c3d	203_C_T1_sh_ND_07.c3d	203_C_T1_sh_ND_07.c3d	203_C_T1_sh_ND_07.c3d	203_C_T1_sh_ND_07.c3d	203_C_T1_sh_ND_07.c3d	203_C_T1_sh_ND_07.c3d	203_C_T1_sh_ND_08.c3d	203_C_T1_sh_ND_08.c3d	203_C_T1_sh_ND_08.c3d	203_C_T1_sh_ND_08.c3d	203_C_T1_sh_ND_08.c3d	203_C_T1_sh_ND_08.c3d	203_C_T1_sh_ND_08.c3d	203_C_T1_sh_ND_08.c3d	203_C_T1_sh_ND_09.c3d	203_C_T1_sh_ND_09.c3d	203_C_T1_sh_ND_09.c3d	203_C_T1_sh_ND_09.c3d	203_C_T1_sh_ND_09.c3d	203_C_T1_sh_ND_09.c3d	203_C_T1_sh_ND_09.c3d	203_C_T1_sh_ND_09.c3d	203_C_T1_sh_ND_10.c3d	203_C_T1_sh_ND_10.c3d	203_C_T1_sh_ND_10.c3d	203_C_T1_sh_ND_10.c3d	203_C_T1_sh_ND_10.c3d	203_C_T1_sh_ND_10.c3d	203_C_T1_sh_ND_10.c3d	203_C_T1_sh_ND_10.c3d
	Biceps femoris_lat	Semitendinosus_lat	Vastus lateralis_lat	Vastus medialis_lat	Biceps femoris_med	Semitendinosus_med	Vastus lateralis_med	Vastus medialis_med	Biceps femoris_lat	Semitendinosus_lat	Vastus lateralis_lat	Vastus medialis_lat	Biceps femoris_med	Semitendinosus_med	Vastus lateralis_med	Vastus medialis_med	Biceps femoris_lat	Semitendinosus_lat	Vastus lateralis_lat	Vastus medialis_lat	Biceps femoris_med	Semitendinosus_med	Vastus lateralis_med	Vastus medialis_med	Biceps femoris_lat	Semitendinosus_lat	Vastus lateralis_lat	Vastus medialis_lat	Biceps femoris_med	Semitendinosus_med	Vastus lateralis_med	Vastus medialis_med	Biceps femoris_lat	Semitendinosus_lat	Vastus lateralis_lat	Vastus medialis_lat	Biceps femoris_med	Semitendinosus_med	Vastus lateralis_med	Vastus medialis_med	Biceps femoris_lat	Semitendinosus_lat	Vastus lateralis_lat	Vastus medialis_lat	Biceps femoris_med	Semitendinosus_med	Vastus lateralis_med	Vastus medialis_med	Biceps femoris_lat	Semitendinosus_lat	Vastus lateralis_lat	Vastus medialis_lat	Biceps femoris_med	Semitendinosus_med	Vastus lateralis_med	Vastus medialis_med	Biceps femoris_lat	Semitendinosus_lat	Vastus lateralis_lat	Vastus medialis_lat	Biceps femoris_med	Semitendinosus_med	Vastus lateralis_med	Vastus medialis_med	Biceps femoris_lat	Semitendinosus_lat	Vastus lateralis_lat	Vastus medialis_lat	Biceps femoris_med	Semitendinosus_med	Vastus lateralis_med	Vastus medialis_med
	P2D	P2D	P2D	P2D	P2D	P2D	P2D	P2D	P2D	P2D	P2D	P2D	P2D	P2D	P2D	P2D	P2D	P2D	P2D	P2D	P2D	P2D	P2D	P2D	P2D	P2D	P2D	P2D	P2D	P2D	P2D	P2D	P2D	P2D	P2D	P2D	P2D	P2D	P2D	P2D	P2D	P2D	P2D	P2D	P2D	P2D	P2D	P2D	P2D	P2D	P2D	P2D	P2D	P2D	P2D	P2D	P2D	P2D	P2D	P2D	P2D	P2D	P2D	P2D	P2D	P2D	P2D	P2D	P2D	P2D	P2D	P2D
	EMG_lat	EMG_lat	EMG_lat	EMG_lat	EMG_med	EMG_med	EMG_med	EMG_med	EMG_lat	EMG_lat	EMG_lat	EMG_lat	EMG_med	EMG_med	EMG_med	EMG_med	EMG_lat	EMG_lat	EMG_lat	EMG_lat	EMG_med	EMG_med	EMG_med	EMG_med	EMG_lat	EMG_lat	EMG_lat	EMG_lat	EMG_med	EMG_med	EMG_med	EMG_med	EMG_lat	EMG_lat	EMG_lat	EMG_lat	EMG_med	EMG_med	EMG_med	EMG_med	EMG_lat	EMG_lat	EMG_lat	EMG_lat	EMG_med	EMG_med	EMG_med	EMG_med	EMG_lat	EMG_lat	EMG_lat	EMG_lat	EMG_med	EMG_med	EMG_med	EMG_med	EMG_lat	EMG_lat	EMG_lat	EMG_lat	EMG_med	EMG_med	EMG_med	EMG_med	EMG_lat	EMG_lat	EMG_lat	EMG_lat	EMG_med	EMG_med	EMG_med	EMG_med
ITEM	Y	Y	Y	Y	Y	Y	Y	Y	Y	Y	Y	Y	Y	Y	Y	Y	Y	Y	Y	Y	Y	Y	Y	Y	Y	Y	Y	Y	Y	Y	Y	Y	Y	Y	Y	Y	Y	Y	Y	Y	Y	Y	Y	Y	Y	Y	Y	Y	Y	Y	Y	Y	Y	Y	Y	Y	Y	Y	Y	Y	Y	Y	Y	Y	Y	Y	Y	Y	Y	Y	Y	Y
1	0.401240	0.189312	0.111000	0.079294	0.254556	0.163959	0.120063	0.204936	0.063894	0.080183	0.174475	0.256321	0.128708	0.084258	0.133061	0.115046	0.177534	0.225476	0.353146	0.319496	0.356905	0.349520	0.156634	0.410300	0.231925	0.331383	0.178472	0.221569	0.311817	0.297887	0.291088	0.363404	0.101837	0.099575	0.127539	0.227380	0.392211	0.338215	0.271016	0.405592	0.113383	0.149671	0.240131	0.117627	0.080444	0.083868	0.211998	0.368389	0.077702	0.067125	0.160533	0.204840	0.530069	0.486213	0.271272	0.380519	0.120042	0.155272	0.168008	0.308668	0.092498	0.212021	0.200503	0.357144	0.091287	0.079175	0.351195	0.223249	0.377851	0.466355	0.301720	0.228624
2	0.399258	0.191994	0.101779	0.076522	0.139056	0.094283	0.109100	0.204988	0.055179	0.076821	0.174680	0.253471	0.118903	0.082293	0.121903	0.124172	0.187215	0.145610	0.229110	0.272710	0.284720	0.276490	0.155621	0.447645	0.189124	0.213890	0.198351	0.238519	0.307402	0.284568	0.276122	0.365232	0.101408	0.086507	0.192265	0.237004	0.439091	0.380405	0.278084	0.389486	0.074280	0.143374	0.239464	0.216554	0.076596	0.084595	0.235396	0.368017	0.083312	0.106777	0.140632	0.250780	0.531249	0.485502	0.276392	0.384078	0.108692	0.136461	0.178617	0.238953	0.094786	0.213360	0.190186	0.366783	0.069901	0.074342	0.331299	0.216424	0.488316	0.565407	0.256643	0.230326
3	0.106755	0.095182	0.292052	0.232606	0.149514	0.105581	0.106854	0.204800	0.088425	0.088646	0.160980	0.246518	0.108923	0.078993	0.167976	0.171116	0.193910	0.141385	0.199081	0.334427	0.277695	0.263760	0.163899	0.443378	0.184486	0.169520	0.212359	0.329846	0.232771	0.250408	0.282747	0.333007	0.106513	0.086723	0.236765	0.218243	0.535143	0.417845	0.270132	0.356472	0.100180	0.243411	0.224269	0.271866	0.064273	0.080130	0.289486	0.369986	0.065075	0.116760	0.199962	0.239265	0.521484	0.468134	0.284114	0.378474	0.061857	0.082726	0.177338	0.189690	0.092675	0.203319	0.178070	0.361641	0.058680	0.073360	0.325578	0.217784	0.551188	0.589887	0.218135	0.252039
4	0.092980	0.089365	0.413837	0.293944	0.160578	0.098245	0.084365	0.107025	0.085802	0.079921	0.161438	0.216428	0.103852	0.076201	0.234003	0.238986	0.148127	0.132376	0.208002	0.340846	0.276516	0.256633	0.167380	0.438132	0.130058	0.169181	0.210906	0.338128	0.174442	0.242352	0.269545	0.298726	0.103347	0.077966	0.323585	0.275734	0.618290	0.429370	0.242853	0.351645	0.124194	0.250828	0.239640	0.373208	0.064361	0.091621	0.300108	0.376365	0.085172	0.165049	0.227253	0.293417	0.498632	0.431658	0.312291	0.373513	0.058820	0.095146	0.155047	0.175275	0.079048	0.168939	0.168523	0.367131	0.060279	0.067478	0.325541	0.223757	0.556415	0.589563	0.214145	0.254131
5	0.179282	0.260976	0.510466	0.352383	0.146126	0.080470	0.088300	0.105886	0.089854	0.080130	0.152225	0.207997	0.103614	0.065460	0.260732	0.253708	0.161723	0.146420	0.334438	0.403504	0.277827	0.240250	0.164156	0.428000	0.141504	0.161286	0.202642	0.357698	0.171090	0.244057	0.251168	0.289176	0.100867	0.086904	0.368176	0.306517	0.596867	0.448263	0.214225	0.351379	0.202065	0.256233	0.186438	0.382924	0.066711	0.131677	0.306639	0.370390	0.086676	0.169214	0.285418	0.282488	0.469303	0.388802	0.411304	0.370165	0.063211	0.102739	0.155928	0.146100	0.089665	0.179804	0.157029	0.382949	0.067206	0.077243	0.321010	0.188802	0.557721	0.590219	0.214197	0.250115
6	0.180467	0.261076	0.518405	0.368320	0.142325	0.085270	0.088757	0.097155	0.088820	0.078752	0.159422	0.177371	0.102074	0.062780	0.262563	0.255533	0.178847	0.183720	0.353912	0.421388	0.253692	0.199034	0.167293	0.432802	0.157250	0.144175	0.196522	0.388903	0.173664	0.241261	0.269741	0.301464	0.061521	0.092088	0.377010	0.311157	0.631819	0.521654	0.216202	0.343313	0.225808	0.258109	0.306960	0.467998	0.065772	0.145125	0.326667	0.367279	0.095721	0.172822	0.288404	0.270931	0.434805	0.353899	0.575733	0.403474	0.061426	0.142139	0.181047	0.105282	0.166003	0.266427	0.183526	0.399987	0.067250	0.076347	0.225971	0.163130	0.570841	0.597215	0.212607	0.247262
7	0.189288	0.274589	0.391634	0.288818	0.126398	0.081880	0.095561	0.121073	0.098118	0.098328	0.173353	0.200878	0.096785	0.060667	0.264718	0.265716	0.245673	0.248350	0.359998	0.342994	0.173849	0.159178	0.161665	0.428069	0.180292	0.190708	0.189425	0.376463	0.176944	0.254494	0.283404	0.338791	0.302514	0.383790	0.345483	0.299271	0.651612	0.568657	0.207915	0.390437	0.231256	0.229745	0.358816	0.458479	0.062485	0.145673	0.331744	0.333746	0.092673	0.151891	0.298209	0.223179	0.418758	0.347904	0.692108	0.409373	0.070697	0.145015	0.186941	0.073311	0.267890	0.375389	0.288022	0.453309	0.061696	0.067933	0.183749	0.139786	0.598421	0.606374	0.203401	0.255394
8	0.153344	0.232138	0.247497	0.234273	0.128921	0.109061	0.108678	0.275235	0.259774	0.254174	0.179821	0.207510	0.086027	0.057115	0.277633	0.278255	0.368406	0.353975	0.344328	0.292630	0.138679	0.173641	0.151928	0.453539	0.204665	0.230165	0.191111	0.364143	0.217535	0.304794	0.284681	0.338564	0.460496	0.510750	0.273579	0.258638	0.689079	0.605912	0.216202	0.541806	0.225552	0.164469	0.383586	0.423751	0.056418	0.145500	0.329175	0.289501	0.097897	0.142195	0.270181	0.213750	0.422620	0.349586	0.700528	0.416065	0.068425	0.161449	0.196334	0.057320	0.354203	0.435259	0.370010	0.457798	0.053938	0.064549	0.136516	0.115748	0.618519	0.608059	0.182856	0.264086
9	0.091434	0.126416	0.231500	0.248231	0.131581	0.120233	0.116169	0.286775	0.483231	0.388710	0.187312	0.196437	0.079914	0.061354	0.301356	0.287255	0.362056	0.357317	0.274396	0.202464	0.150687	0.184993	0.152347	0.548926	0.206044	0.227786	0.172161	0.350740	0.280405	0.363123	0.279511	0.301707	0.751602	0.711324	0.213117	0.182987	0.704774	0.618426	0.218989	0.558845	0.195680	0.183091	0.381475	0.375905	0.072532	0.147489	0.331510	0.257504	0.079865	0.098276	0.259591	0.102944	0.404031	0.313174	0.723697	0.425127	0.064296	0.175325	0.194376	0.067439	0.413868	0.448085	0.380296	0.453226	0.057176	0.066193	0.087177	0.185121	0.622971	0.612654	0.161506	0.294087
10	0.091488	0.111624	0.232575	0.197976	0.126573	0.121231	0.128270	0.315594	0.641007	0.407974	0.232996	0.204592	0.079398	0.066730	0.316619	0.290285	0.362250	0.372673	0.249615	0.218443	0.161309	0.198097	0.286209	0.608157	0.198885	0.227196	0.137581	0.272697	0.331364	0.393587	0.260543	0.287262	0.755979	0.712843	0.170374	0.142924	0.715026	0.632114	0.206602	0.585126	0.259798	0.149737	0.374463	0.299647	0.075857	0.149715	0.333652	0.258425	0.076992	0.104180	0.191204	0.105273	0.291924	0.244321	0.756415	0.418080	0.063571	0.169194	0.188705	0.136403	0.431029	0.449687	0.399043	0.455417	0.063119	0.068279	0.086856	0.205697	0.643448	0.618570	0.137438	0.324702
11	0.074084	0.080224	0.170604	0.145894	0.103823	0.125190	0.344113	0.342518	0.769549	0.511425	0.298135	0.247561	0.080465	0.072637	0.316589	0.301839	0.320588	0.343377	0.206998	0.211211	0.168945	0.212166	0.428272	0.614593	0.195294	0.223630	0.128457	0.250399	0.368536	0.401619	0.265761	0.286670	0.695390	0.625215	0.185218	0.211483	0.715452	0.642767	0.186714	0.608268	0.264296	0.135144	0.200491	0.198167	0.079900	0.157069	0.335718	0.270259	0.088533	0.100384	0.197781	0.110392	0.234212	0.217593	0.777417	0.392938	0.058107	0.167076	0.336409	0.214250	0.453098	0.530871	0.444773	0.422857	0.064806	0.066557	0.083823	0.212236	0.636548	0.597968	0.127617	0.340903
12	0.096214	0.102145	0.136126	0.266534	0.145233	0.188816	0.381918	0.388485	0.990689	0.589590	0.387663	0.290183	0.081589	0.075408	0.316509	0.310535	0.134797	0.199873	0.198037	0.205140	0.173820	0.216088	0.439242	0.608766	0.189034	0.207010	0.123753	0.219927	0.391540	0.390836	0.267951	0.279589	0.598028	0.485246	0.168678	0.214289	0.715061	0.650442	0.188575	0.614756	0.258902	0.131868	0.147693	0.086710	0.103091	0.169939	0.396722	0.296855	0.091522	0.098056	0.183423	0.103786	0.200826	0.203941	0.793155	0.384460	0.065920	0.156627	0.347574	0.223513	0.726522	0.724428	0.498698	0.436052	0.057099	0.061628	0.081196	0.222735	0.621910	0.561233	0.127048	0.340051
13	0.121774	0.095566	0.154978	0.327611	0.147597	0.195124	0.388261	0.485904	1.032460	0.616658	0.390622	0.350693	0.082131	0.076136	0.314412	0.312147	0.124312	0.180719	0.145519	0.194753	0.175087	0.211354	0.458298	0.595486	0.162397	0.187116	0.117285	0.130386	0.390209	0.396340	0.270341	0.267557	0.324790	0.289816	0.165517	0.252088	0.719639	0.629654	0.196379	0.616259	0.253353	0.121875	0.089968	0.073558	0.123232	0.174707	0.551930	0.297827	0.096162	0.103711	0.290469	0.242624	0.219114	0.206421	0.817279	0.369778	0.065434	0.138755	0.334901	0.289311	0.847293	0.775844	0.540851	0.438176	0.063844	0.097310	0.082525	0.240931	0.606352	0.524870	0.128751	0.337199
14	0.150791	0.108744	0.175566	0.384294	0.155860	0.194719	0.473177	0.542237	1.035628	0.621972	0.421032	0.349236	0.082047	0.074259	0.339346	0.355960	0.084604	0.091682	0.152017	0.249417	0.173562	0.206519	0.492941	0.532453	0.158546	0.168330	0.109678	0.058305	0.403582	0.430680	0.274691	0.241869	0.334876	0.277702	0.193499	0.255612	0.707342	0.592148	0.225641	0.617689	0.167204	0.131395	0.131204	0.069987	0.134567	0.174431	0.592631	0.275133	0.140066	0.108240	0.346349	0.304225	0.235901	0.200083	0.831520	0.368413	0.065112	0.139959	0.376843	0.346455	0.849516	0.776625	0.563188	0.437485	0.057663	0.102403	0.076075	0.241534	0.590886	0.500530	0.131747	0.333289
15	0.153657	0.109861	0.171512	0.371419	0.157067	0.192136	0.575354	0.585517	1.036703	0.642809	0.492256	0.335233	0.083126	0.073834	0.415618	0.411610	0.186393	0.150207	0.523271	0.394430	0.183584	0.212998	0.510528	0.512024	0.095144	0.080546	0.063463	0.057149	0.466260	0.518922	0.275374	0.243143	0.282415	0.146108	0.268056	0.224474	0.682865	0.562212	0.246344	0.618635	0.116604	0.131540	0.183741	0.071203	0.148574	0.173316	0.596584	0.270366	0.192785	0.149587	0.353662	0.401785	0.228409	0.182695	0.834802	0.324058	0.067467	0.103985	0.389675	0.346919	0.849663	0.777238	0.564122	0.434907	0.056387	0.108241	0.074998	0.244354	0.571133	0.494530	0.232437	0.332511
16	0.121240	0.096726	0.233496	0.307795	0.205042	0.192285	0.596855	0.563481	1.005687	0.592082	0.512630	0.335532	0.088990	0.077355	0.449564	0.414679	0.321802	0.242770	0.691460	0.401146	0.184844	0.213840	0.519235	0.511816	0.078766	0.083434	0.065930	0.057731	0.528007	0.575091	0.278974	0.237540	0.268464	0.145475	0.303491	0.343720	0.629901	0.540706	0.239237	0.617912	0.099870	0.122050	0.249851	0.147366	0.158271	0.174773	0.603889	0.293990	0.198627	0.149154	0.550972	0.455629	0.214366	0.168177	0.834986	0.294173	0.064632	0.110816	0.411182	0.387342	0.849436	0.776649	0.564851	0.426734	0.056454	0.106199	0.064044	0.283875	0.565458	0.489257	0.380375	0.326683
17	0.136917	0.137577	0.305877	0.234538	0.284732	0.193078	0.595878	0.559079	0.909755	0.526710	0.501029	0.329277	0.091468	0.079181	0.450087	0.412030	0.358403	0.361701	0.761620	0.433111	0.181764	0.203139	0.530562	0.509837	0.135854	0.142729	0.067309	0.056687	0.545815	0.583955	0.295901	0.246720	0.131581	0.110842	0.359859	0.478437	0.523718	0.523441	0.232925	0.615694	0.101535	0.097420	0.252362	0.256668	0.160021	0.175292	0.611179	0.333144	0.207426	0.157821	0.590645	0.516265	0.204756	0.157440	0.829494	0.294094	0.062084	0.112125	0.407607	0.483597	0.849971	0.776401	0.564915	0.426392	0.126011	0.130358	0.517099	0.380235	0.532697	0.398905	0.432059	0.321717
18	0.157329	0.159800	0.343816	0.254705	0.287035	0.197602	0.559526	0.542143	0.844371	0.508441	0.484644	0.314338	0.094831	0.081710	0.456493	0.415471	0.375606	0.388066	0.873909	0.422043	0.173848	0.190935	0.535047	0.489600	0.228089	0.178949	0.064715	0.054387	0.552819	0.584252	0.310576	0.250580	0.102669	0.119441	0.366981	0.517317	0.490408	0.519223	0.255410	0.614416	0.128762	0.080874	0.308577	0.398017	0.182679	0.169061	0.619809	0.376405	0.217742	0.180840	0.557638	0.609783	0.204132	0.158391	0.820600	0.282354	0.134099	0.114156	0.333291	0.539115	0.850934	0.776010	0.564527	0.426927	0.131658	0.185710	0.584257	0.381404	0.422443	0.266895	0.433566	0.300851
19	0.211709	0.167729	0.409577	0.380695	0.287668	0.152782	0.521180	0.539785	0.647845	0.384113	0.418202	0.292163	0.104994	0.089925	0.443762	0.413456	0.356677	0.376585	0.736080	0.267051	0.187808	0.195701	0.534746	0.485610	0.283398	0.192901	0.063586	0.037655	0.556441	0.583128	0.312225	0.261391	0.106166	0.137173	0.326676	0.523774	0.431680	0.461579	0.268452	0.609132	0.161712	0.066448	0.359742	0.474084	0.265909	0.202487	0.631653	0.401101	0.218339	0.206250	0.514670	0.602411	0.204471	0.159999	0.804352	0.269670	0.153154	0.112302	0.338400	0.530130	0.849476	0.769103	0.564037	0.432640	0.141903	0.291327	0.745256	0.423109	0.371068	0.242044	0.439744	0.284846
20	0.268748	0.171078	0.445581	0.450252	0.291997	0.126361	0.514142	0.431778	0.336056	0.278105	0.368876	0.256461	0.113154	0.099746	0.414506	0.376052	0.219986	0.316469	0.602681	0.282456	0.182270	0.188785	0.535032	0.471968	0.312871	0.218750	0.072326	0.172633	0.558899	0.583141	0.276788	0.282455	0.118715	0.114581	0.339141	0.401173	0.394933	0.401550	0.272505	0.599135	0.159143	0.078004	0.366264	0.507522	0.356649	0.248960	0.624184	0.409241	0.196126	0.212539	0.511115	0.560687	0.200381	0.157662	0.740823	0.262390	0.177773	0.110599	0.323389	0.499374	0.835651	0.737635	0.551678	0.408863	0.155757	0.294344	0.821901	0.529896	0.372402	0.242596	0.463085	0.284448
21	0.342784	0.185777	0.465395	0.429479	0.292230	0.128423	0.484834	0.397062	0.251562	0.258160	0.484688	0.203091	0.116589	0.107423	0.392005	0.359683	0.176795	0.228665	0.529762	0.479389	0.168588	0.173063	0.535437	0.407960	0.462661	0.339244	0.183115	0.337065	0.559184	0.581125	0.242412	0.246012	0.108063	0.089553	0.332866	0.345344	0.348831	0.350468	0.273699	0.465029	0.167293	0.115173	0.392043	0.501491	0.411031	0.275752	0.621410	0.410114	0.206062	0.235412	0.313874	0.513626	0.198028	0.155172	0.602683	0.221848	0.179757	0.119820	0.287360	0.510815	0.807577	0.687567	0.497709	0.331834	0.157990	0.314845	0.842642	0.538508	0.370078	0.235921	0.486627	0.283704
22	0.291199	0.151080	0.441357	0.331907	0.286779	0.123130	0.327533	0.227757	0.248792	0.231715	0.441816	0.190674	0.116532	0.108133	0.399643	0.359609	0.118186	0.233362	0.323491	0.546439	0.158601	0.163889	0.516889	0.240727	0.504056	0.421822	0.200461	0.347326	0.548169	0.560901	0.239750	0.220934	0.080955	0.156182	0.342422	0.257227	0.286945	0.318384	0.268752	0.368466	0.167609	0.177514	0.387723	0.430294	0.410376	0.280799	0.621812	0.409780	0.195935	0.243316	0.239318	0.468166	0.194828	0.151161	0.509630	0.225420	0.184940	0.116414	0.277863	0.507683	0.773729	0.651066	0.447055	0.309216	0.159208	0.314163	0.878250	0.537141	0.340815	0.211693	0.503969	0.281382
23	0.305956	0.156322	0.341283	0.130321	0.284196	0.123179	0.255996	0.174996	0.261250	0.146555	0.417985	0.202160	0.115234	0.107103	0.433379	0.354568	0.142515	0.360112	0.324753	0.657735	0.147424	0.144064	0.388517	0.193797	0.510009	0.448924	0.226642	0.373034	0.522235	0.539149	0.249440	0.221129	0.136547	0.203577	0.344624	0.235636	0.268582	0.299522	0.268441	0.347416	0.125963	0.209021	0.304231	0.259232	0.409677	0.280611	0.621501	0.409833	0.187791	0.338283	0.235488	0.239032	0.186402	0.138728	0.510843	0.208490	0.190141	0.116575	0.256880	0.386236	0.750130	0.641419	0.445716	0.300584	0.171233	0.323232	0.928283	0.553377	0.291255	0.195319	0.519513	0.270424
24	0.170766	0.151371	0.154210	0.121945	0.181170	0.135166	0.272827	0.164522	0.245410	0.134398	0.551114	0.220420	0.112066	0.104374	0.464146	0.350507	0.152042	0.367747	0.384850	0.671865	0.138130	0.129889	0.334505	0.198509	0.507772	0.435467	0.253135	0.416196	0.497187	0.525470	0.252745	0.221171	0.139873	0.236481	0.250515	0.149213	0.240826	0.268260	0.266825	0.245734	0.126724	0.249921	0.231752	0.182008	0.414313	0.278199	0.620858	0.401815	0.161112	0.480394	0.217322	0.205724	0.183597	0.134458	0.474847	0.189192	0.189097	0.100527	0.213753	0.319275	0.758948	0.635925	0.426243	0.264102	0.175336	0.325307	0.907078	0.465796	0.261709	0.197135	0.523251	0.247852
25	0.145462	0.192059	0.167870	0.144081	0.160901	0.137433	0.266906	0.142038	0.269495	0.133447	0.595504	0.293815	0.109954	0.099439	0.470479	0.358341	0.141353	0.361383	0.380387	0.585145	0.155219	0.138107	0.325108	0.189290	0.493543	0.425389	0.342176	0.472010	0.471720	0.512509	0.239551	0.219251	0.143166	0.235980	0.221405	0.105425	0.226371	0.242859	0.263125	0.151865	0.161313	0.360468	0.178155	0.077257	0.419004	0.281415	0.613044	0.370567	0.134261	0.693617	0.235921	0.145529	0.183825	0.134777	0.427893	0.188107	0.136649	0.105522	0.224706	0.221273	0.735992	0.548191	0.372816	0.220170	0.184332	0.308067	0.873791	0.477679	0.238912	0.170815	0.519270	0.204497
26	0.101861	0.196953	0.148256	0.152673	0.139362	0.136200	0.217002	0.138252	0.270157	0.133475	0.640925	0.314774	0.108096	0.096014	0.459760	0.387470	0.147316	0.373176	0.573948	0.509742	0.239590	0.155152	0.272017	0.163956	0.464566	0.427907	0.364699	0.474880	0.447683	0.513002	0.234347	0.218576	0.151185	0.196743	0.182969	0.181340	0.195987	0.229835	0.261113	0.133058	0.138596	0.381722	0.119986	0.036659	0.417893	0.284071	0.505470	0.348174	0.071073	0.709368	0.252232	0.387491	0.182564	0.135662	0.382689	0.194859	0.108640	0.119307	0.238534	0.205134	0.435957	0.244586	0.290873	0.186091	0.189930	0.204635	0.832181	0.458732	0.190212	0.155432	0.519776	0.155169
27	0.102591	0.182125	0.139280	0.211172	0.140734	0.151276	0.215137	0.112915	0.271009	0.133025	0.640764	0.318231	0.106248	0.091483	0.459140	0.420334	0.185331	0.311843	0.703072	0.360863	0.297089	0.153163	0.221848	0.125765	0.477975	0.441509	0.382847	0.476832	0.449725	0.512929	0.234221	0.219500	0.105653	0.124619	0.302153	0.206132	0.188769	0.227180	0.237807	0.133933	0.168553	0.371156	0.104599	0.027826	0.417002	0.291392	0.376160	0.376275	0.063695	0.705468	0.337598	0.451750	0.175809	0.136681	0.328413	0.190350	0.092482	0.117531	0.223874	0.148383	0.218616	0.093352	0.197733	0.173670	0.180481	0.199039	0.790071	0.299835	0.189897	0.173008	0.520992	0.122134
28	0.118104	0.146445	0.103433	0.191038	0.138588	0.153540	0.270716	0.104539	0.260217	0.122817	0.627306	0.364639	0.107334	0.091396	0.459219	0.435917	0.354730	0.377375	0.689730	0.300182	0.297604	0.151380	0.188485	0.107915	0.383163	0.399651	0.372063	0.405160	0.450810	0.499018	0.231197	0.225701	0.099041	0.098166	0.314935	0.336158	0.177585	0.221901	0.201037	0.133861	0.174977	0.352907	0.106545	0.049727	0.414508	0.294317	0.366962	0.427089	0.083747	0.678526	0.389172	0.550593	0.144551	0.132484	0.255783	0.180154	0.083658	0.179286	0.219303	0.124754	0.215464	0.102496	0.121501	0.173578	0.222519	0.208029	0.763150	0.270898	0.190158	0.180607	0.522030	0.107157
29	0.119482	0.119591	0.158945	0.301397	0.140306	0.192255	0.306308	0.107529	0.267949	0.093533	0.555873	0.369074	0.111793	0.100154	0.459240	0.455573	0.484856	0.459265	0.699946	0.275466	0.304424	0.157314	0.149666	0.109087	0.278349	0.333164	0.349649	0.409999	0.426567	0.439087	0.245028	0.240848	0.107493	0.126777	0.337547	0.383580	0.186571	0.218000	0.188484	0.130883	0.280403	0.281964	0.163181	0.066757	0.412839	0.293022	0.335534	0.451725	0.142923	0.595264	0.396285	0.669851	0.103936	0.123087	0.221055	0.171790	0.079448	0.443182	0.199427	0.122692	0.215434	0.125709	0.117891	0.174406	0.243566	0.235891	0.731737	0.270765	0.174538	0.169672	0.522741	0.102224
30	0.095781	0.126128	0.155790	0.290783	0.132924	0.211555	0.319177	0.199794	0.267153	0.090331	0.556506	0.366916	0.117824	0.109381	0.452991	0.445137	0.483680	0.433844	0.527026	0.163018	0.318146	0.161036	0.109701	0.106876	0.284076	0.318363	0.330769	0.420501	0.372218	0.337612	0.259314	0.242498	0.107250	0.132711	0.307016	0.342887	0.169205	0.207127	0.205418	0.131569	0.295770	0.235186	0.193335	0.092081	0.413272	0.292604	0.276921	0.447236	0.200481	0.300094	0.403626	0.678289	0.085910	0.122506	0.255551	0.214962	0.059439	0.540926	0.179325	0.119304	0.220429	0.177331	0.114712	0.174269	0.244043	0.240157	0.680293	0.177219	0.164048	0.160297	0.521421	0.098472
31	0.055487	0.131815	0.267184	0.306235	0.115164	0.222900	0.454356	0.314738	0.199469	0.085078	0.490977	0.356094	0.124468	0.115476	0.397835	0.391080	0.467002	0.374103	0.284513	0.159215	0.315201	0.158188	0.106826	0.124740	0.306809	0.337390	0.332294	0.493574	0.341177	0.312193	0.248125	0.250754	0.117460	0.145168	0.228578	0.442750	0.157366	0.207571	0.196118	0.132805	0.403984	0.378275	0.219094	0.100711	0.419534	0.294483	0.252103	0.408802	0.212525	0.230841	0.376143	0.600367	0.081782	0.119677	0.315790	0.288765	0.056797	0.723725	0.162392	0.122896	0.246087	0.226037	0.117118	0.172218	0.220842	0.230288	0.524937	0.168598	0.163784	0.162376	0.462919	0.103842
32	0.062338	0.154983	0.252340	0.277180	0.131090	0.227944	0.514867	0.329151	0.183930	0.080548	0.354245	0.332517	0.123852	0.120653	0.340846	0.375249	0.371987	0.328046	0.258334	0.284667	0.311610	0.160610	0.133114	0.160388	0.450910	0.458098	0.244367	0.445701	0.326395	0.312672	0.338836	0.298890	0.113388	0.128193	0.190792	0.446765	0.156860	0.216044	0.157875	0.135356	0.412322	0.401502	0.256504	0.106492	0.402648	0.281221	0.208149	0.376613	0.218777	0.250364	0.294918	0.533759	0.081917	0.115911	0.333985	0.309633	0.048050	0.785563	0.173470	0.266824	0.272862	0.251283	0.122670	0.138865	0.199284	0.230799	0.483280	0.120377	0.164545	0.161611	0.360886	0.112292
33	0.057882	0.107258	0.266763	0.245305	0.210407	0.230751	0.559073	0.368140	0.142827	0.089658	0.239184	0.292990	0.118315	0.122882	0.338435	0.372473	0.082873	0.123390	0.281876	0.355527	0.312141	0.171595	0.135223	0.161979	0.452227	0.464021	0.199432	0.483059	0.319511	0.315515	0.377365	0.329610	0.110550	0.100607	0.124229	0.439272	0.155004	0.230403	0.148028	0.143603	0.529572	0.612292	0.230531	0.095332	0.338924	0.236067	0.131308	0.374672	0.218715	0.262945	0.177397	0.465083	0.086200	0.114041	0.346869	0.310792	0.035895	0.787984	0.204346	0.287633	0.289715	0.259374	0.130366	0.068304	0.191281	0.274943	0.322662	0.069803	0.165606	0.164887	0.325262	0.110207
34	0.061278	0.111520	0.170414	0.279152	0.219279	0.225670	0.578910	0.559534	0.188607	0.177956	0.225362	0.271895	0.111899	0.123148	0.329321	0.370785	0.077174	0.138946	0.288332	0.365280	0.329900	0.223462	0.139227	0.165745	0.434770	0.447964	0.162494	0.528718	0.358701	0.330184	0.382850	0.305752	0.134283	0.093857	0.116277	0.437654	0.148806	0.237242	0.152340	0.141986	0.623043	0.695040	0.216033	0.094855	0.236337	0.194192	0.119243	0.392864	0.260773	0.276857	0.162260	0.220819	0.107796	0.112419	0.415809	0.308503	0.040227	0.783054	0.305550	0.305131	0.339475	0.269511	0.150151	0.058476	0.188924	0.327039	0.193022	0.069224	0.161000	0.177709	0.328546	0.109130
35	0.060847	0.072059	0.181041	0.296026	0.210484	0.236241	0.643630	0.577363	0.289408	0.258304	0.237689	0.250842	0.103045	0.118461	0.322466	0.362387	0.080961	0.137146	0.283699	0.357570	0.356156	0.287126	0.143061	0.164421	0.412180	0.437784	0.156830	0.522278	0.427002	0.373684	0.435412	0.306294	0.158852	0.074931	0.109259	0.309998	0.158801	0.261479	0.146875	0.136758	0.585980	0.648598	0.180711	0.096987	0.207096	0.170022	0.111541	0.406384	0.249459	0.284233	0.066791	0.146584	0.122169	0.111915	0.491049	0.304985	0.069765	0.753948	0.322432	0.342800	0.361929	0.274633	0.164222	0.057764	0.136650	0.318236	0.164774	0.265902	0.159960	0.199197	0.319765	0.111541
36	0.056368	0.089813	0.157399	0.277261	0.211675	0.231643	0.631486	0.577617	0.293552	0.321433	0.226575	0.130205	0.092115	0.116162	0.321883	0.364221	0.077308	0.104498	0.287245	0.315750	0.388366	0.332989	0.134261	0.161184	0.406639	0.423047	0.137110	0.484658	0.454569	0.409287	0.492483	0.311927	0.217258	0.103531	0.151597	0.190613	0.203268	0.313324	0.149628	0.136752	0.549631	0.617408	0.171789	0.089619	0.206397	0.168487	0.108070	0.418753	0.242592	0.262378	0.050554	0.134875	0.121934	0.110605	0.527194	0.303167	0.124715	0.640444	0.326929	0.399302	0.411457	0.367251	0.158424	0.055369	0.087281	0.306227	0.193983	0.297979	0.145577	0.199748	0.280978	0.115156
37	0.055361	0.101723	0.159318	0.171862	0.225984	0.222444	0.631957	0.568303	0.294461	0.554482	0.266184	0.121545	0.086146	0.117953	0.321634	0.365237	0.091826	0.122349	0.315593	0.213996	0.386154	0.335485	0.125031	0.206906	0.395892	0.393738	0.130147	0.470322	0.463111	0.415288	0.504240	0.317616	0.225710	0.106052	0.256052	0.205641	0.284713	0.398637	0.151720	0.136363	0.526986	0.578131	0.090722	0.125645	0.201468	0.168014	0.109705	0.424890	0.235993	0.251030	0.131172	0.137934	0.121208	0.106944	0.537865	0.300564	0.128021	0.491539	0.359901	0.396631	0.467903	0.466281	0.145099	0.053565	0.069585	0.293263	0.190118	0.326782	0.141701	0.201055	0.244171	0.111968
38	0.074268	0.131090	0.117205	0.143729	0.249117	0.223788	0.621733	0.498284	0.324153	0.659029	0.271778	0.333936	0.086263	0.118356	0.313496	0.366234	0.089178	0.113052	0.307198	0.191879	0.389740	0.396400	0.146649	0.286004	0.380582	0.479212	0.138474	0.418920	0.457093	0.398518	0.514556	0.316565	0.216665	0.117695	0.304630	0.204873	0.329969	0.475085	0.152429	0.127654	0.147032	0.192559	0.222243	0.217822	0.187951	0.160260	0.109800	0.427884	0.235677	0.254677	0.248374	0.121627	0.117214	0.104315	0.539752	0.301148	0.138074	0.266550	0.369132	0.385844	0.456018	0.485525	0.137005	0.053477	0.084935	0.290997	0.179319	0.348868	0.143755	0.197572	0.218669	0.109274
39	0.069205	0.118589	0.117119	0.102905	0.248401	0.217243	0.506985	0.490269	0.370412	0.898205	0.287586	0.466084	0.094782	0.119044	0.272625	0.368116	0.082770	0.106356	0.306374	0.205548	0.400706	0.516318	0.215067	0.297637	0.206606	0.470443	0.140433	0.333165	0.449331	0.387425	0.517849	0.320128	0.191714	0.112686	0.300637	0.193269	0.371516	0.530024	0.154517	0.104371	0.143126	0.176264	0.275189	0.209148	0.181285	0.145022	0.110755	0.427708	0.176539	0.219392	0.332552	0.161214	0.112620	0.104706	0.534653	0.302090	0.154638	0.221495	0.398408	0.344350	0.454293	0.487206	0.144533	0.053382	0.086534	0.296421	0.215184	0.357652	0.139831	0.192454	0.202354	0.109314
40	0.109122	0.132109	0.117526	0.164864	0.211962	0.222214	0.475701	0.483226	0.421169	1.011637	0.334077	0.514079	0.119516	0.121315	0.201400	0.368591	0.109335	0.179968	0.272118	0.188694	0.467309	0.587278	0.220028	0.306961	0.157600	0.629607	0.150360	0.296870	0.443610	0.379407	0.520726	0.329843	0.116407	0.089577	0.269252	0.113840	0.384613	0.548444	0.155088	0.119152	0.101652	0.140644	0.318105	0.218565	0.181883	0.131314	0.114311	0.413844	0.073252	0.128502	0.366058	0.377185	0.114481	0.103948	0.530549	0.307155	0.154811	0.231713	0.386652	0.339316	0.452765	0.487951	0.167440	0.052464	0.084174	0.276165	0.250729	0.357992	0.131742	0.188921	0.194301	0.107878
41	0.116333	0.107808	0.126795	0.156475	0.151752	0.221810	0.421837	0.313219	0.451686	1.036039	0.353634	0.618620	0.192944	0.123873	0.129297	0.359744	0.096532	0.184439	0.151478	0.124047	0.486770	0.607846	0.250563	0.341549	0.159237	0.671211	0.145585	0.180965	0.436931	0.372017	0.526244	0.332412	0.217100	0.247709	0.188909	0.070185	0.413386	0.579859	0.163261	0.200930	0.074340	0.059301	0.329518	0.267916	0.187516	0.118992	0.122840	0.367574	0.092016	0.119432	0.413517	0.407206	0.129065	0.102844	0.529895	0.305533	0.152428	0.236692	0.354622	0.294218	0.452035	0.487580	0.191198	0.049665	0.078355	0.213517	0.239774	0.358543	0.122041	0.183989	0.193819	0.110635
42	0.104301	0.073950	0.134705	0.144226	0.158918	0.223123	0.318618	0.138928	0.426231	1.025676	0.371843	0.697449	0.235539	0.124546	0.108993	0.338294	0.082069	0.190380	0.119643	0.092900	0.481697	0.608653	0.267190	0.371109	0.169015	0.667717	0.122771	0.114963	0.427255	0.350143	0.526150	0.339030	0.341524	0.334877	0.089742	0.082059	0.559814	0.721986	0.271084	0.275384	0.098989	0.068130	0.276764	0.253747	0.191056	0.115818	0.138534	0.313520	0.112920	0.130396	0.407059	0.417110	0.151141	0.095106	0.531725	0.303108	0.115123	0.212930	0.351928	0.215165	0.451811	0.483782	0.211833	0.051134	0.088048	0.181466	0.235440	0.271967	0.114154	0.170862	0.191639	0.117699
43	0.103935	0.073662	0.155580	0.062302	0.228597	0.313439	0.235604	0.133950	0.449261	1.033835	0.371890	0.704138	0.238356	0.124584	0.113633	0.309635	0.081262	0.190167	0.109925	0.070089	0.479280	0.611115	0.276768	0.393816	0.174135	0.668249	0.120364	0.110465	0.410619	0.329453	0.525259	0.366680	0.551762	0.589400	0.065946	0.089848	0.599926	0.816381	0.312740	0.323213	0.128154	0.083352	0.283768	0.396340	0.190061	0.115297	0.137141	0.279054	0.151956	0.164211	0.339136	0.413656	0.171647	0.088372	0.535316	0.303982	0.096091	0.177148	0.341001	0.181199	0.451502	0.476378	0.228374	0.082228	0.122794	0.189293	0.213653	0.213191	0.116007	0.159346	0.196195	0.117966
44	0.060438	0.040955	0.169534	0.082594	0.311023	0.386759	0.221060	0.132624	0.475572	1.003949	0.360907	0.705256	0.249169	0.128777	0.178568	0.288839	0.039938	0.122652	0.143548	0.056679	0.479476	0.610085	0.274440	0.459729	0.172348	0.662168	0.116152	0.133231	0.368407	0.318966	0.515371	0.395785	0.567942	0.602036	0.068050	0.108358	0.616918	0.871107	0.309022	0.347822	0.117730	0.076610	0.222733	0.420563	0.181765	0.113344	0.157238	0.288821	0.167069	0.174142	0.277036	0.401595	0.188415	0.084394	0.526281	0.301491	0.093160	0.166282	0.300159	0.170274	0.448120	0.460373	0.238857	0.120575	0.123922	0.198942	0.216145	0.161681	0.129547	0.161694	0.199525	0.118364
45	0.072060	0.093529	0.156351	0.100167	0.320331	0.417855	0.171678	0.131529	0.466948	0.930998	0.331243	0.702904	0.262600	0.132643	0.245482	0.277479	0.039095	0.102947	0.163482	0.072285	0.480128	0.607575	0.278387	0.504896	0.174764	0.650873	0.169312	0.198850	0.356211	0.316620	0.513379	0.406971	0.520947	0.549714	0.101361	0.138189	0.635535	0.918241	0.351654	0.354377	0.125268	0.090282	0.256865	0.409294	0.153158	0.091568	0.177317	0.310976	0.168186	0.174082	0.258837	0.220652	0.195935	0.062853	0.501154	0.257583	0.055767	0.158024	0.267115	0.074978	0.431580	0.445333	0.241333	0.133941	0.111642	0.199776	0.240802	0.112994	0.141331	0.166909	0.208561	0.119528
46	0.073839	0.118165	0.141870	0.109846	0.433818	0.606112	0.091947	0.101194	0.444010	0.838914	0.317161	0.579631	0.292377	0.158476	0.258472	0.278189	0.038088	0.105786	0.301117	0.084778	0.474211	0.597138	0.278852	0.512576	0.172078	0.517719	0.207247	0.200878	0.367567	0.318048	0.463518	0.377061	0.453723	0.505125	0.122643	0.140157	0.639656	0.963425	0.434180	0.389213	0.128646	0.098796	0.253228	0.363823	0.139854	0.101774	0.176458	0.301990	0.158521	0.180644	0.161455	0.163047	0.196930	0.055845	0.472422	0.183915	0.040326	0.140205	0.172059	0.119661	0.417237	0.451828	0.247876	0.142630	0.127721	0.204275	0.214143	0.066180	0.140884	0.168555	0.242333	0.112273
47	0.074611	0.122284	0.142580	0.100288	0.515806	0.713532	0.144512	0.096336	0.412835	0.628798	0.286616	0.570025	0.308325	0.171783	0.253640	0.283700	0.040917	0.108665	0.312966	0.183706	0.463159	0.574169	0.285076	0.512877	0.117600	0.371777	0.208000	0.228052	0.372947	0.315772	0.402423	0.349707	0.103418	0.130198	0.121640	0.159347	0.639356	0.993824	0.462752	0.443226	0.077173	0.073414	0.230189	0.260597	0.146676	0.130924	0.176144	0.339987	0.148247	0.165216	0.156965	0.081661	0.196747	0.060959	0.523583	0.191658	0.060926	0.133292	0.155039	0.149247	0.404336	0.460715	0.259788	0.145051	0.144003	0.198485	0.158835	0.073385	0.129313	0.163006	0.247190	0.083850
48	0.070397	0.132843	0.181400	0.136917	0.550739	0.762069	0.187161	0.109709	0.366797	0.549593	0.285023	0.541248	0.311738	0.168984	0.262816	0.284262	0.042132	0.107063	0.309965	0.189557	0.444896	0.552450	0.291337	0.522434	0.141712	0.180800	0.266522	0.254530	0.354629	0.309046	0.398313	0.355453	0.082178	0.116707	0.105547	0.131022	0.639348	0.995358	0.487809	0.492543	0.096683	0.093096	0.179463	0.127573	0.150608	0.145253	0.435461	0.358198	0.097570	0.111981	0.161805	0.075257	0.195850	0.067611	0.554736	0.253929	0.091432	0.156234	0.241900	0.196051	0.360080	0.459388	0.279265	0.144911	0.143879	0.180216	0.157648	0.087595	0.121790	0.160370	0.249845	0.077457
49	0.046566	0.104122	0.193614	0.131723	0.559291	0.778852	0.209205	0.209363	0.483835	0.571847	0.262293	0.411885	0.312612	0.165848	0.282624	0.284205	0.040393	0.108299	0.305404	0.218661	0.452873	0.556507	0.329524	0.526827	0.184266	0.217010	0.320977	0.257469	0.258455	0.257935	0.368893	0.386407	0.083389	0.116797	0.114100	0.128835	0.636932	0.985452	0.513327	0.509198	0.104195	0.080853	0.113946	0.057851	0.151156	0.149595	0.695880	0.363492	0.052523	0.099750	0.144281	0.065688	0.185118	0.069458	0.526607	0.270180	0.112683	0.159034	0.254709	0.260779	0.346633	0.452448	0.275397	0.208451	0.139561	0.174184	0.171083	0.121539	0.125149	0.160158	0.268326	0.080682
50	0.073228	0.170599	0.170436	0.116713	0.547835	0.755996	0.225525	0.249087	0.533286	0.652900	0.212652	0.320603	0.313269	0.172972	0.299572	0.288051	0.037581	0.067758	0.249802	0.255921	0.456232	0.548491	0.330884	0.503730	0.230387	0.232384	0.351808	0.301924	0.189357	0.193404	0.385756	0.426457	0.077155	0.109028	0.098268	0.130443	0.624423	0.960883	0.516967	0.510927	0.105108	0.082817	0.135966	0.040817	0.151839	0.153430	0.712399	0.377128	0.062624	0.110747	0.107567	0.048978	0.179459	0.078272	0.516210	0.266973	0.110716	0.158433	0.421955	0.285471	0.299005	0.379680	0.301008	0.329144	0.114000	0.158269	0.165218	0.138005	0.139457	0.153157	0.289395	0.096416
51	0.071619	0.178033	0.102760	0.063037	0.501370	0.718952	0.231478	0.250222	0.503779	0.682627	0.223325	0.320271	0.320775	0.197235	0.308912	0.295704	0.036864	0.058118	0.225117	0.199275	0.402841	0.451556	0.335016	0.493861	0.241682	0.250845	0.379073	0.311040	0.154538	0.138064	0.453808	0.433616	0.049986	0.069237	0.134571	0.114684	0.592763	0.930794	0.538161	0.515188	0.113044	0.077830	0.185136	0.036962	0.151202	0.153210	0.742829	0.389738	0.062411	0.100882	0.117092	0.108077	0.179513	0.089938	0.506488	0.270122	0.112749	0.141938	0.489235	0.285594	0.205366	0.285825	0.314836	0.359644	0.104129	0.151957	0.157352	0.147343	0.149493	0.138495	0.289024	0.186251
52	0.080358	0.179948	0.161618	0.085334	0.477905	0.702306	0.241716	0.257471	0.513683	0.690929	0.275956	0.317751	0.339323	0.221095	0.312744	0.296149	0.056805	0.068421	0.217223	0.193852	0.316813	0.329426	0.388149	0.487052	0.264176	0.252334	0.373078	0.289470	0.148310	0.113619	0.485686	0.450349	0.024812	0.033440	0.134464	0.127139	0.571473	0.903532	0.552061	0.519501	0.117034	0.072191	0.211250	0.069391	0.149609	0.151512	0.769355	0.389686	0.064549	0.106678	0.122220	0.220881	0.181407	0.093485	0.493496	0.276182	0.125838	0.147996	0.502323	0.306632	0.241543	0.316463	0.345109	0.423471	0.104738	0.146645	0.149759	0.152158	0.154314	0.137876	0.337878	0.209058
53	0.073531	0.150979	0.178437	0.094203	0.422989	0.626675	0.247165	0.271093	0.546392	0.684067	0.288061	0.313148	0.366754	0.245903	0.315367	0.294732	0.052840	0.064044	0.203360	0.181996	0.234809	0.243679	0.388543	0.477219	0.282780	0.253441	0.362706	0.288087	0.147030	0.106964	0.483299	0.470114	0.025924	0.023909	0.114723	0.131457	0.548115	0.887262	0.557790	0.521457	0.101780	0.060861	0.235010	0.089067	0.145926	0.147948	0.790946	0.394506	0.104894	0.122532	0.207718	0.264429	0.184582	0.092308	0.487616	0.293116	0.152657	0.177548	0.509795	0.291614	0.289971	0.348332	0.355310	0.430966	0.099810	0.147877	0.195851	0.160021	0.156486	0.135626	0.344017	0.238257
54	0.081115	0.138341	0.205871	0.168390	0.337526	0.489484	0.240564	0.277984	0.544217	0.645445	0.286011	0.302717	0.385197	0.269744	0.317319	0.293174	0.067407	0.108580	0.150280	0.122559	0.224845	0.232414	0.380645	0.442624	0.292151	0.254528	0.367563	0.272789	0.146185	0.107187	0.538149	0.465317	0.035213	0.028785	0.111514	0.128216	0.547760	0.886580	0.558274	0.512529	0.083690	0.061673	0.231030	0.101282	0.134415	0.154695	0.825458	0.404947	0.122255	0.145297	0.224682	0.286203	0.187460	0.090075	0.492092	0.314606	0.184272	0.208283	0.494481	0.270629	0.305829	0.353212	0.346383	0.431326	0.066508	0.128690	0.251499	0.197796	0.158458	0.134151	0.369599	0.245760
55	0.080954	0.134583	0.201591	0.196730	0.265002	0.398158	0.232523	0.342549	0.538588	0.586810	0.284436	0.247167	0.386172	0.280129	0.317788	0.289972	0.065977	0.108862	0.107269	0.115460	0.215875	0.228196	0.399538	0.435186	0.321542	0.265570	0.341945	0.240915	0.146113	0.106618	0.588662	0.465905	0.044396	0.038142	0.076073	0.120113	0.449203	0.819168	0.540881	0.484557	0.081537	0.061290	0.192650	0.107855	0.122857	0.167832	0.887911	0.406483	0.130682	0.152831	0.256200	0.312224	0.189783	0.090477	0.491385	0.329319	0.177410	0.203878	0.459415	0.211423	0.310032	0.353363	0.333924	0.434368	0.067659	0.125206	0.312686	0.455977	0.167597	0.142602	0.409710	0.250525
56	0.060759	0.107994	0.218557	0.215231	0.339635	0.397820	0.195088	0.357257	0.512957	0.537018	0.221371	0.166143	0.384379	0.287404	0.317838	0.284605	0.050299	0.130237	0.083660	0.121712	0.210909	0.226843	0.397733	0.370952	0.405084	0.241974	0.274808	0.237403	0.146165	0.102039	0.604977	0.475652	0.069202	0.073766	0.094619	0.130221	0.324524	0.692706	0.502502	0.459885	0.066685	0.081213	0.192505	0.126604	0.127713	0.184234	0.931166	0.406017	0.190112	0.192402	0.259365	0.308823	0.184517	0.096258	0.490797	0.359491	0.170066	0.202555	0.412680	0.175311	0.310259	0.354164	0.321807	0.433811	0.077830	0.126331	0.324068	0.479726	0.186136	0.166389	0.425998	0.252684
57	0.056917	0.194722	0.255586	0.245596	0.413585	0.456874	0.190840	0.353278	0.406764	0.492754	0.205966	0.149652	0.364403	0.287502	0.318609	0.280582	0.051796	0.147819	0.079907	0.099503	0.212006	0.224847	0.418644	0.281308	0.406337	0.212761	0.261890	0.183677	0.151620	0.107586	0.609349	0.462366	0.075295	0.074783	0.093905	0.131230	0.288184	0.617866	0.498788	0.428286	0.052764	0.086728	0.179564	0.112509	0.128680	0.191969	0.930702	0.409574	0.210525	0.201421	0.259938	0.240909	0.167004	0.097282	0.486154	0.375046	0.180301	0.208459	0.218616	0.179466	0.314790	0.361746	0.321831	0.427816	0.091130	0.120111	0.344172	0.563691	0.203752	0.183532	0.431507	0.266874
58	0.054024	0.229153	0.315859	0.270515	0.458446	0.475628	0.191634	0.430535	0.287961	0.312885	0.249821	0.123912	0.333013	0.311806	0.321939	0.273850	0.037897	0.181916	0.082657	0.071290	0.209199	0.220942	0.456417	0.237691	0.393332	0.204378	0.204433	0.191991	0.167431	0.128374	0.610585	0.430883	0.069962	0.075427	0.098407	0.134141	0.244927	0.546102	0.491046	0.424840	0.065668	0.083942	0.197051	0.136867	0.130872	0.196618	0.926938	0.399263	0.198322	0.206807	0.201461	0.191301	0.150694	0.097327	0.483407	0.373947	0.187602	0.217179	0.199428	0.189395	0.325852	0.371303	0.337580	0.419303	0.098332	0.110448	0.346108	0.585381	0.204063	0.183558	0.452541	0.283314
59	0.087670	0.234117	0.311872	0.244430	0.540292	0.562556	0.201820	0.486540	0.269168	0.189302	0.239146	0.119680	0.395855	0.378279	0.325659	0.259724	0.042336	0.189985	0.073465	0.061611	0.206872	0.217899	0.470429	0.236773	0.375357	0.189830	0.189014	0.203086	0.176409	0.145125	0.610694	0.404140	0.070037	0.085367	0.135681	0.143586	0.235541	0.471253	0.430084	0.405971	0.068048	0.101759	0.180995	0.138564	0.132641	0.193109	0.927354	0.397203	0.183062	0.182486	0.159869	0.153549	0.142398	0.099167	0.486562	0.381414	0.174490	0.213422	0.190370	0.142259	0.342197	0.373474	0.337504	0.419088	0.114106	0.116947	0.349510	0.629002	0.204626	0.185568	0.456073	0.291432
60	0.088399	0.247792	0.246356	0.162607	0.654114	0.615625	0.218379	0.485906	0.204028	0.104309	0.177959	0.121065	0.465402	0.421026	0.305350	0.264696	0.046317	0.193886	0.081058	0.057509	0.184507	0.200528	0.474689	0.233119	0.375741	0.220322	0.157649	0.255133	0.160481	0.146578	0.610770	0.403914	0.045779	0.060472	0.145733	0.133565	0.237791	0.362825	0.376024	0.371500	0.069380	0.104968	0.194946	0.148438	0.128111	0.175941	0.936054	0.390845	0.180355	0.193532	0.103745	0.091592	0.150586	0.104379	0.487481	0.390960	0.143638	0.174157	0.182685	0.129568	0.356274	0.359608	0.335270	0.420019	0.117377	0.101022	0.366038	0.642546	0.217006	0.195650	0.461373	0.292669
61	0.090175	0.144015	0.137231	0.127194	0.647945	0.587516	0.232678	0.483302	0.162455	0.103843	0.186390	0.123381	0.473117	0.426071	0.255457	0.244585	0.045325	0.189365	0.093569	0.131697	0.145653	0.166064	0.459434	0.184255	0.363669	0.222319	0.331030	0.381127	0.148595	0.143385	0.614287	0.394675	0.053368	0.100850	0.164196	0.108905	0.237087	0.299534	0.358456	0.351335	0.077495	0.105624	0.216886	0.217822	0.122585	0.159212	0.923603	0.314892	0.127761	0.161030	0.042094	0.064826	0.167462	0.110821	0.473868	0.404032	0.134327	0.146179	0.183189	0.125561	0.367864	0.346026	0.319000	0.421587	0.119533	0.131055	0.335784	0.651257	0.238278	0.210918	0.467291	0.295469
62	0.073830	0.121051	0.075108	0.059547	0.650315	0.582580	0.202763	0.468672	0.180036	0.104732	0.186365	0.129133	0.460047	0.420388	0.229462	0.229978	0.043613	0.129196	0.093664	0.145373	0.101045	0.129212	0.457453	0.172794	0.358149	0.210334	0.388671	0.420881	0.143675	0.141735	0.617029	0.390500	0.089458	0.140575	0.161034	0.086676	0.231890	0.282637	0.329028	0.321301	0.067147	0.111799	0.211508	0.269181	0.121648	0.152600	0.725126	0.305099	0.074943	0.139846	0.026617	0.057178	0.185046	0.109968	0.395842	0.392006	0.135481	0.140022	0.183940	0.124668	0.375461	0.340330	0.297532	0.423529	0.128973	0.182072	0.302923	0.510807	0.254876	0.222042	0.466650	0.298074
63	0.067573	0.065570	0.074366	0.044727	0.613020	0.554540	0.199301	0.394026	0.191912	0.113715	0.202049	0.114986	0.444354	0.413898	0.243903	0.213016	0.046766	0.113636	0.107953	0.166824	0.076432	0.111732	0.446381	0.117918	0.242720	0.156139	0.511908	0.454408	0.148482	0.140215	0.616412	0.364321	0.103213	0.143056	0.120913	0.056319	0.184878	0.280354	0.308251	0.316537	0.061862	0.111090	0.205826	0.261389	0.120856	0.148061	0.637005	0.271205	0.070780	0.119664	0.024765	0.042561	0.212562	0.113994	0.343563	0.364246	0.140152	0.164587	0.203331	0.143958	0.373391	0.339774	0.305069	0.385899	0.124257	0.186074	0.285616	0.491819	0.262759	0.228578	0.473589	0.299035
64	0.071637	0.112867	0.074285	0.036353	0.563883	0.500222	0.235654	0.390841	0.200796	0.114312	0.226120	0.109077	0.440264	0.415490	0.252617	0.239600	0.045567	0.067493	0.111253	0.192746	0.072525	0.111716	0.389689	0.107306	0.127884	0.157638	0.548545	0.544545	0.155272	0.138622	0.575048	0.331884	0.190434	0.179412	0.097118	0.045179	0.179369	0.268542	0.292090	0.309678	0.053602	0.075217	0.252148	0.267444	0.120324	0.146777	0.621895	0.239735	0.068919	0.115544	0.047382	0.027103	0.249553	0.123142	0.283216	0.363598	0.195436	0.213900	0.196165	0.142423	0.354603	0.328107	0.289492	0.308487	0.120010	0.186148	0.254297	0.389215	0.266178	0.231375	0.468693	0.300856
65	0.054329	0.119262	0.054118	0.022767	0.507339	0.456468	0.291808	0.335392	0.192320	0.113395	0.235380	0.137595	0.440342	0.419333	0.236366	0.261127	0.043852	0.040541	0.120207	0.154916	0.073141	0.113005	0.357557	0.107391	0.166820	0.187044	0.568549	0.620590	0.156393	0.133352	0.492498	0.324330	0.383153	0.297303	0.088253	0.074023	0.181593	0.248146	0.267945	0.303106	0.049642	0.069400	0.242554	0.243399	0.119292	0.145493	0.583074	0.225048	0.055480	0.088657	0.136037	0.027541	0.307158	0.117309	0.201445	0.366600	0.204010	0.215507	0.223395	0.257617	0.353572	0.320467	0.279724	0.259167	0.139803	0.234232	0.253439	0.355067	0.264912	0.225859	0.453991	0.302332
66	0.046146	0.119660	0.067378	0.031731	0.475531	0.410465	0.286725	0.198084	0.162120	0.104411	0.193409	0.153829	0.447021	0.427993	0.212971	0.260868	0.046339	0.057380	0.117450	0.186225	0.077569	0.169288	0.351242	0.107408	0.188485	0.214199	0.591887	0.649033	0.155875	0.129625	0.431805	0.321931	0.437500	0.367767	0.116275	0.092005	0.183335	0.222420	0.255764	0.299275	0.036256	0.054759	0.219911	0.179388	0.116551	0.145349	0.551650	0.222349	0.036742	0.069500	0.157374	0.040481	0.342776	0.110675	0.225602	0.363024	0.216299	0.226631	0.253462	0.307668	0.314539	0.264496	0.236010	0.150215	0.139966	0.257148	0.236580	0.327163	0.258153	0.215398	0.439691	0.289005
67	0.069047	0.100913	0.097086	0.171098	0.247637	0.185610	0.327745	0.159427	0.158536	0.101275	0.197030	0.247118	0.448237	0.423590	0.196271	0.247947	0.041459	0.056977	0.106892	0.271665	0.080218	0.220009	0.331926	0.106109	0.178543	0.200352	0.594806	0.644510	0.156396	0.129660	0.423242	0.282486	0.436484	0.363642	0.116549	0.106079	0.183940	0.198205	0.270622	0.290445	0.036925	0.033702	0.223400	0.195178	0.117812	0.142445	0.516658	0.202635	0.037440	0.065350	0.186157	0.166180	0.442105	0.105596	0.238397	0.356419	0.205541	0.223251	0.272983	0.331331	0.279412	0.226880	0.216142	0.138530	0.138876	0.269486	0.199576	0.291658	0.254764	0.214702	0.431120	0.235999
68	0.078101	0.105073	0.177805	0.218078	0.118602	0.096757	0.330698	0.182818	0.162198	0.097637	0.193776	0.271839	0.437913	0.411032	0.189068	0.239584	0.095642	0.120265	0.101352	0.272812	0.085540	0.226522	0.314785	0.082605	0.180184	0.186889	0.542394	0.558001	0.157175	0.134238	0.375451	0.276603	0.399038	0.348795	0.157814	0.131006	0.188561	0.239445	0.292010	0.277499	0.051290	0.062088	0.173202	0.215118	0.119189	0.132959	0.427837	0.188272	0.038858	0.084670	0.210542	0.198124	0.519742	0.104523	0.236466	0.342301	0.204186	0.234650	0.298410	0.331474	0.265473	0.218093	0.215454	0.135978	0.150481	0.291110	0.199637	0.324158	0.252126	0.216601	0.397417	0.225755
69	0.114262	0.191853	0.209394	0.272397	0.079382	0.086035	0.337936	0.223308	0.143840	0.090417	0.179870	0.269173	0.416946	0.395920	0.184749	0.239497	0.256269	0.217805	0.174771	0.268068	0.200531	0.289478	0.306131	0.071346	0.184474	0.190395	0.506935	0.541583	0.162429	0.145844	0.264794	0.272610	0.194644	0.214365	0.216421	0.230997	0.274115	0.382190	0.303021	0.259377	0.058124	0.066128	0.154243	0.212243	0.108896	0.109837	0.258746	0.185551	0.047010	0.123304	0.237613	0.259796	0.574401	0.111063	0.229374	0.316915	0.217809	0.269608	0.305611	0.379589	0.262617	0.221573	0.215861	0.127232	0.168466	0.281642	0.157835	0.334148	0.249306	0.216677	0.392341	0.193609
70	0.147303	0.235124	0.261241	0.317741	0.084273	0.141190	0.339254	0.239770	0.120994	0.085504	0.181133	0.264046	0.396557	0.382410	0.192446	0.239242	0.300973	0.253030	0.193963	0.256565	0.316213	0.351469	0.241385	0.070962	0.180436	0.191597	0.361954	0.503882	0.167850	0.165425	0.214394	0.253110	0.069274	0.078567	0.243249	0.324630	0.433629	0.561592	0.277948	0.257518	0.063163	0.079141	0.119455	0.174999	0.102590	0.091429	0.207666	0.161479	0.059525	0.133069	0.399675	0.308096	0.604207	0.125778	0.223755	0.292055	0.208012	0.262854	0.303852	0.377590	0.262309	0.221293	0.215268	0.127275	0.170616	0.276413	0.182664	0.461211	0.246608	0.220383	0.346819	0.192731
71	0.153361	0.241559	0.268089	0.311225	0.096648	0.151882	0.331161	0.257175	0.103147	0.074658	0.155889	0.268807	0.397486	0.386854	0.207960	0.239985	0.467806	0.337825	0.249359	0.167917	0.408296	0.408551	0.187137	0.063285	0.181486	0.182924	0.328320	0.466400	0.202503	0.245115	0.210970	0.234729	0.065479	0.087376	0.344549	0.360350	0.578618	0.681829	0.277240	0.258056	0.063216	0.091425	0.096876	0.143282	0.101477	0.086259	0.205800	0.111890	0.056386	0.135315	0.439985	0.326678	0.616722	0.152546	0.221098	0.261481	0.175197	0.256442	0.420186	0.395450	0.256911	0.207355	0.192388	0.127538	0.169515	0.277395	0.239192	0.666644	0.238589	0.217082	0.299211	0.185855
72	0.170522	0.192078	0.229233	0.316008	0.127354	0.168008	0.265984	0.266668	0.088639	0.074667	0.134065	0.265173	0.408523	0.400507	0.217375	0.242939	0.471088	0.338078	0.252453	0.116587	0.458621	0.438185	0.178928	0.070928	0.160725	0.166627	0.236317	0.250381	0.277343	0.343054	0.208645	0.225607	0.088736	0.091059	0.319348	0.354767	0.676674	0.732354	0.274655	0.256044	0.058826	0.084960	0.097656	0.126469	0.098049	0.081601	0.202264	0.093784	0.057041	0.141910	0.513865	0.290658	0.618409	0.168607	0.264039	0.258231	0.186078	0.249542	0.478957	0.364577	0.243648	0.185355	0.152988	0.128286	0.151256	0.247745	0.294609	0.699615	0.229064	0.198305	0.290590	0.180934
73	0.177522	0.148614	0.174667	0.241059	0.152725	0.181326	0.270873	0.275204	0.087120	0.074115	0.101547	0.251196	0.426990	0.417205	0.217986	0.244006	0.415290	0.286219	0.200212	0.157221	0.464509	0.440116	0.194621	0.108870	0.119678	0.129435	0.176825	0.195419	0.384339	0.437629	0.224625	0.224874	0.100259	0.094978	0.291379	0.260145	0.699677	0.737928	0.274002	0.250282	0.070686	0.107333	0.079032	0.067978	0.095822	0.080772	0.162681	0.060008	0.087479	0.168001	0.509665	0.295461	0.616842	0.169942	0.291825	0.257741	0.213766	0.271225	0.584567	0.354301	0.222758	0.161435	0.147777	0.116045	0.152123	0.239413	0.301454	0.703475	0.225399	0.195159	0.278318	0.151096
74	0.186072	0.129575	0.129951	0.203520	0.176613	0.180730	0.233774	0.273946	0.087150	0.076201	0.073512	0.237252	0.441677	0.424768	0.217770	0.255853	0.388084	0.264988	0.222096	0.241245	0.530228	0.508512	0.208082	0.129888	0.134294	0.182676	0.142903	0.132595	0.435990	0.476416	0.226618	0.221337	0.104890	0.097081	0.232782	0.198914	0.781510	0.832557	0.263742	0.186948	0.061706	0.109541	0.081155	0.082927	0.092532	0.089837	0.119941	0.031387	0.100974	0.179081	0.496049	0.242116	0.614797	0.169906	0.295922	0.240820	0.259422	0.319659	0.580427	0.360696	0.199620	0.144060	0.138462	0.103522	0.184268	0.271663	0.283759	0.706044	0.227204	0.203546	0.250290	0.114138
75	0.191101	0.136131	0.146763	0.211304	0.182996	0.204501	0.150887	0.285679	0.078939	0.086573	0.068608	0.115975	0.416481	0.388261	0.223103	0.263376	0.137711	0.134506	0.158967	0.252102	0.603418	0.570896	0.207300	0.161025	0.129399	0.183942	0.143504	0.153856	0.438799	0.490636	0.218787	0.219588	0.123033	0.110634	0.126676	0.124299	1.010433	1.068929	0.248469	0.092556	0.059009	0.103144	0.075029	0.070628	0.090432	0.102214	0.109568	0.029836	0.095143	0.171279	0.386525	0.193806	0.612621	0.169247	0.295413	0.214900	0.259019	0.307224	0.608133	0.364266	0.177854	0.139608	0.134950	0.094887	0.195313	0.271890	0.274720	0.689676	0.230255	0.199299	0.246103	0.104219
76	0.161617	0.149406	0.159489	0.152596	0.210775	0.240341	0.145692	0.341259	0.050195	0.088696	0.068042	0.111963	0.331844	0.348113	0.235119	0.232397	0.111293	0.171381	0.155216	0.270808	0.640267	0.610738	0.229331	0.180500	0.120496	0.189024	0.131186	0.191004	0.457288	0.551773	0.227653	0.212246	0.107582	0.108232	0.124042	0.147311	1.218770	1.258409	0.240528	0.071926	0.061170	0.096343	0.077533	0.084013	0.090030	0.112001	0.107462	0.023727	0.096007	0.174846	0.322933	0.188853	0.611642	0.166419	0.296000	0.190223	0.235222	0.263884	0.624987	0.322985	0.161426	0.139829	0.131359	0.084912	0.204036	0.278480	0.288767	0.678452	0.252635	0.179827	0.229572	0.095919
77	0.136497	0.142132	0.162278	0.141858	0.243899	0.229573	0.137329	0.349498	0.049165	0.077945	0.060155	0.103736	0.302650	0.349525	0.252636	0.235602	0.097872	0.169642	0.215429	0.249995	0.686358	0.664587	0.232141	0.181066	0.127903	0.204098	0.181226	0.195737	0.497350	0.606905	0.271752	0.219476	0.108419	0.113555	0.131561	0.170115	1.276363	1.313108	0.240920	0.073381	0.040860	0.080975	0.123753	0.151057	0.090441	0.118742	0.105569	0.022387	0.100309	0.171518	0.115580	0.186625	0.611991	0.163510	0.295961	0.171858	0.233462	0.238685	0.563208	0.278365	0.155032	0.141592	0.101983	0.070700	0.253758	0.311864	0.281066	0.631915	0.278122	0.159164	0.193253	0.088155
78	0.105886	0.124994	0.167859	0.166781	0.263696	0.213492	0.136908	0.336323	0.042001	0.075351	0.070719	0.092611	0.301097	0.348156	0.268909	0.224103	0.102045	0.171164	0.196367	0.166355	0.730187	0.686465	0.251179	0.181614	0.128207	0.206703	0.200068	0.213065	0.540831	0.681436	0.282761	0.226111	0.099299	0.111325	0.134801	0.156646	1.279962	1.321442	0.231560	0.073591	0.055366	0.078582	0.275775	0.204257	0.090873	0.125123	0.101694	0.021537	0.111247	0.143940	0.097613	0.160004	0.608008	0.157173	0.295243	0.162598	0.229451	0.234862	0.534842	0.237197	0.171932	0.156010	0.059802	0.060798	0.302457	0.319286	0.240675	0.427578	0.302163	0.149281	0.158833	0.079608
79	0.076927	0.085121	0.236008	0.170145	0.251273	0.240753	0.133782	0.338241	0.034770	0.073673	0.063983	0.081247	0.303682	0.343921	0.275003	0.215321	0.101436	0.195241	0.178023	0.173297	0.746806	0.675720	0.263714	0.182711	0.125962	0.205925	0.210594	0.248084	0.597493	0.765987	0.279797	0.193982	0.061630	0.079077	0.121798	0.182518	1.280860	1.322560	0.218122	0.069811	0.073056	0.071696	0.317693	0.363258	0.086642	0.131227	0.094002	0.024236	0.105867	0.099981	0.097377	0.147978	0.595732	0.151714	0.293427	0.149461	0.219591	0.229504	0.371592	0.185044	0.188637	0.164810	0.042112	0.058058	0.320669	0.338155	0.176010	0.404585	0.328543	0.171773	0.143517	0.077779
80	0.083085	0.093796	0.311383	0.165033	0.249360	0.283307	0.099683	0.343390	0.026580	0.064664	0.073208	0.091216	0.319015	0.344390	0.263847	0.192766	0.127111	0.166000	0.238556	0.190028	0.751781	0.670399	0.267836	0.194594	0.121349	0.203244	0.233300	0.320599	0.620038	0.802402	0.283673	0.171676	0.093256	0.111489	0.223468	0.175235	1.299405	1.337281	0.202288	0.063998	0.076991	0.073433	0.332262	0.402230	0.072426	0.133601	0.092021	0.038868	0.109287	0.094726	0.098201	0.138293	0.583012	0.152187	0.268953	0.141326	0.133580	0.120318	0.286534	0.131245	0.192652	0.174825	0.040933	0.056284	0.485621	0.425084	0.206768	0.345418	0.345793	0.205542	0.143164	0.066589
81	0.096035	0.150260	0.342646	0.167125	0.242006	0.292215	0.092008	0.343335	0.026409	0.064634	0.075846	0.091775	0.320061	0.348743	0.256395	0.159953	0.145859	0.150863	0.207885	0.273814	0.750114	0.662107	0.267771	0.244144	0.075966	0.132972	0.234438	0.325424	0.629451	0.817922	0.292078	0.191148	0.086894	0.113902	0.298325	0.295166	1.335328	1.355744	0.172177	0.081179	0.122272	0.117533	0.356757	0.430413	0.065175	0.135013	0.110907	0.061312	0.231880	0.166504	0.105703	0.114251	0.548844	0.152000	0.238182	0.152978	0.096521	0.074875	0.267809	0.134622	0.194173	0.183171	0.038988	0.056137	0.564207	0.511025	0.245664	0.337762	0.352624	0.234944	0.143312	0.056878
82	0.094513	0.149831	0.299825	0.112366	0.230556	0.293420	0.103796	0.337025	0.026152	0.053835	0.075973	0.086364	0.325016	0.340312	0.255040	0.162854	0.144991	0.219671	0.220651	0.311214	0.713693	0.638227	0.271701	0.285985	0.083256	0.121433	0.262622	0.369017	0.635474	0.825498	0.363497	0.243922	0.128244	0.128550	0.443717	0.316334	1.345990	1.348382	0.120685	0.126572	0.168643	0.167654	0.440086	0.413768	0.063623	0.136902	0.128101	0.070647	0.237017	0.164417	0.105155	0.132276	0.471284	0.151956	0.229025	0.158589	0.100846	0.069951	0.241838	0.201278	0.193554	0.184014	0.031908	0.056596	0.581245	0.515943	0.248942	0.511303	0.352528	0.245936	0.143397	0.055728
83	0.094443	0.138772	0.247186	0.208595	0.223734	0.268223	0.142324	0.283691	0.020476	0.032829	0.077151	0.083672	0.336391	0.336540	0.254698	0.185101	0.157952	0.207942	0.234701	0.314175	0.682412	0.652243	0.274440	0.296032	0.121611	0.138713	0.266447	0.419995	0.638598	0.826197	0.401212	0.266551	0.136907	0.126322	0.454392	0.295434	1.316727	1.298311	0.114817	0.136867	0.165174	0.167719	0.395954	0.280460	0.057696	0.137209	0.131138	0.070822	0.225944	0.167864	0.116704	0.140188	0.388150	0.151165	0.230180	0.157983	0.105797	0.069951	0.269880	0.213149	0.192251	0.177493	0.043004	0.060987	0.574218	0.501414	0.295344	0.531332	0.353046	0.245929	0.142237	0.053098
84	0.098397	0.064660	0.194517	0.288867	0.177792	0.265723	0.135452	0.240691	0.020569	0.031461	0.080476	0.064377	0.343088	0.341523	0.268587	0.223510	0.158130	0.192543	0.202363	0.312645	0.661515	0.677033	0.279311	0.296103	0.114654	0.129692	0.236209	0.487913	0.639223	0.824061	0.400565	0.267750	0.128882	0.103321	0.483025	0.351947	1.265542	1.235139	0.115861	0.135583	0.166296	0.175635	0.395022	0.208217	0.062194	0.154350	0.131456	0.079683	0.219574	0.183862	0.112464	0.147092	0.307863	0.144433	0.233927	0.158236	0.105565	0.074540	0.278350	0.254814	0.192188	0.176062	0.063767	0.091877	0.573826	0.508131	0.359451	0.531987	0.357204	0.244885	0.136817	0.053199
85	0.161235	0.139856	0.234088	0.302463	0.131379	0.264492	0.135278	0.207355	0.027487	0.033495	0.077781	0.072080	0.345639	0.345810	0.294414	0.238678	0.135266	0.194936	0.178571	0.234210	0.662949	0.693937	0.297822	0.291089	0.136012	0.174490	0.191992	0.548716	0.633548	0.811699	0.441991	0.266194	0.175676	0.129924	0.440392	0.379948	1.214360	1.192237	0.114401	0.137944	0.153703	0.177647	0.359229	0.190875	0.133487	0.226736	0.144232	0.099006	0.222996	0.191797	0.099807	0.156872	0.251367	0.126979	0.239098	0.157711	0.111789	0.073639	0.327849	0.337315	0.191543	0.174214	0.074361	0.114446	0.577644	0.531074	0.392856	0.482631	0.366059	0.244346	0.136140	0.047496
86	0.158218	0.140130	0.284972	0.310741	0.119638	0.250697	0.136310	0.195170	0.035574	0.037032	0.068011	0.095438	0.344659	0.344310	0.306447	0.238928	0.158566	0.107463	0.150529	0.222487	0.661457	0.688281	0.299983	0.279009	0.173665	0.207290	0.196304	0.544319	0.610389	0.780697	0.497583	0.265146	0.166011	0.120744	0.320314	0.431141	1.179100	1.174873	0.109271	0.148637	0.065770	0.099030	0.329469	0.242465	0.210114	0.311256	0.163190	0.111199	0.117398	0.148081	0.109524	0.137563	0.224019	0.085382	0.229082	0.146249	0.114224	0.087380	0.426358	0.338512	0.192815	0.173035	0.082870	0.116777	0.625934	0.548819	0.397320	0.455724	0.380814	0.238586	0.131071	0.037860
87	0.162533	0.141751	0.286323	0.229885	0.103641	0.181375	0.126249	0.153566	0.038283	0.045665	0.083579	0.133303	0.340746	0.332879	0.296688	0.239752	0.159129	0.122165	0.184564	0.248719	0.586327	0.633976	0.288198	0.278344	0.217267	0.239942	0.224105	0.546640	0.554878	0.734475	0.521978	0.265122	0.193561	0.149305	0.315334	0.446653	1.167738	1.154714	0.105333	0.163518	0.042719	0.096419	0.277031	0.303528	0.285256	0.395511	0.170075	0.115428	0.101352	0.175964	0.150838	0.121321	0.222335	0.064221	0.167724	0.147532	0.115617	0.092414	0.477829	0.338674	0.188682	0.173058	0.088610	0.116968	0.530042	0.486870	0.400073	0.450601	0.405160	0.236571	0.124277	0.033459
88	0.095137	0.110098	0.327291	0.239726	0.056431	0.131738	0.154388	0.147970	0.049582	0.058461	0.085151	0.125379	0.326897	0.309329	0.292134	0.236605	0.159547	0.137525	0.165913	0.227890	0.552056	0.606261	0.288466	0.317480	0.251493	0.265631	0.225646	0.532861	0.489746	0.695594	0.522594	0.282806	0.183320	0.163855	0.195435	0.429498	1.036014	1.011924	0.121832	0.173098	0.147563	0.178042	0.302396	0.325399	0.350465	0.452906	0.171502	0.115919	0.112549	0.237760	0.143205	0.154446	0.222775	0.060350	0.118238	0.157690	0.116472	0.092322	0.519279	0.300961	0.185532	0.181382	0.091347	0.123718	0.433336	0.379670	0.538272	0.557438	0.445666	0.235510	0.111933	0.031669
89	0.125745	0.112595	0.345103	0.236538	0.058565	0.133089	0.163450	0.177794	0.051088	0.063601	0.086264	0.138827	0.302673	0.284594	0.295764	0.235974	0.177210	0.129652	0.227343	0.241235	0.509674	0.549090	0.312732	0.324262	0.307248	0.299091	0.221307	0.519495	0.487367	0.697787	0.523726	0.307275	0.152315	0.176062	0.184309	0.315727	0.762003	0.715287	0.135437	0.175808	0.152532	0.180305	0.314820	0.350750	0.400460	0.471523	0.171334	0.115935	0.120567	0.234654	0.155812	0.157719	0.220069	0.052759	0.108788	0.163295	0.112946	0.093777	0.561462	0.303612	0.185553	0.200201	0.091704	0.128076	0.390370	0.342328	0.644289	0.534372	0.457422	0.228738	0.096768	0.031783
90	0.138159	0.113192	0.379806	0.316058	0.057286	0.128120	0.164343	0.196594	0.052166	0.065241	0.091306	0.166514	0.277229	0.258307	0.297842	0.227510	0.153925	0.114164	0.230329	0.233695	0.437058	0.500095	0.312275	0.330221	0.307277	0.300693	0.228315	0.491000	0.481177	0.663615	0.521951	0.317081	0.145717	0.163015	0.280748	0.307918	0.525992	0.490469	0.135226	0.175206	0.154903	0.181076	0.375181	0.363236	0.417594	0.476382	0.171262	0.116986	0.138313	0.277218	0.180752	0.150936	0.214638	0.041655	0.128798	0.162813	0.105686	0.097565	0.580717	0.327750	0.208989	0.247430	0.099848	0.127104	0.433093	0.360051	0.666474	0.490288	0.457068	0.220453	0.083545	0.032491
91	0.123826	0.112316	0.380365	0.414641	0.056040	0.146297	0.233748	0.177883	0.052124	0.064227	0.109936	0.178676	0.257299	0.240267	0.289171	0.217744	0.144617	0.132177	0.198647	0.197358	0.397122	0.489492	0.378748	0.338797	0.318893	0.323569	0.330975	0.614759	0.451953	0.621163	0.501636	0.315533	0.108684	0.146756	0.307732	0.319434	0.489619	0.437957	0.132826	0.174550	0.159183	0.199371	0.332933	0.299685	0.506777	0.564673	0.170177	0.120236	0.125102	0.270946	0.290216	0.146492	0.202598	0.043804	0.146753	0.162673	0.087432	0.167084	0.577903	0.233939	0.262302	0.319908	0.115672	0.131513	0.446976	0.336338	0.709354	0.535890	0.446878	0.217195	0.069055	0.032434
92	0.130428	0.164890	0.329652	0.432099	0.066576	0.169664	0.250504	0.170126	0.053503	0.067616	0.118956	0.178612	0.241195	0.214781	0.279019	0.230165	0.134785	0.168473	0.214478	0.273710	0.395455	0.531883	0.435278	0.348859	0.396497	0.330416	0.407027	0.569208	0.398717	0.549470	0.497286	0.300050	0.107019	0.117085	0.288450	0.314082	0.492684	0.441250	0.130612	0.174338	0.130794	0.177543	0.364755	0.337555	0.628000	0.633131	0.168173	0.120922	0.115475	0.251412	0.278259	0.149040	0.180440	0.044173	0.147386	0.162159	0.127970	0.217547	0.551394	0.312735	0.313597	0.375529	0.130512	0.141308	0.414252	0.282504	0.741932	0.676147	0.422178	0.217057	0.055619	0.031765
93	0.107732	0.213150	0.327775	0.421207	0.234145	0.313137	0.282523	0.167436	0.047615	0.075707	0.160197	0.175818	0.226943	0.178903	0.263193	0.237838	0.109710	0.157345	0.175930	0.270763	0.430675	0.583208	0.441889	0.330101	0.400731	0.341060	0.433775	0.583535	0.308750	0.424257	0.507725	0.285863	0.111514	0.087032	0.300386	0.284976	0.496361	0.466183	0.127508	0.174336	0.091457	0.139507	0.392214	0.349427	0.666968	0.655498	0.165266	0.118699	0.103785	0.191160	0.292051	0.141860	0.152785	0.043959	0.164298	0.160863	0.155167	0.209591	0.484844	0.319527	0.362127	0.402596	0.140620	0.147967	0.325197	0.225872	0.776471	0.694345	0.394854	0.215493	0.046186	0.027786
94	0.100212	0.204075	0.347223	0.429045	0.322619	0.394319	0.293859	0.164605	0.045513	0.081473	0.171693	0.153367	0.220657	0.171619	0.242622	0.241594	0.104413	0.162154	0.182196	0.255421	0.449742	0.593582	0.440159	0.298257	0.403917	0.362330	0.429470	0.563807	0.233308	0.323293	0.506867	0.285301	0.120172	0.088120	0.255975	0.325443	0.443180	0.467092	0.123616	0.172770	0.087921	0.132464	0.328856	0.350357	0.672867	0.658999	0.157798	0.110841	0.103152	0.179795	0.371459	0.204202	0.124284	0.043854	0.186454	0.160969	0.200314	0.211177	0.464448	0.373584	0.398387	0.405529	0.147591	0.151581	0.295307	0.208187	0.785026	0.699843	0.370003	0.205524	0.038094	0.031466
95	0.167237	0.272969	0.327251	0.297449	0.335218	0.396841	0.298595	0.164503	0.060801	0.109007	0.190885	0.173770	0.215922	0.173130	0.225292	0.242258	0.108406	0.154011	0.183537	0.235165	0.438617	0.574944	0.435777	0.293127	0.467408	0.383188	0.459453	0.565846	0.199945	0.280380	0.506567	0.275798	0.167145	0.202567	0.229728	0.348487	0.397342	0.456066	0.120279	0.146189	0.083647	0.107826	0.418718	0.443151	0.675052	0.659086	0.133039	0.101433	0.066405	0.080258	0.364421	0.246267	0.092624	0.041123	0.189501	0.152058	0.215346	0.215663	0.355372	0.463723	0.409604	0.428729	0.153853	0.153712	0.280124	0.188448	0.700117	0.691532	0.345661	0.175148	0.033083	0.039809
96	0.218780	0.220250	0.288459	0.270320	0.398029	0.434136	0.291582	0.164429	0.078918	0.118006	0.196952	0.178504	0.194856	0.169109	0.211685	0.242242	0.106743	0.104258	0.209368	0.157690	0.426048	0.572806	0.432868	0.292870	0.459954	0.376669	0.469318	0.574756	0.178348	0.262322	0.471865	0.237518	0.245640	0.243335	0.283521	0.389969	0.396414	0.458948	0.118790	0.121403	0.081015	0.100373	0.491691	0.533572	0.676155	0.660213	0.117667	0.099643	0.076595	0.136711	0.298555	0.295310	0.075467	0.045498	0.207622	0.142628	0.215746	0.270763	0.266332	0.526688	0.531050	0.515212	0.157336	0.154283	0.275492	0.188427	0.580467	0.795430	0.330462	0.128601	0.035269	0.065765
97	0.233258	0.255622	0.347415	0.285916	0.530746	0.486963	0.290777	0.178160	0.124898	0.116397	0.200725	0.161892	0.185971	0.154677	0.207742	0.239658	0.113445	0.116703	0.223713	0.166073	0.475021	0.658788	0.418680	0.292004	0.436015	0.362981	0.459577	0.574447	0.162093	0.252486	0.424395	0.199567	0.351097	0.329113	0.416952	0.366286	0.386263	0.440896	0.117777	0.117565	0.080150	0.119412	0.533287	0.524660	0.677172	0.662376	0.115680	0.100640	0.163651	0.184231	0.353667	0.316177	0.090085	0.055206	0.216862	0.144428	0.250084	0.269309	0.248525	0.549121	0.635982	0.583400	0.154891	0.151168	0.216175	0.157856	0.584428	0.863220	0.324599	0.073624	0.041042	0.128303
98	0.346636	0.298777	0.347721	0.382690	0.547632	0.495604	0.232641	0.173607	0.137094	0.128756	0.200871	0.134890	0.171291	0.149069	0.205561	0.230718	0.129048	0.122634	0.288476	0.289019	0.568115	0.791327	0.395247	0.287067	0.434081	0.369947	0.416234	0.432259	0.153745	0.250912	0.419636	0.194255	0.403052	0.375805	0.447825	0.334954	0.404122	0.475556	0.117703	0.117074	0.102079	0.162268	0.560693	0.499445	0.671827	0.649329	0.110558	0.089249	0.191195	0.201712	0.356959	0.318081	0.102205	0.069943	0.209333	0.147371	0.258637	0.226359	0.304545	0.541888	0.665980	0.599728	0.148400	0.132264	0.122388	0.145989	0.552115	0.911627	0.324616	0.047046	0.054281	0.167621
99	0.339584	0.318485	0.385356	0.385941	0.548094	0.485520	0.214358	0.174643	0.171035	0.144284	0.205820	0.125925	0.130552	0.143319	0.204908	0.214710	0.148126	0.154407	0.318719	0.355921	0.631412	0.853609	0.393566	0.285871	0.381179	0.331878	0.338987	0.316465	0.154576	0.247625	0.380797	0.195495	0.403873	0.357506	0.575550	0.375387	0.466824	0.546976	0.117344	0.108369	0.141230	0.180270	0.541962	0.680241	0.655978	0.621560	0.082333	0.072485	0.234214	0.210175	0.397321	0.283394	0.107565	0.119563	0.200605	0.147112	0.276733	0.257390	0.268237	0.526127	0.670185	0.601542	0.143491	0.117204	0.105288	0.163941	0.495402	0.845527	0.323225	0.043600	0.086002	0.179255
100	0.342200	0.326000	0.340981	0.332815	0.536868	0.449496	0.179802	0.196359	0.184085	0.155180	0.211688	0.126318	0.095336	0.127356	0.193967	0.179605	0.158718	0.182644	0.374039	0.444562	0.627932	0.853938	0.391317	0.238642	0.345150	0.326062	0.284326	0.305898	0.151131	0.238799	0.293926	0.194552	0.371938	0.353177	0.609292	0.618412	0.484183	0.566117	0.117108	0.086550	0.246200	0.264775	0.516184	0.702970	0.632120	0.579872	0.052909	0.063121	0.263808	0.236032	0.402447	0.295134	0.122770	0.158837	0.196546	0.142638	0.281558	0.271679	0.290761	0.503778	0.669194	0.601807	0.138753	0.122515	0.127447	0.200211	0.432426	0.928964	0.318451	0.043119	0.109643	0.179979
101	0.290082	0.282192	0.325116	0.481810	0.483329	0.353097	0.187777	0.207016	0.185741	0.151777	0.186126	0.130662	0.079540	0.113600	0.153946	0.144928	0.195881	0.204278	0.398293	0.435308	0.663381	0.954248	0.360304	0.199264	0.328062	0.280349	0.302654	0.441651	0.152145	0.228452	0.209541	0.194644	0.260465	0.278418	0.535283	0.748468	0.487098	0.575906	0.101457	0.057874	0.253136	0.263941	0.444347	0.640831	0.601063	0.530157	0.041696	0.061489	0.265952	0.227107	0.414252	0.278766	0.165852	0.220748	0.197415	0.134217	0.306272	0.281330	0.301628	0.479313	0.669062	0.601490	0.135500	0.121310	0.128915	0.195059	0.438510	0.930880	0.307325	0.044427	0.117715	0.188090
