	204_C_T1_sh_ND_01.c3d	204_C_T1_sh_ND_01.c3d	204_C_T1_sh_ND_01.c3d	204_C_T1_sh_ND_01.c3d	204_C_T1_sh_ND_01.c3d	204_C_T1_sh_ND_01.c3d	204_C_T1_sh_ND_01.c3d	204_C_T1_sh_ND_01.c3d	204_C_T1_sh_ND_02.c3d	204_C_T1_sh_ND_02.c3d	204_C_T1_sh_ND_02.c3d	204_C_T1_sh_ND_02.c3d	204_C_T1_sh_ND_02.c3d	204_C_T1_sh_ND_02.c3d	204_C_T1_sh_ND_02.c3d	204_C_T1_sh_ND_02.c3d	204_C_T1_sh_ND_03.c3d	204_C_T1_sh_ND_03.c3d	204_C_T1_sh_ND_03.c3d	204_C_T1_sh_ND_03.c3d	204_C_T1_sh_ND_03.c3d	204_C_T1_sh_ND_03.c3d	204_C_T1_sh_ND_03.c3d	204_C_T1_sh_ND_03.c3d	204_C_T1_sh_ND_04.c3d	204_C_T1_sh_ND_04.c3d	204_C_T1_sh_ND_04.c3d	204_C_T1_sh_ND_04.c3d	204_C_T1_sh_ND_04.c3d	204_C_T1_sh_ND_04.c3d	204_C_T1_sh_ND_04.c3d	204_C_T1_sh_ND_04.c3d	204_C_T1_sh_ND_05.c3d	204_C_T1_sh_ND_05.c3d	204_C_T1_sh_ND_05.c3d	204_C_T1_sh_ND_05.c3d	204_C_T1_sh_ND_05.c3d	204_C_T1_sh_ND_05.c3d	204_C_T1_sh_ND_05.c3d	204_C_T1_sh_ND_05.c3d	204_C_T1_sh_ND_06.c3d	204_C_T1_sh_ND_06.c3d	204_C_T1_sh_ND_06.c3d	204_C_T1_sh_ND_06.c3d	204_C_T1_sh_ND_06.c3d	204_C_T1_sh_ND_06.c3d	204_C_T1_sh_ND_06.c3d	204_C_T1_sh_ND_06.c3d	204_C_T1_sh_ND_07.c3d	204_C_T1_sh_ND_07.c3d	204_C_T1_sh_ND_07.c3d	204_C_T1_sh_ND_07.c3d	204_C_T1_sh_ND_07.c3d	204_C_T1_sh_ND_07.c3d	204_C_T1_sh_ND_07.c3d	204_C_T1_sh_ND_07.c3d	204_C_T1_sh_ND_08.c3d	204_C_T1_sh_ND_08.c3d	204_C_T1_sh_ND_08.c3d	204_C_T1_sh_ND_08.c3d	204_C_T1_sh_ND_08.c3d	204_C_T1_sh_ND_08.c3d	204_C_T1_sh_ND_08.c3d	204_C_T1_sh_ND_08.c3d	204_C_T1_sh_ND_09.c3d	204_C_T1_sh_ND_09.c3d	204_C_T1_sh_ND_09.c3d	204_C_T1_sh_ND_09.c3d	204_C_T1_sh_ND_09.c3d	204_C_T1_sh_ND_09.c3d	204_C_T1_sh_ND_09.c3d	204_C_T1_sh_ND_09.c3d	204_C_T1_sh_ND_10.c3d	204_C_T1_sh_ND_10.c3d	204_C_T1_sh_ND_10.c3d	204_C_T1_sh_ND_10.c3d	204_C_T1_sh_ND_10.c3d	204_C_T1_sh_ND_10.c3d	204_C_T1_sh_ND_10.c3d	204_C_T1_sh_ND_10.c3d
	Biceps femoris_lat	Semitendinosus_lat	Vastus lateralis_lat	Vastus medialis_lat	Biceps femoris_med	Semitendinosus_med	Vastus lateralis_med	Vastus medialis_med	Biceps femoris_lat	Semitendinosus_lat	Vastus lateralis_lat	Vastus medialis_lat	Biceps femoris_med	Semitendinosus_med	Vastus lateralis_med	Vastus medialis_med	Biceps femoris_lat	Semitendinosus_lat	Vastus lateralis_lat	Vastus medialis_lat	Biceps femoris_med	Semitendinosus_med	Vastus lateralis_med	Vastus medialis_med	Biceps femoris_lat	Semitendinosus_lat	Vastus lateralis_lat	Vastus medialis_lat	Biceps femoris_med	Semitendinosus_med	Vastus lateralis_med	Vastus medialis_med	Biceps femoris_lat	Semitendinosus_lat	Vastus lateralis_lat	Vastus medialis_lat	Biceps femoris_med	Semitendinosus_med	Vastus lateralis_med	Vastus medialis_med	Biceps femoris_lat	Semitendinosus_lat	Vastus lateralis_lat	Vastus medialis_lat	Biceps femoris_med	Semitendinosus_med	Vastus lateralis_med	Vastus medialis_med	Biceps femoris_lat	Semitendinosus_lat	Vastus lateralis_lat	Vastus medialis_lat	Biceps femoris_med	Semitendinosus_med	Vastus lateralis_med	Vastus medialis_med	Biceps femoris_lat	Semitendinosus_lat	Vastus lateralis_lat	Vastus medialis_lat	Biceps femoris_med	Semitendinosus_med	Vastus lateralis_med	Vastus medialis_med	Biceps femoris_lat	Semitendinosus_lat	Vastus lateralis_lat	Vastus medialis_lat	Biceps femoris_med	Semitendinosus_med	Vastus lateralis_med	Vastus medialis_med	Biceps femoris_lat	Semitendinosus_lat	Vastus lateralis_lat	Vastus medialis_lat	Biceps femoris_med	Semitendinosus_med	Vastus lateralis_med	Vastus medialis_med
	P2D	P2D	P2D	P2D	P2D	P2D	P2D	P2D	P2D	P2D	P2D	P2D	P2D	P2D	P2D	P2D	P2D	P2D	P2D	P2D	P2D	P2D	P2D	P2D	P2D	P2D	P2D	P2D	P2D	P2D	P2D	P2D	P2D	P2D	P2D	P2D	P2D	P2D	P2D	P2D	P2D	P2D	P2D	P2D	P2D	P2D	P2D	P2D	P2D	P2D	P2D	P2D	P2D	P2D	P2D	P2D	P2D	P2D	P2D	P2D	P2D	P2D	P2D	P2D	P2D	P2D	P2D	P2D	P2D	P2D	P2D	P2D	P2D	P2D	P2D	P2D	P2D	P2D	P2D	P2D
	EMG_lat	EMG_lat	EMG_lat	EMG_lat	EMG_med	EMG_med	EMG_med	EMG_med	EMG_lat	EMG_lat	EMG_lat	EMG_lat	EMG_med	EMG_med	EMG_med	EMG_med	EMG_lat	EMG_lat	EMG_lat	EMG_lat	EMG_med	EMG_med	EMG_med	EMG_med	EMG_lat	EMG_lat	EMG_lat	EMG_lat	EMG_med	EMG_med	EMG_med	EMG_med	EMG_lat	EMG_lat	EMG_lat	EMG_lat	EMG_med	EMG_med	EMG_med	EMG_med	EMG_lat	EMG_lat	EMG_lat	EMG_lat	EMG_med	EMG_med	EMG_med	EMG_med	EMG_lat	EMG_lat	EMG_lat	EMG_lat	EMG_med	EMG_med	EMG_med	EMG_med	EMG_lat	EMG_lat	EMG_lat	EMG_lat	EMG_med	EMG_med	EMG_med	EMG_med	EMG_lat	EMG_lat	EMG_lat	EMG_lat	EMG_med	EMG_med	EMG_med	EMG_med	EMG_lat	EMG_lat	EMG_lat	EMG_lat	EMG_med	EMG_med	EMG_med	EMG_med
ITEM	Y	Y	Y	Y	Y	Y	Y	Y	Y	Y	Y	Y	Y	Y	Y	Y	Y	Y	Y	Y	Y	Y	Y	Y	Y	Y	Y	Y	Y	Y	Y	Y	Y	Y	Y	Y	Y	Y	Y	Y	Y	Y	Y	Y	Y	Y	Y	Y	Y	Y	Y	Y	Y	Y	Y	Y	Y	Y	Y	Y	Y	Y	Y	Y	Y	Y	Y	Y	Y	Y	Y	Y	Y	Y	Y	Y	Y	Y	Y	Y
1	0.917500	0.371971	0.090207	0.089350	0.659898	0.238314	0.114884	0.067474	0.552052	0.428772	0.124512	0.130178	0.489566	0.328019	0.327625	0.187874	0.683650	0.229144	0.370477	0.406207	0.461586	0.168881	0.228815	0.158088	0.256380	0.167205	0.109330	0.134760	0.192556	0.218689	0.091636	0.083885	0.322292	0.132459	0.341653	0.201229	0.308696	0.354704	0.240366	0.165832	0.483241	0.238100	0.103819	0.104946	0.244526	0.373486	0.094261	0.095274	0.102966	0.127817	0.244252	0.158002	0.241464	0.273416	0.065424	0.045797	0.352236	0.239091	0.176405	0.117111	0.029051	0.052693	0.296452	0.182925	0.125525	0.173683	0.098740	0.011816	0.251388	0.186114	0.128821	0.095469	0.387851	0.241153	0.221487	0.110945	0.097732	0.025812	0.134266	0.083025
2	1.120631	0.455013	0.086633	0.059204	0.661941	0.234947	0.108586	0.059251	0.469564	0.382284	0.135201	0.119290	0.499298	0.336367	0.324001	0.140047	0.692829	0.219674	0.332723	0.390420	0.446355	0.161591	0.229987	0.196904	0.200104	0.147918	0.134172	0.137848	0.153847	0.196780	0.079633	0.080359	0.286329	0.166713	0.371272	0.213399	0.310122	0.315487	0.240600	0.140643	0.520446	0.276705	0.103858	0.101529	0.251205	0.378589	0.093710	0.097742	0.098787	0.123455	0.238404	0.158027	0.234891	0.271613	0.061801	0.062574	0.352352	0.251286	0.154290	0.115288	0.026871	0.050063	0.334837	0.177628	0.136436	0.171963	0.092497	0.043427	0.242828	0.177621	0.114441	0.095794	0.510502	0.258474	0.177030	0.110077	0.033657	0.040106	0.153961	0.083511
3	1.211047	0.531546	0.094497	0.054507	0.662406	0.205859	0.106256	0.050739	0.466887	0.373207	0.145665	0.123067	0.543060	0.321611	0.186751	0.111201	0.697509	0.216789	0.276025	0.386464	0.446017	0.163551	0.231333	0.221506	0.165621	0.128380	0.173896	0.145097	0.129637	0.164240	0.045970	0.092122	0.302912	0.188308	0.345231	0.218698	0.311061	0.301914	0.187311	0.115859	0.548185	0.278727	0.102170	0.096077	0.257020	0.369682	0.089328	0.098407	0.097566	0.112536	0.216661	0.139447	0.228076	0.273331	0.061552	0.087198	0.316280	0.235723	0.154895	0.121496	0.026995	0.050137	0.333033	0.173121	0.432717	0.212659	0.063173	0.125732	0.166715	0.160617	0.114923	0.105832	0.520150	0.263485	0.204607	0.138674	0.020802	0.041084	0.154964	0.090263
4	1.208091	0.533302	0.102105	0.053747	0.661946	0.187210	0.087687	0.044363	0.407410	0.288923	0.288933	0.120217	0.497963	0.264793	0.125811	0.111986	0.689058	0.204597	0.260559	0.373272	0.437282	0.140177	0.261204	0.209469	0.044885	0.036633	0.173560	0.134361	0.130881	0.176605	0.059309	0.119858	0.299685	0.199237	0.345574	0.200287	0.306869	0.248961	0.146919	0.099679	0.546705	0.297445	0.092791	0.094108	0.296175	0.364682	0.069898	0.098890	0.094305	0.101307	0.173145	0.123892	0.230061	0.264069	0.081324	0.103816	0.275019	0.237311	0.155047	0.159505	0.049193	0.045949	0.326623	0.174600	0.665210	0.258534	0.049057	0.141791	0.094104	0.127543	0.109058	0.098753	0.524162	0.266075	0.193599	0.171185	0.021718	0.040951	0.149357	0.179508
5	1.174928	0.532419	0.092783	0.050960	0.652926	0.155088	0.084713	0.068565	0.172913	0.094544	0.382324	0.116657	0.496523	0.262990	0.111518	0.115266	0.594771	0.176075	0.261691	0.281736	0.409661	0.130099	0.296073	0.202114	0.036221	0.030001	0.177752	0.115051	0.140401	0.177523	0.092205	0.125245	0.217988	0.199603	0.291560	0.167839	0.272485	0.199039	0.135712	0.096765	0.575818	0.329722	0.076137	0.078297	0.296587	0.323198	0.092927	0.099872	0.092187	0.097261	0.152250	0.127822	0.225034	0.244277	0.088200	0.104647	0.264197	0.231145	0.158334	0.158107	0.051359	0.063091	0.326493	0.212553	0.804627	0.280064	0.079982	0.149661	0.079973	0.121035	0.095947	0.103961	0.516961	0.253781	0.176779	0.191004	0.028722	0.052428	0.145258	0.245050
6	1.089711	0.465761	0.081417	0.042099	0.587242	0.161566	0.095015	0.106570	0.153430	0.106069	0.415982	0.137578	0.428323	0.192445	0.183375	0.179180	0.562626	0.171925	0.258847	0.262460	0.340779	0.130142	0.315137	0.214095	0.041598	0.048830	0.217956	0.152940	0.145307	0.170575	0.117823	0.126287	0.229015	0.204625	0.245520	0.167755	0.222599	0.150520	0.134091	0.112892	0.540527	0.318123	0.063822	0.043975	0.288688	0.320987	0.116625	0.125405	0.092861	0.096476	0.139705	0.118667	0.216770	0.210149	0.093258	0.106903	0.161554	0.200869	0.156822	0.161392	0.054094	0.077446	0.310436	0.211311	0.873743	0.279549	0.107490	0.174762	0.066726	0.127292	0.096329	0.137460	0.497283	0.238286	0.169632	0.191466	0.028686	0.059498	0.145439	0.246661
7	0.850701	0.389931	0.073689	0.033064	0.496460	0.164938	0.099607	0.140664	0.218612	0.229321	0.485591	0.146544	0.417249	0.149983	0.286454	0.203387	0.581961	0.163462	0.226206	0.253640	0.315814	0.117285	0.320606	0.230283	0.040923	0.049552	0.183344	0.209944	0.139275	0.168439	0.126230	0.125924	0.414535	0.221173	0.241524	0.164744	0.208368	0.128914	0.138969	0.208418	0.514891	0.321482	0.050945	0.017897	0.284677	0.333071	0.120611	0.150376	0.099111	0.117555	0.062296	0.099985	0.200847	0.214170	0.093644	0.122859	0.167592	0.183021	0.150023	0.184859	0.096006	0.102155	0.318883	0.206206	0.877867	0.272268	0.107888	0.203778	0.046508	0.127006	0.102710	0.137488	0.446258	0.203856	0.172595	0.192671	0.030412	0.074946	0.144365	0.277327
8	0.769296	0.368236	0.071677	0.039868	0.476591	0.169097	0.098961	0.164441	0.406426	0.350338	0.484174	0.144467	0.362111	0.138233	0.297133	0.190662	0.581352	0.157553	0.170161	0.203158	0.306664	0.117250	0.356541	0.225019	0.051713	0.065089	0.183271	0.242267	0.163730	0.155743	0.164767	0.125189	0.449775	0.221005	0.190260	0.136413	0.208085	0.119164	0.139346	0.254609	0.498002	0.312085	0.045042	0.017512	0.283397	0.320923	0.125577	0.195447	0.183071	0.172038	0.055462	0.073610	0.174554	0.233856	0.090340	0.129834	0.216591	0.194008	0.119022	0.200829	0.097499	0.102802	0.322721	0.202378	0.880577	0.258416	0.115920	0.217482	0.047096	0.126573	0.141463	0.151689	0.400680	0.204160	0.164243	0.199143	0.031773	0.076098	0.131368	0.316522
9	0.282517	0.181319	0.077559	0.046167	0.441007	0.236586	0.100269	0.167360	0.436179	0.380263	0.479875	0.132379	0.352532	0.128436	0.330103	0.218751	0.577287	0.169576	0.143569	0.120609	0.223360	0.117479	0.354221	0.219141	0.054983	0.073114	0.215486	0.265959	0.165546	0.131985	0.213988	0.129656	0.588806	0.273648	0.113949	0.091681	0.197827	0.122747	0.147635	0.258743	0.458222	0.312496	0.044192	0.050917	0.279301	0.309311	0.164752	0.229218	0.210594	0.180709	0.052400	0.072637	0.182571	0.246010	0.090731	0.129442	0.306618	0.211970	0.133332	0.206092	0.098268	0.110070	0.273938	0.207072	0.880358	0.251390	0.152739	0.223355	0.036973	0.131559	0.150662	0.179281	0.319955	0.184345	0.148138	0.201368	0.032692	0.076742	0.123436	0.344776
10	0.120543	0.072435	0.087519	0.059239	0.324124	0.280919	0.100940	0.173364	0.530713	0.438861	0.373288	0.113904	0.346244	0.109916	0.409204	0.241171	0.733881	0.197172	0.125207	0.119804	0.155232	0.103561	0.318418	0.230842	0.078752	0.112647	0.222946	0.357229	0.167831	0.123559	0.240109	0.141547	0.627725	0.300843	0.101064	0.093717	0.148952	0.119652	0.163506	0.268885	0.461582	0.333513	0.046481	0.057400	0.234676	0.276208	0.205452	0.230517	0.219234	0.178324	0.051400	0.074929	0.211476	0.257124	0.105716	0.130880	0.320659	0.199598	0.144107	0.220115	0.110666	0.243310	0.225551	0.249308	0.811767	0.238841	0.167621	0.270323	0.039736	0.158600	0.144929	0.199367	0.157800	0.164365	0.112231	0.199691	0.034358	0.081032	0.154738	0.353075
11	0.116324	0.080332	0.100305	0.079577	0.292900	0.290723	0.116257	0.172998	0.554914	0.459121	0.325167	0.109019	0.210062	0.097598	0.424864	0.247600	0.746808	0.199666	0.088881	0.121514	0.125747	0.113719	0.311445	0.210407	0.155560	0.142578	0.343757	0.410531	0.166910	0.143429	0.240118	0.148141	0.633047	0.300143	0.086208	0.094737	0.117576	0.108490	0.212740	0.299008	0.420851	0.317661	0.065272	0.063487	0.207405	0.232847	0.206473	0.241007	0.293344	0.174907	0.055593	0.074124	0.206044	0.255878	0.117193	0.170503	0.353586	0.183854	0.147034	0.227358	0.123660	0.413567	0.222665	0.280973	0.616228	0.183858	0.167293	0.341700	0.041058	0.226585	0.151896	0.206420	0.146300	0.158046	0.077614	0.175096	0.039280	0.086011	0.139854	0.352175
12	0.111411	0.093248	0.143624	0.127467	0.285441	0.285534	0.162193	0.173809	0.549088	0.485644	0.239261	0.084193	0.218270	0.089320	0.426902	0.246326	0.743419	0.199075	0.130885	0.112301	0.105185	0.120530	0.318919	0.175930	0.175035	0.147494	0.350428	0.446974	0.164275	0.145196	0.237189	0.127600	0.626989	0.288372	0.086932	0.101212	0.113993	0.110609	0.223079	0.324333	0.418497	0.336701	0.102536	0.070297	0.205830	0.215248	0.217459	0.283391	0.293461	0.175021	0.063823	0.091871	0.208523	0.257098	0.137759	0.187449	0.356924	0.192554	0.145354	0.210430	0.127201	0.477907	0.249314	0.297164	0.494393	0.163915	0.166561	0.344560	0.045685	0.241621	0.164119	0.201714	0.111580	0.147427	0.079896	0.145747	0.040695	0.080990	0.124146	0.351971
13	0.092434	0.081880	0.194869	0.245714	0.281611	0.283062	0.171185	0.175348	0.519022	0.428461	0.080079	0.085910	0.231293	0.089849	0.450680	0.241257	0.723207	0.192829	0.156008	0.090966	0.105694	0.118950	0.315973	0.170896	0.205569	0.241798	0.467522	0.466960	0.140234	0.139212	0.227236	0.119929	0.614891	0.287773	0.088359	0.096153	0.094360	0.114093	0.226311	0.339808	0.368560	0.295078	0.106830	0.106247	0.159577	0.167377	0.231551	0.332196	0.298873	0.176994	0.081942	0.241316	0.228841	0.262228	0.154101	0.178419	0.350866	0.185441	0.163522	0.193794	0.129860	0.480791	0.278481	0.276544	0.157052	0.169001	0.169582	0.364309	0.079454	0.242353	0.166072	0.200282	0.102831	0.149225	0.086131	0.152160	0.040564	0.081090	0.122296	0.348420
14	0.110423	0.106861	0.280328	0.420976	0.277335	0.281295	0.164347	0.177766	0.417309	0.373847	0.083485	0.087554	0.227185	0.094555	0.434627	0.196346	0.712909	0.190613	0.154528	0.132030	0.102458	0.116721	0.283625	0.173995	0.302993	0.284707	0.491000	0.461143	0.126203	0.137690	0.216306	0.120804	0.513394	0.287537	0.087417	0.086635	0.091503	0.105839	0.239746	0.341219	0.259593	0.248572	0.140343	0.199885	0.061148	0.163709	0.230500	0.354471	0.301256	0.184986	0.140196	0.369174	0.244637	0.269899	0.178101	0.173463	0.353821	0.177453	0.174103	0.192784	0.140127	0.537296	0.281949	0.259789	0.111750	0.181187	0.171031	0.368244	0.105441	0.266349	0.169447	0.198994	0.148118	0.141088	0.075861	0.157804	0.042739	0.087765	0.121783	0.308303
15	0.134217	0.159889	0.364996	0.444147	0.278243	0.282183	0.169401	0.204423	0.425770	0.336905	0.105905	0.115649	0.227953	0.101814	0.399786	0.186721	0.611301	0.186988	0.160931	0.136258	0.091773	0.105845	0.258280	0.179651	0.334468	0.336554	0.448272	0.337095	0.116644	0.133384	0.227508	0.164024	0.481230	0.294457	0.076442	0.115482	0.087304	0.100678	0.262799	0.341261	0.268384	0.300775	0.170029	0.222254	0.063407	0.195597	0.274941	0.352740	0.308726	0.187366	0.208587	0.378257	0.245209	0.262867	0.190564	0.172323	0.354965	0.162403	0.166481	0.173548	0.121504	0.572462	0.273895	0.271999	0.081462	0.187511	0.173062	0.364398	0.109077	0.306385	0.174507	0.182814	0.208114	0.191895	0.069629	0.152363	0.050261	0.107942	0.125294	0.307495
16	0.135662	0.195779	0.433783	0.517220	0.266221	0.277709	0.175962	0.234008	0.276298	0.283029	0.193818	0.149455	0.229867	0.106116	0.400028	0.189684	0.547451	0.176403	0.178557	0.164373	0.083071	0.135750	0.261127	0.158751	0.313851	0.363050	0.410633	0.350060	0.063134	0.126440	0.212555	0.186892	0.291225	0.263019	0.130579	0.122953	0.060064	0.101654	0.279691	0.340585	0.287140	0.585351	0.174667	0.231076	0.067217	0.222396	0.304123	0.349652	0.281646	0.153396	0.261603	0.411994	0.245278	0.259159	0.193044	0.170852	0.347370	0.174862	0.177485	0.147866	0.112235	0.594087	0.262034	0.273858	0.075328	0.194398	0.145186	0.371389	0.108910	0.341768	0.172731	0.191913	0.215239	0.591313	0.130039	0.158892	0.061732	0.123336	0.134682	0.327853
17	0.124628	0.204279	0.455370	0.656374	0.248117	0.272828	0.176977	0.252496	0.268160	0.253291	0.232827	0.248696	0.183922	0.157221	0.385026	0.144171	0.488402	0.149868	0.205419	0.177142	0.066898	0.144689	0.210983	0.150122	0.313913	0.342453	0.404085	0.242915	0.054668	0.135182	0.180841	0.178554	0.141164	0.223263	0.227691	0.122458	0.061651	0.099326	0.284542	0.316382	0.279552	0.660013	0.283108	0.250751	0.066269	0.221730	0.311766	0.336625	0.242355	0.135075	0.273742	0.465986	0.230888	0.236369	0.214892	0.162948	0.289293	0.177115	0.203418	0.162391	0.112427	0.599295	0.256910	0.275231	0.070867	0.184921	0.119114	0.351551	0.118013	0.341668	0.157100	0.203924	0.216359	0.679167	0.147698	0.160396	0.066046	0.121803	0.147510	0.298722
18	0.135878	0.204226	0.585349	0.733908	0.216334	0.259063	0.179905	0.257404	0.259083	0.187118	0.243299	0.243255	0.147222	0.172408	0.314988	0.112866	0.235042	0.119618	0.275360	0.208284	0.055297	0.161916	0.168109	0.149649	0.301793	0.306914	0.214134	0.205486	0.060049	0.193248	0.140227	0.171482	0.112935	0.221011	0.275589	0.129973	0.064344	0.095928	0.284739	0.273667	0.267036	0.767967	0.382097	0.284890	0.065758	0.220667	0.310098	0.304689	0.243296	0.183030	0.321182	0.494905	0.230083	0.212006	0.224954	0.170707	0.243010	0.170653	0.227357	0.184690	0.106337	0.583561	0.227166	0.251183	0.069982	0.168071	0.144318	0.258672	0.120156	0.344070	0.129377	0.215408	0.262184	0.875757	0.156070	0.160845	0.066400	0.122017	0.165295	0.268031
19	0.144360	0.201430	0.638925	0.734906	0.202229	0.242721	0.179401	0.251345	0.248003	0.178877	0.360011	0.257242	0.143647	0.210415	0.306748	0.145175	0.215508	0.125382	0.280819	0.212302	0.048841	0.164577	0.167694	0.136396	0.155419	0.249797	0.192740	0.300228	0.068750	0.188590	0.150025	0.172329	0.109888	0.233189	0.303544	0.177337	0.065344	0.093250	0.285112	0.275539	0.249458	0.788260	0.399997	0.297242	0.068345	0.232615	0.274660	0.295957	0.143966	0.206927	0.401955	0.506377	0.204346	0.204681	0.224097	0.197397	0.184462	0.170588	0.237408	0.168259	0.093709	0.504936	0.207074	0.208800	0.064903	0.150420	0.213192	0.277078	0.122265	0.329074	0.132972	0.206379	0.281137	0.903215	0.155065	0.161300	0.067592	0.122878	0.177455	0.254881
20	0.140370	0.204268	0.649635	0.669063	0.144754	0.166504	0.178778	0.249394	0.254618	0.165230	0.565825	0.263464	0.083344	0.210953	0.314712	0.190222	0.216184	0.135853	0.257751	0.240219	0.040510	0.193518	0.166444	0.128094	0.123245	0.135406	0.226475	0.400739	0.071513	0.185328	0.155549	0.174166	0.106252	0.239618	0.335053	0.222083	0.065051	0.098494	0.275003	0.276302	0.228702	0.782073	0.397760	0.362022	0.067523	0.234119	0.267816	0.294259	0.121257	0.205954	0.413126	0.509153	0.169861	0.191519	0.217825	0.223999	0.149459	0.169430	0.270488	0.164515	0.072739	0.386682	0.204794	0.178900	0.063304	0.113572	0.227747	0.344263	0.125457	0.288136	0.132722	0.204972	0.284766	0.911793	0.163372	0.154949	0.065175	0.119252	0.156826	0.263472
21	0.126503	0.179927	0.614956	0.611606	0.102016	0.096562	0.179426	0.249991	0.174908	0.144978	0.591011	0.276159	0.065223	0.209905	0.273326	0.194396	0.217572	0.137699	0.267045	0.283733	0.037700	0.193524	0.172487	0.126203	0.109185	0.117630	0.381172	0.440019	0.068107	0.185175	0.156494	0.176361	0.088643	0.226483	0.336258	0.250808	0.064786	0.103322	0.247018	0.252047	0.179265	0.777730	0.417400	0.444185	0.068506	0.252098	0.272719	0.268128	0.111533	0.204148	0.410506	0.478792	0.184166	0.189646	0.216313	0.212488	0.146742	0.154639	0.274851	0.169350	0.068378	0.377478	0.152355	0.170906	0.046019	0.094561	0.239090	0.340014	0.126291	0.276639	0.116626	0.235345	0.272759	0.910061	0.161266	0.142107	0.062929	0.121218	0.173353	0.266260
22	0.124205	0.173409	0.547491	0.606075	0.088596	0.081597	0.165370	0.253538	0.159983	0.150426	0.654379	0.295321	0.061342	0.208113	0.246856	0.212127	0.213875	0.136250	0.315408	0.305390	0.039431	0.195028	0.166370	0.125374	0.070963	0.126460	0.400409	0.497685	0.063702	0.184324	0.164117	0.175445	0.067966	0.207621	0.384088	0.246447	0.063274	0.104937	0.224791	0.218272	0.167082	0.778815	0.486740	0.474840	0.101102	0.255230	0.259466	0.211892	0.097046	0.201188	0.401949	0.420461	0.263623	0.191550	0.208419	0.194415	0.129816	0.148939	0.261826	0.183814	0.041833	0.338390	0.130734	0.168230	0.026178	0.068393	0.234829	0.336594	0.110887	0.280584	0.113111	0.267047	0.241079	0.932690	0.174980	0.159655	0.065202	0.132227	0.223809	0.318210
23	0.134140	0.216628	0.539141	0.505961	0.098778	0.064841	0.132675	0.254823	0.124633	0.150106	0.659049	0.279130	0.056484	0.205888	0.259398	0.248362	0.183837	0.104282	0.317304	0.307371	0.037179	0.190402	0.162394	0.117956	0.133213	0.138079	0.515213	0.499171	0.061751	0.183703	0.138562	0.138797	0.044192	0.158184	0.402065	0.260213	0.054949	0.099052	0.230643	0.182665	0.166932	0.786351	0.517852	0.455045	0.195028	0.259531	0.258107	0.137969	0.063589	0.201199	0.372492	0.415475	0.298052	0.183731	0.199380	0.216951	0.114261	0.148879	0.261776	0.192822	0.025529	0.231810	0.130318	0.137038	0.034026	0.046062	0.235504	0.341545	0.085994	0.258636	0.114070	0.274813	0.202633	0.916678	0.192010	0.172856	0.070948	0.144974	0.247666	0.376789
24	0.130014	0.231843	0.444681	0.317421	0.113111	0.113912	0.130707	0.255220	0.122882	0.149497	0.651795	0.387327	0.048518	0.200128	0.313292	0.257270	0.121643	0.092659	0.300472	0.292482	0.037335	0.190298	0.215152	0.094078	0.388300	0.245008	0.526633	0.384506	0.062518	0.179950	0.139205	0.099211	0.031315	0.134562	0.376451	0.338926	0.055504	0.098188	0.226141	0.168879	0.143387	0.736515	0.517223	0.451354	0.346732	0.263332	0.233223	0.126091	0.060563	0.215446	0.337232	0.396776	0.289812	0.173495	0.174328	0.273913	0.074992	0.135196	0.260084	0.215526	0.024048	0.150032	0.130450	0.134163	0.034388	0.039311	0.257599	0.336781	0.080351	0.206774	0.123042	0.272051	0.202570	0.705549	0.164719	0.153608	0.071531	0.148330	0.273065	0.373564
25	0.128674	0.226312	0.304174	0.236445	0.109413	0.137387	0.132455	0.249959	0.107849	0.120528	0.569761	0.425258	0.034710	0.144266	0.314476	0.259898	0.095805	0.086412	0.273560	0.279409	0.036582	0.173712	0.238897	0.182333	0.410537	0.250315	0.460513	0.330731	0.060582	0.174848	0.118275	0.097408	0.026819	0.119232	0.345816	0.388351	0.058391	0.107471	0.206240	0.167846	0.088861	0.533269	0.515287	0.448278	0.408831	0.227356	0.165586	0.096629	0.059431	0.213241	0.318026	0.348247	0.357408	0.203768	0.166979	0.297018	0.072906	0.104253	0.251315	0.242381	0.027530	0.096928	0.125805	0.149007	0.034002	0.042782	0.347141	0.363954	0.078646	0.137214	0.137724	0.267435	0.195202	0.626914	0.269305	0.225503	0.064604	0.133179	0.358595	0.383768
26	0.132801	0.223355	0.155116	0.227966	0.131535	0.141742	0.141183	0.221272	0.146237	0.104090	0.412627	0.424959	0.033205	0.128929	0.343530	0.266257	0.049136	0.077056	0.231094	0.370534	0.045768	0.169056	0.240412	0.310453	0.547725	0.271048	0.364956	0.216285	0.049742	0.106873	0.111053	0.094289	0.028634	0.093545	0.359562	0.384091	0.066500	0.122200	0.175081	0.167897	0.061155	0.462943	0.447509	0.428963	0.430351	0.223300	0.135383	0.095594	0.056312	0.186740	0.294984	0.294445	0.411089	0.234708	0.164298	0.298143	0.032023	0.048607	0.208899	0.227313	0.026977	0.097100	0.115523	0.161868	0.038759	0.050675	0.325749	0.395334	0.061998	0.134365	0.124711	0.248023	0.116992	0.427562	0.299263	0.617288	0.054171	0.121974	0.372426	0.420626
27	0.138232	0.250740	0.228824	0.228440	0.146909	0.149596	0.132406	0.178024	0.254360	0.135673	0.328498	0.393056	0.030040	0.053444	0.349942	0.293300	0.048211	0.060904	0.233613	0.436290	0.059014	0.157894	0.247018	0.326196	0.575737	0.325064	0.316523	0.110966	0.036726	0.085490	0.095048	0.081484	0.028860	0.036788	0.362009	0.366971	0.066368	0.125274	0.161013	0.169050	0.042836	0.234387	0.393730	0.418525	0.514833	0.274782	0.126957	0.102148	0.044220	0.138641	0.184431	0.299758	0.413696	0.245076	0.176036	0.300360	0.023106	0.041637	0.190344	0.236186	0.024952	0.096432	0.110892	0.161914	0.040070	0.058920	0.351046	0.340456	0.058864	0.117732	0.126910	0.218934	0.094690	0.405887	0.368210	0.719544	0.052620	0.162496	0.373547	0.447409
28	0.292735	0.327094	0.240102	0.213936	0.147664	0.169314	0.133884	0.166205	0.412185	0.157875	0.172949	0.373180	0.032407	0.052710	0.348074	0.321910	0.044224	0.047746	0.277881	0.444093	0.059976	0.156523	0.264139	0.337901	0.543794	0.350859	0.117072	0.156133	0.050294	0.042698	0.089881	0.066787	0.035179	0.025778	0.374062	0.408189	0.063697	0.124490	0.182751	0.162955	0.042394	0.183938	0.384203	0.406409	0.630551	0.335756	0.137581	0.093729	0.044104	0.135817	0.137866	0.360619	0.413436	0.232733	0.282182	0.296439	0.022854	0.039483	0.142741	0.238260	0.025527	0.095988	0.093700	0.159498	0.043689	0.077561	0.349432	0.373754	0.053301	0.107258	0.124182	0.210184	0.090253	0.394800	0.426303	0.727166	0.055957	0.205703	0.371091	0.447226
29	0.480031	0.358023	0.247526	0.185005	0.143680	0.169641	0.133789	0.242008	0.631678	0.277072	0.159578	0.356264	0.033122	0.053379	0.459507	0.339715	0.039355	0.049558	0.528996	0.457875	0.060172	0.124229	0.312652	0.376982	0.438356	0.295888	0.095992	0.306954	0.056528	0.052864	0.112344	0.130872	0.034623	0.031919	0.327733	0.454534	0.063020	0.122547	0.199917	0.118947	0.037376	0.214672	0.380939	0.357809	0.642384	0.345346	0.135184	0.092698	0.044433	0.132778	0.236850	0.402286	0.413503	0.208664	0.342802	0.280262	0.020795	0.033310	0.108033	0.268881	0.025730	0.094862	0.085560	0.155457	0.070331	0.093217	0.355790	0.438430	0.047050	0.104630	0.117720	0.206031	0.089075	0.388579	0.537447	0.758849	0.086329	0.234688	0.381418	0.459474
30	0.503426	0.380003	0.238826	0.161198	0.142779	0.170852	0.178864	0.301643	0.649929	0.286706	0.148663	0.296370	0.028138	0.046742	0.654904	0.345835	0.048406	0.065982	0.575758	0.451485	0.064646	0.091759	0.328922	0.404224	0.383604	0.304258	0.141733	0.313332	0.098183	0.096523	0.255341	0.291558	0.034815	0.036576	0.287334	0.465406	0.062742	0.116407	0.203882	0.102737	0.034255	0.263792	0.341964	0.275556	0.644904	0.340129	0.170420	0.130236	0.050026	0.134462	0.297059	0.382996	0.425875	0.205136	0.354515	0.259512	0.020925	0.034893	0.091327	0.441346	0.025583	0.091557	0.095668	0.172656	0.069225	0.138425	0.377497	0.455433	0.043566	0.094463	0.120701	0.240271	0.087988	0.319577	0.556533	0.815299	0.111036	0.242603	0.377000	0.504565
31	0.583012	0.390427	0.236984	0.146811	0.143153	0.176731	0.204531	0.312358	0.646875	0.285191	0.356764	0.425879	0.026531	0.045246	0.751419	0.321349	0.050480	0.065790	0.604439	0.522696	0.064381	0.082486	0.328192	0.405636	0.231179	0.279832	0.210235	0.359111	0.112702	0.127777	0.358744	0.338486	0.034549	0.036493	0.262293	0.410213	0.062565	0.108850	0.205298	0.133564	0.041955	0.291674	0.214963	0.214724	0.644650	0.333234	0.244166	0.185363	0.062091	0.131275	0.299176	0.419466	0.418244	0.202962	0.415328	0.246488	0.020319	0.035103	0.258017	0.715197	0.023920	0.088325	0.106337	0.296215	0.088679	0.306714	0.383057	0.451497	0.042047	0.076276	0.154116	0.283197	0.107228	0.297538	0.607505	0.846888	0.116495	0.250857	0.375652	0.539544
32	0.677772	0.515216	0.252066	0.143670	0.142184	0.175509	0.219155	0.315619	0.638457	0.279187	0.552575	0.448947	0.026401	0.045014	0.741387	0.340701	0.065987	0.066117	0.697840	0.594546	0.064111	0.080175	0.353526	0.405730	0.219290	0.220250	0.217979	0.382911	0.116410	0.147212	0.422373	0.348661	0.037284	0.036716	0.254370	0.389222	0.062644	0.104977	0.205735	0.151646	0.044131	0.298141	0.165859	0.209528	0.630775	0.327294	0.259992	0.193976	0.059366	0.099484	0.305865	0.476502	0.373640	0.200980	0.438415	0.245315	0.017019	0.034009	0.425317	0.858234	0.023478	0.077993	0.105558	0.331897	0.111116	0.403951	0.307640	0.432358	0.045930	0.071369	0.221437	0.287878	0.109400	0.304203	0.613617	0.863542	0.121696	0.280086	0.380181	0.521927
33	0.737321	0.601138	0.212295	0.162474	0.136786	0.173105	0.216880	0.352022	0.574329	0.251347	0.579926	0.543451	0.024744	0.042616	0.739371	0.416691	0.066267	0.069332	0.759288	0.631799	0.064407	0.079397	0.329354	0.415370	0.220900	0.453150	0.251536	0.334228	0.117264	0.151322	0.425314	0.416006	0.039794	0.047995	0.206498	0.377022	0.062400	0.104012	0.183665	0.162788	0.049548	0.295567	0.218783	0.217594	0.585930	0.316915	0.273744	0.199001	0.057257	0.090778	0.339105	0.474626	0.335560	0.199873	0.437928	0.227852	0.031637	0.077712	0.435424	0.862889	0.020453	0.067147	0.209219	0.320658	0.114739	0.419754	0.284324	0.383620	0.054037	0.077191	0.281302	0.301517	0.101836	0.255103	0.575126	0.819863	0.148176	0.302069	0.460150	0.503286
34	0.733309	0.593921	0.194058	0.331908	0.132973	0.167185	0.211569	0.412175	0.506257	0.243403	0.642563	0.587669	0.024805	0.055751	0.779495	0.439156	0.066570	0.069715	0.768889	0.576095	0.063468	0.076226	0.297654	0.418892	0.172659	0.558841	0.261905	0.254975	0.124352	0.183373	0.467427	0.492838	0.042653	0.090101	0.157180	0.371228	0.059918	0.103348	0.181347	0.164879	0.050453	0.295290	0.229667	0.273420	0.511750	0.301717	0.287293	0.198670	0.055716	0.095739	0.359611	0.477276	0.329928	0.198018	0.436587	0.162005	0.062309	0.121741	0.451819	0.953453	0.016899	0.051477	0.380442	0.316478	0.132746	0.473697	0.232242	0.377856	0.057210	0.071869	0.316412	0.345581	0.100423	0.186354	0.581765	0.572329	0.150746	0.302502	0.471759	0.499792
35	0.628216	0.553903	0.328365	0.398070	0.137704	0.143530	0.233822	0.452853	0.112665	0.093492	0.733095	0.569083	0.034637	0.076102	0.819868	0.391636	0.066373	0.066509	0.767085	0.535082	0.060845	0.067661	0.295126	0.345968	0.129194	0.556078	0.247968	0.242511	0.130696	0.207213	0.508540	0.510842	0.061098	0.195757	0.121668	0.306862	0.064464	0.100386	0.179267	0.172115	0.050627	0.295486	0.214255	0.291268	0.499864	0.298121	0.286341	0.194958	0.056423	0.098535	0.356319	0.465491	0.259752	0.162848	0.431106	0.143090	0.081919	0.142385	0.482857	1.055230	0.026585	0.045966	0.399472	0.313915	0.136658	0.536030	0.191046	0.323659	0.058062	0.079700	0.345504	0.375066	0.101704	0.177828	0.554290	0.535741	0.151298	0.301469	0.422448	0.469177
36	0.582232	0.537997	0.342450	0.410314	0.138691	0.130447	0.260569	0.465502	0.089926	0.093315	0.731314	0.520765	0.037907	0.079761	0.878865	0.375759	0.066264	0.065102	0.731473	0.514762	0.047563	0.039060	0.300143	0.316269	0.113381	0.582746	0.288926	0.145654	0.127335	0.215256	0.527341	0.513616	0.146764	0.243979	0.167797	0.224630	0.072819	0.077275	0.183474	0.262497	0.056947	0.325290	0.209871	0.324716	0.463337	0.273894	0.286875	0.203326	0.059976	0.101418	0.359784	0.423040	0.145121	0.112812	0.429660	0.144821	0.091513	0.148442	0.499845	1.111569	0.027268	0.042946	0.426145	0.336767	0.128340	0.569632	0.191069	0.356220	0.057508	0.093843	0.426935	0.377988	0.112094	0.173517	0.498095	0.529052	0.152127	0.297346	0.418264	0.442899
37	0.532588	0.506608	0.378042	0.533675	0.128390	0.133549	0.262434	0.466651	0.082412	0.095416	0.616081	0.413999	0.037500	0.078404	0.833793	0.380323	0.053950	0.060807	0.551310	0.481828	0.043870	0.035289	0.289752	0.326422	0.103945	0.531941	0.406398	0.273076	0.125311	0.214292	0.559023	0.507078	0.160715	0.256660	0.187214	0.181285	0.087379	0.059540	0.230930	0.396364	0.063648	0.369059	0.207587	0.418997	0.247104	0.180410	0.282696	0.204681	0.070313	0.105327	0.336190	0.374770	0.137402	0.077850	0.417426	0.136803	0.091457	0.158730	0.533017	1.130073	0.026709	0.040451	0.448748	0.366067	0.139892	0.575482	0.273181	0.664522	0.056691	0.098035	0.463415	0.379140	0.120964	0.177574	0.395353	0.482412	0.155587	0.270731	0.419953	0.444500
38	0.405607	0.462201	0.538235	0.664745	0.133236	0.121767	0.261519	0.474640	0.083283	0.111834	0.514400	0.372260	0.037899	0.077993	0.693433	0.372315	0.049634	0.061616	0.523929	0.463336	0.042115	0.045995	0.246315	0.299546	0.090973	0.384953	0.431127	0.282112	0.101193	0.200190	0.528103	0.443933	0.290124	0.370856	0.189418	0.298976	0.090219	0.066252	0.269993	0.451939	0.071202	0.359599	0.204079	0.452047	0.135780	0.110943	0.288772	0.224254	0.067732	0.122780	0.271819	0.370731	0.138767	0.066182	0.360090	0.129763	0.107458	0.212969	0.542967	1.107916	0.029717	0.051198	0.467300	0.382877	0.149588	0.525892	0.369792	0.769221	0.054407	0.098095	0.483423	0.378793	0.110725	0.158301	0.361641	0.371102	0.154168	0.244534	0.415301	0.464608
39	0.261397	0.296926	0.615034	0.689755	0.218883	0.123840	0.258632	0.466695	0.078577	0.108498	0.508787	0.207684	0.037255	0.077741	0.607548	0.369729	0.045526	0.079613	0.456020	0.368758	0.033217	0.058538	0.199017	0.281686	0.092854	0.221208	0.514207	0.326568	0.078836	0.181355	0.468971	0.402173	0.320872	0.424926	0.196812	0.517470	0.132775	0.091390	0.270752	0.454827	0.073174	0.356778	0.262297	0.458622	0.115335	0.100811	0.298072	0.279707	0.056454	0.135108	0.274042	0.307504	0.138913	0.066039	0.305166	0.148652	0.289550	0.525995	0.541525	1.020253	0.031944	0.055953	0.492044	0.347880	0.134390	0.443942	0.390516	0.801757	0.052825	0.097548	0.493781	0.341983	0.136478	0.143592	0.275772	0.306613	0.137075	0.222985	0.435705	0.445778
40	0.156985	0.154433	0.626985	0.674407	0.233053	0.132320	0.261857	0.441789	0.060011	0.092742	0.371870	0.248547	0.037572	0.079531	0.598778	0.337152	0.083797	0.085058	0.297687	0.248534	0.032546	0.069211	0.189413	0.285792	0.054370	0.198946	0.519247	0.349216	0.072453	0.163856	0.422676	0.396849	0.320760	0.426435	0.340253	0.565817	0.142886	0.093998	0.292457	0.480190	0.073417	0.314160	0.295707	0.478570	0.109301	0.102053	0.298090	0.313059	0.053885	0.132094	0.267265	0.191146	0.093617	0.060531	0.297500	0.171859	0.411765	0.751608	0.414926	0.812657	0.032926	0.056205	0.499529	0.258942	0.133224	0.416222	0.400862	0.952201	0.052039	0.099415	0.487595	0.279350	0.271140	0.136863	0.261825	0.260376	0.124571	0.222459	0.439412	0.387534
41	0.154498	0.148503	0.594927	0.671650	0.233839	0.133039	0.233294	0.448804	0.046163	0.087137	0.254675	0.321957	0.037828	0.078757	0.565085	0.242837	0.144810	0.088353	0.162906	0.167640	0.036815	0.076792	0.118320	0.291412	0.045080	0.132286	0.431165	0.356409	0.070751	0.159649	0.422536	0.335626	0.320926	0.425474	0.382845	0.611407	0.148971	0.096840	0.343725	0.500659	0.090639	0.313028	0.272021	0.533213	0.108745	0.104319	0.263407	0.314554	0.056745	0.152565	0.251200	0.169590	0.081243	0.059076	0.233055	0.189029	0.503966	0.777941	0.334658	0.764319	0.033552	0.053755	0.486747	0.259256	0.117498	0.382974	0.447583	1.061589	0.049051	0.094180	0.465350	0.262484	0.351042	0.130211	0.249517	0.245698	0.121999	0.202707	0.437255	0.341975
42	0.125114	0.102490	0.547510	0.721005	0.233923	0.130070	0.215992	0.482004	0.039407	0.079441	0.316775	0.346022	0.036645	0.069493	0.507003	0.237007	0.208436	0.144231	0.146337	0.298568	0.045691	0.084820	0.109014	0.284851	0.039293	0.125020	0.408645	0.324834	0.065276	0.127834	0.389803	0.200548	0.328662	0.390817	0.397749	0.733102	0.149707	0.123728	0.348790	0.511113	0.240902	0.312760	0.250504	0.540171	0.102959	0.106130	0.257411	0.317885	0.098625	0.165483	0.222692	0.251117	0.069576	0.052664	0.237557	0.191000	0.546766	0.806300	0.331027	0.717370	0.033399	0.050194	0.386993	0.255422	0.109610	0.301333	0.538486	1.085719	0.069961	0.095793	0.432895	0.249763	0.353321	0.121585	0.196077	0.243260	0.110237	0.151352	0.420847	0.311237
43	0.098059	0.117835	0.549683	0.690090	0.233379	0.130295	0.261695	0.487272	0.090149	0.092108	0.388322	0.420850	0.018766	0.043249	0.419322	0.249714	0.260182	0.188330	0.155820	0.511042	0.045948	0.086917	0.092600	0.269632	0.029723	0.112451	0.388571	0.314813	0.070719	0.093740	0.329612	0.120926	0.300942	0.361925	0.470009	0.809671	0.151947	0.136155	0.396691	0.514728	0.282749	0.337469	0.259967	0.511009	0.095848	0.105946	0.226879	0.315105	0.115348	0.168136	0.226700	0.280584	0.053165	0.048161	0.265196	0.189532	0.548225	0.911117	0.287979	0.539946	0.026140	0.046099	0.336374	0.251280	0.108358	0.202617	0.556870	1.065629	0.110088	0.119313	0.401999	0.179694	0.359494	0.134134	0.169380	0.206402	0.069065	0.088889	0.337139	0.295342
44	0.080216	0.133003	0.504400	0.573616	0.231799	0.130187	0.287060	0.452917	0.110043	0.074087	0.381965	0.560803	0.012257	0.039955	0.256795	0.232843	0.262075	0.193896	0.199044	0.545301	0.046716	0.096356	0.092704	0.272804	0.034627	0.081056	0.328825	0.290047	0.070385	0.094071	0.303238	0.112096	0.301074	0.357149	0.514226	0.821170	0.154421	0.140250	0.506327	0.513741	0.364623	0.372918	0.291375	0.512255	0.086133	0.097982	0.225130	0.314732	0.128952	0.170634	0.215872	0.289625	0.050635	0.046781	0.269542	0.184288	0.558435	0.932981	0.245704	0.342763	0.021103	0.043242	0.332910	0.238150	0.100156	0.169824	0.535674	0.913250	0.136279	0.198410	0.384861	0.119893	0.403311	0.166982	0.166412	0.363214	0.063491	0.079564	0.307979	0.294135
45	0.060397	0.136209	0.309485	0.499631	0.225876	0.127862	0.289381	0.420509	0.110222	0.070643	0.400938	0.588096	0.014042	0.057769	0.165119	0.187911	0.264908	0.195378	0.237315	0.586747	0.044837	0.101165	0.067942	0.285894	0.031472	0.070971	0.329771	0.319900	0.072259	0.176014	0.255544	0.104205	0.205488	0.247123	0.515702	0.788548	0.155847	0.146983	0.532662	0.513164	0.396952	0.336049	0.304284	0.476586	0.075744	0.087075	0.220961	0.310525	0.141326	0.175051	0.232556	0.282948	0.038979	0.044272	0.278681	0.163430	0.597429	1.192385	0.192240	0.205340	0.022738	0.044460	0.294154	0.188540	0.048253	0.145076	0.452552	0.782075	0.143176	0.226232	0.308676	0.203201	0.480945	0.194813	0.232169	0.426999	0.061849	0.079194	0.300454	0.277243
46	0.061221	0.135845	0.235461	0.490772	0.219226	0.116394	0.267987	0.450165	0.108965	0.072886	0.408959	0.531243	0.020985	0.090175	0.169351	0.173960	0.266482	0.191575	0.243120	0.672333	0.047636	0.126158	0.068728	0.277179	0.032999	0.078239	0.326262	0.280047	0.076734	0.254401	0.231836	0.087573	0.151024	0.128969	0.513710	0.651891	0.155030	0.150929	0.533475	0.499329	0.412467	0.296656	0.315181	0.395956	0.063508	0.080015	0.218660	0.303985	0.218474	0.175773	0.248375	0.284436	0.037813	0.037319	0.285395	0.164026	0.648948	1.344640	0.093235	0.464491	0.023505	0.041134	0.322595	0.211727	0.047424	0.145565	0.413561	0.770364	0.166602	0.284457	0.267400	0.272060	0.485762	0.198666	0.377418	0.441439	0.057875	0.079039	0.288132	0.247533
47	0.065592	0.165413	0.214057	0.472419	0.214628	0.107677	0.246435	0.502757	0.109596	0.083740	0.411552	0.510424	0.030074	0.110658	0.180533	0.171332	0.265895	0.193297	0.262296	0.718459	0.114611	0.387847	0.078070	0.259147	0.034112	0.083403	0.297932	0.237647	0.084052	0.350555	0.215741	0.082218	0.163369	0.123791	0.432736	0.605117	0.144899	0.174926	0.531202	0.421913	0.597942	0.319041	0.314473	0.353443	0.056870	0.079550	0.212549	0.302033	0.220103	0.159426	0.251801	0.313348	0.034508	0.033845	0.283860	0.169979	0.657627	1.387651	0.158805	0.708076	0.021554	0.034438	0.331220	0.284637	0.029489	0.146860	0.404839	0.616610	0.168112	0.298775	0.235331	0.275811	0.465041	0.195022	0.483790	0.519999	0.045878	0.078350	0.281352	0.193678
48	0.064821	0.179525	0.214598	0.350050	0.202141	0.105886	0.253574	0.536122	0.103534	0.088386	0.319831	0.547479	0.034154	0.140829	0.180552	0.152621	0.252319	0.205503	0.263172	0.730256	0.156270	0.585135	0.078839	0.239921	0.035466	0.086457	0.190403	0.233538	0.142000	0.420296	0.200351	0.107573	0.184881	0.121638	0.388144	0.575144	0.138989	0.182563	0.508512	0.324300	0.627768	0.314271	0.267056	0.348487	0.055301	0.078347	0.208079	0.277425	0.224381	0.164812	0.261332	0.340576	0.029062	0.029977	0.272569	0.171982	0.587174	1.280312	0.208045	0.725033	0.023094	0.041588	0.319234	0.287893	0.095709	0.126455	0.386448	0.352914	0.185387	0.309695	0.244147	0.285986	0.392105	0.221372	0.495523	0.586116	0.044054	0.067873	0.276662	0.126320
49	0.057134	0.166979	0.242647	0.388168	0.179323	0.101233	0.287787	0.538782	0.070888	0.069059	0.267591	0.466969	0.044811	0.161334	0.170435	0.128029	0.248796	0.226504	0.258234	0.715421	0.165764	0.699044	0.082964	0.233043	0.027514	0.092137	0.103194	0.165521	0.156451	0.440518	0.204430	0.133478	0.169301	0.133048	0.382040	0.434295	0.120408	0.179527	0.508963	0.310804	0.629514	0.316169	0.243546	0.290008	0.055893	0.072011	0.136128	0.280281	0.224565	0.194063	0.255920	0.350013	0.026029	0.029181	0.291573	0.154952	0.487284	1.215007	0.324736	0.736662	0.026485	0.059244	0.332818	0.280599	0.195191	0.084823	0.228112	0.199448	0.220033	0.325424	0.341016	0.316285	0.360730	0.321223	0.619008	0.603636	0.037492	0.046638	0.217620	0.066183
50	0.050513	0.157105	0.208476	0.386650	0.070340	0.073661	0.300808	0.529500	0.035182	0.144108	0.223323	0.318560	0.045612	0.166313	0.162302	0.127409	0.190207	0.219932	0.285551	0.650322	0.173680	0.781966	0.103323	0.227959	0.030527	0.104603	0.098625	0.104866	0.157613	0.445937	0.210328	0.172524	0.169202	0.132206	0.273590	0.276083	0.089937	0.198957	0.529549	0.292614	0.621852	0.301198	0.249228	0.188195	0.062499	0.074516	0.065069	0.293573	0.216578	0.195296	0.235804	0.298968	0.024689	0.030243	0.297526	0.127326	0.448051	1.198634	0.363163	0.780262	0.044776	0.081334	0.433608	0.281208	0.220703	0.080399	0.135106	0.181035	0.224093	0.325960	0.384653	0.342834	0.360266	0.358123	0.671913	0.601471	0.024604	0.038099	0.215720	0.047008
51	0.063161	0.136851	0.166551	0.389637	0.047823	0.060817	0.304482	0.508779	0.058691	0.260617	0.191016	0.277442	0.045886	0.167338	0.207796	0.137449	0.242122	0.232694	0.286812	0.515068	0.177351	0.781064	0.128509	0.246465	0.035407	0.136251	0.069687	0.097580	0.148846	0.445847	0.229873	0.179557	0.161975	0.267468	0.148007	0.233794	0.077992	0.208660	0.531860	0.260555	0.582374	0.333498	0.239216	0.166728	0.067827	0.072927	0.074148	0.288308	0.199117	0.193362	0.231257	0.253776	0.025436	0.031383	0.288288	0.098271	0.405369	1.170412	0.385440	0.812347	0.046525	0.082796	0.596533	0.291338	0.319333	0.170254	0.120940	0.177750	0.217824	0.323208	0.384246	0.354624	0.348289	0.354164	0.682327	0.582238	0.020229	0.038014	0.200158	0.044209
52	0.110552	0.196743	0.177107	0.409810	0.041622	0.051141	0.309194	0.478857	0.094446	0.371247	0.167129	0.278711	0.046530	0.178801	0.214564	0.348334	0.241865	0.232155	0.259484	0.520561	0.179754	0.784938	0.241729	0.277498	0.087258	0.426910	0.061823	0.089352	0.145696	0.441616	0.329082	0.186697	0.341856	0.606170	0.147052	0.245306	0.083189	0.215729	0.531390	0.358086	0.597791	0.380322	0.223384	0.159952	0.076063	0.076514	0.121011	0.290690	0.194613	0.214403	0.226339	0.241186	0.030405	0.032478	0.257244	0.107969	0.403052	1.115624	0.416865	0.843950	0.049229	0.085617	0.639256	0.307926	0.346241	0.219309	0.116724	0.161896	0.199817	0.314954	0.381454	0.355497	0.243931	0.371418	0.689601	0.493310	0.018353	0.042286	0.135325	0.100580
53	0.113836	0.394408	0.205069	0.427726	0.040213	0.048674	0.302609	0.454990	0.104297	0.389196	0.161340	0.246691	0.046872	0.190976	0.395458	0.403435	0.301472	0.268243	0.311041	0.461999	0.215105	0.788328	0.251372	0.257997	0.096521	0.542453	0.074638	0.106022	0.145437	0.423896	0.377044	0.214019	0.477630	0.619484	0.145459	0.248376	0.086594	0.212039	0.556452	0.403700	0.614022	0.396932	0.175885	0.141519	0.078438	0.076956	0.195306	0.307661	0.187584	0.227659	0.193541	0.242387	0.037603	0.040069	0.228174	0.129664	0.365520	1.037602	0.433657	0.861157	0.050287	0.088747	0.639561	0.318034	0.349426	0.224526	0.116860	0.138058	0.182209	0.273700	0.378711	0.350759	0.130493	0.409250	0.656372	0.556256	0.018576	0.048229	0.103460	0.166352
54	0.116524	0.468615	0.214699	0.411318	0.040256	0.049484	0.249262	0.446951	0.106797	0.404214	0.181969	0.148334	0.052472	0.194274	0.566132	0.412960	0.313284	0.293074	0.326721	0.358027	0.260820	0.787872	0.260617	0.242519	0.116013	0.582939	0.121202	0.168898	0.144666	0.375907	0.381613	0.230667	0.513318	0.660564	0.145514	0.240274	0.083234	0.213818	0.519582	0.400838	0.606696	0.424869	0.163624	0.149049	0.096449	0.083443	0.228542	0.340948	0.080999	0.221002	0.151341	0.240876	0.040728	0.044831	0.224262	0.125492	0.301308	0.719998	0.471770	0.851490	0.050932	0.092265	0.636549	0.331648	0.361889	0.665769	0.112644	0.112130	0.176219	0.241935	0.382164	0.308037	0.114387	0.436396	0.590806	0.564987	0.018454	0.061637	0.097879	0.200738
55	0.119735	0.479877	0.206054	0.340641	0.038564	0.050237	0.234721	0.446003	0.116937	0.460474	0.216749	0.142278	0.051333	0.177829	0.592353	0.456933	0.338035	0.306197	0.366729	0.291561	0.267096	0.786437	0.471649	0.260908	0.116225	0.591942	0.155420	0.187651	0.143865	0.317885	0.455400	0.240042	0.728161	0.827419	0.135841	0.210411	0.079294	0.210431	0.492264	0.434647	0.604835	0.427826	0.139989	0.170011	0.224262	0.162400	0.231342	0.358263	0.059085	0.219298	0.218553	0.214496	0.044630	0.049091	0.229057	0.135625	0.185339	0.538076	0.474771	0.638409	0.052299	0.098294	0.666602	0.236330	0.390974	1.085824	0.119902	0.090583	0.152252	0.173795	0.376960	0.244022	0.113955	0.450967	0.554470	0.485473	0.019045	0.081282	0.112647	0.205430
56	0.140243	0.573664	0.218291	0.474690	0.038056	0.050444	0.230531	0.412867	0.127131	0.529132	0.223054	0.139364	0.050583	0.178728	0.647021	0.528299	0.342917	0.299842	0.367367	0.301458	0.267331	0.736350	0.549702	0.266717	0.139848	0.585563	0.194630	0.266253	0.099738	0.239360	0.489839	0.232762	0.743701	0.868053	0.118026	0.155393	0.072423	0.207756	0.517849	0.493805	0.514909	0.559630	0.126316	0.209419	0.456905	0.259375	0.272407	0.363606	0.031801	0.217493	0.250359	0.252555	0.051182	0.055341	0.247609	0.138967	0.183059	0.567488	0.448226	0.514731	0.055631	0.102682	0.692986	0.207189	0.365595	1.111686	0.139688	0.131475	0.150448	0.140853	0.375499	0.240284	0.103071	0.423893	0.523109	0.446206	0.020288	0.097971	0.173856	0.205468
57	0.148226	0.632220	0.404010	0.541908	0.040911	0.064672	0.222152	0.337840	0.147711	0.620099	0.261866	0.169333	0.049506	0.174018	0.748810	0.552047	0.329024	0.278108	0.366429	0.354924	0.239833	0.545720	0.552266	0.285361	0.109641	0.402130	0.222205	0.302297	0.063737	0.209897	0.488107	0.225587	0.746048	1.013439	0.099059	0.113499	0.068500	0.211635	0.510970	0.544750	0.500296	0.642212	0.121246	0.219771	0.643662	0.293967	0.307419	0.363095	0.029864	0.192374	0.248627	0.249564	0.053784	0.054577	0.272471	0.147346	0.190433	0.637310	0.405625	0.511719	0.055608	0.098415	0.692623	0.235172	0.339704	1.154112	0.145352	0.268453	0.131106	0.116838	0.363652	0.230912	0.062510	0.355732	0.369759	0.478928	0.026191	0.105394	0.229398	0.207238
58	0.134190	0.647124	0.439857	0.523303	0.046248	0.180594	0.218926	0.252800	0.146810	0.604759	0.264832	0.176547	0.062193	0.190408	0.771490	0.553861	0.296854	0.245494	0.363555	0.385503	0.297935	0.474587	0.557141	0.335834	0.102560	0.217282	0.233024	0.283453	0.056466	0.219190	0.485475	0.205662	0.746911	1.025391	0.092281	0.117078	0.072340	0.214555	0.517005	0.579560	0.501748	0.654111	0.237297	0.224750	0.681085	0.297816	0.373713	0.373773	0.026201	0.165937	0.275610	0.254628	0.058723	0.067735	0.275104	0.177141	0.189682	0.641559	0.333807	0.467766	0.044734	0.080914	0.661835	0.283773	0.328025	1.216142	0.156411	0.299421	0.058464	0.063020	0.280934	0.191509	0.062701	0.343929	0.319889	0.495361	0.034329	0.111988	0.299659	0.209322
59	0.116751	0.611374	0.459666	0.525275	0.049865	0.517151	0.192994	0.186378	0.139311	0.596532	0.263505	0.169219	0.070019	0.197940	0.759346	0.523451	0.258194	0.229053	0.364987	0.392819	0.427971	0.206260	0.556737	0.415158	0.090152	0.174712	0.249968	0.265076	0.055601	0.220388	0.480657	0.203177	0.685555	0.924910	0.094984	0.149748	0.072386	0.214110	0.526523	0.582460	0.502081	0.658292	0.281728	0.243814	0.797730	0.337427	0.398936	0.487085	0.026549	0.163721	0.290584	0.277111	0.133114	0.130313	0.252193	0.182689	0.190431	0.661312	0.318587	0.397799	0.039207	0.074791	0.556835	0.295091	0.326537	1.294983	0.254917	0.304425	0.039137	0.087890	0.197545	0.135393	0.067973	0.344733	0.299765	0.495202	0.034052	0.111048	0.319660	0.217054
60	0.108299	0.503070	0.468653	0.551805	0.051337	0.686093	0.140592	0.166344	0.148226	0.622562	0.240764	0.142589	0.070062	0.182434	0.752479	0.415563	0.259112	0.227812	0.363002	0.370263	0.428095	0.205179	0.585689	0.458655	0.073114	0.176199	0.260899	0.253868	0.054779	0.222312	0.436479	0.200888	0.595977	0.914878	0.095713	0.160813	0.070048	0.197466	0.505997	0.584455	0.486959	0.635914	0.279406	0.319655	0.974669	0.407615	0.400499	0.507669	0.030243	0.139341	0.304970	0.290525	0.371050	0.265557	0.259521	0.193256	0.187624	0.680844	0.261320	0.360595	0.037333	0.072523	0.418327	0.283834	0.328012	1.316116	0.332974	0.341112	0.044864	0.098698	0.202201	0.106255	0.067493	0.294991	0.283839	0.444816	0.033813	0.107915	0.321404	0.232400
61	0.105040	0.499155	0.467010	0.560414	0.083069	0.811514	0.121588	0.169402	0.140949	0.609589	0.242350	0.170004	0.069628	0.166581	0.646477	0.393003	0.163444	0.169420	0.311281	0.344719	0.427661	0.199875	0.614806	0.437736	0.053689	0.222191	0.256444	0.183750	0.049672	0.230641	0.370248	0.177579	0.564865	0.897805	0.140767	0.160483	0.068314	0.179823	0.465677	0.604172	0.451421	0.640072	0.293765	0.379909	1.010718	0.432520	0.453377	0.510482	0.033634	0.101016	0.336320	0.290341	0.490549	0.288373	0.263412	0.213883	0.185012	0.698608	0.244655	0.401122	0.038286	0.072167	0.415103	0.297269	0.322686	1.240280	0.352175	0.399059	0.053398	0.156962	0.210087	0.125975	0.073956	0.243502	0.268121	0.332454	0.036401	0.118899	0.336467	0.250052
62	0.097290	0.473258	0.461302	0.532404	0.093069	0.978363	0.111577	0.156874	0.173787	0.566374	0.229137	0.170352	0.062443	0.149442	0.521383	0.378838	0.155529	0.129938	0.282863	0.327723	0.417043	0.174632	0.662431	0.472019	0.054125	0.246593	0.225751	0.165766	0.047348	0.232672	0.363621	0.167525	0.204927	0.758169	0.153635	0.167337	0.061354	0.175733	0.448752	0.584201	0.458155	0.709900	0.331178	0.400292	1.020928	0.444529	0.523593	0.523916	0.059937	0.099422	0.335623	0.289635	0.503845	0.288597	0.249434	0.225695	0.177820	0.695322	0.199374	0.405546	0.038896	0.069897	0.415574	0.296200	0.280487	0.820869	0.394721	0.425589	0.055551	0.182664	0.211414	0.134019	0.142483	0.240387	0.238921	0.314380	0.047651	0.275076	0.351676	0.245897
63	0.059352	0.312788	0.417515	0.345716	0.093304	0.984083	0.132247	0.142025	0.161557	0.394364	0.173371	0.147299	0.060914	0.145240	0.508297	0.309123	0.070373	0.082957	0.247697	0.338363	0.388008	0.174725	0.691289	0.539619	0.087675	0.276902	0.233236	0.175598	0.043198	0.244897	0.288778	0.151837	0.120195	0.708003	0.258465	0.194002	0.047107	0.171571	0.422523	0.513142	0.504227	0.771784	0.363528	0.391610	1.030898	0.447437	0.549257	0.521500	0.098081	0.125823	0.308362	0.288704	0.585979	0.292192	0.251757	0.231719	0.154341	0.661797	0.164367	0.392374	0.036560	0.059372	0.361652	0.284651	0.264820	0.768183	0.414741	0.422743	0.058776	0.245408	0.183575	0.132377	0.240955	0.251523	0.261747	0.353561	0.087724	0.547994	0.356456	0.219740
64	0.049201	0.275043	0.293179	0.387921	0.093389	0.986491	0.140152	0.148413	0.188252	0.389322	0.176722	0.141773	0.059081	0.128217	0.384978	0.191532	0.054604	0.086842	0.257547	0.309308	0.380561	0.174799	0.620414	0.536868	0.095118	0.331487	0.197185	0.162518	0.036872	0.213292	0.203078	0.157490	0.116041	0.480199	0.360924	0.206340	0.042736	0.165392	0.375969	0.500723	0.473376	0.766556	0.376980	0.376392	1.024922	0.439948	0.557912	0.512184	0.110186	0.185462	0.262861	0.244413	0.698090	0.315372	0.254290	0.238422	0.118523	0.583912	0.223990	0.388061	0.029630	0.046644	0.224763	0.283415	0.264733	0.700133	0.419232	0.364661	0.059125	0.251458	0.153392	0.127867	0.265747	0.251457	0.248927	0.308022	0.100216	0.615036	0.383241	0.198194
65	0.042780	0.248105	0.293641	0.356114	0.093825	0.992537	0.139237	0.211055	0.262375	0.384705	0.179654	0.185365	0.053391	0.104562	0.173049	0.149294	0.057759	0.113420	0.239756	0.250424	0.372258	0.174520	0.513944	0.535304	0.109741	0.424574	0.119313	0.145189	0.032733	0.227504	0.183085	0.152148	0.113150	0.405544	0.366510	0.239999	0.043858	0.162282	0.327420	0.495843	0.529857	0.660118	0.379306	0.366942	0.972984	0.395633	0.553515	0.515352	0.112040	0.285578	0.269477	0.203130	0.705133	0.406919	0.241264	0.232479	0.080231	0.439965	0.277076	0.396356	0.027104	0.044416	0.198323	0.275960	0.244094	0.623407	0.423848	0.315233	0.058773	0.251950	0.148348	0.124813	0.304237	0.245793	0.259286	0.251079	0.122390	0.701557	0.389749	0.195260
66	0.040971	0.235044	0.261320	0.338300	0.094207	0.996753	0.140828	0.267246	0.256518	0.248912	0.167625	0.222611	0.036822	0.068440	0.091250	0.133812	0.057043	0.119998	0.196722	0.203879	0.372042	0.172019	0.581681	0.553381	0.140909	0.421486	0.126925	0.140850	0.033924	0.215018	0.188027	0.142973	0.084148	0.230096	0.376274	0.231932	0.044107	0.161982	0.261701	0.452854	0.536499	0.685037	0.385350	0.413114	0.864058	0.361424	0.544980	0.519038	0.113121	0.393172	0.247303	0.199343	0.708264	0.425997	0.219592	0.227808	0.064298	0.374389	0.283479	0.424542	0.026357	0.043703	0.208727	0.229601	0.122963	0.377426	0.399103	0.314274	0.058699	0.254439	0.127543	0.126441	0.356261	0.239310	0.243084	0.259196	0.123083	0.719462	0.367073	0.196194
67	0.154608	0.260902	0.252664	0.356625	0.094098	0.997324	0.169633	0.280437	0.241391	0.157496	0.189823	0.230646	0.026313	0.054361	0.088931	0.133029	0.058692	0.109305	0.192210	0.180266	0.357983	0.165655	0.599850	0.555211	0.162627	0.419879	0.124775	0.130918	0.037253	0.210229	0.170175	0.143574	0.083941	0.239602	0.454710	0.215993	0.041540	0.154631	0.236987	0.388881	0.539103	0.750749	0.414460	0.451685	0.787934	0.361609	0.520709	0.515968	0.115879	0.409899	0.224255	0.166809	0.709650	0.481261	0.230555	0.227608	0.064748	0.362904	0.298198	0.456625	0.025607	0.041257	0.225653	0.182489	0.093499	0.247072	0.308329	0.284439	0.056204	0.260247	0.114753	0.125644	0.383480	0.238528	0.245932	0.267137	0.121929	0.718596	0.332876	0.195874
68	0.268020	0.406370	0.252832	0.376511	0.093653	0.995993	0.224898	0.274526	0.232468	0.172983	0.214673	0.252185	0.027132	0.058534	0.089089	0.131426	0.105356	0.147016	0.181587	0.181907	0.133157	0.106019	0.602430	0.517933	0.172771	0.369814	0.148045	0.277061	0.037805	0.208018	0.168656	0.147038	0.084897	0.213304	0.453821	0.244351	0.029433	0.125068	0.239421	0.318161	0.539196	0.758539	0.409251	0.445633	0.756220	0.356425	0.484190	0.391583	0.121952	0.444239	0.211290	0.148103	0.709361	0.516301	0.249961	0.225958	0.057417	0.303736	0.338750	0.469858	0.025865	0.041739	0.217136	0.177731	0.088076	0.225679	0.294744	0.201434	0.049723	0.255990	0.112649	0.129061	0.394201	0.261732	0.314392	0.303953	0.120709	0.722704	0.269825	0.194801
69	0.333905	0.423586	0.250048	0.375707	0.091742	0.962020	0.304196	0.272897	0.224029	0.162817	0.257590	0.250492	0.026453	0.058929	0.087688	0.125338	0.200662	0.208269	0.163091	0.177318	0.102765	0.110050	0.583195	0.468356	0.174821	0.371572	0.176233	0.299143	0.038426	0.195694	0.170251	0.142513	0.081646	0.162902	0.450096	0.276487	0.021698	0.104172	0.195859	0.277374	0.535631	0.751295	0.423260	0.399373	0.494894	0.280744	0.495736	0.276578	0.121813	0.479470	0.164649	0.284820	0.702164	0.557272	0.258256	0.248567	0.053597	0.220049	0.356964	0.404674	0.024035	0.041286	0.200317	0.157644	0.098933	0.236270	0.261207	0.112811	0.047804	0.298201	0.091018	0.120599	0.395093	0.319976	0.359723	0.352054	0.120985	0.733157	0.254249	0.190259
70	0.454995	0.443991	0.214642	0.325815	0.087192	0.796565	0.325970	0.276116	0.201883	0.150822	0.259346	0.248028	0.023380	0.056408	0.084286	0.107168	0.227942	0.220284	0.153311	0.165466	0.105167	0.105912	0.519742	0.458361	0.164042	0.268998	0.230549	0.314107	0.038294	0.191867	0.167607	0.118623	0.080845	0.157749	0.415781	0.260914	0.020133	0.098538	0.185598	0.275792	0.505197	0.696465	0.432310	0.370207	0.313410	0.222259	0.485080	0.273722	0.117200	0.504240	0.178842	0.368183	0.615559	0.552568	0.298729	0.256393	0.043041	0.131456	0.371842	0.335657	0.017830	0.036824	0.200723	0.160983	0.111927	0.225564	0.296032	0.182294	0.038618	0.294751	0.079984	0.095662	0.364061	0.285427	0.396130	0.349524	0.121354	0.738077	0.252301	0.191081
71	0.456999	0.459872	0.193598	0.298095	0.083512	0.725982	0.339234	0.282567	0.129721	0.149957	0.260283	0.194573	0.022603	0.054924	0.077598	0.098271	0.256971	0.221561	0.142938	0.150144	0.105532	0.103489	0.460185	0.440900	0.137535	0.258464	0.352674	0.332448	0.036648	0.175944	0.142675	0.113697	0.062947	0.149401	0.325542	0.281187	0.018603	0.095818	0.185900	0.246058	0.443095	0.601231	0.457451	0.367617	0.246250	0.181587	0.407139	0.256482	0.089539	0.502020	0.189570	0.379921	0.528152	0.557958	0.426397	0.264436	0.036659	0.089321	0.372474	0.305060	0.018086	0.039871	0.187852	0.171477	0.142151	0.207638	0.294235	0.315078	0.057373	0.336914	0.088127	0.080439	0.317871	0.274049	0.391102	0.316739	0.120505	0.736535	0.254140	0.187808
72	0.462688	0.571066	0.187742	0.328205	0.039498	0.442809	0.405968	0.320485	0.131196	0.141020	0.240138	0.187630	0.025874	0.057479	0.082753	0.093797	0.287629	0.227907	0.139609	0.160623	0.103324	0.101639	0.391513	0.375440	0.096427	0.247640	0.370294	0.329122	0.026961	0.149881	0.128497	0.100756	0.058537	0.135794	0.328419	0.296427	0.018226	0.092490	0.182912	0.183356	0.400659	0.520996	0.523141	0.427983	0.201466	0.165192	0.307963	0.213248	0.081489	0.515096	0.242273	0.385191	0.535528	0.571562	0.533197	0.253773	0.038192	0.065181	0.353844	0.301412	0.018072	0.038142	0.214685	0.174256	0.145999	0.182108	0.296865	0.370473	0.061090	0.332471	0.117923	0.079266	0.303195	0.268779	0.396114	0.321543	0.113996	0.677148	0.269902	0.168541
73	0.468697	0.593857	0.292757	0.304474	0.033891	0.191785	0.455850	0.367559	0.211300	0.137319	0.219363	0.144306	0.030008	0.068987	0.110225	0.100048	0.298585	0.250074	0.161514	0.322185	0.098917	0.103434	0.373142	0.420688	0.067153	0.253017	0.373612	0.191358	0.026441	0.093564	0.126908	0.089287	0.077681	0.128654	0.438514	0.294980	0.018332	0.048120	0.171970	0.146693	0.295167	0.507393	0.527341	0.493111	0.176799	0.164157	0.267783	0.189620	0.090919	0.494376	0.435582	0.403641	0.457803	0.570150	0.552124	0.239008	0.041770	0.065763	0.320777	0.300667	0.016917	0.032993	0.271624	0.188258	0.143154	0.155922	0.306973	0.372476	0.066716	0.358544	0.118074	0.099297	0.240197	0.271680	0.467969	0.365958	0.086717	0.467728	0.256251	0.152880
74	0.446322	0.521077	0.381130	0.273595	0.033925	0.183108	0.454050	0.394878	0.216281	0.106927	0.244372	0.107601	0.028548	0.070878	0.106940	0.122445	0.304612	0.301804	0.157536	0.343066	0.094662	0.105462	0.367513	0.455040	0.065925	0.185814	0.336474	0.180999	0.034581	0.139046	0.118308	0.088500	0.112618	0.106392	0.387662	0.599722	0.022010	0.070757	0.136272	0.144625	0.142878	0.474396	0.528814	0.516275	0.175630	0.164813	0.261630	0.163538	0.090486	0.409549	0.530671	0.424031	0.303855	0.561771	0.555803	0.243792	0.042349	0.070463	0.310161	0.288870	0.017578	0.034923	0.273289	0.211129	0.140938	0.146046	0.329536	0.388761	0.067126	0.371817	0.117877	0.096942	0.179029	0.274267	0.498244	0.444206	0.067435	0.412926	0.217108	0.154069
75	0.402599	0.491336	0.521788	0.272782	0.035692	0.172837	0.459757	0.402580	0.278480	0.163510	0.276764	0.103606	0.030034	0.078244	0.121608	0.138740	0.301261	0.306290	0.155434	0.382379	0.091115	0.107222	0.266821	0.433481	0.066415	0.195192	0.303238	0.139705	0.052499	0.307161	0.105419	0.077070	0.110895	0.091086	0.411340	0.834044	0.023129	0.135883	0.121070	0.133592	0.200409	0.352989	0.508278	0.506642	0.166892	0.154478	0.228964	0.137684	0.087631	0.377667	0.543694	0.431221	0.303469	0.500935	0.593645	0.255381	0.049619	0.130532	0.306698	0.242927	0.017459	0.039543	0.279425	0.224429	0.139925	0.129897	0.386728	0.451926	0.068854	0.384701	0.118928	0.119094	0.117397	0.287449	0.494306	0.480057	0.028622	0.223355	0.198347	0.163873
76	0.269543	0.459189	0.608470	0.277857	0.038105	0.138444	0.460097	0.373322	0.279486	0.174902	0.278485	0.104366	0.034480	0.166559	0.146276	0.192401	0.279327	0.278571	0.156418	0.454645	0.080779	0.096689	0.218810	0.412412	0.061417	0.197829	0.114131	0.103071	0.056609	0.341051	0.077218	0.074662	0.111545	0.088849	0.557383	0.841768	0.025605	0.144765	0.117310	0.103025	0.213404	0.228936	0.438471	0.483186	0.143239	0.129929	0.218114	0.118114	0.078877	0.353925	0.568730	0.437856	0.353044	0.482638	0.609242	0.263246	0.070952	0.239043	0.283116	0.181424	0.019570	0.045260	0.288049	0.228633	0.135391	0.105318	0.426689	0.470231	0.067894	0.379720	0.152505	0.131650	0.095590	0.239124	0.452042	0.453687	0.022832	0.197851	0.196973	0.172053
77	0.245019	0.437809	0.616056	0.301743	0.039305	0.122620	0.461038	0.340235	0.279898	0.193414	0.354896	0.075407	0.034558	0.183517	0.166069	0.214560	0.216986	0.243296	0.163032	0.508972	0.059991	0.075983	0.293957	0.411881	0.074479	0.191332	0.092646	0.096477	0.066765	0.390014	0.043781	0.085194	0.118918	0.101609	0.646746	0.953463	0.028566	0.149046	0.111490	0.075836	0.230074	0.214601	0.436361	0.478801	0.117723	0.097261	0.212438	0.113812	0.074036	0.304699	0.633947	0.394817	0.372534	0.430457	0.607716	0.265891	0.092969	0.349915	0.228229	0.152976	0.024776	0.079947	0.292070	0.226548	0.115261	0.087967	0.391773	0.451828	0.069347	0.376844	0.188311	0.130267	0.087088	0.196196	0.470346	0.421669	0.019595	0.198721	0.201622	0.173856
78	0.242513	0.417535	0.618374	0.363759	0.039639	0.121423	0.445575	0.338086	0.279016	0.210977	0.399575	0.042336	0.040220	0.196474	0.162787	0.224317	0.209663	0.270867	0.165422	0.515166	0.040523	0.067716	0.325812	0.411041	0.127187	0.242702	0.180457	0.280156	0.069803	0.404293	0.056635	0.095281	0.123952	0.097944	0.657722	1.074770	0.028727	0.149674	0.089955	0.070157	0.273941	0.209624	0.426469	0.481041	0.086167	0.064089	0.198596	0.145302	0.071398	0.241660	0.688279	0.297624	0.372606	0.392168	0.607619	0.251104	0.101748	0.374027	0.206099	0.166021	0.027921	0.080891	0.294590	0.197037	0.086944	0.083973	0.374622	0.387667	0.067636	0.346399	0.189640	0.129725	0.080562	0.190128	0.657927	0.501835	0.019425	0.175758	0.202149	0.171798
79	0.231180	0.209799	0.609984	0.408343	0.035839	0.120842	0.417672	0.346983	0.218450	0.235139	0.396972	0.067847	0.045066	0.217200	0.165109	0.220431	0.182553	0.513123	0.158069	0.509669	0.028183	0.064284	0.322726	0.420089	0.127801	0.212609	0.253919	0.322309	0.071059	0.410636	0.070204	0.096817	0.119683	0.095575	0.721618	1.104752	0.029183	0.150676	0.082794	0.063886	0.283848	0.211467	0.485931	0.534944	0.097845	0.072174	0.151062	0.174777	0.074170	0.233364	0.734782	0.265716	0.370268	0.323140	0.619684	0.223798	0.125678	0.465579	0.359237	0.434534	0.027193	0.094999	0.298236	0.228206	0.044154	0.081994	0.367835	0.350194	0.068322	0.335882	0.183344	0.129203	0.081245	0.182404	0.684325	0.579475	0.017127	0.130338	0.205092	0.162998
80	0.177039	0.201905	0.529478	0.400092	0.033391	0.120502	0.370030	0.353167	0.212149	0.293882	0.353937	0.091072	0.044201	0.255503	0.163700	0.210263	0.170250	0.628505	0.133418	0.490215	0.025691	0.066683	0.325383	0.426876	0.127104	0.224006	0.284918	0.357654	0.073996	0.412722	0.068607	0.107602	0.107691	0.096928	0.710343	1.108576	0.029555	0.160027	0.085300	0.133786	0.280987	0.219185	0.461336	0.569271	0.206483	0.123422	0.205682	0.167824	0.067536	0.201203	0.769685	0.262803	0.367249	0.241428	0.605788	0.206619	0.234350	0.511843	0.461122	0.635708	0.027344	0.099436	0.300902	0.291624	0.053903	0.156694	0.366596	0.367695	0.056657	0.294189	0.178463	0.133909	0.078311	0.182346	0.713059	0.585891	0.014988	0.105196	0.308472	0.135799
81	0.161241	0.139073	0.507025	0.388977	0.031908	0.123814	0.359279	0.350593	0.108239	0.283540	0.412938	0.101332	0.055431	0.283491	0.150039	0.201229	0.156018	0.656614	0.127423	0.411308	0.029774	0.071754	0.339498	0.414182	0.121098	0.229988	0.357568	0.392243	0.074030	0.412689	0.068281	0.122613	0.063309	0.097843	0.705834	0.999132	0.029665	0.165389	0.087629	0.181889	0.283251	0.218962	0.406207	0.571719	0.326723	0.160744	0.334764	0.172488	0.037382	0.099907	0.758313	0.254107	0.361295	0.200710	0.520637	0.173280	0.239800	0.541980	0.465008	0.649524	0.029296	0.105484	0.275703	0.297192	0.056234	0.183747	0.402451	0.364924	0.048486	0.243291	0.173108	0.164822	0.065718	0.173224	0.683084	0.546080	0.014206	0.089594	0.335510	0.106123
82	0.115429	0.082726	0.227611	0.387150	0.031612	0.119308	0.334255	0.336900	0.131692	0.439089	0.403165	0.165424	0.082769	0.313321	0.163619	0.207250	0.148928	0.673206	0.132482	0.426002	0.034441	0.070710	0.342374	0.345937	0.089990	0.225736	0.394623	0.384325	0.071597	0.406223	0.072455	0.125746	0.061655	0.096331	0.688515	0.795771	0.031987	0.173635	0.099328	0.183958	0.291745	0.226333	0.465424	0.525655	0.369204	0.164029	0.372508	0.200846	0.029002	0.071980	0.677292	0.367803	0.331239	0.162519	0.408415	0.164298	0.247314	0.563370	0.472842	0.679018	0.030709	0.112732	0.232628	0.285179	0.055557	0.199911	0.372372	0.304826	0.042463	0.197334	0.177005	0.162958	0.046949	0.158653	0.690796	0.508099	0.011687	0.080001	0.327785	0.100436
83	0.034546	0.144905	0.179078	0.384564	0.028917	0.109475	0.223902	0.289854	0.218165	0.590717	0.329909	0.176174	0.091105	0.316454	0.337587	0.230985	0.152632	0.705404	0.149795	0.372829	0.034356	0.067506	0.374032	0.311621	0.047388	0.155021	0.443390	0.253253	0.057470	0.321047	0.075157	0.127244	0.060825	0.091800	0.582892	0.776579	0.033413	0.177158	0.106614	0.202719	0.287061	0.261825	0.463315	0.485241	0.436655	0.209293	0.371776	0.205461	0.029047	0.081994	0.829730	0.478501	0.324197	0.165451	0.379229	0.161639	0.250955	0.681203	0.492885	0.753126	0.031763	0.112535	0.252299	0.284899	0.055326	0.238894	0.315200	0.332170	0.087640	0.184966	0.176775	0.170016	0.031123	0.125888	0.777865	0.502761	0.013133	0.076119	0.402204	0.115157
84	0.034156	0.162374	0.108594	0.353851	0.029157	0.112352	0.155642	0.233868	0.292559	0.704637	0.307130	0.184891	0.100578	0.286027	0.365102	0.205832	0.154710	0.726650	0.137212	0.280466	0.032865	0.064248	0.460138	0.349282	0.053870	0.242846	0.481069	0.268980	0.056400	0.314936	0.077139	0.117813	0.046353	0.081472	0.471589	0.638734	0.034701	0.174342	0.106039	0.232792	0.303189	0.277650	0.470371	0.463513	0.510879	0.241476	0.372695	0.229878	0.030979	0.099606	0.985288	0.478797	0.274798	0.158117	0.376742	0.141510	0.281267	0.916373	0.507084	0.838308	0.031768	0.112330	0.260629	0.305774	0.058378	0.253660	0.311190	0.444299	0.125981	0.170249	0.176567	0.176539	0.039146	0.118436	0.796322	0.507440	0.015847	0.069660	0.444258	0.115767
85	0.090895	0.222538	0.219677	0.379361	0.029171	0.108689	0.138283	0.184137	0.300201	0.716764	0.331867	0.199906	0.106918	0.329109	0.408343	0.188524	0.154711	0.731333	0.162679	0.185312	0.034599	0.064308	0.471546	0.357256	0.063202	0.269753	0.544885	0.209250	0.046511	0.265804	0.080525	0.106866	0.025127	0.081237	0.467223	0.386047	0.031026	0.142628	0.109072	0.251526	0.307094	0.272413	0.483034	0.477401	0.570030	0.262535	0.381459	0.265830	0.035250	0.101785	0.992951	0.502151	0.255122	0.156390	0.317670	0.115327	0.299088	0.894965	0.523529	0.875505	0.029808	0.098730	0.255085	0.333073	0.060702	0.265111	0.322450	0.481588	0.144432	0.205508	0.153072	0.181139	0.058614	0.122597	0.788786	0.517924	0.015771	0.064730	0.452668	0.101215
86	0.187063	0.236939	0.280902	0.364626	0.024744	0.095878	0.111504	0.142281	0.307583	0.692135	0.422781	0.204281	0.105607	0.333907	0.425058	0.198638	0.136432	0.700354	0.163081	0.174781	0.035617	0.064876	0.428709	0.333990	0.089494	0.339695	0.502137	0.265422	0.044694	0.235959	0.086621	0.097269	0.023218	0.077619	0.398764	0.365254	0.029536	0.110650	0.108503	0.254185	0.296584	0.265849	0.565982	0.493611	0.571905	0.264826	0.396882	0.281259	0.057636	0.106287	0.958933	0.557160	0.174200	0.161872	0.283418	0.093620	0.355318	0.881425	0.532649	0.881054	0.028584	0.106918	0.279473	0.351069	0.060540	0.269517	0.382813	0.465270	0.176496	0.213718	0.103803	0.184894	0.071757	0.135227	0.790661	0.415234	0.015914	0.052500	0.452712	0.086071
87	0.298636	0.240510	0.358037	0.374880	0.019987	0.085626	0.110870	0.134829	0.314086	0.690609	0.402030	0.194517	0.107677	0.346483	0.434082	0.229118	0.087611	0.501595	0.163736	0.178403	0.035228	0.060174	0.406158	0.326848	0.098316	0.397318	0.457871	0.302260	0.044607	0.227389	0.118649	0.095439	0.032634	0.083806	0.662889	0.563653	0.022813	0.100125	0.111350	0.255754	0.245477	0.266375	0.694926	0.469777	0.599657	0.278342	0.408315	0.276712	0.054970	0.098184	0.925785	0.596594	0.220277	0.201774	0.253541	0.060255	0.402351	0.855496	0.516935	0.858120	0.028004	0.104088	0.300042	0.345460	0.047402	0.240494	0.430941	0.450641	0.208572	0.208754	0.102217	0.185317	0.071422	0.134157	0.796088	0.339449	0.015386	0.040910	0.454707	0.078755
88	0.369569	0.280685	0.375286	0.388648	0.016869	0.080683	0.107071	0.136353	0.322698	0.532203	0.410222	0.151755	0.118333	0.310572	0.435986	0.234304	0.100933	0.445138	0.186560	0.176687	0.034490	0.058466	0.400757	0.354765	0.097386	0.383958	0.402264	0.291124	0.041000	0.241570	0.142974	0.090304	0.038387	0.082414	0.807861	0.582062	0.022670	0.099465	0.111807	0.257308	0.244830	0.269110	0.673137	0.398694	0.608965	0.279056	0.427541	0.256280	0.052571	0.093567	0.896094	0.606738	0.281904	0.197523	0.229897	0.034925	0.369442	0.883240	0.377629	0.693887	0.034496	0.118393	0.305010	0.288063	0.050051	0.226101	0.414449	0.446144	0.208765	0.195276	0.113807	0.186666	0.080633	0.144397	0.785038	0.348545	0.015470	0.028251	0.458146	0.078325
89	0.458739	0.313654	0.457601	0.439822	0.015826	0.080057	0.098932	0.121213	0.361927	0.377308	0.412934	0.196672	0.124748	0.292529	0.437357	0.231796	0.193891	0.454201	0.186055	0.165871	0.034665	0.061204	0.390323	0.375940	0.103880	0.347425	0.327677	0.271998	0.042474	0.255055	0.145976	0.073838	0.057973	0.085768	0.811266	0.593814	0.022562	0.098552	0.110352	0.257743	0.243095	0.265011	0.731012	0.307719	0.602908	0.268651	0.418648	0.247692	0.055759	0.106145	0.848200	0.602676	0.287395	0.197974	0.180611	0.034132	0.357364	0.912539	0.349204	0.627652	0.037696	0.136673	0.287833	0.308709	0.068457	0.236065	0.473885	0.447917	0.212993	0.224044	0.117067	0.187105	0.096457	0.158432	0.785262	0.424028	0.016114	0.021146	0.455345	0.110069
90	0.470265	0.302741	0.530658	0.512221	0.015478	0.080123	0.092381	0.096409	0.293027	0.215240	0.404288	0.216348	0.156171	0.260926	0.427781	0.210632	0.299767	0.453655	0.207046	0.122252	0.035722	0.067422	0.382580	0.372523	0.111110	0.353992	0.304020	0.285639	0.053330	0.251063	0.145785	0.084281	0.067372	0.087351	0.809987	0.661245	0.027097	0.093754	0.121616	0.250801	0.243638	0.258911	0.717343	0.243580	0.582542	0.256048	0.344803	0.246523	0.057631	0.117172	0.836960	0.546802	0.343651	0.230933	0.132993	0.033162	0.486587	0.951755	0.350728	0.628593	0.036231	0.136992	0.342870	0.318378	0.075513	0.201437	0.494376	0.436281	0.213420	0.242238	0.141774	0.167596	0.103176	0.161230	0.759807	0.489409	0.019082	0.024559	0.384360	0.181567
91	0.483792	0.305563	0.567752	0.485785	0.015712	0.079782	0.099856	0.078237	0.289761	0.162394	0.370282	0.196498	0.194117	0.260422	0.296630	0.206202	0.332578	0.425717	0.212002	0.119904	0.034876	0.072304	0.389280	0.372283	0.112709	0.278103	0.320899	0.227859	0.122463	0.224491	0.145935	0.092241	0.084630	0.121041	0.811707	0.729278	0.035234	0.078328	0.165666	0.234326	0.234998	0.252056	0.692391	0.334232	0.538864	0.248314	0.266874	0.226644	0.059860	0.115843	0.756656	0.415856	0.466034	0.274657	0.110878	0.047042	0.492882	0.960096	0.328769	0.582124	0.033574	0.135012	0.354218	0.317723	0.074135	0.193297	0.486540	0.356308	0.213368	0.243050	0.141723	0.166084	0.103746	0.146216	0.677141	0.491968	0.019492	0.023447	0.354035	0.191475
92	0.520126	0.298338	0.663137	0.429456	0.014970	0.072028	0.107934	0.068680	0.275449	0.145285	0.191844	0.200436	0.199517	0.253702	0.289336	0.212220	0.409718	0.419590	0.231688	0.124383	0.032900	0.071858	0.378994	0.365864	0.109847	0.200642	0.364981	0.207937	0.150755	0.182207	0.146357	0.096444	0.121635	0.145522	0.904290	0.739408	0.034620	0.073446	0.184683	0.259104	0.220500	0.171053	0.696382	0.397477	0.518339	0.234848	0.280525	0.214109	0.061243	0.123456	0.487177	0.396861	0.467748	0.271089	0.187500	0.062733	0.484765	0.782817	0.332973	0.466961	0.038391	0.158512	0.322427	0.311109	0.070319	0.163599	0.522702	0.275900	0.200640	0.235110	0.143636	0.159696	0.100663	0.132570	0.676990	0.622729	0.019810	0.043259	0.332024	0.222549
93	0.498684	0.305893	0.691864	0.432922	0.014868	0.071728	0.099881	0.071432	0.269163	0.148639	0.178617	0.203944	0.243774	0.175865	0.204968	0.221674	0.421244	0.420032	0.216960	0.125148	0.032928	0.074177	0.285525	0.337787	0.111215	0.217054	0.375901	0.213888	0.156421	0.147815	0.146229	0.098813	0.162097	0.155911	1.051645	0.687783	0.036185	0.061996	0.175521	0.270403	0.118513	0.105769	0.681642	0.415583	0.451665	0.192007	0.288392	0.206246	0.077938	0.235477	0.335384	0.369268	0.469716	0.267811	0.238931	0.071074	0.476495	0.604182	0.307476	0.364221	0.044539	0.171144	0.337723	0.295137	0.071038	0.160723	0.545015	0.276160	0.178477	0.222563	0.143562	0.134068	0.087957	0.111589	0.556779	0.731744	0.018090	0.066996	0.259563	0.271348
94	0.523103	0.324594	0.686120	0.435491	0.013650	0.064733	0.087018	0.099727	0.181496	0.181313	0.166862	0.230201	0.348738	0.155971	0.195829	0.220472	0.427925	0.420571	0.223938	0.122498	0.032043	0.081311	0.205644	0.310014	0.101729	0.190317	0.387930	0.216348	0.160603	0.152530	0.152509	0.105169	0.205516	0.162097	0.902529	0.524218	0.045169	0.081342	0.172289	0.249238	0.149380	0.119674	0.676665	0.398833	0.329478	0.143769	0.285389	0.153351	0.074722	0.271399	0.292700	0.287489	0.468845	0.265895	0.234544	0.072237	0.469127	0.603337	0.286719	0.323958	0.061409	0.186902	0.323833	0.270690	0.076718	0.250237	0.613240	0.259668	0.166038	0.197388	0.145097	0.105420	0.085369	0.107686	0.395579	0.753440	0.018651	0.074314	0.234325	0.310412
95	0.465369	0.291548	0.699633	0.442131	0.011794	0.056721	0.085099	0.106224	0.211472	0.203193	0.243656	0.190330	0.353329	0.132871	0.187188	0.212831	0.428721	0.419514	0.234613	0.139977	0.034715	0.085650	0.211858	0.308830	0.091824	0.174223	0.431293	0.392452	0.163074	0.150135	0.135352	0.109913	0.252279	0.169600	0.760717	0.475543	0.083585	0.123911	0.172014	0.242841	0.221376	0.147605	0.549665	0.407185	0.313119	0.137368	0.255184	0.106675	0.073574	0.283092	0.300793	0.174877	0.475335	0.264051	0.241383	0.072857	0.458247	0.601002	0.268380	0.320398	0.106520	0.181283	0.303083	0.274796	0.073960	0.258830	0.652272	0.255355	0.149605	0.195939	0.142374	0.096716	0.085248	0.120050	0.631691	0.780082	0.023066	0.080167	0.228320	0.327824
96	0.434473	0.262753	0.640613	0.350172	0.012568	0.042055	0.082874	0.105529	0.231605	0.193242	0.335405	0.208580	0.349167	0.125461	0.208810	0.214411	0.417865	0.383967	0.223645	0.176899	0.035021	0.086602	0.201149	0.344466	0.054965	0.186378	0.506283	0.496084	0.164479	0.122627	0.099915	0.119018	0.296807	0.180757	0.764249	0.473030	0.124263	0.158047	0.184988	0.273162	0.272128	0.149201	0.432727	0.430396	0.283702	0.112345	0.244087	0.067824	0.080887	0.292163	0.267444	0.097664	0.502625	0.266747	0.249702	0.075017	0.448276	0.568834	0.279072	0.321683	0.114893	0.183464	0.281783	0.291526	0.066946	0.281830	0.711629	0.261973	0.098680	0.197308	0.142243	0.101017	0.109366	0.106143	0.666874	0.819400	0.030484	0.084607	0.227038	0.329725
97	0.426763	0.257689	0.619547	0.294958	0.022975	0.069411	0.083537	0.101709	0.288419	0.211897	0.336886	0.223884	0.345557	0.121112	0.248770	0.260131	0.370565	0.258197	0.220772	0.174210	0.035038	0.086489	0.223407	0.325417	0.054243	0.183717	0.498399	0.518825	0.164373	0.133709	0.124987	0.123350	0.368638	0.185205	0.821189	0.454441	0.171527	0.177530	0.201441	0.309266	0.306960	0.169316	0.337482	0.479545	0.230563	0.097774	0.195239	0.044099	0.099371	0.348404	0.260013	0.098330	0.476711	0.237320	0.262747	0.077410	0.446149	0.470223	0.392901	0.300181	0.127493	0.182197	0.276272	0.250048	0.066129	0.317284	0.893845	0.236082	0.098903	0.196752	0.134995	0.100912	0.114740	0.086892	0.702296	0.767723	0.030968	0.087141	0.221228	0.331824
98	0.388913	0.222011	0.545976	0.337622	0.023330	0.182642	0.091491	0.103338	0.294579	0.211458	0.420472	0.240120	0.319956	0.106106	0.246634	0.324221	0.302520	0.216663	0.200883	0.174653	0.035448	0.085038	0.319905	0.278828	0.047194	0.147738	0.496634	0.606791	0.172773	0.143073	0.128486	0.116140	0.456073	0.200177	0.924261	0.364536	0.186643	0.181394	0.202519	0.327512	0.348262	0.198375	0.269611	0.615907	0.241610	0.111778	0.177561	0.045401	0.101501	0.371194	0.245734	0.100692	0.441750	0.229977	0.266217	0.079235	0.363134	0.358271	0.538556	0.286822	0.137360	0.192872	0.259665	0.212857	0.070185	0.322739	0.963622	0.230152	0.089068	0.148421	0.131271	0.095255	0.118894	0.078715	0.740940	0.724098	0.030465	0.089420	0.223519	0.337129
99	0.377483	0.204957	0.443441	0.363760	0.030243	0.278712	0.106049	0.132034	0.292456	0.200893	0.676910	0.331901	0.315428	0.096072	0.242254	0.301382	0.229001	0.140673	0.179634	0.173290	0.031851	0.076003	0.349155	0.275698	0.044091	0.132399	0.466068	0.638154	0.150502	0.145378	0.129786	0.115856	0.546189	0.206115	0.842960	0.335676	0.201136	0.185161	0.203555	0.332753	0.365841	0.214661	0.293225	0.688884	0.210738	0.104452	0.177275	0.048249	0.102611	0.381500	0.167420	0.104627	0.437008	0.219530	0.266732	0.080903	0.272032	0.219198	0.550241	0.306649	0.187611	0.198045	0.233500	0.210402	0.069226	0.323949	0.969228	0.302868	0.116093	0.108289	0.080675	0.082979	0.124608	0.082331	0.742151	0.734735	0.030290	0.090985	0.222271	0.335893
100	0.326775	0.162383	0.775851	0.406431	0.035344	0.284162	0.110738	0.168781	0.269798	0.152518	0.728473	0.337073	0.317548	0.097617	0.245344	0.315100	0.109374	0.077739	0.148039	0.170421	0.027701	0.066035	0.340503	0.295626	0.049197	0.125656	0.371460	0.517441	0.118729	0.152850	0.141077	0.117260	0.539043	0.201388	0.649888	0.332056	0.216317	0.194131	0.203967	0.332624	0.387646	0.228353	0.517538	0.650081	0.253704	0.110458	0.162894	0.049761	0.102904	0.386411	0.142715	0.112592	0.397214	0.176793	0.267592	0.080769	0.273493	0.207373	0.553222	0.295210	0.193931	0.199867	0.233520	0.195673	0.067985	0.324243	0.949849	0.309075	0.125358	0.111782	0.060877	0.061944	0.187124	0.117813	0.733364	0.600878	0.028868	0.090554	0.214817	0.311208
101	0.255684	0.105029	0.810906	0.464390	0.036061	0.286537	0.113865	0.184211	0.204305	0.139255	0.949835	0.354407	0.233111	0.079222	0.277114	0.319632	0.068842	0.050767	0.138634	0.171146	0.027258	0.066749	0.352992	0.303232	0.049757	0.096141	0.351578	0.475758	0.112855	0.159989	0.141672	0.124859	0.528194	0.202403	0.617090	0.334846	0.224310	0.203794	0.182646	0.320590	0.385603	0.226782	0.651723	0.637656	0.306426	0.137154	0.118736	0.049021	0.093623	0.345633	0.142252	0.123209	0.233961	0.087257	0.266857	0.074577	0.271970	0.214497	0.547628	0.264634	0.191544	0.207529	0.211434	0.172226	0.069374	0.282044	0.954230	0.314202	0.146054	0.107687	0.060979	0.055263	0.341688	0.217462	0.753985	0.488129	0.028965	0.091791	0.227093	0.310280
