	205_C_T1_sh_ND_01.c3d	205_C_T1_sh_ND_01.c3d	205_C_T1_sh_ND_01.c3d	205_C_T1_sh_ND_01.c3d	205_C_T1_sh_ND_01.c3d	205_C_T1_sh_ND_01.c3d	205_C_T1_sh_ND_01.c3d	205_C_T1_sh_ND_01.c3d	205_C_T1_sh_ND_02.c3d	205_C_T1_sh_ND_02.c3d	205_C_T1_sh_ND_02.c3d	205_C_T1_sh_ND_02.c3d	205_C_T1_sh_ND_02.c3d	205_C_T1_sh_ND_02.c3d	205_C_T1_sh_ND_02.c3d	205_C_T1_sh_ND_02.c3d	205_C_T1_sh_ND_04.c3d	205_C_T1_sh_ND_04.c3d	205_C_T1_sh_ND_04.c3d	205_C_T1_sh_ND_04.c3d	205_C_T1_sh_ND_04.c3d	205_C_T1_sh_ND_04.c3d	205_C_T1_sh_ND_04.c3d	205_C_T1_sh_ND_04.c3d	205_C_T1_sh_ND_05.c3d	205_C_T1_sh_ND_05.c3d	205_C_T1_sh_ND_05.c3d	205_C_T1_sh_ND_05.c3d	205_C_T1_sh_ND_05.c3d	205_C_T1_sh_ND_05.c3d	205_C_T1_sh_ND_05.c3d	205_C_T1_sh_ND_05.c3d	205_C_T1_sh_ND_06.c3d	205_C_T1_sh_ND_06.c3d	205_C_T1_sh_ND_06.c3d	205_C_T1_sh_ND_06.c3d	205_C_T1_sh_ND_06.c3d	205_C_T1_sh_ND_06.c3d	205_C_T1_sh_ND_06.c3d	205_C_T1_sh_ND_06.c3d	205_C_T1_sh_ND_07.c3d	205_C_T1_sh_ND_07.c3d	205_C_T1_sh_ND_07.c3d	205_C_T1_sh_ND_07.c3d	205_C_T1_sh_ND_07.c3d	205_C_T1_sh_ND_07.c3d	205_C_T1_sh_ND_07.c3d	205_C_T1_sh_ND_07.c3d	205_C_T1_sh_ND_08.c3d	205_C_T1_sh_ND_08.c3d	205_C_T1_sh_ND_08.c3d	205_C_T1_sh_ND_08.c3d	205_C_T1_sh_ND_08.c3d	205_C_T1_sh_ND_08.c3d	205_C_T1_sh_ND_08.c3d	205_C_T1_sh_ND_08.c3d	205_C_T1_sh_ND_09.c3d	205_C_T1_sh_ND_09.c3d	205_C_T1_sh_ND_09.c3d	205_C_T1_sh_ND_09.c3d	205_C_T1_sh_ND_09.c3d	205_C_T1_sh_ND_09.c3d	205_C_T1_sh_ND_09.c3d	205_C_T1_sh_ND_09.c3d	205_C_T1_sh_ND_10.c3d	205_C_T1_sh_ND_10.c3d	205_C_T1_sh_ND_10.c3d	205_C_T1_sh_ND_10.c3d	205_C_T1_sh_ND_10.c3d	205_C_T1_sh_ND_10.c3d	205_C_T1_sh_ND_10.c3d	205_C_T1_sh_ND_10.c3d
	Biceps femoris_lat	Semitendinosus_lat	Vastus lateralis_lat	Vastus medialis_lat	Biceps femoris_med	Semitendinosus_med	Vastus lateralis_med	Vastus medialis_med	Biceps femoris_lat	Semitendinosus_lat	Vastus lateralis_lat	Vastus medialis_lat	Biceps femoris_med	Semitendinosus_med	Vastus lateralis_med	Vastus medialis_med	Biceps femoris_lat	Semitendinosus_lat	Vastus lateralis_lat	Vastus medialis_lat	Biceps femoris_med	Semitendinosus_med	Vastus lateralis_med	Vastus medialis_med	Biceps femoris_lat	Semitendinosus_lat	Vastus lateralis_lat	Vastus medialis_lat	Biceps femoris_med	Semitendinosus_med	Vastus lateralis_med	Vastus medialis_med	Biceps femoris_lat	Semitendinosus_lat	Vastus lateralis_lat	Vastus medialis_lat	Biceps femoris_med	Semitendinosus_med	Vastus lateralis_med	Vastus medialis_med	Biceps femoris_lat	Semitendinosus_lat	Vastus lateralis_lat	Vastus medialis_lat	Biceps femoris_med	Semitendinosus_med	Vastus lateralis_med	Vastus medialis_med	Biceps femoris_lat	Semitendinosus_lat	Vastus lateralis_lat	Vastus medialis_lat	Biceps femoris_med	Semitendinosus_med	Vastus lateralis_med	Vastus medialis_med	Biceps femoris_lat	Semitendinosus_lat	Vastus lateralis_lat	Vastus medialis_lat	Biceps femoris_med	Semitendinosus_med	Vastus lateralis_med	Vastus medialis_med	Biceps femoris_lat	Semitendinosus_lat	Vastus lateralis_lat	Vastus medialis_lat	Biceps femoris_med	Semitendinosus_med	Vastus lateralis_med	Vastus medialis_med
	P2D	P2D	P2D	P2D	P2D	P2D	P2D	P2D	P2D	P2D	P2D	P2D	P2D	P2D	P2D	P2D	P2D	P2D	P2D	P2D	P2D	P2D	P2D	P2D	P2D	P2D	P2D	P2D	P2D	P2D	P2D	P2D	P2D	P2D	P2D	P2D	P2D	P2D	P2D	P2D	P2D	P2D	P2D	P2D	P2D	P2D	P2D	P2D	P2D	P2D	P2D	P2D	P2D	P2D	P2D	P2D	P2D	P2D	P2D	P2D	P2D	P2D	P2D	P2D	P2D	P2D	P2D	P2D	P2D	P2D	P2D	P2D
	EMG_lat	EMG_lat	EMG_lat	EMG_lat	EMG_med	EMG_med	EMG_med	EMG_med	EMG_lat	EMG_lat	EMG_lat	EMG_lat	EMG_med	EMG_med	EMG_med	EMG_med	EMG_lat	EMG_lat	EMG_lat	EMG_lat	EMG_med	EMG_med	EMG_med	EMG_med	EMG_lat	EMG_lat	EMG_lat	EMG_lat	EMG_med	EMG_med	EMG_med	EMG_med	EMG_lat	EMG_lat	EMG_lat	EMG_lat	EMG_med	EMG_med	EMG_med	EMG_med	EMG_lat	EMG_lat	EMG_lat	EMG_lat	EMG_med	EMG_med	EMG_med	EMG_med	EMG_lat	EMG_lat	EMG_lat	EMG_lat	EMG_med	EMG_med	EMG_med	EMG_med	EMG_lat	EMG_lat	EMG_lat	EMG_lat	EMG_med	EMG_med	EMG_med	EMG_med	EMG_lat	EMG_lat	EMG_lat	EMG_lat	EMG_med	EMG_med	EMG_med	EMG_med
ITEM	Y	Y	Y	Y	Y	Y	Y	Y	Y	Y	Y	Y	Y	Y	Y	Y	Y	Y	Y	Y	Y	Y	Y	Y	Y	Y	Y	Y	Y	Y	Y	Y	Y	Y	Y	Y	Y	Y	Y	Y	Y	Y	Y	Y	Y	Y	Y	Y	Y	Y	Y	Y	Y	Y	Y	Y	Y	Y	Y	Y	Y	Y	Y	Y	Y	Y	Y	Y	Y	Y	Y	Y
1	0.518073	0.462034	0.099299	0.102147	0.518031	0.480079	0.278662	0.071354	0.527649	0.287254	0.079972	0.060428	0.418016	0.225770	0.164968	0.067396	0.438806	0.400088	0.181625	0.140626	0.379974	0.341024	0.222174	0.040431	0.454459	0.373713	0.247372	0.090493	0.284710	0.285929	0.195923	0.137309	0.440853	0.382864	0.131995	0.084213	0.316086	0.317759	0.256132	0.111828	0.244466	0.214614	0.237936	0.129427	0.341189	0.223318	0.280210	0.116453	0.272217	0.207551	0.229700	0.061329	0.247468	0.317967	0.244347	0.082005	0.163203	0.064138	0.321516	0.058702	0.256355	0.214532	0.139081	0.047299	0.196104	0.201303	0.158201	0.034315	0.304541	0.234673	0.251766	0.113453
2	0.517472	0.466109	0.080671	0.124074	0.484448	0.471685	0.235960	0.069559	0.461030	0.236326	0.078008	0.060194	0.350066	0.170622	0.183808	0.083549	0.424684	0.398687	0.231890	0.190553	0.382240	0.339830	0.211848	0.064338	0.472062	0.385567	0.262336	0.092907	0.240850	0.263340	0.197815	0.137994	0.403805	0.313444	0.177302	0.086495	0.307850	0.306994	0.260350	0.113206	0.241060	0.193025	0.334328	0.128513	0.313085	0.202482	0.280713	0.117243	0.264730	0.204935	0.231533	0.068555	0.249723	0.314444	0.276267	0.081339	0.162675	0.065794	0.323450	0.058303	0.253550	0.188102	0.149881	0.068638	0.196760	0.203005	0.156728	0.067940	0.305578	0.235642	0.257060	0.148788
3	0.504423	0.463174	0.104069	0.135827	0.412986	0.447497	0.208573	0.088828	0.319426	0.173714	0.084957	0.057979	0.306735	0.142062	0.186119	0.090693	0.426051	0.397215	0.258838	0.205925	0.326840	0.308385	0.206549	0.085994	0.465130	0.376840	0.279296	0.098814	0.239003	0.227236	0.198378	0.144951	0.393817	0.294245	0.194736	0.097616	0.263043	0.276969	0.261621	0.113082	0.235637	0.174532	0.396434	0.141974	0.290609	0.186985	0.290629	0.142866	0.254139	0.191667	0.232462	0.087303	0.250877	0.317765	0.290265	0.081128	0.155451	0.065247	0.336040	0.058718	0.250589	0.186338	0.176164	0.072153	0.210971	0.207974	0.156462	0.119022	0.294439	0.233049	0.254125	0.209831
4	0.504523	0.463865	0.114362	0.136768	0.359940	0.419654	0.190171	0.091293	0.279737	0.183097	0.107941	0.069510	0.300999	0.139427	0.184851	0.091492	0.426181	0.397710	0.293832	0.208124	0.297222	0.259621	0.211732	0.091953	0.420787	0.335514	0.295647	0.105951	0.241113	0.219404	0.203480	0.146019	0.306356	0.261563	0.193775	0.109090	0.221002	0.269259	0.265844	0.128940	0.232552	0.150820	0.468040	0.222027	0.284865	0.181091	0.320806	0.198881	0.230855	0.181897	0.252170	0.140702	0.262089	0.320516	0.301443	0.113749	0.168364	0.061295	0.347329	0.056849	0.249778	0.178175	0.210500	0.082210	0.224551	0.212036	0.164615	0.141047	0.279808	0.231306	0.277129	0.261515
5	0.494422	0.452224	0.115576	0.141060	0.296101	0.371160	0.180945	0.091530	0.282229	0.193902	0.116891	0.080494	0.273459	0.107853	0.182450	0.091029	0.392932	0.379809	0.323620	0.226031	0.268086	0.215916	0.249427	0.093573	0.358532	0.264990	0.324330	0.125834	0.242025	0.219544	0.212611	0.142073	0.263114	0.237228	0.193762	0.123079	0.211041	0.266464	0.263393	0.209521	0.229532	0.145963	0.476152	0.233239	0.290943	0.181982	0.468467	0.204582	0.234905	0.175833	0.299507	0.173866	0.268573	0.316036	0.319731	0.131994	0.165909	0.051886	0.349814	0.089525	0.248272	0.155799	0.249604	0.085695	0.271350	0.239529	0.193012	0.144759	0.260268	0.211127	0.323815	0.275984
6	0.426794	0.379853	0.143115	0.160266	0.181876	0.272429	0.179740	0.091137	0.281680	0.199582	0.120378	0.081812	0.237662	0.105124	0.182968	0.087863	0.414713	0.369978	0.388015	0.234249	0.192912	0.132085	0.276405	0.096774	0.333320	0.250623	0.351118	0.158152	0.231420	0.178713	0.220463	0.134870	0.236279	0.257879	0.214946	0.222215	0.145886	0.197196	0.251019	0.256669	0.188145	0.097555	0.497913	0.230672	0.303396	0.182466	0.536511	0.215555	0.174219	0.112996	0.307014	0.176240	0.255252	0.293307	0.333767	0.137377	0.160348	0.055243	0.344858	0.107455	0.244952	0.148713	0.269816	0.121037	0.293097	0.223310	0.187552	0.159989	0.296258	0.210376	0.372389	0.276504
7	0.359512	0.318556	0.180590	0.174568	0.108144	0.210040	0.194391	0.088454	0.274154	0.194589	0.120334	0.092556	0.221790	0.101579	0.177158	0.094547	0.436924	0.380424	0.389287	0.235171	0.185605	0.124462	0.276329	0.107087	0.344503	0.270902	0.325981	0.173467	0.255477	0.156689	0.227132	0.134010	0.232264	0.368427	0.218627	0.293203	0.129232	0.164980	0.252561	0.272919	0.207634	0.099053	0.513592	0.277706	0.302281	0.182675	0.537166	0.243701	0.118826	0.069452	0.305178	0.197713	0.228047	0.249068	0.346000	0.141825	0.193621	0.086691	0.349014	0.111555	0.237421	0.148363	0.281002	0.135063	0.295384	0.217694	0.192939	0.187877	0.317295	0.215316	0.366090	0.320294
8	0.365580	0.315596	0.210024	0.178041	0.106810	0.205315	0.194950	0.088019	0.241330	0.179691	0.125312	0.120731	0.180395	0.092744	0.191034	0.122285	0.455440	0.393668	0.403089	0.235359	0.181869	0.122462	0.291534	0.143971	0.326036	0.271808	0.367847	0.172561	0.266678	0.156373	0.298993	0.142099	0.228076	0.505512	0.225649	0.299537	0.162939	0.196784	0.273445	0.273852	0.259954	0.125283	0.651577	0.309429	0.302974	0.183199	0.538619	0.247685	0.114677	0.065254	0.299829	0.240977	0.262923	0.248381	0.353424	0.173345	0.234340	0.119687	0.364089	0.112598	0.221389	0.140435	0.307102	0.136620	0.301231	0.219448	0.233422	0.207592	0.289214	0.195822	0.369136	0.369384
9	0.385380	0.303737	0.238249	0.173251	0.100422	0.194171	0.194732	0.091433	0.191729	0.186748	0.126938	0.122235	0.155354	0.085389	0.255647	0.162195	0.434559	0.397510	0.417738	0.236606	0.173391	0.120528	0.300485	0.148454	0.362913	0.286023	0.391643	0.200613	0.262498	0.152656	0.348608	0.161819	0.220280	0.563430	0.273747	0.365036	0.182599	0.217306	0.275607	0.280591	0.292898	0.153326	0.708384	0.338784	0.290392	0.169791	0.555329	0.247174	0.198143	0.125577	0.338036	0.243021	0.269892	0.249300	0.474606	0.193863	0.235931	0.125094	0.338991	0.119605	0.220592	0.136087	0.321786	0.140354	0.317722	0.223403	0.247739	0.221610	0.280440	0.193568	0.387981	0.412349
10	0.363339	0.270876	0.240636	0.183651	0.087699	0.202865	0.194668	0.113186	0.172274	0.214725	0.138282	0.142945	0.151146	0.090059	0.264934	0.182199	0.412115	0.393177	0.419399	0.237875	0.166956	0.119121	0.283230	0.148643	0.379782	0.290556	0.415093	0.267492	0.262971	0.154014	0.346455	0.183163	0.199532	0.568744	0.320775	0.451443	0.178129	0.218033	0.228728	0.279037	0.304949	0.162264	0.761678	0.360081	0.290883	0.168225	0.572022	0.276027	0.264204	0.169111	0.327883	0.245537	0.266894	0.236874	0.553004	0.194869	0.233948	0.125696	0.362459	0.131217	0.205013	0.123546	0.336001	0.147991	0.337994	0.226495	0.250575	0.223029	0.288212	0.194386	0.419536	0.442086
11	0.268728	0.199309	0.255430	0.245082	0.083207	0.221441	0.190017	0.148521	0.150238	0.236697	0.161727	0.164167	0.178075	0.106493	0.293558	0.213214	0.379624	0.338294	0.413618	0.227664	0.165952	0.116200	0.267571	0.163942	0.432243	0.299603	0.460560	0.280531	0.263662	0.154111	0.376919	0.193258	0.291785	0.611420	0.382068	0.480037	0.175405	0.220365	0.296949	0.285316	0.306097	0.167396	0.804144	0.364205	0.265105	0.151151	0.543301	0.311376	0.272739	0.175445	0.312777	0.247799	0.260495	0.215640	0.553597	0.203986	0.233459	0.126126	0.415381	0.134124	0.155549	0.087070	0.345400	0.154834	0.339469	0.226189	0.253816	0.224102	0.333692	0.218798	0.481929	0.447202
12	0.243690	0.146893	0.274983	0.261372	0.080440	0.246319	0.209605	0.157087	0.139309	0.240454	0.198246	0.169030	0.228419	0.122889	0.345550	0.279356	0.314050	0.225104	0.378466	0.186600	0.157611	0.107804	0.304084	0.201668	0.454624	0.288153	0.480381	0.281622	0.261893	0.159036	0.467385	0.203075	0.355914	0.660826	0.397508	0.480993	0.184826	0.217886	0.328672	0.302645	0.304726	0.167524	0.795468	0.364569	0.234962	0.118960	0.530507	0.314724	0.273602	0.176085	0.318960	0.252445	0.261190	0.208626	0.538308	0.200424	0.237439	0.128942	0.467910	0.155963	0.127218	0.087290	0.360234	0.157266	0.339701	0.224258	0.253580	0.223410	0.371110	0.238628	0.536665	0.447692
13	0.281302	0.146704	0.374390	0.290240	0.095235	0.275554	0.197516	0.158345	0.172145	0.244298	0.220627	0.174967	0.224590	0.118521	0.347642	0.301830	0.316048	0.207419	0.356070	0.147853	0.137821	0.091276	0.325016	0.208938	0.496586	0.312416	0.472128	0.279387	0.252877	0.158775	0.492236	0.240083	0.357417	0.676116	0.384069	0.483703	0.221317	0.213870	0.338596	0.309523	0.305668	0.167727	0.756313	0.344897	0.253125	0.126794	0.535889	0.315815	0.293227	0.187720	0.321666	0.252877	0.261940	0.203484	0.518711	0.205827	0.239882	0.131328	0.465229	0.164373	0.119061	0.088245	0.360748	0.192324	0.331095	0.220498	0.256079	0.212985	0.391266	0.253729	0.549585	0.442728
14	0.305756	0.158488	0.406676	0.365969	0.100990	0.291087	0.200202	0.174460	0.186225	0.237520	0.222260	0.175528	0.233257	0.121847	0.394702	0.316462	0.351362	0.217722	0.336543	0.163650	0.144685	0.084350	0.341776	0.212133	0.509968	0.324144	0.456277	0.281349	0.246788	0.155541	0.498608	0.285926	0.355608	0.678703	0.369860	0.489606	0.229304	0.192391	0.340101	0.309687	0.319055	0.169420	0.731597	0.310790	0.255831	0.126937	0.536244	0.318115	0.301592	0.192767	0.321490	0.244137	0.262014	0.203057	0.509149	0.235086	0.232046	0.131433	0.454197	0.165266	0.133969	0.092024	0.372514	0.207307	0.316449	0.210464	0.255705	0.209378	0.395951	0.262945	0.548995	0.418986
15	0.370465	0.191222	0.469071	0.418796	0.104300	0.273172	0.204218	0.176776	0.179467	0.222667	0.212478	0.168924	0.245609	0.130924	0.438828	0.326502	0.354713	0.213292	0.332644	0.191337	0.145954	0.085821	0.417416	0.218910	0.514147	0.324172	0.440956	0.299129	0.224850	0.141263	0.501172	0.331459	0.349011	0.679684	0.369076	0.487984	0.232825	0.175353	0.354558	0.281767	0.320018	0.168941	0.732264	0.308063	0.259585	0.127675	0.531966	0.292155	0.298586	0.192091	0.301707	0.217952	0.258708	0.188608	0.504436	0.261627	0.234393	0.133377	0.469617	0.181746	0.162765	0.099243	0.378215	0.210206	0.253781	0.144556	0.243103	0.211461	0.404637	0.268470	0.541316	0.386873
16	0.439784	0.233081	0.581526	0.435290	0.106969	0.245418	0.201600	0.173197	0.171745	0.211271	0.213145	0.167773	0.248049	0.132175	0.449684	0.360920	0.349971	0.213166	0.329245	0.192753	0.141702	0.089394	0.425127	0.224256	0.505378	0.323557	0.401250	0.303727	0.243063	0.136530	0.533906	0.354156	0.351039	0.675735	0.369179	0.487665	0.232710	0.173850	0.383680	0.220823	0.293393	0.149157	0.712617	0.299796	0.261699	0.123533	0.459294	0.278257	0.294099	0.191190	0.267036	0.210024	0.258373	0.166521	0.510748	0.257753	0.235368	0.133560	0.470242	0.189880	0.166145	0.094582	0.380879	0.198571	0.211190	0.096060	0.259943	0.211154	0.405590	0.268338	0.518251	0.364650
17	0.478273	0.257997	0.635036	0.432044	0.103395	0.241580	0.197531	0.172255	0.179380	0.208656	0.234398	0.169762	0.251277	0.134814	0.451187	0.385201	0.318453	0.202809	0.301347	0.203237	0.148434	0.095274	0.432806	0.225699	0.511377	0.326784	0.411390	0.292011	0.290894	0.154802	0.611508	0.366725	0.386272	0.666057	0.372178	0.463911	0.234389	0.184512	0.392734	0.197708	0.287372	0.142353	0.678370	0.243000	0.234913	0.115171	0.328749	0.283928	0.316085	0.200715	0.319669	0.261382	0.269576	0.183798	0.506951	0.251202	0.221961	0.125550	0.472844	0.186455	0.165881	0.094222	0.376116	0.185425	0.208908	0.091088	0.253037	0.187954	0.378226	0.255878	0.492483	0.380130
18	0.492205	0.267360	0.643531	0.425752	0.097891	0.241800	0.199513	0.182478	0.216434	0.213240	0.246504	0.180309	0.268636	0.145605	0.445401	0.382066	0.289944	0.182419	0.307298	0.207551	0.132556	0.088206	0.435837	0.214635	0.516918	0.288335	0.418758	0.290735	0.318622	0.173784	0.672443	0.373886	0.387832	0.625641	0.383231	0.417757	0.232102	0.177309	0.458119	0.206533	0.225406	0.108486	0.557910	0.215479	0.235564	0.121059	0.313524	0.278062	0.314284	0.198614	0.446616	0.281256	0.264809	0.189642	0.502508	0.258578	0.184436	0.102334	0.447623	0.198323	0.165197	0.092933	0.365422	0.182781	0.201100	0.086524	0.211448	0.173454	0.373400	0.257796	0.515915	0.394179
19	0.490454	0.268645	0.635687	0.425397	0.097662	0.242352	0.191557	0.192722	0.227560	0.203751	0.251717	0.200796	0.299806	0.158272	0.425738	0.364635	0.255924	0.156038	0.280785	0.248733	0.131274	0.087724	0.427926	0.197333	0.489355	0.261584	0.370985	0.289259	0.304408	0.176562	0.689944	0.375292	0.390958	0.526349	0.383245	0.429043	0.202343	0.152943	0.518099	0.201834	0.182813	0.077473	0.512060	0.179417	0.242439	0.124304	0.336783	0.270606	0.323960	0.200960	0.496952	0.275692	0.251096	0.173025	0.492414	0.278306	0.137268	0.069396	0.419712	0.198980	0.161969	0.089967	0.355758	0.181324	0.173838	0.073575	0.193762	0.176511	0.377947	0.256629	0.587137	0.370662
20	0.479846	0.266303	0.637657	0.427883	0.100979	0.240823	0.219980	0.195849	0.234048	0.182601	0.287798	0.212156	0.311843	0.159614	0.420718	0.365241	0.246119	0.149788	0.288408	0.277334	0.128597	0.088316	0.434506	0.203793	0.479271	0.256931	0.389006	0.242232	0.316841	0.198603	0.668024	0.368214	0.378545	0.438857	0.352466	0.396035	0.208143	0.204505	0.545900	0.199630	0.164017	0.075374	0.396756	0.143033	0.235819	0.116942	0.323988	0.273919	0.325630	0.248241	0.476351	0.276784	0.208646	0.148244	0.488907	0.269702	0.129714	0.066231	0.392589	0.222622	0.161103	0.096417	0.378928	0.175285	0.116477	0.045663	0.272459	0.203779	0.390972	0.260317	0.572391	0.324853
21	0.470318	0.263772	0.655909	0.426402	0.117497	0.236812	0.234240	0.201582	0.240989	0.148365	0.338234	0.202716	0.287244	0.145227	0.386164	0.349266	0.251692	0.150138	0.336880	0.290756	0.134082	0.092473	0.435139	0.208770	0.446180	0.241964	0.385704	0.216312	0.329671	0.220796	0.654602	0.362059	0.365076	0.425100	0.331637	0.319052	0.216113	0.208508	0.528292	0.194741	0.156911	0.072008	0.270626	0.134023	0.235896	0.113741	0.288333	0.262483	0.386236	0.357403	0.471396	0.273364	0.193480	0.144462	0.361776	0.263386	0.124455	0.070370	0.377497	0.263895	0.166876	0.113712	0.421447	0.179285	0.095065	0.046632	0.296487	0.230562	0.407638	0.265285	0.561768	0.269219
22	0.469323	0.262504	0.660559	0.401448	0.122787	0.224944	0.238637	0.227402	0.283520	0.169736	0.369039	0.188098	0.257608	0.132420	0.347569	0.310265	0.254208	0.138038	0.408899	0.299149	0.135596	0.098012	0.434016	0.187213	0.389121	0.219671	0.388018	0.263429	0.329154	0.221340	0.654540	0.373987	0.313884	0.369103	0.231002	0.283913	0.224470	0.211057	0.505813	0.178953	0.165262	0.074542	0.230607	0.145744	0.232987	0.109142	0.269263	0.211819	0.403775	0.375552	0.473144	0.272616	0.165604	0.147798	0.288463	0.265717	0.130680	0.080268	0.295858	0.279009	0.158336	0.110265	0.447219	0.237403	0.091516	0.051982	0.302891	0.268666	0.388531	0.255143	0.523240	0.249940
23	0.467571	0.261647	0.658383	0.375667	0.144887	0.224217	0.302200	0.225946	0.379405	0.236177	0.362676	0.189578	0.264230	0.132410	0.344918	0.313469	0.243585	0.127652	0.419572	0.336459	0.130652	0.098426	0.400310	0.169633	0.336435	0.204418	0.422407	0.294654	0.339962	0.225331	0.625423	0.397040	0.238185	0.236024	0.200038	0.288719	0.198266	0.210520	0.503532	0.163053	0.164773	0.071741	0.234554	0.146088	0.227703	0.108396	0.304005	0.206664	0.415852	0.410069	0.477671	0.268695	0.173013	0.173489	0.399405	0.265932	0.155980	0.095636	0.293730	0.269131	0.154825	0.115971	0.449437	0.270106	0.113712	0.064706	0.316384	0.273043	0.344676	0.226942	0.457611	0.256354
24	0.461915	0.252823	0.638421	0.372841	0.180146	0.224763	0.367017	0.223899	0.409893	0.240395	0.355990	0.195612	0.251186	0.129549	0.280738	0.322275	0.225723	0.121819	0.420410	0.343136	0.124153	0.103584	0.398199	0.161426	0.306986	0.178581	0.449449	0.298305	0.335144	0.225105	0.562120	0.396166	0.279458	0.157472	0.201797	0.295009	0.166755	0.210063	0.505708	0.158214	0.149612	0.070001	0.253106	0.181598	0.188441	0.094296	0.370257	0.302762	0.403621	0.432175	0.487693	0.291614	0.175752	0.178160	0.550390	0.278922	0.175918	0.101899	0.315991	0.279031	0.180200	0.152651	0.437105	0.274015	0.159160	0.117226	0.314088	0.302939	0.307781	0.198772	0.424243	0.261175
25	0.427180	0.229443	0.596706	0.313525	0.198444	0.219510	0.372851	0.225773	0.418571	0.259342	0.356316	0.209215	0.248665	0.153173	0.213976	0.313716	0.168037	0.101120	0.435893	0.380457	0.111605	0.105699	0.373061	0.162786	0.293625	0.170797	0.453973	0.282037	0.346829	0.262359	0.557567	0.373124	0.306073	0.135199	0.200348	0.282790	0.166070	0.230229	0.528921	0.158121	0.156755	0.087502	0.291202	0.285765	0.185757	0.096469	0.403958	0.367015	0.410116	0.458094	0.489842	0.312294	0.180402	0.197555	0.590314	0.270201	0.180809	0.102498	0.307595	0.322177	0.247515	0.203070	0.413096	0.272707	0.180065	0.134430	0.343001	0.350840	0.290267	0.183110	0.420606	0.266059
26	0.408659	0.221876	0.585585	0.215537	0.217709	0.251235	0.372943	0.215004	0.440176	0.267481	0.356936	0.214743	0.251843	0.169461	0.194006	0.274052	0.188024	0.100927	0.434766	0.441652	0.105866	0.103811	0.303834	0.188735	0.304091	0.201745	0.452665	0.257424	0.353894	0.273386	0.565981	0.338603	0.330976	0.123547	0.199828	0.285353	0.173542	0.275985	0.568733	0.162356	0.202255	0.129501	0.316363	0.379606	0.185378	0.110489	0.416359	0.379536	0.420531	0.486737	0.486176	0.322020	0.186559	0.226164	0.591454	0.244825	0.165811	0.104639	0.286173	0.333217	0.263002	0.220288	0.399438	0.271348	0.180938	0.140098	0.394836	0.371148	0.283659	0.177914	0.440122	0.269943
27	0.310957	0.174329	0.484287	0.143843	0.237961	0.309647	0.369731	0.204746	0.448871	0.270389	0.350112	0.214077	0.244289	0.175423	0.188032	0.265445	0.195215	0.100288	0.426852	0.445340	0.086631	0.096188	0.260440	0.205924	0.306905	0.215771	0.444157	0.268957	0.392243	0.332067	0.561222	0.295771	0.333329	0.128631	0.199336	0.298132	0.173472	0.336702	0.622773	0.159853	0.260790	0.170059	0.328301	0.396279	0.167847	0.130966	0.417265	0.378827	0.417703	0.497595	0.497767	0.359301	0.183594	0.244544	0.590182	0.225318	0.178265	0.130681	0.319323	0.325821	0.264769	0.223626	0.387002	0.273824	0.212685	0.183465	0.422624	0.383171	0.277315	0.164420	0.488828	0.270176
28	0.225737	0.117631	0.393152	0.129665	0.239755	0.321227	0.374160	0.204802	0.549426	0.350278	0.364240	0.209024	0.213025	0.173631	0.157971	0.265567	0.227326	0.122133	0.423241	0.476327	0.077915	0.095547	0.251823	0.205664	0.300851	0.240941	0.423200	0.339577	0.377596	0.356936	0.528659	0.268299	0.328787	0.170636	0.185794	0.308133	0.168816	0.391826	0.632821	0.131681	0.280262	0.178326	0.310099	0.396361	0.171814	0.167539	0.413297	0.376167	0.408588	0.497128	0.459114	0.356830	0.148425	0.239495	0.589857	0.227448	0.196431	0.155268	0.355660	0.323827	0.265655	0.224021	0.390230	0.287021	0.229312	0.204926	0.420987	0.387509	0.284371	0.162240	0.506518	0.260747
29	0.164054	0.068897	0.340847	0.133834	0.260661	0.330019	0.375542	0.218992	0.655346	0.440140	0.409426	0.202874	0.171147	0.164747	0.141971	0.269773	0.223803	0.126473	0.440967	0.563264	0.099859	0.103619	0.260293	0.212083	0.305590	0.315941	0.407327	0.422368	0.338511	0.367806	0.443727	0.251292	0.397857	0.207704	0.190397	0.314441	0.162490	0.412631	0.554923	0.120945	0.278600	0.176247	0.301700	0.445968	0.175828	0.192041	0.404306	0.368255	0.413712	0.498789	0.402398	0.362056	0.133275	0.227184	0.585532	0.233596	0.208243	0.162591	0.379505	0.318420	0.278092	0.229577	0.406086	0.315848	0.232914	0.207751	0.415775	0.380395	0.250260	0.138179	0.505198	0.221206
30	0.155959	0.046879	0.338326	0.129929	0.279878	0.374937	0.374761	0.276925	0.671136	0.491375	0.403556	0.195159	0.159846	0.159895	0.244439	0.287178	0.231358	0.125624	0.480475	0.572673	0.099203	0.107857	0.253975	0.266500	0.317144	0.342800	0.399114	0.466021	0.305666	0.367133	0.369032	0.253412	0.435988	0.210887	0.204017	0.292476	0.149196	0.397203	0.508065	0.123927	0.276329	0.171954	0.316955	0.519060	0.162362	0.200811	0.394136	0.359410	0.409887	0.493237	0.385383	0.365137	0.138887	0.224101	0.590048	0.221232	0.211112	0.163571	0.405878	0.316125	0.293986	0.237951	0.428486	0.347584	0.233835	0.208277	0.366768	0.385788	0.210707	0.115358	0.435624	0.195659
31	0.160510	0.045721	0.355282	0.120960	0.284595	0.450190	0.400120	0.374682	0.700658	0.521664	0.373944	0.185567	0.161358	0.159598	0.335238	0.298716	0.266280	0.128766	0.525926	0.564236	0.098871	0.113099	0.245123	0.304130	0.324156	0.359218	0.356468	0.466672	0.294494	0.374410	0.346224	0.264312	0.436634	0.208502	0.232164	0.284602	0.140270	0.380904	0.498983	0.123137	0.284191	0.179319	0.367177	0.553654	0.144919	0.198781	0.379203	0.359291	0.346482	0.437873	0.378814	0.381907	0.144175	0.226995	0.592906	0.189980	0.211325	0.178355	0.406037	0.289106	0.307145	0.244145	0.403509	0.347632	0.247162	0.227442	0.368988	0.410352	0.191761	0.109678	0.395307	0.222274
32	0.151395	0.043820	0.322952	0.198338	0.288888	0.535721	0.427635	0.418521	0.727049	0.532852	0.321857	0.192096	0.158480	0.158984	0.347331	0.300878	0.295218	0.136789	0.495830	0.575493	0.226525	0.120407	0.236789	0.314939	0.325206	0.365227	0.320718	0.489770	0.300644	0.378184	0.335917	0.281848	0.454365	0.212953	0.304521	0.258985	0.104864	0.380480	0.494867	0.118708	0.300945	0.195849	0.440268	0.561799	0.129541	0.195893	0.381199	0.359838	0.255368	0.356683	0.376569	0.440212	0.185818	0.234657	0.586061	0.181852	0.207893	0.181475	0.396404	0.250872	0.309890	0.246396	0.351447	0.332328	0.318258	0.301175	0.383245	0.400635	0.166938	0.111236	0.405462	0.253751
33	0.144223	0.073215	0.306002	0.314570	0.296970	0.568313	0.463465	0.438897	0.703068	0.512637	0.284267	0.199063	0.185410	0.162112	0.348314	0.276377	0.305471	0.134482	0.452630	0.604154	0.388955	0.149283	0.281878	0.314732	0.332101	0.359131	0.281531	0.515244	0.302867	0.380733	0.325164	0.270754	0.456696	0.211007	0.360878	0.221541	0.100729	0.384168	0.479788	0.104267	0.329117	0.217683	0.454156	0.562404	0.125673	0.194829	0.398752	0.360655	0.247750	0.347927	0.366478	0.497474	0.213079	0.237836	0.583558	0.184569	0.202084	0.198499	0.390620	0.245471	0.310124	0.244142	0.337624	0.318499	0.344075	0.331129	0.380788	0.395481	0.173581	0.123551	0.410304	0.256325
34	0.151012	0.149994	0.392436	0.401479	0.334056	0.573949	0.506096	0.428221	0.650878	0.491062	0.311058	0.248279	0.253910	0.161242	0.349110	0.262193	0.312559	0.133779	0.462414	0.626970	0.400612	0.147473	0.280725	0.334121	0.347369	0.363598	0.238221	0.532767	0.315469	0.381122	0.349805	0.235299	0.449398	0.218338	0.370084	0.196570	0.100761	0.396905	0.476621	0.113998	0.354311	0.236723	0.433108	0.537696	0.126165	0.194903	0.389740	0.374625	0.251617	0.311632	0.370159	0.524519	0.212873	0.228832	0.569704	0.183541	0.176470	0.195811	0.373584	0.247468	0.308099	0.233315	0.335699	0.300036	0.331809	0.320786	0.382448	0.368219	0.189109	0.137050	0.420256	0.248097
35	0.185961	0.227822	0.515617	0.426819	0.331634	0.568696	0.522320	0.420642	0.635075	0.490170	0.365982	0.251510	0.256798	0.128968	0.348814	0.259958	0.312829	0.135325	0.461033	0.636224	0.401298	0.145451	0.279848	0.395530	0.366574	0.373080	0.213221	0.537588	0.314434	0.378313	0.372457	0.223004	0.424055	0.222550	0.372787	0.191234	0.101582	0.429469	0.465198	0.193366	0.348778	0.232459	0.409993	0.486849	0.128847	0.197639	0.336631	0.364362	0.282155	0.294576	0.367816	0.510635	0.201590	0.211261	0.473730	0.183754	0.170172	0.195475	0.394969	0.230948	0.341146	0.219773	0.348668	0.294220	0.320363	0.315808	0.353404	0.329817	0.195811	0.142712	0.424384	0.254162
36	0.203378	0.250596	0.567424	0.428622	0.314951	0.559298	0.493983	0.440277	0.629863	0.498684	0.380466	0.276108	0.256948	0.123840	0.361013	0.253470	0.310583	0.138623	0.448429	0.591100	0.413165	0.143653	0.291396	0.434060	0.375998	0.377586	0.228084	0.537746	0.311692	0.375213	0.362814	0.253774	0.419729	0.240033	0.380534	0.196464	0.079459	0.432887	0.409366	0.240084	0.314932	0.210021	0.396445	0.445084	0.146499	0.216545	0.260814	0.298935	0.282994	0.262547	0.368792	0.502791	0.201755	0.210884	0.312334	0.172388	0.171834	0.197328	0.448204	0.173439	0.344712	0.203826	0.360638	0.294152	0.317732	0.316851	0.277279	0.316819	0.195573	0.139667	0.415522	0.293773
37	0.204169	0.251009	0.572924	0.444152	0.300093	0.548459	0.492914	0.469345	0.620667	0.505467	0.381121	0.355252	0.261987	0.128245	0.368864	0.232395	0.295536	0.138095	0.473991	0.562970	0.443458	0.145730	0.404449	0.449205	0.386878	0.383169	0.255489	0.535274	0.306219	0.356934	0.340079	0.263208	0.410242	0.255386	0.384439	0.192017	0.110269	0.416334	0.303072	0.235948	0.265494	0.182937	0.397170	0.444682	0.171021	0.237002	0.220861	0.255171	0.269807	0.218521	0.365799	0.505333	0.195993	0.189024	0.266096	0.175006	0.172549	0.192998	0.450370	0.138726	0.350099	0.207758	0.370574	0.293867	0.336231	0.315944	0.239769	0.364173	0.206876	0.139438	0.414504	0.331839
38	0.208554	0.250744	0.576417	0.462410	0.290575	0.528328	0.490548	0.502708	0.622293	0.508171	0.404725	0.418358	0.261975	0.128057	0.369174	0.244213	0.281095	0.132214	0.477353	0.573745	0.476069	0.157614	0.473264	0.449166	0.388461	0.407076	0.345313	0.524611	0.302569	0.350901	0.330896	0.259272	0.404954	0.251949	0.391187	0.182329	0.187278	0.370643	0.186740	0.260460	0.265781	0.180300	0.403657	0.423912	0.193240	0.251599	0.213014	0.248471	0.263715	0.204187	0.351781	0.490232	0.190410	0.154922	0.263120	0.171510	0.160356	0.179203	0.424084	0.150395	0.352464	0.212597	0.396091	0.289114	0.385845	0.355841	0.335427	0.435726	0.221243	0.146127	0.383630	0.352257
39	0.203047	0.254365	0.580358	0.481354	0.284582	0.500790	0.493703	0.522361	0.501938	0.443797	0.412243	0.440397	0.265408	0.148767	0.365163	0.235950	0.255371	0.112524	0.469628	0.528496	0.488682	0.163724	0.481323	0.450633	0.360985	0.350702	0.405812	0.496457	0.282676	0.302506	0.355806	0.259363	0.394671	0.231059	0.410603	0.161974	0.197924	0.352109	0.161714	0.297987	0.270066	0.180105	0.398467	0.345536	0.198858	0.248033	0.220129	0.258694	0.261097	0.200529	0.331943	0.478239	0.193081	0.126550	0.263925	0.163634	0.145981	0.163096	0.394446	0.176758	0.346809	0.211935	0.390217	0.269965	0.398799	0.365902	0.442110	0.458147	0.288244	0.187739	0.492264	0.368488
40	0.201995	0.261281	0.578251	0.493374	0.291540	0.500521	0.506435	0.529937	0.427937	0.377056	0.404286	0.434211	0.261748	0.162880	0.284744	0.202187	0.256498	0.109557	0.456084	0.438114	0.489522	0.159126	0.478440	0.460343	0.401747	0.338047	0.443158	0.436230	0.297389	0.278521	0.360656	0.259557	0.343851	0.230504	0.433157	0.176474	0.248417	0.404868	0.197560	0.308648	0.272182	0.177025	0.370299	0.253751	0.193756	0.232654	0.222377	0.283549	0.274163	0.210674	0.331323	0.451868	0.208006	0.122872	0.255738	0.152775	0.143403	0.158687	0.376769	0.239318	0.337228	0.220193	0.352793	0.230634	0.408866	0.373605	0.554469	0.457896	0.332436	0.212871	0.578855	0.369790
41	0.199155	0.262186	0.577229	0.495821	0.274814	0.504288	0.508080	0.525725	0.454497	0.357757	0.407730	0.433242	0.263276	0.173876	0.172430	0.173195	0.250173	0.108055	0.392651	0.424304	0.489449	0.154760	0.491831	0.446330	0.456270	0.343602	0.462738	0.425853	0.302065	0.254335	0.359155	0.256979	0.274840	0.236538	0.440569	0.214254	0.289267	0.437556	0.199298	0.308762	0.261505	0.168118	0.298804	0.204321	0.183851	0.217532	0.214076	0.300051	0.283626	0.222729	0.319586	0.447826	0.204866	0.122024	0.246747	0.166711	0.142000	0.155428	0.359881	0.395572	0.318903	0.210241	0.315728	0.222335	0.412975	0.367836	0.587367	0.526331	0.333366	0.213311	0.556724	0.368778
42	0.190509	0.263897	0.568304	0.495734	0.255565	0.490241	0.507374	0.500991	0.409717	0.340094	0.406790	0.457806	0.267800	0.189375	0.161379	0.159650	0.214781	0.099311	0.328848	0.424208	0.501940	0.160545	0.585184	0.431785	0.455664	0.332591	0.486103	0.400500	0.302627	0.245717	0.416464	0.265266	0.281717	0.239397	0.455290	0.291297	0.291213	0.441743	0.196869	0.310312	0.240273	0.150889	0.218527	0.190316	0.189148	0.212822	0.203533	0.307535	0.282200	0.220051	0.353727	0.422767	0.202263	0.122792	0.231625	0.192242	0.155808	0.135405	0.398643	0.455512	0.311829	0.203946	0.311371	0.240102	0.383503	0.317427	0.601600	0.584439	0.334556	0.214696	0.560290	0.383164
43	0.188261	0.264522	0.559731	0.486988	0.252243	0.446865	0.489123	0.430570	0.373260	0.330153	0.406040	0.491524	0.229080	0.204754	0.170998	0.155262	0.163039	0.084174	0.328142	0.403819	0.430101	0.144126	0.623920	0.426790	0.454808	0.331598	0.484637	0.330878	0.291513	0.217652	0.434844	0.315391	0.285690	0.246718	0.483477	0.379810	0.290238	0.440024	0.209619	0.316965	0.194749	0.115568	0.195228	0.212664	0.231152	0.224269	0.204802	0.321687	0.276270	0.220979	0.369269	0.357202	0.197255	0.115230	0.231753	0.204479	0.197574	0.131092	0.439141	0.461150	0.312008	0.217556	0.309555	0.220624	0.379113	0.293494	0.667074	0.613878	0.336067	0.214939	0.596581	0.407981
44	0.198342	0.264186	0.560500	0.438255	0.250314	0.347168	0.455473	0.383019	0.384725	0.336889	0.404208	0.505439	0.158316	0.226561	0.218948	0.146539	0.125687	0.083335	0.314788	0.333651	0.343168	0.127432	0.611972	0.426556	0.433539	0.323228	0.464237	0.272970	0.278436	0.187700	0.439977	0.344323	0.334149	0.267485	0.507094	0.404394	0.290606	0.434719	0.223574	0.317135	0.166128	0.096595	0.203172	0.217023	0.275282	0.239970	0.182285	0.325121	0.277815	0.216680	0.375102	0.288508	0.176548	0.104983	0.237778	0.215273	0.242702	0.087089	0.485834	0.507998	0.319631	0.225486	0.315607	0.220242	0.395766	0.301393	0.687408	0.616163	0.332028	0.218302	0.639686	0.427358
45	0.199146	0.246176	0.525521	0.354788	0.242559	0.282970	0.410704	0.357174	0.402666	0.338920	0.372335	0.482551	0.138421	0.249525	0.279603	0.145778	0.112680	0.083492	0.321457	0.266685	0.337350	0.140835	0.611394	0.392898	0.408650	0.308183	0.492932	0.274484	0.282942	0.162840	0.491992	0.352592	0.396326	0.297835	0.552508	0.408371	0.290473	0.412137	0.263289	0.297867	0.162914	0.099001	0.195895	0.206272	0.280704	0.245083	0.199584	0.357401	0.253834	0.196356	0.358224	0.278850	0.197688	0.110672	0.225872	0.326034	0.247221	0.087685	0.480632	0.574847	0.254503	0.199494	0.305615	0.221871	0.397407	0.300698	0.686915	0.615833	0.325396	0.226802	0.654005	0.438244
46	0.189736	0.219032	0.432947	0.281254	0.184371	0.269109	0.350225	0.351902	0.409436	0.330148	0.332507	0.481027	0.125495	0.250284	0.272827	0.145078	0.110280	0.079609	0.373685	0.270617	0.341921	0.168304	0.618735	0.326181	0.395538	0.299162	0.514575	0.276543	0.299987	0.161953	0.594735	0.350639	0.425877	0.304129	0.565466	0.473616	0.290655	0.385860	0.281790	0.244880	0.182899	0.118026	0.212467	0.266192	0.290284	0.254084	0.246912	0.435825	0.222532	0.165243	0.350768	0.302513	0.206360	0.112484	0.235040	0.418328	0.261487	0.113560	0.512469	0.624605	0.179013	0.175200	0.308615	0.242488	0.397497	0.297223	0.688620	0.618805	0.331739	0.258091	0.658338	0.436316
47	0.264318	0.331217	0.276388	0.273553	0.171884	0.268105	0.274851	0.348579	0.400924	0.305108	0.326907	0.455126	0.128256	0.243311	0.271810	0.137464	0.107308	0.079213	0.392580	0.304734	0.322464	0.192349	0.598013	0.280104	0.389903	0.288031	0.525962	0.299363	0.312341	0.167586	0.706712	0.363084	0.410963	0.302257	0.579721	0.595601	0.286236	0.384120	0.284892	0.226870	0.190195	0.129784	0.196177	0.287099	0.290717	0.248846	0.310077	0.494141	0.223830	0.150967	0.348360	0.308887	0.218711	0.121098	0.225268	0.441632	0.300562	0.144433	0.482738	0.631413	0.173697	0.178542	0.340809	0.278589	0.368519	0.276984	0.685454	0.596756	0.340171	0.299258	0.659927	0.427950
48	0.308913	0.388346	0.219064	0.274741	0.171417	0.271121	0.226907	0.321465	0.396219	0.293496	0.322447	0.387448	0.138419	0.237535	0.271894	0.130377	0.107857	0.077611	0.391134	0.320927	0.272361	0.204921	0.522368	0.253010	0.394370	0.245835	0.503395	0.354175	0.312072	0.179651	0.739098	0.397432	0.413493	0.292997	0.731626	0.674589	0.257288	0.410586	0.288786	0.217751	0.223709	0.152337	0.193668	0.304714	0.289488	0.238459	0.356280	0.500317	0.229057	0.140925	0.343796	0.275833	0.261182	0.133943	0.322486	0.444340	0.323519	0.157038	0.477734	0.632574	0.175991	0.182772	0.326128	0.291003	0.303899	0.202845	0.645699	0.540990	0.335044	0.318944	0.666290	0.416465
49	0.363751	0.425483	0.220061	0.255720	0.169898	0.273072	0.188297	0.275804	0.381542	0.283402	0.279130	0.334877	0.131352	0.252328	0.266508	0.151048	0.111095	0.071462	0.444910	0.327659	0.220697	0.201263	0.481548	0.247986	0.392309	0.235321	0.498682	0.355623	0.308973	0.186699	0.740501	0.403995	0.449696	0.291268	0.957126	0.701087	0.224854	0.467833	0.285434	0.177117	0.235521	0.163593	0.243734	0.378552	0.299377	0.246208	0.363500	0.506947	0.229663	0.137801	0.339026	0.254761	0.283842	0.135878	0.372418	0.443916	0.323831	0.152170	0.480159	0.650803	0.177865	0.183872	0.363897	0.296289	0.294658	0.184780	0.578330	0.520600	0.329813	0.331269	0.666478	0.420925
50	0.408145	0.439591	0.208154	0.215194	0.155773	0.276933	0.190772	0.206778	0.345410	0.267719	0.210523	0.320553	0.128491	0.301015	0.264740	0.160266	0.124381	0.077380	0.452102	0.327078	0.203774	0.194185	0.491998	0.243045	0.366003	0.238505	0.501123	0.347554	0.320942	0.202300	0.758541	0.408532	0.486983	0.296067	1.146771	0.706109	0.209189	0.550637	0.294848	0.164542	0.267796	0.176368	0.326459	0.407359	0.304201	0.255833	0.367510	0.514072	0.224335	0.141389	0.311593	0.315346	0.291035	0.136747	0.377775	0.443797	0.319873	0.151532	0.485105	0.678732	0.172583	0.165387	0.649402	0.301344	0.282291	0.168620	0.477451	0.511371	0.304548	0.338475	0.618460	0.408932
51	0.427652	0.444446	0.231195	0.178120	0.152438	0.290131	0.187191	0.143912	0.284045	0.229787	0.177343	0.321139	0.125131	0.443361	0.265152	0.147814	0.124960	0.094429	0.451907	0.361002	0.197919	0.194124	0.501942	0.201785	0.308446	0.220276	0.498475	0.361856	0.321278	0.203897	0.772426	0.408972	0.512553	0.287122	1.243741	0.701438	0.118512	0.736721	0.279646	0.172839	0.289341	0.184378	0.358873	0.408381	0.301307	0.259155	0.442269	0.507888	0.171716	0.113377	0.245725	0.350515	0.287138	0.128429	0.363690	0.441642	0.319974	0.151333	0.502091	0.649073	0.169354	0.152855	0.651455	0.302451	0.265368	0.155736	0.510754	0.407475	0.238435	0.323749	0.478612	0.409200
52	0.435482	0.447640	0.273752	0.186776	0.130628	0.285694	0.169577	0.109172	0.219870	0.165313	0.176849	0.307002	0.106980	0.665217	0.265331	0.142900	0.105431	0.098806	0.463699	0.375445	0.192376	0.193141	0.505981	0.160680	0.293062	0.224682	0.598889	0.374397	0.310351	0.197018	0.783259	0.409623	0.515315	0.267086	1.269317	0.691503	0.093440	0.881952	0.282984	0.174853	0.298201	0.192435	0.357950	0.420550	0.303277	0.258314	0.498908	0.494204	0.169557	0.098234	0.222111	0.356394	0.281269	0.119624	0.360537	0.440089	0.329307	0.156237	0.535751	0.574328	0.170687	0.153844	0.688580	0.333586	0.242305	0.141939	0.538096	0.294981	0.229538	0.321943	0.465836	0.433481
53	0.437126	0.448972	0.314212	0.232106	0.142753	0.276322	0.299696	0.106552	0.204709	0.135960	0.179279	0.273386	0.110867	0.702962	0.257239	0.144897	0.122425	0.105602	0.566196	0.365084	0.136928	0.184323	0.449622	0.163298	0.303298	0.237034	0.640775	0.375870	0.309426	0.196133	0.822119	0.426078	0.514753	0.272097	1.269071	0.670024	0.096860	0.886486	0.315196	0.165106	0.299100	0.191584	0.354402	0.410147	0.303737	0.260841	0.504227	0.488885	0.189440	0.094377	0.214949	0.384762	0.282664	0.146387	0.385657	0.430296	0.322322	0.164905	0.514964	0.562151	0.178733	0.137257	0.702448	0.358175	0.204067	0.112250	0.455884	0.217850	0.240030	0.321681	0.554040	0.456387
54	0.436945	0.447949	0.365825	0.238566	0.155807	0.260607	0.431701	0.114227	0.203419	0.139289	0.205937	0.202305	0.112390	0.695212	0.211841	0.164487	0.137650	0.112197	0.636271	0.356721	0.108283	0.184557	0.437460	0.164533	0.308922	0.239366	0.644369	0.378272	0.309841	0.195876	0.866501	0.428712	0.499951	0.276009	1.252010	0.622511	0.094312	0.905382	0.313953	0.153811	0.305198	0.183113	0.360409	0.426067	0.290450	0.258157	0.517535	0.479762	0.189480	0.096810	0.190561	0.412184	0.284186	0.224479	0.409405	0.420343	0.300612	0.164719	0.513033	0.555163	0.192714	0.117896	0.699240	0.353566	0.155406	0.072859	0.426631	0.216079	0.264980	0.320933	0.582038	0.428315
55	0.431681	0.447565	0.392342	0.259988	0.151083	0.232152	0.454352	0.200716	0.175173	0.125848	0.217258	0.164957	0.118090	0.692245	0.148157	0.192712	0.140174	0.120354	0.657579	0.358926	0.108002	0.178575	0.470916	0.190951	0.308478	0.243193	0.639892	0.369539	0.306409	0.205039	0.880978	0.403467	0.471224	0.286868	1.225040	0.601743	0.110254	0.927889	0.311570	0.157920	0.314327	0.178492	0.352237	0.421616	0.241603	0.264844	0.523187	0.470254	0.182095	0.093855	0.191306	0.402805	0.280530	0.260674	0.408345	0.422122	0.285031	0.166369	0.502246	0.498845	0.208393	0.122276	0.697452	0.355080	0.144804	0.064999	0.430417	0.232764	0.281690	0.325463	0.540815	0.390563
56	0.445570	0.449401	0.481387	0.334664	0.150877	0.225825	0.452898	0.232916	0.130124	0.117467	0.286818	0.164197	0.133376	0.718553	0.142617	0.199311	0.145544	0.134922	0.650317	0.356560	0.107617	0.162897	0.640625	0.220113	0.308849	0.244818	0.611541	0.359856	0.292044	0.205182	0.882531	0.391498	0.426158	0.335139	1.199104	0.601267	0.113687	0.960869	0.297432	0.184392	0.309858	0.167888	0.351336	0.386722	0.218399	0.353892	0.527545	0.464911	0.186457	0.091702	0.192690	0.384608	0.265226	0.271093	0.416724	0.414453	0.282384	0.157514	0.526505	0.415268	0.206511	0.128052	0.696018	0.348613	0.148988	0.062719	0.427222	0.232348	0.282376	0.343542	0.503721	0.370344
57	0.463852	0.448604	0.588751	0.431904	0.159573	0.248297	0.466859	0.238407	0.100536	0.123730	0.294189	0.169816	0.150555	0.757620	0.147186	0.197378	0.151610	0.151524	0.624342	0.338893	0.091532	0.134153	0.715493	0.229156	0.302586	0.242273	0.596277	0.354991	0.276587	0.220343	0.865485	0.391186	0.393935	0.365577	1.193388	0.567156	0.152590	1.008535	0.321461	0.206562	0.315274	0.163740	0.353854	0.382118	0.210732	0.447130	0.521039	0.389880	0.189167	0.126930	0.337652	0.365084	0.235403	0.269650	0.423480	0.314000	0.258206	0.133444	0.505489	0.362391	0.202346	0.129742	0.686624	0.322235	0.156470	0.061251	0.425339	0.203318	0.275443	0.383618	0.486180	0.365306
58	0.456477	0.396230	0.632318	0.495844	0.194581	0.277540	0.499311	0.236495	0.094976	0.131167	0.298421	0.190625	0.138393	0.778167	0.244024	0.191732	0.151687	0.155594	0.605924	0.310177	0.087524	0.111651	0.765417	0.212883	0.270657	0.239733	0.591437	0.307897	0.234223	0.341842	0.775085	0.385124	0.406992	0.379148	1.199268	0.450873	0.157886	1.017853	0.329916	0.208221	0.282338	0.137799	0.362729	0.343548	0.201348	0.467621	0.521031	0.264741	0.187035	0.161416	0.499939	0.362010	0.242604	0.272403	0.422990	0.199950	0.210009	0.097789	0.525515	0.380724	0.195188	0.132427	0.683763	0.305566	0.196635	0.086062	0.430901	0.215132	0.258060	0.464266	0.482626	0.364367
59	0.411952	0.268222	0.667663	0.514793	0.199642	0.331153	0.509297	0.243005	0.134944	0.136119	0.301093	0.222295	0.135774	0.778134	0.329192	0.213705	0.152169	0.155956	0.577179	0.272388	0.090285	0.096381	0.772934	0.214288	0.263952	0.246270	0.559794	0.240011	0.222820	0.463533	0.698150	0.345511	0.430229	0.436385	1.138803	0.307888	0.172729	0.995917	0.328963	0.207326	0.269274	0.131105	0.364130	0.261878	0.214350	0.469848	0.528161	0.173656	0.187978	0.180412	0.503576	0.368059	0.224005	0.274171	0.416355	0.148746	0.187856	0.090204	0.574005	0.383338	0.189113	0.134154	0.673023	0.295561	0.195329	0.082938	0.433977	0.235292	0.256907	0.620803	0.487750	0.348848
60	0.412278	0.243664	0.687824	0.508311	0.198910	0.387416	0.527508	0.245590	0.159740	0.158086	0.304243	0.231435	0.136764	0.761259	0.351652	0.244263	0.148764	0.156576	0.564374	0.269164	0.101165	0.103123	0.773722	0.219386	0.242702	0.239909	0.512040	0.213601	0.237656	0.477412	0.677194	0.282017	0.394470	0.469217	0.985221	0.213587	0.172570	0.954691	0.317141	0.190581	0.235877	0.108389	0.366211	0.235900	0.188099	0.457441	0.520634	0.172864	0.193831	0.194952	0.500003	0.347421	0.173252	0.280494	0.340771	0.146714	0.187182	0.091836	0.597534	0.330104	0.187442	0.140921	0.425590	0.285797	0.194488	0.084355	0.435611	0.236152	0.258597	0.656096	0.492508	0.309625
61	0.346163	0.175164	0.687211	0.507921	0.198091	0.418784	0.532808	0.256289	0.167882	0.161008	0.304546	0.228204	0.139816	0.658758	0.361106	0.247698	0.135636	0.157030	0.559129	0.258512	0.120699	0.104736	0.778337	0.215159	0.208643	0.218816	0.493958	0.211794	0.233372	0.468557	0.677121	0.278233	0.336948	0.504288	0.758099	0.180932	0.170746	0.860004	0.299014	0.181072	0.203377	0.081066	0.381498	0.222377	0.148776	0.442532	0.529119	0.234749	0.219074	0.202983	0.499803	0.288717	0.153692	0.310080	0.310836	0.149234	0.189307	0.104593	0.610076	0.326264	0.187421	0.141236	0.377744	0.300162	0.197518	0.084999	0.345356	0.238213	0.252268	0.648811	0.511318	0.287972
62	0.315068	0.152824	0.678924	0.511815	0.209080	0.439597	0.548390	0.285528	0.173432	0.164462	0.313557	0.224115	0.146513	0.449633	0.357691	0.250785	0.129498	0.159862	0.552955	0.209242	0.152449	0.116473	0.775260	0.214269	0.160921	0.197026	0.476993	0.217222	0.192820	0.458577	0.646449	0.274237	0.278059	0.521674	0.558935	0.172482	0.159409	0.614107	0.296842	0.197309	0.191869	0.063968	0.390133	0.209974	0.133199	0.432249	0.526342	0.311583	0.236529	0.201411	0.500491	0.271395	0.169319	0.380705	0.315925	0.148866	0.210748	0.123026	0.595514	0.374071	0.187245	0.138232	0.364398	0.299235	0.191113	0.084552	0.272502	0.237661	0.234271	0.641211	0.569887	0.293619
63	0.298187	0.142684	0.659261	0.511952	0.234596	0.447668	0.582830	0.306550	0.168952	0.162732	0.313196	0.219703	0.145989	0.411330	0.365487	0.250194	0.133702	0.159414	0.530794	0.199670	0.170149	0.137833	0.751144	0.205624	0.139688	0.185524	0.347817	0.251980	0.151386	0.455850	0.628270	0.273752	0.249673	0.524895	0.460789	0.169553	0.155725	0.561067	0.275397	0.214399	0.197864	0.067222	0.394666	0.221423	0.134809	0.432251	0.452560	0.326067	0.242791	0.203616	0.489987	0.257556	0.184646	0.527693	0.331969	0.148919	0.246254	0.165320	0.550589	0.359300	0.180521	0.137417	0.329977	0.231253	0.184353	0.086202	0.274281	0.239081	0.213784	0.639622	0.618245	0.308558
64	0.290061	0.135414	0.644594	0.497046	0.276555	0.455000	0.584607	0.310427	0.164522	0.155934	0.310688	0.204251	0.146786	0.414657	0.392913	0.256950	0.106022	0.153702	0.417712	0.239967	0.175195	0.137267	0.736405	0.203887	0.163543	0.231268	0.326447	0.253662	0.148472	0.458477	0.599657	0.271129	0.246123	0.522679	0.434339	0.166169	0.162931	0.544856	0.241902	0.235188	0.189125	0.066035	0.432715	0.262400	0.184108	0.430926	0.446103	0.326428	0.235531	0.215402	0.483469	0.206913	0.178035	0.600337	0.338625	0.157348	0.252650	0.174893	0.539590	0.348126	0.164675	0.139395	0.339058	0.205486	0.183804	0.086135	0.264547	0.240259	0.211815	0.645432	0.605273	0.306330
65	0.289859	0.135318	0.617876	0.488481	0.294321	0.454007	0.540526	0.310330	0.160334	0.145665	0.287229	0.214566	0.177286	0.412549	0.386716	0.323071	0.119704	0.176397	0.376127	0.287536	0.177526	0.139303	0.734103	0.203623	0.171083	0.249318	0.324288	0.252076	0.145325	0.463961	0.514768	0.233544	0.246453	0.516912	0.443383	0.211731	0.177802	0.504783	0.232325	0.246050	0.183561	0.065149	0.467739	0.283118	0.214898	0.435027	0.435939	0.333553	0.235010	0.220149	0.477528	0.159309	0.176686	0.596706	0.304180	0.185608	0.232522	0.176592	0.536274	0.363909	0.112161	0.134090	0.354312	0.201920	0.188743	0.087446	0.274686	0.220454	0.199926	0.650027	0.553163	0.311268
66	0.289602	0.136090	0.605776	0.492059	0.288152	0.474952	0.438574	0.306016	0.157378	0.141160	0.269458	0.245915	0.192580	0.355267	0.385692	0.359352	0.130582	0.185212	0.370842	0.301157	0.192840	0.163398	0.680075	0.189081	0.192333	0.245462	0.326140	0.264042	0.149875	0.480879	0.396066	0.196313	0.247044	0.507238	0.466824	0.301236	0.174993	0.456267	0.204876	0.236396	0.177544	0.062329	0.456712	0.283923	0.215791	0.452045	0.436846	0.335339	0.226065	0.219990	0.473701	0.165444	0.183060	0.580164	0.281541	0.202527	0.225083	0.175763	0.549574	0.391251	0.070749	0.130590	0.349996	0.201420	0.192222	0.094267	0.275587	0.187703	0.231982	0.648797	0.539070	0.310511
67	0.281104	0.135847	0.561594	0.477658	0.297749	0.514712	0.405483	0.258400	0.157783	0.133635	0.250930	0.288518	0.236605	0.280789	0.384898	0.361123	0.124451	0.173800	0.377006	0.301182	0.245194	0.207896	0.526415	0.164983	0.193525	0.257980	0.330753	0.279189	0.150429	0.487918	0.377211	0.154218	0.244716	0.467476	0.485573	0.351085	0.161542	0.334916	0.172983	0.214905	0.174714	0.059754	0.456453	0.303802	0.217721	0.432364	0.417246	0.341617	0.213735	0.216882	0.475601	0.177334	0.186386	0.573895	0.279806	0.195269	0.228215	0.175530	0.524310	0.393096	0.069842	0.130481	0.332016	0.195959	0.184537	0.095289	0.273322	0.187714	0.274597	0.639722	0.542584	0.311409
68	0.259861	0.133749	0.471700	0.410007	0.296291	0.535630	0.409501	0.233725	0.162866	0.117540	0.316446	0.304519	0.248238	0.231007	0.327706	0.373860	0.123402	0.159657	0.371336	0.294814	0.264739	0.235809	0.415584	0.158957	0.206569	0.275884	0.323610	0.287781	0.184023	0.488871	0.384899	0.140371	0.255608	0.420211	0.492118	0.361964	0.139446	0.189402	0.155025	0.217729	0.176799	0.060154	0.443286	0.315142	0.237224	0.323218	0.414362	0.347259	0.228345	0.195353	0.283434	0.179292	0.243384	0.569015	0.259814	0.180751	0.236423	0.177521	0.541662	0.378960	0.065820	0.124609	0.332868	0.192946	0.138684	0.076416	0.274246	0.173527	0.286555	0.618780	0.540478	0.324109
69	0.249502	0.190270	0.377330	0.309272	0.287814	0.541778	0.405307	0.243890	0.175226	0.118271	0.362240	0.290216	0.248916	0.191329	0.290714	0.383816	0.127262	0.159374	0.353927	0.291145	0.265967	0.236956	0.331136	0.171507	0.219146	0.271225	0.317278	0.291488	0.219669	0.476853	0.386863	0.172326	0.279966	0.408302	0.474182	0.358188	0.162122	0.193881	0.157249	0.222784	0.174116	0.060916	0.390309	0.315108	0.238841	0.262352	0.418327	0.347825	0.228336	0.172457	0.161231	0.174272	0.307371	0.568737	0.241961	0.186616	0.253653	0.185598	0.549309	0.358810	0.078592	0.148598	0.328276	0.192211	0.118191	0.085776	0.304220	0.147279	0.286686	0.576512	0.540943	0.338586
70	0.221884	0.199416	0.331979	0.244006	0.266657	0.541479	0.373206	0.249074	0.158602	0.102618	0.403177	0.291615	0.268241	0.183302	0.295041	0.394310	0.147388	0.167758	0.325345	0.283116	0.265463	0.232365	0.328732	0.213686	0.266722	0.283749	0.322837	0.289957	0.233549	0.373232	0.400963	0.213281	0.222305	0.342050	0.458801	0.352244	0.205769	0.205364	0.157978	0.234626	0.168553	0.067554	0.346319	0.314535	0.225821	0.263243	0.366232	0.346084	0.243564	0.186380	0.156612	0.153175	0.315294	0.571379	0.218819	0.213503	0.259133	0.189476	0.572446	0.362253	0.077778	0.156560	0.319753	0.190857	0.110216	0.089571	0.341946	0.147294	0.294540	0.448223	0.536995	0.344059
71	0.185175	0.190414	0.272460	0.230791	0.265428	0.533841	0.364075	0.241377	0.146978	0.075808	0.404324	0.303294	0.299185	0.193440	0.336094	0.402727	0.153452	0.168057	0.338605	0.288127	0.258388	0.230986	0.333818	0.231334	0.280121	0.305413	0.321750	0.285416	0.237659	0.232956	0.403596	0.246361	0.218009	0.305271	0.444465	0.348376	0.212383	0.201119	0.159874	0.295704	0.165965	0.070573	0.332122	0.323287	0.211982	0.259279	0.340326	0.345833	0.236350	0.173934	0.156737	0.149026	0.319013	0.580067	0.257744	0.223908	0.261694	0.202429	0.584336	0.366539	0.080779	0.165235	0.309636	0.180188	0.106937	0.088686	0.346027	0.204350	0.314277	0.293997	0.528450	0.347028
72	0.169651	0.187281	0.273010	0.243915	0.269624	0.523886	0.337998	0.238667	0.134987	0.065952	0.404817	0.300981	0.299521	0.195884	0.341978	0.403431	0.161767	0.155284	0.386318	0.283350	0.249930	0.235687	0.386657	0.240100	0.275720	0.300715	0.283232	0.298025	0.242268	0.208189	0.436064	0.265615	0.217701	0.252214	0.412110	0.347887	0.217798	0.200633	0.215710	0.336462	0.166523	0.071199	0.329719	0.337286	0.209763	0.255595	0.361700	0.331151	0.212738	0.162943	0.180315	0.173949	0.323524	0.582070	0.391244	0.219403	0.256235	0.226987	0.577334	0.335075	0.085946	0.172079	0.306032	0.123295	0.117654	0.090129	0.337628	0.300668	0.338237	0.314138	0.522976	0.349607
73	0.178291	0.188123	0.280337	0.355894	0.269889	0.519400	0.326463	0.233137	0.156561	0.070301	0.402005	0.331485	0.299059	0.188335	0.327011	0.408740	0.170461	0.146517	0.391069	0.282229	0.255254	0.230852	0.437730	0.242320	0.288223	0.299271	0.202254	0.287203	0.249520	0.207936	0.460517	0.263277	0.226936	0.209094	0.358481	0.361423	0.225255	0.205400	0.281649	0.327351	0.158283	0.068531	0.307398	0.311652	0.214750	0.254900	0.356408	0.261052	0.192122	0.162951	0.214637	0.218755	0.329891	0.567269	0.560354	0.244746	0.226186	0.220987	0.576709	0.314784	0.087696	0.172806	0.301986	0.094891	0.122907	0.089549	0.322380	0.324200	0.351906	0.342673	0.491587	0.350211
74	0.181178	0.182344	0.345975	0.464710	0.263415	0.531888	0.303991	0.212413	0.163262	0.075785	0.452692	0.397617	0.314257	0.180931	0.301081	0.389751	0.185069	0.147110	0.391657	0.273191	0.254537	0.234609	0.423544	0.244362	0.303504	0.281468	0.209429	0.279611	0.261598	0.206529	0.459547	0.260538	0.229403	0.194212	0.363337	0.381336	0.278520	0.239586	0.321187	0.336458	0.179104	0.071950	0.228871	0.242912	0.219583	0.248326	0.346033	0.230918	0.181639	0.158869	0.232428	0.232040	0.326168	0.529207	0.599534	0.295942	0.244402	0.211608	0.575619	0.345730	0.086458	0.171835	0.291374	0.092537	0.135630	0.096286	0.322625	0.323194	0.363449	0.361821	0.420850	0.330505
75	0.190938	0.173666	0.410177	0.514670	0.234472	0.538509	0.245992	0.192714	0.242532	0.152646	0.561644	0.447613	0.318621	0.167853	0.304977	0.318797	0.188737	0.149246	0.366305	0.249465	0.250025	0.248797	0.390058	0.238921	0.299275	0.257143	0.312218	0.279272	0.282273	0.211000	0.449337	0.266777	0.226282	0.188493	0.416402	0.410339	0.285091	0.250442	0.340770	0.373970	0.176722	0.076819	0.201350	0.238551	0.217409	0.246834	0.332389	0.235548	0.180996	0.141032	0.249835	0.234361	0.362028	0.426868	0.591110	0.319446	0.318221	0.236797	0.574677	0.356711	0.096235	0.173135	0.274369	0.089604	0.155817	0.108729	0.313952	0.357785	0.373885	0.362769	0.382763	0.285681
76	0.265004	0.185213	0.445428	0.517381	0.182305	0.553386	0.289814	0.206867	0.323911	0.253245	0.629120	0.453608	0.307105	0.158293	0.308434	0.291871	0.182041	0.120134	0.330309	0.240272	0.248743	0.253079	0.387377	0.231795	0.321251	0.257487	0.442629	0.283639	0.300087	0.207607	0.440039	0.270610	0.228820	0.188270	0.437646	0.414078	0.279840	0.250183	0.347074	0.410710	0.145855	0.074428	0.201350	0.256642	0.205210	0.255863	0.328461	0.227106	0.180998	0.134328	0.256267	0.262555	0.396897	0.394608	0.588401	0.318199	0.324757	0.238215	0.536915	0.343232	0.096264	0.181484	0.266114	0.084313	0.154038	0.108344	0.316251	0.389980	0.375860	0.353469	0.352977	0.235190
77	0.331237	0.198201	0.460694	0.529338	0.157190	0.561613	0.289462	0.216042	0.365410	0.325902	0.670288	0.434015	0.265083	0.131064	0.313837	0.303733	0.180237	0.116378	0.318452	0.266357	0.227172	0.236839	0.385028	0.221586	0.335193	0.256475	0.469394	0.271688	0.306185	0.186923	0.435838	0.269927	0.238217	0.184548	0.410531	0.372109	0.286965	0.250175	0.353211	0.427358	0.140259	0.076957	0.206478	0.283718	0.205555	0.234643	0.323623	0.221532	0.181333	0.136159	0.300694	0.275411	0.417457	0.407743	0.594018	0.301892	0.348276	0.247623	0.499924	0.323835	0.098190	0.185451	0.261237	0.083318	0.161524	0.106520	0.327301	0.392526	0.355446	0.349147	0.324204	0.207879
78	0.338111	0.200398	0.464436	0.539993	0.185334	0.545462	0.289353	0.217082	0.376212	0.345840	0.658440	0.408381	0.259723	0.126309	0.344623	0.292264	0.193239	0.124136	0.305945	0.278777	0.162893	0.202513	0.386115	0.222018	0.333022	0.231921	0.488843	0.267059	0.305548	0.132029	0.428710	0.270740	0.252520	0.178575	0.391395	0.318936	0.304017	0.252076	0.353985	0.427965	0.159052	0.086524	0.232800	0.280963	0.208269	0.220630	0.319814	0.221874	0.192555	0.155680	0.312036	0.270949	0.419305	0.393494	0.598009	0.295573	0.351591	0.249521	0.474479	0.348662	0.096915	0.182579	0.253468	0.083048	0.182470	0.104703	0.342292	0.393705	0.304962	0.355038	0.298087	0.206934
79	0.339537	0.214074	0.468112	0.544864	0.190190	0.542513	0.308086	0.219813	0.373816	0.347247	0.629741	0.401032	0.264976	0.131081	0.332898	0.249269	0.213356	0.136053	0.309815	0.273976	0.145996	0.177529	0.389086	0.228055	0.319395	0.220063	0.493958	0.290733	0.316673	0.116133	0.420069	0.276528	0.256678	0.184696	0.361041	0.299662	0.319424	0.242143	0.361852	0.423023	0.181030	0.093966	0.241021	0.307169	0.204128	0.239951	0.317116	0.209633	0.166645	0.158076	0.310373	0.279568	0.415329	0.393428	0.595873	0.295495	0.343195	0.251440	0.430948	0.391261	0.084010	0.155046	0.255474	0.082215	0.185817	0.088900	0.316453	0.391651	0.289269	0.368623	0.296536	0.200043
80	0.354830	0.215707	0.471892	0.560026	0.205924	0.591398	0.303884	0.229764	0.373117	0.353641	0.604673	0.419207	0.249370	0.127539	0.319420	0.201861	0.217427	0.138549	0.309984	0.283318	0.146056	0.177070	0.390184	0.199812	0.301039	0.203117	0.508719	0.337493	0.299480	0.109178	0.390005	0.287776	0.241452	0.189498	0.343491	0.297870	0.290974	0.193758	0.386053	0.420817	0.196008	0.096727	0.231492	0.333671	0.190971	0.228738	0.300517	0.202791	0.173911	0.150915	0.307522	0.280705	0.376131	0.432106	0.594042	0.295466	0.345812	0.256558	0.369797	0.414233	0.080594	0.134594	0.251430	0.077747	0.187324	0.085952	0.268721	0.387329	0.300680	0.371999	0.298790	0.186108
81	0.355486	0.189685	0.458973	0.566223	0.207661	0.684060	0.298363	0.215691	0.382458	0.375664	0.596931	0.419697	0.215463	0.112955	0.272424	0.189659	0.204921	0.125729	0.312934	0.287419	0.143684	0.185758	0.390175	0.150605	0.283289	0.155774	0.518411	0.358912	0.313310	0.107299	0.361308	0.307378	0.230003	0.185876	0.344082	0.292476	0.289984	0.187421	0.404264	0.397677	0.201010	0.102337	0.234039	0.322424	0.193995	0.195968	0.278681	0.201459	0.185437	0.113746	0.329798	0.280081	0.336636	0.506157	0.594748	0.285208	0.361059	0.260559	0.249535	0.409244	0.092696	0.122910	0.239689	0.058457	0.187488	0.089319	0.225726	0.359839	0.299181	0.353441	0.316209	0.187333
82	0.359334	0.191028	0.460530	0.563160	0.218478	0.764829	0.320807	0.208367	0.398639	0.403879	0.605940	0.425137	0.216096	0.119732	0.269279	0.181298	0.217900	0.127917	0.258829	0.276066	0.139447	0.201142	0.355062	0.121970	0.301960	0.125680	0.533956	0.351777	0.373347	0.119556	0.355815	0.293620	0.227718	0.164561	0.345199	0.296459	0.283974	0.168319	0.406413	0.333190	0.218119	0.121291	0.271455	0.309536	0.201325	0.195331	0.271708	0.200322	0.197768	0.111915	0.341753	0.286371	0.329755	0.536799	0.597423	0.266159	0.364537	0.243355	0.188634	0.388595	0.113260	0.118326	0.201591	0.033820	0.178168	0.087700	0.202929	0.285327	0.288478	0.321291	0.339900	0.194973
83	0.368914	0.201969	0.450079	0.560395	0.225256	0.781396	0.466138	0.209991	0.417956	0.418726	0.628161	0.434880	0.237020	0.191037	0.266706	0.168070	0.216724	0.131972	0.216971	0.289667	0.116067	0.213997	0.250865	0.116523	0.325937	0.134862	0.564234	0.328277	0.404734	0.124755	0.340332	0.271543	0.230483	0.171026	0.342539	0.296693	0.282351	0.164715	0.372507	0.317426	0.203586	0.128212	0.297235	0.310081	0.202092	0.195772	0.247009	0.204202	0.203758	0.110320	0.321351	0.265990	0.328038	0.525039	0.579093	0.258266	0.367049	0.218522	0.184549	0.367374	0.122897	0.118824	0.175364	0.032143	0.175566	0.087068	0.200377	0.254356	0.263920	0.277129	0.350261	0.192135
84	0.379131	0.216950	0.441611	0.530276	0.219827	0.763655	0.486907	0.218578	0.438262	0.434282	0.640953	0.402407	0.219182	0.202393	0.264371	0.177091	0.213888	0.131950	0.231442	0.302642	0.060704	0.222866	0.170283	0.109091	0.315142	0.138623	0.564326	0.318854	0.421918	0.151848	0.318492	0.263564	0.226116	0.159536	0.342417	0.283299	0.250837	0.131187	0.338221	0.310875	0.186821	0.130461	0.301766	0.307820	0.205135	0.200866	0.203961	0.188664	0.200258	0.112283	0.309088	0.228151	0.327548	0.521815	0.491094	0.255516	0.363413	0.213980	0.197524	0.348252	0.131067	0.119988	0.179886	0.029861	0.167344	0.079462	0.203738	0.255206	0.241470	0.235293	0.346109	0.186258
85	0.381164	0.231102	0.419114	0.436456	0.219597	0.753692	0.503299	0.216462	0.443044	0.439518	0.607838	0.335344	0.246227	0.261956	0.267051	0.185282	0.207880	0.131400	0.242303	0.301030	0.057429	0.218448	0.171608	0.107484	0.311334	0.115254	0.556520	0.315369	0.440536	0.219041	0.289413	0.264633	0.218263	0.144077	0.323195	0.258325	0.205206	0.076405	0.301410	0.260739	0.194147	0.133003	0.298617	0.298473	0.203865	0.204105	0.174236	0.147079	0.201197	0.113484	0.293569	0.222433	0.316255	0.517507	0.318680	0.220706	0.299353	0.176692	0.207244	0.322062	0.122644	0.117658	0.179838	0.036911	0.141648	0.058257	0.207814	0.213850	0.222365	0.197823	0.332648	0.200326
86	0.386908	0.240536	0.368061	0.347989	0.221127	0.792180	0.539163	0.203614	0.392892	0.410231	0.563516	0.292106	0.245728	0.266638	0.264516	0.183817	0.210201	0.123117	0.257888	0.281816	0.063446	0.205478	0.170889	0.108151	0.297114	0.092669	0.454831	0.308973	0.442912	0.229170	0.289676	0.263337	0.216489	0.143003	0.274321	0.214396	0.202195	0.065268	0.293565	0.184730	0.201158	0.136082	0.298764	0.250806	0.199992	0.204846	0.173532	0.109841	0.205212	0.113620	0.282745	0.221499	0.315510	0.489291	0.282485	0.149094	0.254156	0.156441	0.214980	0.306402	0.118136	0.102259	0.186503	0.046139	0.131584	0.046492	0.211931	0.147038	0.201777	0.175485	0.335696	0.249078
87	0.370071	0.242872	0.338493	0.328491	0.220137	0.899241	0.585164	0.189104	0.341003	0.355225	0.499377	0.291635	0.247353	0.268676	0.234886	0.190194	0.202625	0.131949	0.284093	0.252182	0.066918	0.195997	0.171940	0.111718	0.262005	0.094512	0.392381	0.295984	0.480003	0.264365	0.299242	0.253917	0.225208	0.157138	0.188679	0.247545	0.192592	0.064849	0.275169	0.117764	0.196234	0.135777	0.275124	0.229076	0.167276	0.192344	0.224986	0.103685	0.205218	0.114368	0.277896	0.199069	0.280383	0.446092	0.290790	0.117983	0.237208	0.151490	0.230558	0.293712	0.116463	0.087466	0.202231	0.047933	0.119670	0.047850	0.200131	0.140156	0.190320	0.171700	0.315757	0.277810
88	0.310610	0.233582	0.336176	0.330760	0.221509	0.924748	0.582654	0.165160	0.320748	0.300640	0.442074	0.293121	0.246488	0.267413	0.183031	0.204776	0.203636	0.154862	0.302865	0.222512	0.067045	0.190807	0.175032	0.137260	0.256710	0.117549	0.358982	0.305577	0.474508	0.263909	0.295234	0.250841	0.230617	0.158790	0.186671	0.336897	0.170122	0.059772	0.267459	0.094216	0.179889	0.135594	0.246006	0.236227	0.137158	0.187706	0.272534	0.100660	0.205671	0.113969	0.234201	0.186416	0.232291	0.412865	0.329936	0.110499	0.193597	0.136334	0.271770	0.285506	0.118982	0.071917	0.199397	0.048812	0.088103	0.050873	0.157185	0.165434	0.199391	0.192946	0.320080	0.271552
89	0.289671	0.232127	0.333730	0.295865	0.208429	0.920060	0.575171	0.149847	0.318300	0.289351	0.432117	0.294068	0.239076	0.264388	0.151311	0.228422	0.195939	0.164109	0.317298	0.214441	0.068865	0.191448	0.176502	0.145568	0.262532	0.138646	0.354456	0.296285	0.473798	0.264147	0.288565	0.250872	0.244792	0.165685	0.171917	0.383060	0.134034	0.051241	0.246558	0.101153	0.152809	0.126931	0.240129	0.187818	0.145120	0.178382	0.291380	0.090919	0.189014	0.089675	0.229472	0.199367	0.198930	0.404886	0.345540	0.111063	0.189962	0.135047	0.296654	0.240063	0.122121	0.066346	0.196748	0.048883	0.064998	0.050383	0.145747	0.179375	0.216825	0.212833	0.323185	0.272813
90	0.293607	0.224420	0.330914	0.274270	0.180603	0.919971	0.580247	0.149202	0.316819	0.286818	0.447809	0.287570	0.248010	0.268001	0.148613	0.243768	0.175162	0.156525	0.325694	0.209225	0.087126	0.195151	0.177769	0.141436	0.276029	0.151394	0.363352	0.245108	0.474092	0.265514	0.297088	0.248916	0.305045	0.218109	0.175819	0.385167	0.130681	0.073979	0.222319	0.113141	0.150785	0.126688	0.240479	0.159714	0.145560	0.118192	0.293695	0.085512	0.185182	0.086661	0.236684	0.220596	0.196340	0.409609	0.355115	0.096950	0.180434	0.123371	0.319974	0.179110	0.121938	0.066571	0.199197	0.056039	0.060460	0.047358	0.132297	0.178373	0.204618	0.206509	0.375710	0.276550
91	0.269049	0.208447	0.305345	0.266129	0.159025	0.905745	0.587457	0.143599	0.306660	0.272397	0.450625	0.263513	0.250811	0.268029	0.174924	0.247996	0.170325	0.151957	0.341483	0.180476	0.101223	0.190361	0.185189	0.141551	0.266820	0.152467	0.335440	0.192108	0.466489	0.264181	0.299895	0.233759	0.384396	0.260523	0.186997	0.409678	0.124015	0.090369	0.184197	0.130071	0.131631	0.114758	0.217532	0.169617	0.159827	0.104625	0.293664	0.085279	0.170924	0.084941	0.252602	0.240169	0.195642	0.401482	0.357609	0.092197	0.145487	0.095087	0.326171	0.135272	0.117150	0.065597	0.201126	0.069813	0.056296	0.046404	0.128105	0.177200	0.174761	0.186829	0.416227	0.273148
92	0.245586	0.215752	0.309890	0.237133	0.135266	0.871595	0.609446	0.112655	0.291187	0.228937	0.448622	0.238502	0.253469	0.265048	0.269324	0.253769	0.172168	0.151096	0.337698	0.167608	0.134386	0.187340	0.163703	0.139083	0.241365	0.155155	0.330361	0.157889	0.463859	0.268349	0.311232	0.190651	0.389858	0.265318	0.201912	0.431214	0.129380	0.093404	0.160670	0.155868	0.105739	0.097067	0.151375	0.166348	0.167154	0.103033	0.290122	0.086378	0.171952	0.102449	0.251380	0.240656	0.192563	0.346095	0.357898	0.118621	0.105820	0.078740	0.330129	0.132345	0.087858	0.044498	0.218098	0.076339	0.056266	0.047180	0.131508	0.177779	0.168765	0.184002	0.412479	0.281058
93	0.251850	0.258993	0.315825	0.229511	0.139933	0.809581	0.618446	0.095021	0.281745	0.188812	0.441179	0.212266	0.231956	0.220527	0.334371	0.284105	0.164959	0.145764	0.328798	0.182479	0.142354	0.168295	0.154500	0.136266	0.211222	0.150679	0.310226	0.149649	0.432914	0.277033	0.312439	0.126171	0.418874	0.283951	0.228552	0.435500	0.147801	0.097212	0.159586	0.193707	0.101567	0.088578	0.113579	0.166150	0.166236	0.097345	0.283779	0.098540	0.187820	0.121735	0.258037	0.227161	0.180481	0.221908	0.356159	0.148172	0.087399	0.077370	0.323616	0.135380	0.075487	0.044003	0.219413	0.076610	0.074104	0.050038	0.131830	0.196036	0.167473	0.183898	0.411225	0.294414
94	0.261900	0.293083	0.311240	0.229377	0.131890	0.751938	0.605298	0.090439	0.243163	0.151292	0.413354	0.206888	0.221261	0.204758	0.355884	0.305769	0.176832	0.143767	0.346788	0.186896	0.165734	0.178875	0.144092	0.134637	0.200563	0.145136	0.274408	0.146031	0.374984	0.275785	0.291988	0.139836	0.433869	0.287901	0.231664	0.434648	0.161966	0.100331	0.176966	0.215450	0.102137	0.094278	0.123651	0.169401	0.169583	0.094918	0.288890	0.116327	0.185147	0.123435	0.264716	0.223348	0.178091	0.147084	0.347533	0.164678	0.071379	0.078801	0.317883	0.137263	0.055962	0.045008	0.206055	0.099627	0.089621	0.051169	0.147383	0.195582	0.165064	0.184075	0.440692	0.299135
95	0.254241	0.303973	0.304419	0.229126	0.125758	0.746670	0.504797	0.092924	0.198061	0.090883	0.391276	0.251623	0.191639	0.134719	0.355136	0.321636	0.205662	0.146025	0.388525	0.203263	0.215216	0.234225	0.130188	0.138410	0.189848	0.144547	0.252280	0.151525	0.349305	0.292249	0.272609	0.157421	0.437557	0.285672	0.254463	0.435817	0.171217	0.103628	0.181548	0.216555	0.087377	0.100000	0.122891	0.175208	0.191265	0.094393	0.304135	0.107445	0.188325	0.128559	0.258839	0.240992	0.172997	0.142238	0.328818	0.166928	0.067954	0.074492	0.307799	0.136099	0.060305	0.045731	0.204320	0.109473	0.091004	0.053105	0.154549	0.176549	0.157490	0.183006	0.457290	0.302575
96	0.254496	0.303789	0.314764	0.226129	0.121605	0.753225	0.471066	0.074993	0.212137	0.078668	0.333508	0.312369	0.219918	0.148478	0.374510	0.331347	0.259184	0.157477	0.417670	0.209079	0.220249	0.242953	0.125856	0.145297	0.174495	0.145954	0.240656	0.152993	0.315734	0.275134	0.241788	0.150768	0.462557	0.323729	0.258221	0.436378	0.210431	0.127253	0.193033	0.238531	0.091616	0.106899	0.121761	0.171254	0.190726	0.081946	0.317246	0.101226	0.194559	0.139743	0.260959	0.256448	0.169253	0.118280	0.297078	0.170783	0.062530	0.059834	0.303638	0.123068	0.071726	0.047506	0.201243	0.108712	0.091618	0.058228	0.149869	0.180389	0.157461	0.180722	0.459348	0.319402
97	0.242486	0.294435	0.329112	0.214061	0.166950	0.752417	0.455825	0.065085	0.221791	0.077786	0.296448	0.317322	0.249064	0.166319	0.410798	0.320047	0.265942	0.152232	0.403198	0.217233	0.218914	0.243114	0.127174	0.145081	0.170294	0.143392	0.241618	0.151638	0.290117	0.240199	0.238996	0.157742	0.479923	0.357422	0.234579	0.435115	0.219552	0.134879	0.202533	0.281268	0.097629	0.107735	0.122206	0.156708	0.186439	0.077512	0.333571	0.122055	0.204733	0.150127	0.262129	0.251975	0.195749	0.149637	0.273181	0.184623	0.061614	0.065857	0.284297	0.119643	0.079954	0.050626	0.186475	0.123603	0.114004	0.066647	0.187837	0.193574	0.163200	0.181677	0.450515	0.325535
98	0.239849	0.289662	0.289840	0.190834	0.208101	0.700601	0.416046	0.064926	0.213411	0.161405	0.331158	0.316515	0.269434	0.188034	0.438538	0.297276	0.276527	0.143910	0.378300	0.247698	0.232489	0.247358	0.125639	0.136144	0.173160	0.129145	0.244099	0.144786	0.252114	0.228253	0.224171	0.172996	0.477999	0.353767	0.241359	0.409439	0.270478	0.174591	0.225804	0.303639	0.103896	0.108235	0.125115	0.142803	0.187713	0.080617	0.329786	0.155623	0.207035	0.148587	0.254702	0.239821	0.170502	0.153900	0.288844	0.192122	0.063372	0.060854	0.270445	0.120646	0.108367	0.071847	0.165505	0.135765	0.137438	0.072997	0.289131	0.172725	0.171052	0.183709	0.425933	0.326673
99	0.232429	0.287647	0.262350	0.161131	0.213054	0.528340	0.338223	0.065301	0.203179	0.207347	0.342838	0.339488	0.268142	0.188688	0.475169	0.282877	0.315221	0.147321	0.401346	0.286715	0.260192	0.260516	0.126795	0.123333	0.190210	0.121090	0.239575	0.121659	0.165440	0.188445	0.225778	0.182947	0.479452	0.371949	0.254298	0.330297	0.312430	0.209704	0.241852	0.305343	0.094225	0.106843	0.117976	0.154249	0.191869	0.088804	0.283358	0.174669	0.204995	0.141499	0.251846	0.240409	0.161323	0.153381	0.421110	0.206463	0.070901	0.061160	0.216627	0.120136	0.111295	0.078936	0.164534	0.137531	0.149925	0.079947	0.308988	0.157080	0.190958	0.181124	0.435133	0.343604
100	0.213915	0.288979	0.226318	0.150494	0.209834	0.434930	0.292640	0.067576	0.198292	0.208369	0.335471	0.351673	0.252401	0.180662	0.495867	0.284235	0.356521	0.153173	0.465306	0.304386	0.262028	0.257118	0.137221	0.123634	0.177659	0.104569	0.209914	0.118291	0.165720	0.190163	0.237199	0.185186	0.467690	0.371914	0.258325	0.242604	0.318053	0.220914	0.244746	0.301908	0.090360	0.105943	0.116355	0.138330	0.186904	0.086207	0.241664	0.187504	0.225392	0.206204	0.249556	0.223192	0.173657	0.147401	0.459114	0.224114	0.070377	0.055902	0.178866	0.113071	0.112688	0.079858	0.167104	0.147392	0.152511	0.081116	0.310101	0.156909	0.196008	0.159685	0.439922	0.355753
101	0.201632	0.296338	0.223979	0.147322	0.211018	0.425375	0.288645	0.079676	0.258878	0.272806	0.318229	0.348755	0.252518	0.180213	0.488917	0.294188	0.393632	0.168300	0.485470	0.310869	0.257472	0.254371	0.127388	0.128548	0.174340	0.106970	0.201643	0.126641	0.161186	0.188843	0.235252	0.186296	0.443129	0.365999	0.266492	0.230395	0.310031	0.212372	0.241369	0.297661	0.090155	0.108723	0.115929	0.126177	0.178209	0.081294	0.230118	0.191720	0.268201	0.284931	0.237604	0.193381	0.192745	0.135879	0.458788	0.230202	0.067790	0.054008	0.125947	0.099088	0.115342	0.081323	0.167322	0.156364	0.150847	0.079783	0.311596	0.154259	0.207003	0.149593	0.426253	0.351215
