	205_C_T2_sh_ND_01.c3d	205_C_T2_sh_ND_01.c3d	205_C_T2_sh_ND_01.c3d	205_C_T2_sh_ND_01.c3d	205_C_T2_sh_ND_01.c3d	205_C_T2_sh_ND_01.c3d	205_C_T2_sh_ND_01.c3d	205_C_T2_sh_ND_01.c3d	205_C_T2_sh_ND_04.c3d	205_C_T2_sh_ND_04.c3d	205_C_T2_sh_ND_04.c3d	205_C_T2_sh_ND_04.c3d	205_C_T2_sh_ND_04.c3d	205_C_T2_sh_ND_04.c3d	205_C_T2_sh_ND_04.c3d	205_C_T2_sh_ND_04.c3d	205_C_T2_sh_ND_05.c3d	205_C_T2_sh_ND_05.c3d	205_C_T2_sh_ND_05.c3d	205_C_T2_sh_ND_05.c3d	205_C_T2_sh_ND_05.c3d	205_C_T2_sh_ND_05.c3d	205_C_T2_sh_ND_05.c3d	205_C_T2_sh_ND_05.c3d	205_C_T2_sh_ND_06.c3d	205_C_T2_sh_ND_06.c3d	205_C_T2_sh_ND_06.c3d	205_C_T2_sh_ND_06.c3d	205_C_T2_sh_ND_06.c3d	205_C_T2_sh_ND_06.c3d	205_C_T2_sh_ND_06.c3d	205_C_T2_sh_ND_06.c3d	205_C_T2_sh_ND_07.c3d	205_C_T2_sh_ND_07.c3d	205_C_T2_sh_ND_07.c3d	205_C_T2_sh_ND_07.c3d	205_C_T2_sh_ND_07.c3d	205_C_T2_sh_ND_07.c3d	205_C_T2_sh_ND_07.c3d	205_C_T2_sh_ND_07.c3d	205_C_T2_sh_ND_08.c3d	205_C_T2_sh_ND_08.c3d	205_C_T2_sh_ND_08.c3d	205_C_T2_sh_ND_08.c3d	205_C_T2_sh_ND_08.c3d	205_C_T2_sh_ND_08.c3d	205_C_T2_sh_ND_08.c3d	205_C_T2_sh_ND_08.c3d	205_C_T2_sh_ND_09.c3d	205_C_T2_sh_ND_09.c3d	205_C_T2_sh_ND_09.c3d	205_C_T2_sh_ND_09.c3d	205_C_T2_sh_ND_09.c3d	205_C_T2_sh_ND_09.c3d	205_C_T2_sh_ND_09.c3d	205_C_T2_sh_ND_09.c3d	205_C_T2_sh_ND_10.c3d	205_C_T2_sh_ND_10.c3d	205_C_T2_sh_ND_10.c3d	205_C_T2_sh_ND_10.c3d	205_C_T2_sh_ND_10.c3d	205_C_T2_sh_ND_10.c3d	205_C_T2_sh_ND_10.c3d	205_C_T2_sh_ND_10.c3d
	Biceps femoris_lat	Semitendinosus_lat	Vastus lateralis_lat	Vastus medialis_lat	Biceps femoris_med	Semitendinosus_med	Vastus lateralis_med	Vastus medialis_med	Biceps femoris_lat	Semitendinosus_lat	Vastus lateralis_lat	Vastus medialis_lat	Biceps femoris_med	Semitendinosus_med	Vastus lateralis_med	Vastus medialis_med	Biceps femoris_lat	Semitendinosus_lat	Vastus lateralis_lat	Vastus medialis_lat	Biceps femoris_med	Semitendinosus_med	Vastus lateralis_med	Vastus medialis_med	Biceps femoris_lat	Semitendinosus_lat	Vastus lateralis_lat	Vastus medialis_lat	Biceps femoris_med	Semitendinosus_med	Vastus lateralis_med	Vastus medialis_med	Biceps femoris_lat	Semitendinosus_lat	Vastus lateralis_lat	Vastus medialis_lat	Biceps femoris_med	Semitendinosus_med	Vastus lateralis_med	Vastus medialis_med	Biceps femoris_lat	Semitendinosus_lat	Vastus lateralis_lat	Vastus medialis_lat	Biceps femoris_med	Semitendinosus_med	Vastus lateralis_med	Vastus medialis_med	Biceps femoris_lat	Semitendinosus_lat	Vastus lateralis_lat	Vastus medialis_lat	Biceps femoris_med	Semitendinosus_med	Vastus lateralis_med	Vastus medialis_med	Biceps femoris_lat	Semitendinosus_lat	Vastus lateralis_lat	Vastus medialis_lat	Biceps femoris_med	Semitendinosus_med	Vastus lateralis_med	Vastus medialis_med
	P2D	P2D	P2D	P2D	P2D	P2D	P2D	P2D	P2D	P2D	P2D	P2D	P2D	P2D	P2D	P2D	P2D	P2D	P2D	P2D	P2D	P2D	P2D	P2D	P2D	P2D	P2D	P2D	P2D	P2D	P2D	P2D	P2D	P2D	P2D	P2D	P2D	P2D	P2D	P2D	P2D	P2D	P2D	P2D	P2D	P2D	P2D	P2D	P2D	P2D	P2D	P2D	P2D	P2D	P2D	P2D	P2D	P2D	P2D	P2D	P2D	P2D	P2D	P2D
	EMG_lat	EMG_lat	EMG_lat	EMG_lat	EMG_med	EMG_med	EMG_med	EMG_med	EMG_lat	EMG_lat	EMG_lat	EMG_lat	EMG_med	EMG_med	EMG_med	EMG_med	EMG_lat	EMG_lat	EMG_lat	EMG_lat	EMG_med	EMG_med	EMG_med	EMG_med	EMG_lat	EMG_lat	EMG_lat	EMG_lat	EMG_med	EMG_med	EMG_med	EMG_med	EMG_lat	EMG_lat	EMG_lat	EMG_lat	EMG_med	EMG_med	EMG_med	EMG_med	EMG_lat	EMG_lat	EMG_lat	EMG_lat	EMG_med	EMG_med	EMG_med	EMG_med	EMG_lat	EMG_lat	EMG_lat	EMG_lat	EMG_med	EMG_med	EMG_med	EMG_med	EMG_lat	EMG_lat	EMG_lat	EMG_lat	EMG_med	EMG_med	EMG_med	EMG_med
ITEM	Y	Y	Y	Y	Y	Y	Y	Y	Y	Y	Y	Y	Y	Y	Y	Y	Y	Y	Y	Y	Y	Y	Y	Y	Y	Y	Y	Y	Y	Y	Y	Y	Y	Y	Y	Y	Y	Y	Y	Y	Y	Y	Y	Y	Y	Y	Y	Y	Y	Y	Y	Y	Y	Y	Y	Y	Y	Y	Y	Y	Y	Y	Y	Y
1	0.285339	0.225662	0.199508	0.170809	0.375177	0.243674	0.270284	0.104929	0.391175	0.629730	0.195079	0.117745	0.296210	0.254931	0.130185	0.052268	0.107758	0.141900	0.385575	0.105946	0.520255	0.566587	0.236448	0.112695	0.260498	0.235851	0.614868	0.251117	0.153145	0.195137	0.424822	0.157174	0.306150	0.389099	0.249161	0.069895	0.232493	0.261903	0.167612	0.083039	0.215888	0.149831	0.407331	0.135793	0.094163	0.113686	0.378778	0.098784	0.345733	0.323915	0.214550	0.106416	0.565130	0.579692	0.226042	0.138374	0.391423	0.203829	0.405700	0.167560	0.330157	0.252638	0.376884	0.132534
2	0.292517	0.226701	0.197366	0.196972	0.387685	0.239050	0.267348	0.119890	0.421895	0.680436	0.203950	0.100182	0.260324	0.251885	0.268884	0.087781	0.121905	0.148681	0.442814	0.103187	0.520433	0.571740	0.226974	0.104729	0.262989	0.231089	0.616718	0.262954	0.172888	0.183945	0.424028	0.176181	0.298562	0.338816	0.265806	0.075101	0.231713	0.261795	0.155075	0.087131	0.236277	0.153221	0.356278	0.163133	0.099995	0.115045	0.383792	0.089588	0.380293	0.318651	0.217906	0.106313	0.542668	0.528345	0.234016	0.140197	0.403847	0.219249	0.442225	0.178548	0.334872	0.255061	0.363527	0.085145
3	0.258457	0.211717	0.215907	0.227969	0.385737	0.237202	0.267878	0.120831	0.423115	0.687500	0.201630	0.092500	0.211900	0.271748	0.313394	0.106171	0.140211	0.166257	0.447083	0.083050	0.514977	0.559889	0.203615	0.095393	0.237544	0.158752	0.613164	0.264187	0.169004	0.176704	0.433708	0.194052	0.276221	0.231578	0.279025	0.081550	0.207098	0.249333	0.153807	0.087488	0.236808	0.150599	0.316672	0.161145	0.099676	0.113241	0.369031	0.097367	0.412506	0.324230	0.222754	0.104078	0.498738	0.488926	0.232723	0.132951	0.397430	0.224290	0.434205	0.195563	0.308289	0.233248	0.264014	0.141467
4	0.220055	0.183798	0.216076	0.233528	0.383241	0.236186	0.258946	0.123298	0.418725	0.687260	0.206817	0.103715	0.214224	0.264243	0.317461	0.109874	0.153640	0.159446	0.440132	0.073496	0.485579	0.493177	0.189282	0.094229	0.238233	0.132177	0.554898	0.271850	0.161972	0.176139	0.453227	0.195704	0.275975	0.215388	0.295911	0.084764	0.198121	0.209688	0.163401	0.087491	0.237563	0.144115	0.310147	0.154119	0.099461	0.109632	0.352840	0.098722	0.375857	0.284858	0.186617	0.117408	0.467881	0.464570	0.242991	0.112439	0.395225	0.224408	0.453875	0.225034	0.279263	0.211720	0.249483	0.214834
5	0.217087	0.178394	0.218871	0.220764	0.380207	0.238323	0.260519	0.132564	0.377742	0.668236	0.205446	0.110567	0.221897	0.236466	0.320826	0.131002	0.153685	0.169150	0.424730	0.070206	0.478569	0.485745	0.177498	0.101477	0.215204	0.142860	0.540769	0.283910	0.178177	0.167687	0.444660	0.184741	0.272049	0.201576	0.353400	0.083494	0.182079	0.146164	0.183083	0.088051	0.234049	0.125015	0.264992	0.163331	0.094693	0.121409	0.350446	0.093422	0.370363	0.229645	0.198214	0.200232	0.452839	0.412529	0.293081	0.116363	0.394984	0.233595	0.490997	0.247155	0.256227	0.192358	0.250313	0.224296
6	0.211623	0.174396	0.248738	0.229558	0.380672	0.242131	0.273924	0.131839	0.354949	0.651241	0.179959	0.113269	0.225686	0.238870	0.339517	0.143493	0.145707	0.180184	0.421405	0.086614	0.429457	0.429328	0.179846	0.111578	0.211434	0.153139	0.517923	0.288060	0.194929	0.171238	0.398045	0.156857	0.275497	0.192515	0.353096	0.083214	0.185402	0.145301	0.173430	0.085901	0.237662	0.121459	0.246354	0.212427	0.098601	0.135748	0.353658	0.097104	0.443860	0.276044	0.234097	0.274531	0.344713	0.317251	0.319340	0.136848	0.397404	0.241298	0.484952	0.245598	0.264757	0.181228	0.270065	0.279035
7	0.217457	0.176571	0.250468	0.244946	0.373167	0.237597	0.302889	0.128512	0.336907	0.615217	0.270677	0.125677	0.258264	0.243040	0.358703	0.144108	0.166595	0.190580	0.444238	0.138547	0.373164	0.381371	0.189904	0.117953	0.210701	0.154328	0.505926	0.292085	0.205070	0.176960	0.365835	0.145743	0.258249	0.202667	0.353286	0.084392	0.172849	0.145877	0.173872	0.088307	0.234746	0.121538	0.214671	0.242992	0.096330	0.132088	0.348941	0.095152	0.462359	0.289412	0.217754	0.284264	0.190301	0.211610	0.329240	0.125555	0.405425	0.247187	0.481528	0.269527	0.272464	0.173180	0.255536	0.359428
8	0.221454	0.170718	0.251470	0.257463	0.318178	0.204832	0.338341	0.129658	0.294808	0.502386	0.289969	0.116242	0.261320	0.229756	0.404214	0.172264	0.192991	0.207288	0.431176	0.237670	0.357936	0.378269	0.193471	0.118470	0.229666	0.168494	0.540476	0.291752	0.212450	0.180878	0.363936	0.159249	0.234811	0.203021	0.355303	0.130196	0.147398	0.143478	0.177946	0.095229	0.245804	0.133561	0.204691	0.246054	0.108889	0.175198	0.340773	0.086031	0.482144	0.301329	0.232939	0.311603	0.168520	0.166926	0.301964	0.121521	0.401774	0.248315	0.508563	0.322236	0.276395	0.182332	0.331571	0.378643
9	0.188500	0.118548	0.251173	0.246588	0.275627	0.151680	0.342812	0.128127	0.290281	0.416427	0.301825	0.117436	0.259882	0.234941	0.426863	0.230314	0.221076	0.222571	0.386125	0.258398	0.295363	0.365137	0.209225	0.131230	0.269589	0.194675	0.543538	0.291732	0.207579	0.169860	0.349433	0.165210	0.231156	0.197460	0.353710	0.149316	0.150715	0.147040	0.210953	0.115596	0.269894	0.169939	0.212259	0.251785	0.129421	0.199626	0.319098	0.085559	0.509456	0.316273	0.291205	0.370560	0.167762	0.153998	0.340917	0.115325	0.344836	0.223645	0.530205	0.346653	0.267649	0.166225	0.360412	0.379755
10	0.178803	0.112603	0.212454	0.246493	0.265460	0.119518	0.326917	0.121679	0.284201	0.404619	0.315970	0.134339	0.240579	0.235364	0.457434	0.249652	0.255942	0.251451	0.353202	0.269895	0.248061	0.330706	0.224583	0.145267	0.296495	0.207145	0.510224	0.291924	0.201335	0.173216	0.281382	0.167788	0.214664	0.200749	0.337402	0.150412	0.152566	0.144816	0.213898	0.123220	0.266420	0.169641	0.233981	0.272498	0.157481	0.217206	0.315122	0.095269	0.514202	0.320448	0.306960	0.376990	0.169195	0.154091	0.355408	0.118380	0.306703	0.214820	0.514027	0.348115	0.251276	0.153718	0.371610	0.390605
11	0.164182	0.112752	0.210632	0.239549	0.262819	0.128249	0.306678	0.127426	0.267831	0.389312	0.368677	0.148269	0.228893	0.233914	0.482806	0.256440	0.301507	0.282168	0.391877	0.323137	0.249878	0.328141	0.224526	0.142723	0.299610	0.211239	0.423473	0.250641	0.196589	0.183575	0.242600	0.169159	0.150912	0.189577	0.328622	0.150305	0.143746	0.135999	0.225181	0.126526	0.293452	0.169827	0.220633	0.299725	0.199094	0.239614	0.310957	0.114487	0.525281	0.331155	0.326081	0.377703	0.168176	0.149238	0.360144	0.116530	0.283344	0.215844	0.481292	0.345580	0.236749	0.148544	0.368922	0.424381
12	0.150841	0.105662	0.221371	0.209256	0.245647	0.150034	0.277683	0.153734	0.200610	0.306527	0.403882	0.162326	0.253374	0.249743	0.526766	0.272304	0.305831	0.281795	0.363605	0.373803	0.206065	0.257800	0.235238	0.132435	0.280509	0.202647	0.372385	0.215458	0.195311	0.185431	0.242683	0.171302	0.159416	0.190611	0.313143	0.146504	0.131381	0.124113	0.224805	0.123964	0.337096	0.163874	0.216057	0.326259	0.210108	0.244659	0.367986	0.135640	0.516432	0.319436	0.328213	0.381321	0.167011	0.147130	0.355194	0.115408	0.276877	0.220812	0.465132	0.335483	0.212054	0.141907	0.369309	0.442716
13	0.159394	0.099254	0.214611	0.184773	0.195000	0.160572	0.273854	0.152669	0.186160	0.183997	0.400026	0.165208	0.254437	0.239236	0.487460	0.266972	0.316124	0.292503	0.337033	0.396715	0.161714	0.227436	0.273259	0.128323	0.265548	0.193605	0.366668	0.216207	0.185844	0.181321	0.243530	0.173014	0.177185	0.188875	0.306763	0.160014	0.141545	0.119848	0.220036	0.129673	0.328818	0.161378	0.219780	0.330562	0.222236	0.249661	0.372082	0.137149	0.479257	0.299559	0.340801	0.391787	0.163407	0.136641	0.357317	0.116582	0.264480	0.210338	0.447057	0.334644	0.224928	0.166005	0.378714	0.444952
14	0.254156	0.130884	0.234617	0.182173	0.138998	0.162343	0.288156	0.138445	0.194603	0.154301	0.396769	0.170699	0.262216	0.230115	0.480679	0.265243	0.318889	0.294180	0.362397	0.399774	0.159917	0.218368	0.296243	0.128488	0.264340	0.185710	0.388681	0.233221	0.176754	0.174699	0.266651	0.159100	0.178716	0.185294	0.293487	0.185477	0.144156	0.117262	0.215577	0.130179	0.334003	0.170190	0.227644	0.325210	0.247699	0.272387	0.363910	0.144550	0.434156	0.276257	0.342358	0.397400	0.153942	0.099631	0.361276	0.150670	0.231287	0.193881	0.417337	0.328219	0.242647	0.179854	0.431818	0.450419
15	0.260412	0.131365	0.228106	0.185031	0.132245	0.163509	0.299557	0.138169	0.202010	0.149516	0.401473	0.165669	0.268694	0.223017	0.484782	0.261876	0.340919	0.306876	0.389325	0.403488	0.164596	0.206808	0.305474	0.125694	0.272065	0.181423	0.380280	0.243127	0.174605	0.169283	0.284937	0.134296	0.176808	0.178167	0.216542	0.205217	0.149177	0.127877	0.202546	0.129265	0.341348	0.184216	0.232190	0.334529	0.275779	0.294086	0.361061	0.158983	0.422636	0.262700	0.343915	0.382348	0.152201	0.096114	0.324490	0.168058	0.201708	0.190065	0.412980	0.315802	0.258970	0.187611	0.436528	0.453194
16	0.268322	0.133728	0.222159	0.169141	0.133560	0.161279	0.306355	0.136966	0.265286	0.180614	0.405673	0.210673	0.265319	0.213576	0.481837	0.257625	0.373665	0.305618	0.393514	0.406787	0.173703	0.198884	0.304835	0.129331	0.291999	0.181769	0.386357	0.229217	0.173877	0.171062	0.252613	0.124043	0.173630	0.156847	0.226078	0.216076	0.167523	0.139954	0.196486	0.125483	0.341492	0.184187	0.234446	0.352783	0.287948	0.299965	0.362256	0.157767	0.384402	0.236338	0.330244	0.332034	0.143946	0.098827	0.304131	0.160320	0.198380	0.189778	0.351791	0.310225	0.324290	0.208654	0.435118	0.454437
17	0.271328	0.130441	0.227030	0.137979	0.135665	0.149572	0.308874	0.130283	0.306831	0.200060	0.399325	0.350504	0.261007	0.209810	0.467680	0.266492	0.376122	0.302779	0.393898	0.404385	0.178943	0.194196	0.304951	0.130698	0.282451	0.170802	0.384831	0.217286	0.159681	0.169340	0.211125	0.124539	0.169310	0.139372	0.248231	0.218048	0.166230	0.140660	0.207315	0.121488	0.372674	0.198042	0.254581	0.356331	0.291477	0.299493	0.363368	0.157028	0.308276	0.189645	0.326633	0.324768	0.151416	0.102442	0.272982	0.148039	0.190576	0.174947	0.296983	0.336212	0.348946	0.209673	0.414601	0.417101
18	0.300567	0.135509	0.222915	0.130299	0.157543	0.142372	0.303524	0.127409	0.320162	0.205530	0.339952	0.448242	0.285356	0.214024	0.454322	0.271929	0.362928	0.293563	0.383769	0.383372	0.178675	0.186014	0.310320	0.139992	0.272620	0.164900	0.386074	0.240233	0.136402	0.162619	0.206422	0.124465	0.170297	0.137893	0.260451	0.193638	0.162926	0.136888	0.206308	0.130118	0.412065	0.220917	0.319225	0.338444	0.299142	0.292778	0.358804	0.163683	0.301792	0.186367	0.371336	0.349343	0.137087	0.079545	0.264536	0.147844	0.179146	0.166890	0.293661	0.363236	0.348162	0.211112	0.402363	0.402851
19	0.308236	0.135698	0.227100	0.196474	0.167503	0.142095	0.281804	0.122196	0.345751	0.222767	0.392973	0.475907	0.291560	0.211684	0.425399	0.244274	0.356111	0.286708	0.395878	0.338985	0.180923	0.185343	0.308699	0.158043	0.285447	0.170087	0.347491	0.271155	0.120210	0.154734	0.217814	0.127815	0.202615	0.142480	0.257664	0.178694	0.155120	0.125616	0.204297	0.147644	0.422639	0.229586	0.330054	0.331339	0.306014	0.290412	0.342843	0.166289	0.236078	0.156634	0.364166	0.320995	0.120034	0.074068	0.218037	0.148044	0.157233	0.159666	0.295899	0.342736	0.328637	0.195536	0.315755	0.416000
20	0.327486	0.140137	0.227306	0.221128	0.165962	0.143958	0.234674	0.117067	0.393985	0.297299	0.495221	0.475663	0.291442	0.208374	0.401020	0.204289	0.356021	0.268620	0.396703	0.342477	0.178530	0.161016	0.311122	0.218625	0.293926	0.171819	0.328599	0.276733	0.101829	0.147636	0.218734	0.128549	0.193207	0.133343	0.251894	0.187331	0.162864	0.123674	0.184387	0.155581	0.406918	0.210734	0.333297	0.335416	0.325530	0.328047	0.323170	0.165664	0.227086	0.156399	0.351591	0.311826	0.123560	0.074531	0.152429	0.145949	0.154655	0.160941	0.294074	0.309079	0.317807	0.191917	0.272093	0.417094
21	0.371559	0.156883	0.203228	0.221635	0.164567	0.143498	0.229872	0.115245	0.402021	0.313861	0.514884	0.480988	0.285500	0.199098	0.393596	0.199885	0.330329	0.229357	0.395799	0.328140	0.180639	0.158236	0.309095	0.274018	0.262113	0.151152	0.316745	0.276532	0.101488	0.155580	0.218752	0.127333	0.194768	0.157247	0.227469	0.200264	0.192059	0.139252	0.180351	0.152437	0.399101	0.193923	0.323987	0.331655	0.340574	0.347289	0.303410	0.193355	0.202321	0.137748	0.327400	0.316953	0.127207	0.078358	0.137838	0.151226	0.141364	0.162748	0.244570	0.338666	0.319978	0.192073	0.258308	0.411698
22	0.376084	0.164114	0.201703	0.302103	0.165785	0.141954	0.222243	0.122641	0.420838	0.321143	0.480299	0.495219	0.241767	0.162421	0.280944	0.175342	0.300528	0.201201	0.352453	0.326951	0.214056	0.181409	0.304398	0.283950	0.247633	0.139143	0.311937	0.284965	0.119716	0.151763	0.217929	0.125009	0.194855	0.185566	0.228057	0.202617	0.208085	0.152626	0.169527	0.158797	0.396763	0.195915	0.306327	0.315459	0.336527	0.344339	0.302237	0.232488	0.185141	0.123061	0.318772	0.317733	0.142831	0.124894	0.154697	0.152347	0.163731	0.174215	0.237861	0.405236	0.324704	0.194351	0.256329	0.403689
23	0.351749	0.157197	0.181700	0.329004	0.181321	0.132486	0.208832	0.148033	0.436816	0.331365	0.460466	0.516091	0.230837	0.162376	0.226204	0.165969	0.291217	0.187768	0.351308	0.365112	0.263435	0.219108	0.295748	0.280269	0.252952	0.137762	0.317119	0.282365	0.137769	0.137091	0.216779	0.120198	0.172286	0.178085	0.215549	0.188000	0.211527	0.157470	0.173130	0.171352	0.396869	0.209677	0.319732	0.323113	0.330382	0.337423	0.305501	0.228844	0.190261	0.120474	0.315162	0.340527	0.149794	0.162997	0.179791	0.155114	0.161572	0.169124	0.249010	0.453170	0.335331	0.195859	0.265576	0.419195
24	0.315263	0.168638	0.178176	0.325719	0.175075	0.107719	0.206441	0.165717	0.464512	0.358044	0.467208	0.564573	0.221465	0.156961	0.218755	0.196347	0.277460	0.165262	0.331504	0.370165	0.301523	0.243438	0.304421	0.279742	0.255339	0.139558	0.318475	0.270309	0.175491	0.191467	0.225126	0.121253	0.164287	0.176571	0.194404	0.160839	0.215690	0.163958	0.177158	0.203896	0.363024	0.205359	0.317142	0.373353	0.314136	0.327717	0.263554	0.216072	0.183893	0.119411	0.298980	0.348909	0.150938	0.175078	0.224941	0.163989	0.166509	0.163116	0.253385	0.463205	0.322325	0.210798	0.217024	0.416729
25	0.312397	0.171247	0.170630	0.336758	0.157699	0.082342	0.199054	0.189331	0.497764	0.396625	0.467556	0.610639	0.203367	0.143114	0.208565	0.217194	0.283089	0.143522	0.281785	0.375164	0.327936	0.254858	0.301944	0.291082	0.282523	0.148658	0.299006	0.260796	0.195883	0.222810	0.242517	0.116446	0.169547	0.172666	0.184188	0.141258	0.215440	0.164692	0.188900	0.204365	0.348706	0.196160	0.291968	0.394647	0.324920	0.340427	0.179300	0.236011	0.175681	0.128888	0.289230	0.359748	0.165439	0.199705	0.218425	0.175732	0.166837	0.164091	0.254373	0.467637	0.350132	0.313301	0.133639	0.378114
26	0.306072	0.170916	0.135842	0.367936	0.155124	0.085686	0.172740	0.192927	0.519620	0.419849	0.463144	0.637862	0.212950	0.149658	0.202897	0.216156	0.246732	0.112863	0.235438	0.370438	0.345310	0.261055	0.263010	0.342130	0.294508	0.151448	0.272773	0.244830	0.194666	0.230786	0.236801	0.128621	0.165241	0.181763	0.156287	0.137769	0.200568	0.152322	0.183107	0.219455	0.340788	0.182548	0.305717	0.396004	0.343272	0.363451	0.199721	0.261059	0.202786	0.158678	0.280145	0.372584	0.182981	0.215033	0.233205	0.177811	0.169869	0.168147	0.263955	0.496955	0.327147	0.312858	0.161422	0.362076
27	0.294433	0.184098	0.131728	0.384156	0.158467	0.110819	0.149639	0.209939	0.497794	0.417617	0.461326	0.636019	0.233687	0.171668	0.198634	0.205976	0.238046	0.149319	0.226717	0.372702	0.355765	0.259947	0.216170	0.428352	0.272364	0.146264	0.288953	0.243632	0.210013	0.301164	0.202470	0.140643	0.182537	0.227822	0.119711	0.130056	0.194221	0.146583	0.173318	0.243211	0.346571	0.177626	0.320047	0.401227	0.335056	0.354951	0.215627	0.260797	0.210804	0.167036	0.330444	0.379881	0.211313	0.240544	0.261228	0.179696	0.173594	0.167054	0.266681	0.517321	0.247535	0.340191	0.160873	0.351931
28	0.282543	0.252827	0.119852	0.378635	0.165182	0.165385	0.135007	0.213594	0.480889	0.413191	0.465227	0.569882	0.201744	0.173328	0.194485	0.188937	0.278389	0.178649	0.200692	0.393857	0.359418	0.256369	0.212442	0.428660	0.265916	0.143981	0.345244	0.268412	0.229170	0.330241	0.185772	0.155904	0.260565	0.284179	0.112079	0.130550	0.207195	0.153101	0.177758	0.275318	0.339296	0.176035	0.317169	0.405625	0.323210	0.344009	0.215312	0.254200	0.244090	0.190050	0.324509	0.355214	0.247523	0.261624	0.298853	0.181847	0.173592	0.165753	0.269869	0.503105	0.218949	0.337557	0.174147	0.362910
29	0.273932	0.272041	0.115743	0.341478	0.163151	0.177415	0.130471	0.212549	0.470052	0.409036	0.468516	0.494326	0.181913	0.175488	0.173131	0.188204	0.283684	0.180743	0.166022	0.419119	0.357097	0.257811	0.225846	0.430213	0.265463	0.145580	0.346407	0.279692	0.234586	0.331920	0.183882	0.159872	0.240624	0.283405	0.121266	0.134801	0.238943	0.178001	0.175349	0.286220	0.271974	0.145022	0.284997	0.399627	0.316985	0.341786	0.213601	0.257856	0.247525	0.192212	0.275240	0.330508	0.247789	0.260794	0.306840	0.181907	0.178682	0.164291	0.280425	0.474655	0.220581	0.336687	0.180666	0.367617
30	0.247033	0.300838	0.127728	0.351559	0.176879	0.233096	0.119827	0.214168	0.448957	0.395216	0.411347	0.477005	0.184408	0.175422	0.173952	0.250694	0.318047	0.217499	0.168365	0.473107	0.367405	0.265710	0.225323	0.444805	0.271469	0.149644	0.347370	0.243154	0.237980	0.331021	0.171920	0.160731	0.238646	0.279375	0.146329	0.165191	0.258426	0.192115	0.186513	0.303612	0.244876	0.121690	0.261976	0.392139	0.315023	0.341775	0.221340	0.263678	0.240410	0.184253	0.294861	0.322397	0.253969	0.263474	0.332798	0.196751	0.184477	0.169126	0.328696	0.462149	0.240530	0.349501	0.211046	0.362667
31	0.198295	0.325022	0.140339	0.368958	0.170816	0.251224	0.135436	0.213658	0.410353	0.341756	0.270563	0.491465	0.186153	0.173231	0.173131	0.256258	0.457300	0.344633	0.187465	0.541767	0.379317	0.270014	0.214593	0.443285	0.227603	0.121579	0.352669	0.235581	0.254419	0.333702	0.152845	0.164598	0.231417	0.263208	0.156807	0.154098	0.249960	0.189035	0.199720	0.326832	0.233595	0.114156	0.268358	0.391598	0.313274	0.346675	0.223991	0.263257	0.233842	0.178049	0.347755	0.321384	0.253799	0.265637	0.363783	0.212822	0.183359	0.188457	0.338146	0.478900	0.283422	0.367985	0.246530	0.362480
32	0.251458	0.324425	0.150911	0.341323	0.198468	0.255406	0.208041	0.236121	0.406654	0.331287	0.222306	0.503202	0.186256	0.168079	0.161631	0.258616	0.470696	0.354302	0.174120	0.565825	0.393130	0.273672	0.222739	0.436273	0.205164	0.099609	0.353667	0.235893	0.264085	0.337570	0.159893	0.167262	0.227340	0.243664	0.161041	0.154262	0.242097	0.181536	0.198654	0.337010	0.230764	0.112720	0.266553	0.400451	0.308973	0.340761	0.250565	0.261670	0.234395	0.183789	0.353593	0.324354	0.250021	0.261888	0.372144	0.213174	0.181357	0.188590	0.299691	0.477973	0.305996	0.399604	0.252815	0.349144
33	0.334014	0.326408	0.148677	0.344753	0.210466	0.257736	0.235875	0.307877	0.398406	0.329537	0.217181	0.508811	0.183141	0.161220	0.157583	0.265099	0.474175	0.358245	0.183863	0.531452	0.424511	0.285737	0.258125	0.410087	0.220936	0.109571	0.368878	0.241302	0.263609	0.336652	0.209094	0.234986	0.227851	0.243003	0.165015	0.171803	0.229627	0.169353	0.202196	0.344494	0.226409	0.111304	0.273615	0.415865	0.287490	0.291591	0.257498	0.263352	0.234704	0.194020	0.354776	0.329783	0.243597	0.235776	0.380239	0.279307	0.172003	0.177494	0.321795	0.447478	0.318390	0.421499	0.269285	0.319582
34	0.323869	0.317366	0.145745	0.347300	0.211161	0.259387	0.238568	0.354245	0.388623	0.319479	0.196276	0.490982	0.181457	0.155153	0.150017	0.258928	0.475253	0.359439	0.248372	0.543902	0.442948	0.290151	0.288828	0.373167	0.242116	0.130677	0.399437	0.236235	0.262775	0.334299	0.230492	0.324269	0.227444	0.246583	0.167307	0.185815	0.232374	0.164911	0.240385	0.410567	0.194728	0.094759	0.259149	0.406552	0.269872	0.246683	0.271732	0.228671	0.230190	0.194051	0.357961	0.296509	0.255463	0.228105	0.358731	0.303766	0.135980	0.151768	0.340296	0.421500	0.314340	0.420113	0.274866	0.305032
35	0.364530	0.333434	0.158881	0.339474	0.198047	0.264455	0.257804	0.375211	0.335922	0.276661	0.198313	0.431827	0.182510	0.151400	0.161708	0.239618	0.481719	0.361351	0.257027	0.573846	0.425208	0.273864	0.286455	0.360885	0.246659	0.138811	0.406278	0.236455	0.255557	0.329414	0.260398	0.334983	0.221927	0.247309	0.179075	0.217064	0.228628	0.157762	0.251972	0.485865	0.102468	0.054913	0.256644	0.356589	0.274209	0.245211	0.277512	0.222841	0.230323	0.191410	0.358995	0.278420	0.271586	0.215272	0.344214	0.287581	0.106668	0.135213	0.331620	0.413944	0.311060	0.376329	0.273953	0.323812
36	0.385717	0.331628	0.157092	0.325764	0.206583	0.281899	0.305290	0.386114	0.279456	0.219068	0.234843	0.362429	0.180601	0.152853	0.209704	0.226952	0.484027	0.366629	0.268369	0.588371	0.396267	0.251624	0.331811	0.362829	0.252407	0.140351	0.410724	0.228110	0.238855	0.311703	0.278330	0.381911	0.223016	0.237694	0.185348	0.269488	0.226513	0.154670	0.256164	0.507842	0.110666	0.068297	0.258453	0.306715	0.282690	0.243510	0.273028	0.293566	0.234660	0.177753	0.373137	0.265416	0.261903	0.201026	0.344821	0.283957	0.100128	0.140458	0.332377	0.421821	0.288818	0.330328	0.260547	0.344171
37	0.392521	0.311510	0.164417	0.327048	0.212054	0.284424	0.322000	0.405606	0.231171	0.171815	0.235317	0.318807	0.144107	0.131526	0.351091	0.226232	0.487478	0.362884	0.271018	0.594080	0.364394	0.226438	0.347866	0.369756	0.236107	0.129985	0.426043	0.219898	0.212873	0.273595	0.280696	0.431977	0.212310	0.196066	0.221939	0.299231	0.239816	0.167137	0.255307	0.500417	0.136532	0.080073	0.252908	0.323814	0.292493	0.242191	0.298563	0.292332	0.222020	0.161723	0.370176	0.255672	0.249847	0.183196	0.337470	0.289263	0.104925	0.136926	0.342510	0.412378	0.311356	0.324222	0.251494	0.354589
38	0.386950	0.251249	0.193236	0.328429	0.233368	0.296068	0.327660	0.414526	0.206333	0.144831	0.228497	0.385030	0.118755	0.110972	0.404487	0.226660	0.469617	0.343554	0.272839	0.588250	0.334989	0.203243	0.343908	0.373168	0.251213	0.137884	0.444395	0.239220	0.215922	0.273549	0.291943	0.460330	0.109050	0.096650	0.264152	0.301230	0.259906	0.183235	0.261023	0.485622	0.122283	0.081352	0.229718	0.355738	0.267705	0.208125	0.335075	0.265261	0.216090	0.156434	0.316718	0.241833	0.200160	0.138795	0.303450	0.288508	0.099734	0.128176	0.357594	0.437290	0.314023	0.295660	0.252004	0.417381
39	0.386375	0.243533	0.201810	0.338994	0.243634	0.303976	0.342706	0.416152	0.191775	0.133327	0.209612	0.397158	0.108912	0.107052	0.404800	0.226037	0.448650	0.333199	0.272712	0.572835	0.314813	0.191143	0.344424	0.355099	0.268427	0.152356	0.429240	0.287546	0.214137	0.228902	0.297642	0.473697	0.119532	0.109156	0.326106	0.327412	0.247591	0.172929	0.281505	0.473632	0.114980	0.082140	0.259003	0.369978	0.226303	0.151900	0.327596	0.259256	0.162133	0.115974	0.340851	0.240252	0.186860	0.126603	0.285258	0.288623	0.129046	0.149973	0.367904	0.562667	0.318453	0.296912	0.252579	0.387574
40	0.377735	0.172987	0.216791	0.361804	0.239113	0.279257	0.345115	0.422795	0.191153	0.134070	0.187875	0.406258	0.124584	0.121686	0.466898	0.196211	0.444961	0.331066	0.271499	0.552895	0.299853	0.187754	0.354092	0.338466	0.267991	0.151862	0.405594	0.322562	0.197514	0.162826	0.297685	0.479059	0.122322	0.112814	0.333832	0.351788	0.218502	0.147577	0.292010	0.467399	0.117633	0.081078	0.270804	0.357373	0.220695	0.132270	0.318138	0.274604	0.198782	0.135108	0.380058	0.215633	0.177776	0.127066	0.293486	0.287208	0.153167	0.172255	0.404587	0.603848	0.351701	0.316006	0.275967	0.393116
41	0.374106	0.149053	0.250887	0.404820	0.238023	0.270021	0.350294	0.432832	0.200956	0.137703	0.195231	0.421919	0.125452	0.119722	0.551991	0.140946	0.387096	0.271897	0.250841	0.488931	0.288818	0.187198	0.347359	0.335586	0.266255	0.154670	0.404836	0.331943	0.192638	0.150343	0.298528	0.479471	0.123272	0.117980	0.346176	0.361898	0.203570	0.138955	0.273064	0.474369	0.128634	0.093063	0.248257	0.360162	0.234262	0.130738	0.318262	0.289094	0.207084	0.140692	0.345863	0.187957	0.177001	0.125447	0.247582	0.277687	0.162256	0.184459	0.419792	0.608049	0.337900	0.299571	0.275908	0.464049
42	0.324714	0.159314	0.282485	0.453435	0.217403	0.246883	0.353994	0.435845	0.197943	0.130241	0.200651	0.428420	0.127429	0.124432	0.609287	0.141343	0.243615	0.140502	0.247739	0.409093	0.287462	0.181563	0.358798	0.334752	0.276998	0.165051	0.381703	0.338351	0.193003	0.154629	0.301410	0.479786	0.130798	0.137792	0.382272	0.362716	0.194461	0.138182	0.277605	0.510544	0.132991	0.099129	0.228535	0.380610	0.244584	0.134920	0.321814	0.289632	0.210693	0.142530	0.314734	0.180815	0.171761	0.117854	0.277735	0.295650	0.181906	0.193309	0.405803	0.647136	0.360796	0.317247	0.253751	0.492146
43	0.304328	0.182091	0.303072	0.460986	0.214670	0.277850	0.356085	0.448973	0.186862	0.130567	0.202157	0.410739	0.155753	0.152737	0.635707	0.133219	0.233317	0.133834	0.268823	0.407520	0.271627	0.168923	0.362510	0.322364	0.277789	0.166088	0.348407	0.376167	0.178879	0.152915	0.303534	0.479817	0.129940	0.136471	0.430149	0.362089	0.194956	0.150265	0.289799	0.521544	0.136231	0.100124	0.245564	0.401416	0.244873	0.134683	0.327027	0.284752	0.221392	0.137322	0.342068	0.154101	0.168826	0.110794	0.259238	0.296678	0.190461	0.182284	0.397100	0.698873	0.391595	0.312895	0.253097	0.488814
44	0.304054	0.176590	0.353078	0.459200	0.199872	0.285808	0.338627	0.474149	0.155937	0.117578	0.203107	0.381614	0.196147	0.183704	0.646319	0.107058	0.227018	0.126080	0.281737	0.433830	0.254920	0.163935	0.371865	0.331230	0.274878	0.165530	0.341434	0.412422	0.159256	0.141719	0.303443	0.489982	0.138175	0.136590	0.445577	0.362671	0.191287	0.151001	0.290060	0.495406	0.135472	0.098411	0.250046	0.405518	0.236764	0.126579	0.321949	0.283506	0.230411	0.134647	0.338085	0.255915	0.172937	0.125152	0.243529	0.216310	0.198179	0.182114	0.412263	0.715218	0.393926	0.302520	0.219207	0.487774
45	0.238584	0.152230	0.363027	0.494119	0.269273	0.379241	0.374287	0.514915	0.121703	0.098014	0.204401	0.376051	0.214015	0.199960	0.646376	0.092074	0.230946	0.128975	0.237316	0.397112	0.232514	0.157306	0.377764	0.357500	0.252480	0.160161	0.300649	0.445317	0.154304	0.134685	0.314204	0.499183	0.155121	0.150997	0.441043	0.344909	0.180282	0.148239	0.315065	0.438522	0.133774	0.095808	0.252875	0.425000	0.235129	0.125112	0.300152	0.283990	0.229608	0.136134	0.337777	0.330422	0.153204	0.126540	0.244230	0.218230	0.223693	0.202737	0.399702	0.707540	0.388887	0.300077	0.213107	0.490440
46	0.230097	0.160233	0.393280	0.525332	0.317678	0.418874	0.385681	0.526312	0.111632	0.092862	0.183565	0.384092	0.221448	0.203543	0.645174	0.091311	0.205316	0.119512	0.231430	0.354292	0.166255	0.132392	0.357650	0.376937	0.265528	0.189011	0.269422	0.456470	0.156800	0.137804	0.327358	0.455247	0.162706	0.161045	0.437536	0.304292	0.184400	0.151035	0.316004	0.421581	0.134984	0.098125	0.282232	0.424547	0.232203	0.123464	0.324756	0.284459	0.220950	0.136604	0.334404	0.344897	0.135163	0.120725	0.251134	0.233166	0.236768	0.216657	0.384155	0.685727	0.406287	0.301517	0.212604	0.486039
47	0.230225	0.181777	0.407286	0.564694	0.323517	0.417335	0.384625	0.503248	0.133188	0.125603	0.135497	0.394796	0.254442	0.217767	0.627177	0.110253	0.174668	0.113261	0.233308	0.352574	0.087405	0.116512	0.333629	0.378374	0.247189	0.180115	0.283711	0.457645	0.177440	0.154248	0.328193	0.458476	0.166738	0.163775	0.421165	0.285228	0.185149	0.153935	0.316259	0.441875	0.142236	0.111564	0.293439	0.425296	0.238372	0.128261	0.338653	0.304538	0.236403	0.169937	0.305059	0.348414	0.128558	0.114962	0.244984	0.248724	0.237719	0.218641	0.390438	0.666664	0.398565	0.295672	0.217227	0.478398
48	0.256104	0.211569	0.408829	0.608132	0.329482	0.413158	0.401830	0.515963	0.137683	0.139455	0.150918	0.396329	0.303396	0.233940	0.579572	0.169710	0.173884	0.110664	0.236106	0.432800	0.091328	0.115148	0.328204	0.377988	0.228448	0.178387	0.264429	0.460016	0.184479	0.162949	0.305194	0.435790	0.176650	0.167518	0.389055	0.289755	0.158712	0.141591	0.316124	0.455995	0.132346	0.114665	0.291038	0.430918	0.229045	0.119800	0.337569	0.313926	0.238947	0.175907	0.334374	0.410849	0.127896	0.109540	0.233798	0.262022	0.262551	0.230729	0.390911	0.661646	0.381547	0.285496	0.215263	0.453402
49	0.263981	0.216662	0.399207	0.631022	0.350516	0.421700	0.475377	0.552012	0.137749	0.139385	0.188041	0.308813	0.319673	0.231893	0.577542	0.178190	0.179067	0.112112	0.238743	0.477739	0.094507	0.097795	0.282038	0.373122	0.206739	0.177102	0.231240	0.469948	0.185825	0.164678	0.351066	0.384599	0.174331	0.156446	0.334158	0.260353	0.138347	0.137227	0.308956	0.459009	0.119377	0.114895	0.298312	0.412402	0.203643	0.102727	0.348143	0.289814	0.251595	0.191690	0.333940	0.450298	0.127914	0.106195	0.248906	0.281888	0.433527	0.314433	0.385418	0.673182	0.380745	0.285158	0.211640	0.402137
50	0.293752	0.225199	0.410685	0.606876	0.339051	0.414979	0.527235	0.597906	0.139176	0.139044	0.190740	0.299238	0.324851	0.233852	0.567127	0.190404	0.195881	0.129403	0.247400	0.491305	0.094902	0.088407	0.253583	0.367102	0.188648	0.172118	0.193563	0.479182	0.187879	0.165605	0.383406	0.339085	0.179694	0.154012	0.317183	0.213541	0.139312	0.141934	0.305658	0.469154	0.125003	0.114933	0.302561	0.384380	0.189580	0.107417	0.320555	0.299125	0.262511	0.205892	0.281565	0.452644	0.117028	0.105219	0.256760	0.286923	0.566999	0.363237	0.398360	0.635707	0.380019	0.279536	0.203483	0.395659
51	0.307636	0.231549	0.415296	0.576213	0.358087	0.419459	0.527416	0.608218	0.150566	0.144877	0.196379	0.293781	0.393530	0.261229	0.473418	0.215734	0.204642	0.144652	0.255035	0.495625	0.093839	0.089167	0.261635	0.358377	0.200062	0.181036	0.165602	0.458530	0.207121	0.182654	0.378030	0.317243	0.178735	0.145250	0.301684	0.238783	0.138531	0.141796	0.298530	0.479879	0.141577	0.116855	0.281826	0.374026	0.190373	0.128132	0.289978	0.296577	0.248848	0.206915	0.231394	0.451547	0.118835	0.106047	0.268053	0.337982	0.588777	0.359263	0.383198	0.542060	0.345218	0.258064	0.135845	0.337944
52	0.276233	0.207659	0.443725	0.569568	0.372885	0.424794	0.526646	0.607703	0.169421	0.155954	0.186173	0.307471	0.417769	0.268109	0.381743	0.229301	0.190432	0.152739	0.254861	0.496291	0.086599	0.083200	0.266218	0.343520	0.225959	0.192313	0.177592	0.430936	0.215816	0.188835	0.380655	0.315177	0.171970	0.125544	0.279050	0.277842	0.139925	0.140157	0.307966	0.462217	0.182722	0.115527	0.279835	0.376290	0.191100	0.128512	0.287306	0.285275	0.251660	0.211173	0.232359	0.453720	0.123825	0.108441	0.244040	0.373852	0.631079	0.383788	0.339862	0.538258	0.334440	0.244839	0.118377	0.232561
53	0.265041	0.197761	0.425218	0.570072	0.375631	0.425742	0.527476	0.637871	0.182738	0.162743	0.203203	0.342944	0.427101	0.261804	0.310280	0.233360	0.198270	0.157481	0.266578	0.495760	0.122343	0.082443	0.252945	0.234427	0.213247	0.182431	0.174624	0.430086	0.213065	0.183857	0.391125	0.311236	0.180235	0.128977	0.209513	0.306907	0.157000	0.136926	0.296632	0.422516	0.220943	0.114321	0.294686	0.377594	0.160432	0.122735	0.287512	0.278646	0.239131	0.203713	0.199786	0.455649	0.149552	0.123061	0.220990	0.379161	0.767420	0.445393	0.315009	0.577465	0.263541	0.174317	0.115943	0.190756
54	0.270618	0.199011	0.386117	0.556017	0.375159	0.417776	0.531720	0.658174	0.208247	0.162674	0.211060	0.367687	0.414694	0.240730	0.268125	0.234697	0.204654	0.153637	0.250874	0.471918	0.158556	0.083116	0.267190	0.233379	0.204970	0.178133	0.174703	0.409715	0.216196	0.186346	0.392172	0.317959	0.190704	0.132057	0.173159	0.301392	0.163424	0.135905	0.292082	0.438041	0.221810	0.121986	0.302709	0.374094	0.150748	0.119777	0.287038	0.273300	0.218204	0.197521	0.191972	0.434919	0.210797	0.149630	0.232268	0.373071	0.791624	0.443715	0.327511	0.542575	0.196318	0.107160	0.114483	0.186662
55	0.267811	0.196031	0.376937	0.518273	0.374301	0.383713	0.555463	0.653332	0.286186	0.175307	0.219953	0.372091	0.398901	0.218293	0.260864	0.235235	0.206262	0.150181	0.248989	0.418818	0.216820	0.084336	0.293278	0.233164	0.206728	0.178403	0.208740	0.373211	0.239442	0.218893	0.412387	0.363704	0.216729	0.145442	0.173720	0.314668	0.160556	0.132939	0.262813	0.425774	0.221474	0.125855	0.303636	0.361138	0.136384	0.117859	0.283049	0.269920	0.222801	0.202104	0.191019	0.365975	0.232064	0.151783	0.236410	0.380565	0.790694	0.445664	0.328924	0.463922	0.193255	0.093874	0.125715	0.174141
56	0.263775	0.189853	0.343273	0.510614	0.374365	0.377495	0.563464	0.631668	0.335795	0.186003	0.229407	0.387566	0.396551	0.214078	0.263465	0.236273	0.205248	0.147465	0.294589	0.402723	0.216444	0.084451	0.296861	0.235543	0.207808	0.176636	0.253515	0.336794	0.241223	0.228892	0.434328	0.405167	0.222585	0.146875	0.210176	0.338305	0.158977	0.131681	0.214067	0.392405	0.236337	0.135264	0.335065	0.336614	0.135587	0.126208	0.290742	0.269175	0.231596	0.208802	0.190978	0.330910	0.233649	0.147039	0.233381	0.391802	0.786954	0.445122	0.311829	0.439856	0.147562	0.082033	0.121215	0.141733
57	0.237846	0.156610	0.369956	0.474660	0.325056	0.292321	0.531688	0.575441	0.335648	0.186956	0.239390	0.482636	0.386908	0.207827	0.227434	0.238604	0.204172	0.145978	0.308157	0.439191	0.215327	0.086141	0.287172	0.231027	0.184274	0.145511	0.254386	0.320368	0.283200	0.228789	0.423922	0.392212	0.226975	0.150899	0.214541	0.344315	0.153424	0.125603	0.214420	0.354660	0.262536	0.152164	0.451265	0.343707	0.131118	0.122652	0.313860	0.268877	0.215237	0.193930	0.193733	0.345915	0.243302	0.153445	0.232426	0.394920	0.780481	0.436226	0.308533	0.440465	0.125871	0.075902	0.127700	0.122174
58	0.240035	0.151153	0.381009	0.429877	0.281708	0.222120	0.518378	0.533132	0.326922	0.163606	0.257023	0.531791	0.372139	0.201631	0.175425	0.228687	0.220269	0.151719	0.301951	0.443233	0.215242	0.091315	0.272406	0.195668	0.172916	0.122510	0.273664	0.340093	0.345797	0.228711	0.396197	0.361022	0.217976	0.148889	0.212639	0.353458	0.149241	0.116779	0.214507	0.329792	0.260837	0.147226	0.457649	0.348553	0.134307	0.122075	0.311633	0.267116	0.189712	0.170266	0.173039	0.307917	0.272496	0.175232	0.244527	0.388360	0.781668	0.430989	0.318039	0.449086	0.141349	0.088301	0.140404	0.117649
59	0.244966	0.159735	0.393235	0.437521	0.282433	0.220649	0.522981	0.530169	0.341257	0.171369	0.247561	0.528850	0.410932	0.232420	0.147038	0.208223	0.251289	0.172698	0.327388	0.354610	0.214746	0.092041	0.271673	0.148967	0.173961	0.123958	0.317290	0.343249	0.336115	0.217613	0.372621	0.339484	0.208559	0.145868	0.216560	0.370025	0.156717	0.110907	0.212984	0.316942	0.261925	0.137205	0.455377	0.329016	0.127071	0.121952	0.262004	0.262719	0.192850	0.164786	0.115217	0.203908	0.273656	0.183952	0.283503	0.373394	0.782972	0.430096	0.316924	0.461592	0.153817	0.094501	0.143687	0.128989
60	0.204274	0.142582	0.373584	0.452939	0.270438	0.209391	0.499909	0.503636	0.370511	0.186615	0.221458	0.542885	0.446908	0.243677	0.143711	0.205254	0.288991	0.188934	0.380333	0.323639	0.216026	0.089731	0.282724	0.141644	0.179295	0.125860	0.318241	0.349834	0.330459	0.207820	0.382135	0.328810	0.203263	0.147459	0.273704	0.426984	0.156117	0.099173	0.210511	0.309617	0.300610	0.162385	0.454308	0.318472	0.114055	0.116551	0.252086	0.230395	0.159338	0.133698	0.135617	0.195694	0.280962	0.207979	0.282366	0.370784	0.763993	0.416063	0.328152	0.483286	0.141145	0.094357	0.146850	0.145131
61	0.200341	0.141203	0.318200	0.399060	0.240868	0.182938	0.435402	0.442191	0.374901	0.187569	0.270074	0.555916	0.417500	0.212881	0.165252	0.181871	0.289908	0.180995	0.383208	0.313420	0.214089	0.090091	0.282192	0.143622	0.177355	0.118081	0.322466	0.346018	0.331027	0.204671	0.363897	0.330630	0.218424	0.168988	0.278153	0.461667	0.155551	0.101544	0.205700	0.280462	0.308146	0.166403	0.445106	0.317900	0.107203	0.115301	0.276117	0.176070	0.146983	0.116507	0.154115	0.197493	0.281885	0.216310	0.325194	0.359737	0.670572	0.358407	0.321117	0.503572	0.135584	0.107309	0.153874	0.155253
62	0.197176	0.140724	0.295328	0.374946	0.238230	0.181730	0.397773	0.371524	0.372686	0.181821	0.318172	0.550912	0.393176	0.231908	0.183370	0.239663	0.281861	0.185369	0.381179	0.320897	0.211974	0.095376	0.313035	0.160388	0.170981	0.113244	0.328600	0.316270	0.337177	0.203975	0.299382	0.335151	0.223377	0.175700	0.251965	0.444189	0.159966	0.101708	0.194798	0.250350	0.310138	0.178504	0.436122	0.315705	0.103098	0.114605	0.268904	0.146475	0.129536	0.096946	0.169887	0.200296	0.282551	0.217654	0.335587	0.309446	0.572984	0.318081	0.289107	0.504595	0.172127	0.154451	0.162811	0.156901
63	0.188302	0.136711	0.291721	0.374664	0.194373	0.142706	0.433040	0.338571	0.364755	0.171474	0.340167	0.524762	0.462547	0.283657	0.191120	0.434186	0.281680	0.200559	0.378557	0.323858	0.212731	0.095669	0.364793	0.182484	0.138213	0.103669	0.369164	0.300521	0.344355	0.191397	0.291013	0.345978	0.234747	0.184709	0.257907	0.466256	0.154978	0.104115	0.209494	0.260433	0.303559	0.192492	0.475306	0.305145	0.102757	0.101418	0.266290	0.138206	0.128828	0.092617	0.192126	0.223457	0.288150	0.220718	0.341880	0.267439	0.558427	0.321023	0.292551	0.491527	0.201997	0.167099	0.159911	0.157410
64	0.180456	0.132480	0.288830	0.379004	0.201629	0.136865	0.449826	0.336067	0.356511	0.181698	0.333977	0.482081	0.482053	0.297117	0.197315	0.498724	0.302345	0.218307	0.364555	0.322357	0.219509	0.096590	0.372377	0.189241	0.128598	0.102719	0.366336	0.299296	0.337746	0.166633	0.287109	0.342762	0.223627	0.179239	0.305510	0.596217	0.171589	0.116597	0.209036	0.235895	0.267493	0.191212	0.517349	0.312197	0.105356	0.079464	0.266949	0.149808	0.135506	0.090973	0.196757	0.220219	0.275688	0.210015	0.378346	0.268143	0.470711	0.258806	0.337727	0.460906	0.206874	0.168004	0.153509	0.156612
65	0.185476	0.132770	0.297453	0.360635	0.233707	0.150632	0.494218	0.291145	0.347598	0.295762	0.329869	0.458823	0.507237	0.320456	0.288519	0.502847	0.303259	0.222845	0.345723	0.321598	0.230049	0.105686	0.369011	0.190041	0.163765	0.119010	0.398846	0.296055	0.330441	0.160891	0.277064	0.338042	0.215123	0.184440	0.311949	0.656626	0.205939	0.133172	0.208261	0.225333	0.257254	0.185909	0.520178	0.321758	0.110984	0.085176	0.270548	0.150161	0.151063	0.091122	0.189116	0.223404	0.232441	0.194991	0.381306	0.303454	0.288512	0.174544	0.346404	0.411977	0.206085	0.170527	0.165395	0.163968
66	0.193866	0.134059	0.288000	0.332979	0.232536	0.154451	0.527765	0.272685	0.293705	0.345802	0.323673	0.458136	0.539498	0.348850	0.473959	0.523098	0.316810	0.231156	0.315210	0.328568	0.243146	0.134707	0.379985	0.196699	0.181583	0.122040	0.405881	0.288118	0.329394	0.162946	0.270950	0.336771	0.221547	0.202720	0.305952	0.662901	0.212512	0.135042	0.225704	0.257487	0.270798	0.194625	0.554687	0.322145	0.102981	0.084783	0.284755	0.133388	0.131906	0.065752	0.191521	0.223466	0.220026	0.205699	0.379661	0.333094	0.255760	0.172542	0.314799	0.382397	0.201366	0.172613	0.294067	0.223880
67	0.248222	0.147947	0.261952	0.347181	0.230497	0.158588	0.537614	0.297904	0.267308	0.392113	0.321957	0.444918	0.542490	0.352780	0.501516	0.540352	0.316920	0.232540	0.296355	0.344801	0.246460	0.166964	0.400554	0.206392	0.177830	0.121661	0.383627	0.276776	0.316202	0.130901	0.253724	0.308039	0.235004	0.215549	0.302984	0.656930	0.210328	0.140780	0.285087	0.261914	0.277321	0.202592	0.621493	0.307274	0.086580	0.082932	0.295332	0.121177	0.143785	0.084007	0.237890	0.221813	0.220307	0.209899	0.379485	0.348698	0.256560	0.161505	0.302651	0.376622	0.220681	0.182349	0.385510	0.287832
68	0.237695	0.123797	0.251285	0.302736	0.226741	0.161334	0.524965	0.313801	0.306736	0.469397	0.333218	0.334182	0.550406	0.369934	0.502482	0.536492	0.314525	0.232748	0.344202	0.333505	0.197722	0.172325	0.374234	0.215308	0.179189	0.121663	0.418617	0.271554	0.306365	0.086924	0.197225	0.224655	0.240211	0.217702	0.302999	0.649105	0.207302	0.147584	0.317264	0.261712	0.253192	0.190122	0.610636	0.304730	0.088958	0.081390	0.284815	0.120107	0.211652	0.130894	0.274490	0.213611	0.194985	0.199317	0.381832	0.338195	0.257380	0.157886	0.306217	0.376408	0.249225	0.208320	0.397890	0.304872
69	0.271622	0.144121	0.271553	0.236507	0.231523	0.178918	0.518670	0.310741	0.306888	0.469443	0.336513	0.252210	0.514348	0.359150	0.529767	0.541325	0.303595	0.235178	0.353813	0.306751	0.200684	0.174507	0.362789	0.214423	0.180245	0.121633	0.425786	0.240587	0.298562	0.085635	0.186247	0.180737	0.243647	0.219500	0.302160	0.640614	0.202814	0.155236	0.314316	0.296485	0.246032	0.186841	0.576151	0.338750	0.092707	0.069260	0.263897	0.124972	0.226077	0.137928	0.286511	0.213553	0.188026	0.189407	0.365222	0.344649	0.255982	0.155147	0.312148	0.373942	0.303945	0.249258	0.474413	0.311213
70	0.415309	0.194681	0.255692	0.212256	0.224735	0.183707	0.519051	0.302431	0.288571	0.469882	0.339089	0.257711	0.471681	0.347280	0.550247	0.561934	0.294979	0.238147	0.355013	0.305258	0.201673	0.172054	0.376807	0.211301	0.182679	0.121293	0.392346	0.219772	0.189433	0.082197	0.180727	0.180452	0.244342	0.218929	0.252136	0.603551	0.191106	0.151760	0.299214	0.344869	0.246129	0.186465	0.579155	0.362685	0.089325	0.068408	0.239596	0.140377	0.223301	0.146147	0.356733	0.206090	0.197525	0.177712	0.348187	0.417936	0.244985	0.160464	0.304001	0.371070	0.314895	0.256126	0.547891	0.339640
71	0.471618	0.211304	0.255889	0.212702	0.214022	0.182417	0.510937	0.310754	0.254205	0.465233	0.339526	0.223746	0.457900	0.362990	0.556342	0.584242	0.266061	0.231334	0.434238	0.296651	0.207460	0.170567	0.381703	0.219761	0.184170	0.118434	0.386950	0.210235	0.183415	0.078491	0.174295	0.182395	0.231535	0.203336	0.246258	0.560246	0.189610	0.150941	0.301092	0.351536	0.212448	0.173686	0.589141	0.375394	0.084042	0.068757	0.246320	0.152971	0.218199	0.144548	0.388824	0.205085	0.196128	0.151718	0.353976	0.475986	0.243466	0.163105	0.296167	0.360846	0.317116	0.258854	0.548729	0.346285
72	0.484326	0.215455	0.256141	0.214488	0.213535	0.183814	0.496982	0.349177	0.270257	0.465926	0.297949	0.233490	0.467211	0.378112	0.558803	0.582024	0.279161	0.236676	0.463915	0.282459	0.210522	0.168870	0.373236	0.235339	0.187142	0.124373	0.431818	0.195443	0.181454	0.078226	0.165726	0.184387	0.232070	0.198324	0.247892	0.555738	0.196155	0.162483	0.307522	0.335934	0.171755	0.159256	0.640550	0.367754	0.082079	0.074878	0.252249	0.158340	0.218135	0.144581	0.389049	0.205411	0.192407	0.153894	0.310463	0.476105	0.241568	0.151032	0.280768	0.320254	0.311312	0.249579	0.547395	0.344589
73	0.508419	0.220606	0.256133	0.225308	0.207973	0.184273	0.484644	0.371843	0.296907	0.470463	0.279667	0.351616	0.403497	0.339445	0.562539	0.495722	0.287393	0.225521	0.466345	0.291834	0.227302	0.186409	0.363974	0.241028	0.235624	0.160174	0.432244	0.193314	0.187541	0.078394	0.138634	0.193918	0.216575	0.187711	0.231001	0.519392	0.204043	0.172515	0.300364	0.343448	0.180498	0.154449	0.676402	0.361771	0.086586	0.078071	0.227569	0.158712	0.261054	0.158619	0.374578	0.181330	0.203467	0.175508	0.307902	0.474081	0.241674	0.145489	0.274571	0.247952	0.294099	0.225149	0.549596	0.343996
74	0.516387	0.224596	0.295236	0.225872	0.206752	0.182435	0.453960	0.370667	0.309652	0.471323	0.277013	0.424427	0.346253	0.316411	0.561824	0.368563	0.277047	0.206615	0.467828	0.312957	0.257638	0.208731	0.371552	0.240365	0.267431	0.172280	0.404275	0.187152	0.214637	0.084649	0.130535	0.222828	0.215845	0.186219	0.156297	0.362756	0.193091	0.168658	0.296770	0.386550	0.180610	0.130079	0.672390	0.363038	0.114714	0.125648	0.193879	0.156487	0.292867	0.164506	0.370173	0.194295	0.231674	0.203541	0.265826	0.486845	0.244823	0.143744	0.273208	0.209675	0.285437	0.223049	0.555492	0.344396
75	0.533596	0.229367	0.288438	0.207480	0.214408	0.186298	0.409809	0.368809	0.312949	0.467400	0.272600	0.440833	0.346716	0.308564	0.557555	0.377742	0.248777	0.188465	0.468914	0.321018	0.261955	0.209036	0.353390	0.230909	0.283908	0.181031	0.396694	0.193916	0.205655	0.091730	0.095558	0.245115	0.236134	0.171357	0.140919	0.211504	0.151231	0.163241	0.295700	0.402166	0.180840	0.127264	0.635543	0.360833	0.134960	0.165491	0.200897	0.152559	0.288583	0.164357	0.391907	0.242593	0.224299	0.207243	0.244346	0.483461	0.254978	0.127832	0.262933	0.210628	0.284368	0.223618	0.567407	0.355751
76	0.534293	0.231390	0.312206	0.202921	0.183323	0.176069	0.387802	0.366175	0.313093	0.408829	0.270763	0.441188	0.316136	0.270030	0.448276	0.389627	0.251345	0.187513	0.475211	0.318360	0.263787	0.211365	0.305357	0.217453	0.277244	0.172809	0.385830	0.201999	0.186502	0.119628	0.102738	0.246906	0.261942	0.150272	0.097413	0.153496	0.156937	0.196863	0.314562	0.394400	0.179925	0.124396	0.610310	0.338187	0.139211	0.171081	0.231904	0.145457	0.285090	0.163900	0.401466	0.249840	0.245595	0.250421	0.257034	0.458266	0.240134	0.120148	0.216157	0.187274	0.287055	0.222404	0.562495	0.362089
77	0.506482	0.221642	0.335632	0.228216	0.122241	0.159180	0.339239	0.346920	0.348871	0.380330	0.315434	0.438896	0.307231	0.259716	0.346568	0.360185	0.232914	0.178961	0.483118	0.310170	0.266715	0.212141	0.285972	0.292838	0.269634	0.171100	0.358484	0.203792	0.217699	0.151067	0.111840	0.240595	0.254230	0.138665	0.094473	0.168059	0.163829	0.199667	0.362657	0.411264	0.208542	0.121805	0.598560	0.306121	0.133588	0.168227	0.225760	0.135351	0.288645	0.167991	0.392109	0.259765	0.266961	0.309105	0.249980	0.429075	0.314557	0.116517	0.187027	0.169062	0.299760	0.228487	0.501364	0.316426
78	0.501191	0.216839	0.311579	0.240475	0.119771	0.155656	0.312753	0.319314	0.346460	0.323479	0.336158	0.433099	0.322957	0.267764	0.369168	0.368801	0.232602	0.177567	0.497631	0.262904	0.269003	0.212090	0.313672	0.443233	0.286541	0.179957	0.361322	0.201947	0.244267	0.154680	0.119334	0.239408	0.256270	0.145443	0.112040	0.206666	0.183775	0.230774	0.330604	0.415153	0.231480	0.113913	0.535508	0.301599	0.131696	0.168114	0.223498	0.137428	0.277229	0.162201	0.363248	0.280355	0.276988	0.315193	0.245363	0.415647	0.459348	0.144555	0.185823	0.177895	0.298828	0.238477	0.456670	0.258022
79	0.473455	0.199727	0.306263	0.241769	0.118989	0.150637	0.255516	0.346448	0.313679	0.200751	0.323201	0.431134	0.405691	0.290199	0.362573	0.379764	0.234208	0.171379	0.498279	0.212687	0.242431	0.195110	0.354092	0.516114	0.292363	0.179529	0.329405	0.205467	0.253958	0.155521	0.132619	0.239262	0.255600	0.147424	0.121532	0.254316	0.209909	0.251664	0.348076	0.409970	0.257116	0.114277	0.469108	0.313240	0.141263	0.172470	0.208033	0.152240	0.235429	0.140819	0.360598	0.294935	0.340517	0.383327	0.241384	0.416779	0.590976	0.155092	0.190091	0.188065	0.300512	0.288354	0.458607	0.250322
80	0.303343	0.133476	0.337120	0.280333	0.118202	0.138353	0.233131	0.396872	0.313504	0.202391	0.305728	0.426394	0.412985	0.286886	0.316658	0.352516	0.220129	0.149566	0.497377	0.214637	0.231368	0.181884	0.335784	0.520980	0.291115	0.179938	0.284506	0.217649	0.254422	0.157577	0.158487	0.244290	0.254611	0.145904	0.133480	0.273482	0.230226	0.266326	0.435816	0.387203	0.259916	0.113687	0.420584	0.278490	0.140528	0.172157	0.200409	0.163974	0.239702	0.137662	0.338694	0.304550	0.383773	0.396216	0.243012	0.383815	0.614030	0.163350	0.169611	0.192021	0.275885	0.321216	0.343754	0.239485
81	0.291574	0.130551	0.355718	0.299753	0.104432	0.110152	0.232138	0.411036	0.314221	0.186047	0.301649	0.419888	0.407202	0.273418	0.296788	0.317439	0.200818	0.117965	0.480328	0.238926	0.278630	0.218463	0.355678	0.532629	0.291206	0.182620	0.278037	0.237016	0.254994	0.162733	0.189085	0.248223	0.254819	0.145185	0.141046	0.271859	0.247027	0.273424	0.448587	0.382896	0.261279	0.119253	0.409439	0.229521	0.137605	0.171121	0.200929	0.163358	0.256533	0.135843	0.231718	0.305267	0.377507	0.406093	0.200440	0.273151	0.663695	0.174420	0.150984	0.189350	0.275271	0.323931	0.279997	0.196838
82	0.245954	0.119036	0.360184	0.302071	0.106163	0.104897	0.232043	0.421074	0.317428	0.185543	0.303207	0.422131	0.389893	0.250574	0.278620	0.285433	0.196444	0.133651	0.397417	0.252340	0.295588	0.236605	0.401942	0.574816	0.290767	0.186860	0.275060	0.259860	0.255148	0.164960	0.237291	0.249263	0.247880	0.145200	0.156669	0.296742	0.273697	0.286711	0.442974	0.382877	0.260647	0.123656	0.405660	0.191878	0.146010	0.175081	0.202551	0.159503	0.296111	0.144854	0.227238	0.305684	0.399728	0.439165	0.159724	0.216977	0.745335	0.178239	0.155951	0.169633	0.271937	0.356823	0.279805	0.184456
83	0.199303	0.117656	0.398324	0.336054	0.145996	0.145551	0.268675	0.463369	0.303839	0.184977	0.302791	0.414024	0.379592	0.264404	0.270528	0.285390	0.159956	0.120114	0.382590	0.245090	0.308106	0.237710	0.394814	0.598504	0.328621	0.204000	0.226261	0.258863	0.257957	0.170150	0.254182	0.265747	0.246061	0.148855	0.190184	0.302413	0.273316	0.279282	0.462485	0.378147	0.260133	0.123897	0.387053	0.191003	0.155006	0.181206	0.235681	0.168150	0.309230	0.149925	0.225426	0.306926	0.459706	0.473980	0.158138	0.214927	0.766888	0.176519	0.173668	0.158822	0.286178	0.372366	0.287959	0.186346
84	0.185551	0.122710	0.399951	0.365203	0.174184	0.168060	0.304090	0.483252	0.274509	0.177471	0.267513	0.354459	0.379184	0.271109	0.260218	0.280023	0.148782	0.111993	0.377144	0.214668	0.391469	0.247611	0.391398	0.598758	0.314889	0.194430	0.173131	0.226238	0.281287	0.192819	0.306930	0.294631	0.247207	0.149799	0.221964	0.302572	0.280891	0.278341	0.486434	0.335473	0.262244	0.124177	0.375188	0.247248	0.165488	0.181166	0.244209	0.184806	0.255308	0.139960	0.226228	0.301028	0.451874	0.469908	0.150440	0.196808	0.802056	0.182844	0.178139	0.158320	0.360162	0.403822	0.284283	0.201658
85	0.173619	0.147668	0.397184	0.362444	0.181202	0.172836	0.309401	0.471675	0.261236	0.180487	0.242752	0.281279	0.362454	0.303142	0.256742	0.256799	0.143081	0.109028	0.384192	0.192771	0.453107	0.264003	0.409180	0.593354	0.278277	0.173655	0.161345	0.210609	0.280325	0.194703	0.320451	0.305666	0.212377	0.135824	0.227264	0.301135	0.290558	0.274212	0.486891	0.299819	0.249575	0.124328	0.411427	0.252649	0.211803	0.182533	0.241361	0.196161	0.252969	0.145715	0.202561	0.261791	0.450492	0.476749	0.141826	0.165251	0.824271	0.186821	0.175439	0.142147	0.388636	0.431571	0.272815	0.203603
86	0.173054	0.155711	0.363196	0.348540	0.227880	0.199143	0.344680	0.464436	0.270558	0.178789	0.243743	0.256357	0.339011	0.307243	0.248478	0.199593	0.141547	0.113115	0.384764	0.195464	0.449759	0.260338	0.425180	0.594046	0.249841	0.153250	0.159794	0.212289	0.278513	0.214379	0.321282	0.292078	0.148511	0.116843	0.228132	0.296460	0.281540	0.256745	0.513379	0.293629	0.252483	0.119069	0.421556	0.251580	0.283701	0.187109	0.242180	0.205036	0.250941	0.150101	0.165234	0.241523	0.449021	0.469036	0.082458	0.162620	0.832784	0.187662	0.163991	0.128559	0.521926	0.480500	0.238202	0.177007
87	0.176972	0.153908	0.349867	0.338100	0.268346	0.202887	0.385587	0.469807	0.268284	0.157069	0.254224	0.253455	0.316782	0.306841	0.230506	0.179222	0.127158	0.114791	0.386813	0.194947	0.440148	0.240078	0.418195	0.597355	0.239168	0.145944	0.164455	0.208478	0.271690	0.229877	0.334370	0.260064	0.135271	0.098270	0.235570	0.286001	0.276875	0.245444	0.479646	0.251561	0.252311	0.128304	0.428941	0.285056	0.299389	0.167363	0.241521	0.214432	0.250470	0.152841	0.169844	0.256963	0.434078	0.424627	0.073379	0.153279	0.830082	0.187008	0.160369	0.120260	0.633117	0.542732	0.230916	0.154930
88	0.177712	0.152223	0.348197	0.333202	0.279901	0.199962	0.390189	0.473301	0.214943	0.117276	0.192076	0.254238	0.314586	0.300565	0.213657	0.163326	0.132318	0.114684	0.372448	0.180848	0.454960	0.236429	0.418294	0.598359	0.239164	0.145927	0.177350	0.233070	0.277629	0.231880	0.362002	0.231088	0.117085	0.075598	0.234862	0.263740	0.274655	0.228242	0.446329	0.217129	0.240756	0.137978	0.472951	0.348470	0.304969	0.223879	0.217032	0.221364	0.235803	0.131906	0.154433	0.239960	0.427519	0.409595	0.076335	0.132964	0.821110	0.186279	0.137722	0.120612	0.645869	0.540237	0.216088	0.153833
89	0.175146	0.151324	0.349319	0.321114	0.284461	0.203815	0.386793	0.472072	0.188230	0.110799	0.146226	0.257818	0.191911	0.250150	0.161862	0.104275	0.184091	0.116817	0.365658	0.182021	0.469485	0.234875	0.409599	0.598710	0.208648	0.134099	0.164526	0.261925	0.258011	0.214673	0.384507	0.219893	0.111777	0.078865	0.245091	0.216935	0.257842	0.193910	0.456605	0.217631	0.234980	0.135688	0.477375	0.382411	0.314234	0.313362	0.200132	0.219544	0.239239	0.131956	0.181505	0.202819	0.400424	0.380055	0.076168	0.119347	0.769216	0.158569	0.133769	0.119201	0.643739	0.528775	0.185945	0.159594
90	0.175678	0.151211	0.321280	0.298009	0.292897	0.210428	0.378933	0.470993	0.192904	0.109220	0.141611	0.262996	0.110489	0.240592	0.160768	0.102935	0.198680	0.116731	0.410314	0.210085	0.484546	0.236944	0.419597	0.573991	0.201306	0.133876	0.164388	0.264275	0.233316	0.216733	0.383442	0.215577	0.112045	0.098743	0.241988	0.184356	0.227798	0.153982	0.398991	0.198052	0.190193	0.126325	0.467565	0.376594	0.317676	0.323247	0.226005	0.221534	0.243981	0.134965	0.172275	0.184487	0.337177	0.346218	0.070975	0.118717	0.691238	0.138074	0.132757	0.108783	0.631672	0.485557	0.184415	0.160439
91	0.176590	0.149696	0.306279	0.303456	0.300695	0.215281	0.393682	0.438190	0.198042	0.106024	0.141787	0.258998	0.094354	0.240908	0.162133	0.109991	0.186157	0.109511	0.461835	0.230043	0.489806	0.236536	0.430573	0.479985	0.202526	0.142886	0.166349	0.251935	0.214498	0.216273	0.382287	0.215099	0.109431	0.099907	0.240550	0.190672	0.222322	0.151479	0.342796	0.148185	0.188671	0.147462	0.466379	0.373302	0.342432	0.377005	0.239662	0.226328	0.241722	0.135683	0.170077	0.175100	0.312911	0.367052	0.071682	0.124195	0.605157	0.122932	0.123904	0.096246	0.621802	0.456316	0.158833	0.147888
92	0.176251	0.142731	0.290518	0.296031	0.302005	0.215233	0.408200	0.387345	0.195199	0.102977	0.138387	0.262393	0.100636	0.243115	0.155467	0.108634	0.198067	0.115039	0.440288	0.238994	0.489675	0.236574	0.402713	0.405997	0.210225	0.150299	0.161725	0.236219	0.212489	0.222699	0.371665	0.213927	0.111096	0.096714	0.229673	0.154676	0.186165	0.123657	0.342675	0.123660	0.186796	0.154195	0.476439	0.386515	0.348683	0.379090	0.240950	0.221520	0.217417	0.129158	0.174886	0.174078	0.306470	0.351826	0.070135	0.127669	0.590483	0.115368	0.123125	0.095249	0.626320	0.453498	0.153890	0.144143
93	0.174203	0.139709	0.202160	0.231863	0.302362	0.215903	0.414608	0.369599	0.189270	0.104131	0.135189	0.264515	0.123200	0.305785	0.153838	0.106924	0.246437	0.120098	0.503467	0.239426	0.489410	0.233874	0.391707	0.407327	0.210691	0.148133	0.168002	0.208930	0.214887	0.220186	0.373617	0.208396	0.109619	0.093940	0.205298	0.144419	0.161596	0.101460	0.332154	0.124387	0.208026	0.150831	0.479985	0.403536	0.360411	0.381040	0.239340	0.216059	0.167000	0.119078	0.174280	0.172296	0.235152	0.331558	0.079432	0.131748	0.503511	0.091188	0.123843	0.098740	0.627767	0.417613	0.151489	0.161559
94	0.133651	0.105283	0.168972	0.214409	0.300251	0.215266	0.413762	0.365278	0.180372	0.109163	0.141370	0.234835	0.134196	0.377504	0.145923	0.106745	0.245776	0.118034	0.541279	0.239473	0.469305	0.202721	0.378339	0.403379	0.176745	0.130797	0.177054	0.197874	0.215607	0.216312	0.349971	0.208118	0.104845	0.093680	0.174854	0.151191	0.147932	0.094913	0.292601	0.098810	0.250778	0.152536	0.478674	0.411446	0.379232	0.390608	0.242528	0.216853	0.149625	0.111936	0.174071	0.181904	0.147591	0.296375	0.085449	0.130364	0.423593	0.088071	0.107726	0.102308	0.612469	0.411097	0.131860	0.181086
95	0.096947	0.068307	0.176544	0.265488	0.282861	0.192479	0.392042	0.308319	0.179841	0.112703	0.171947	0.174278	0.234688	0.474974	0.146348	0.106242	0.243804	0.118914	0.545272	0.257964	0.457683	0.175855	0.332161	0.344768	0.121897	0.111703	0.176147	0.199970	0.215955	0.215716	0.341936	0.195607	0.088329	0.092968	0.166993	0.157008	0.119682	0.094147	0.276282	0.081050	0.258604	0.148415	0.435176	0.394255	0.377664	0.389375	0.246000	0.218828	0.143705	0.103022	0.177648	0.195205	0.143327	0.286739	0.087311	0.124526	0.408755	0.089697	0.082352	0.103256	0.566112	0.362765	0.127825	0.174123
96	0.083645	0.057590	0.176700	0.308394	0.264166	0.168826	0.367919	0.223502	0.165464	0.099260	0.191224	0.154450	0.259919	0.494083	0.148332	0.102766	0.243367	0.118486	0.544035	0.306502	0.455382	0.179295	0.334891	0.291683	0.117547	0.102405	0.168868	0.200890	0.189125	0.198805	0.309000	0.171979	0.076065	0.094335	0.165963	0.154436	0.105922	0.083950	0.256473	0.082202	0.263730	0.151468	0.358402	0.365597	0.375757	0.390331	0.204626	0.205334	0.142778	0.103621	0.173841	0.197487	0.118063	0.272238	0.086841	0.109297	0.335947	0.079174	0.096306	0.100145	0.553670	0.347909	0.167054	0.184268
97	0.064092	0.051749	0.166664	0.307817	0.260498	0.165510	0.371665	0.191797	0.141768	0.090240	0.195487	0.156177	0.282316	0.537017	0.160813	0.100246	0.242182	0.112101	0.539148	0.340606	0.395589	0.166701	0.342329	0.276228	0.112002	0.095166	0.170000	0.199293	0.183537	0.194797	0.275766	0.168395	0.061174	0.094454	0.154265	0.147610	0.083159	0.065131	0.220900	0.105822	0.261438	0.152448	0.319560	0.365632	0.368675	0.398011	0.195100	0.187909	0.142981	0.101846	0.170814	0.177754	0.106768	0.269308	0.089467	0.101115	0.350475	0.118036	0.105184	0.098369	0.378604	0.221429	0.217451	0.223994
98	0.074918	0.061161	0.147403	0.320592	0.221806	0.135603	0.348330	0.189161	0.133866	0.098089	0.190465	0.155134	0.281845	0.549022	0.159838	0.096599	0.241894	0.109349	0.534648	0.362896	0.312239	0.139954	0.330582	0.277972	0.111345	0.097988	0.160031	0.192682	0.184103	0.184013	0.273886	0.175674	0.056475	0.093127	0.142008	0.143306	0.067092	0.063413	0.239347	0.131342	0.257418	0.154045	0.326025	0.360490	0.340258	0.396789	0.190973	0.177537	0.143131	0.101963	0.169936	0.156721	0.106280	0.267419	0.104289	0.117712	0.448225	0.154163	0.109248	0.106397	0.239089	0.120380	0.231691	0.240926
99	0.087965	0.070358	0.129720	0.348291	0.161205	0.121990	0.298179	0.177100	0.130172	0.105872	0.189989	0.155587	0.283982	0.558927	0.135430	0.096371	0.234899	0.118198	0.527325	0.373857	0.305458	0.124570	0.304605	0.283482	0.104625	0.097150	0.159045	0.179687	0.158051	0.155368	0.266304	0.175574	0.058308	0.084285	0.111657	0.144538	0.071105	0.062387	0.217181	0.137038	0.261082	0.139346	0.283135	0.309491	0.280533	0.394687	0.195195	0.167594	0.134181	0.093221	0.160510	0.153337	0.100042	0.267585	0.111921	0.128598	0.448909	0.158023	0.109928	0.110212	0.203055	0.122846	0.234431	0.241016
100	0.086578	0.069522	0.124853	0.347193	0.127060	0.118481	0.294829	0.166687	0.122771	0.105995	0.186598	0.153895	0.289103	0.559185	0.126365	0.090552	0.191980	0.128753	0.478045	0.369821	0.295284	0.124603	0.302279	0.320954	0.101503	0.095483	0.138740	0.117367	0.156346	0.156873	0.238784	0.176037	0.054270	0.057548	0.097289	0.142917	0.122638	0.113613	0.253033	0.134896	0.245871	0.135843	0.245453	0.248501	0.268211	0.389258	0.194568	0.156568	0.132388	0.111994	0.137204	0.164171	0.118188	0.258757	0.111390	0.131011	0.447536	0.161009	0.111531	0.108260	0.176347	0.098831	0.234557	0.233963
101	0.094566	0.083059	0.123470	0.336228	0.117932	0.110773	0.295304	0.165022	0.107398	0.104461	0.190779	0.133234	0.288820	0.558862	0.119986	0.074668	0.183836	0.132743	0.420845	0.365046	0.267391	0.125164	0.298838	0.377029	0.101282	0.092170	0.138372	0.088020	0.162086	0.163787	0.193614	0.180163	0.051093	0.054890	0.079848	0.128486	0.131029	0.123304	0.281750	0.133800	0.228396	0.128824	0.238220	0.247500	0.252793	0.327545	0.201466	0.161889	0.142707	0.172698	0.136459	0.160933	0.150727	0.224124	0.126221	0.126013	0.443096	0.175615	0.110639	0.108252	0.163218	0.082028	0.225811	0.228301
