	207_C_T1_sh_L_ND_02.c3d	207_C_T1_sh_L_ND_02.c3d	207_C_T1_sh_L_ND_02.c3d	207_C_T1_sh_L_ND_02.c3d	207_C_T1_sh_L_ND_02.c3d	207_C_T1_sh_L_ND_02.c3d	207_C_T1_sh_L_ND_02.c3d	207_C_T1_sh_L_ND_02.c3d	207_C_T1_sh_L_ND_03.c3d	207_C_T1_sh_L_ND_03.c3d	207_C_T1_sh_L_ND_03.c3d	207_C_T1_sh_L_ND_03.c3d	207_C_T1_sh_L_ND_03.c3d	207_C_T1_sh_L_ND_03.c3d	207_C_T1_sh_L_ND_03.c3d	207_C_T1_sh_L_ND_03.c3d	207_C_T1_sh_L_ND_04.c3d	207_C_T1_sh_L_ND_04.c3d	207_C_T1_sh_L_ND_04.c3d	207_C_T1_sh_L_ND_04.c3d	207_C_T1_sh_L_ND_04.c3d	207_C_T1_sh_L_ND_04.c3d	207_C_T1_sh_L_ND_04.c3d	207_C_T1_sh_L_ND_04.c3d	207_C_T1_sh_L_ND_05.c3d	207_C_T1_sh_L_ND_05.c3d	207_C_T1_sh_L_ND_05.c3d	207_C_T1_sh_L_ND_05.c3d	207_C_T1_sh_L_ND_05.c3d	207_C_T1_sh_L_ND_05.c3d	207_C_T1_sh_L_ND_05.c3d	207_C_T1_sh_L_ND_05.c3d	207_C_T1_sh_L_ND_06.c3d	207_C_T1_sh_L_ND_06.c3d	207_C_T1_sh_L_ND_06.c3d	207_C_T1_sh_L_ND_06.c3d	207_C_T1_sh_L_ND_06.c3d	207_C_T1_sh_L_ND_06.c3d	207_C_T1_sh_L_ND_06.c3d	207_C_T1_sh_L_ND_06.c3d	207_C_T1_sh_L_ND_07.c3d	207_C_T1_sh_L_ND_07.c3d	207_C_T1_sh_L_ND_07.c3d	207_C_T1_sh_L_ND_07.c3d	207_C_T1_sh_L_ND_07.c3d	207_C_T1_sh_L_ND_07.c3d	207_C_T1_sh_L_ND_07.c3d	207_C_T1_sh_L_ND_07.c3d	207_C_T1_sh_L_ND_08.c3d	207_C_T1_sh_L_ND_08.c3d	207_C_T1_sh_L_ND_08.c3d	207_C_T1_sh_L_ND_08.c3d	207_C_T1_sh_L_ND_08.c3d	207_C_T1_sh_L_ND_08.c3d	207_C_T1_sh_L_ND_08.c3d	207_C_T1_sh_L_ND_08.c3d	207_C_T1_sh_L_ND_09.c3d	207_C_T1_sh_L_ND_09.c3d	207_C_T1_sh_L_ND_09.c3d	207_C_T1_sh_L_ND_09.c3d	207_C_T1_sh_L_ND_09.c3d	207_C_T1_sh_L_ND_09.c3d	207_C_T1_sh_L_ND_09.c3d	207_C_T1_sh_L_ND_09.c3d	207_C_T1_sh_L_ND_10.c3d	207_C_T1_sh_L_ND_10.c3d	207_C_T1_sh_L_ND_10.c3d	207_C_T1_sh_L_ND_10.c3d	207_C_T1_sh_L_ND_10.c3d	207_C_T1_sh_L_ND_10.c3d	207_C_T1_sh_L_ND_10.c3d	207_C_T1_sh_L_ND_10.c3d	207_C_T1_sh_L_ND_11.c3d	207_C_T1_sh_L_ND_11.c3d	207_C_T1_sh_L_ND_11.c3d	207_C_T1_sh_L_ND_11.c3d	207_C_T1_sh_L_ND_11.c3d	207_C_T1_sh_L_ND_11.c3d	207_C_T1_sh_L_ND_11.c3d	207_C_T1_sh_L_ND_11.c3d
	Biceps femoris_lat	Semitendinosus_lat	Vastus lateralis_lat	Vastus medialis_lat	Biceps femoris_med	Semitendinosus_med	Vastus lateralis_med	Vastus medialis_med	Biceps femoris_lat	Semitendinosus_lat	Vastus lateralis_lat	Vastus medialis_lat	Biceps femoris_med	Semitendinosus_med	Vastus lateralis_med	Vastus medialis_med	Biceps femoris_lat	Semitendinosus_lat	Vastus lateralis_lat	Vastus medialis_lat	Biceps femoris_med	Semitendinosus_med	Vastus lateralis_med	Vastus medialis_med	Biceps femoris_lat	Semitendinosus_lat	Vastus lateralis_lat	Vastus medialis_lat	Biceps femoris_med	Semitendinosus_med	Vastus lateralis_med	Vastus medialis_med	Biceps femoris_lat	Semitendinosus_lat	Vastus lateralis_lat	Vastus medialis_lat	Biceps femoris_med	Semitendinosus_med	Vastus lateralis_med	Vastus medialis_med	Biceps femoris_lat	Semitendinosus_lat	Vastus lateralis_lat	Vastus medialis_lat	Biceps femoris_med	Semitendinosus_med	Vastus lateralis_med	Vastus medialis_med	Biceps femoris_lat	Semitendinosus_lat	Vastus lateralis_lat	Vastus medialis_lat	Biceps femoris_med	Semitendinosus_med	Vastus lateralis_med	Vastus medialis_med	Biceps femoris_lat	Semitendinosus_lat	Vastus lateralis_lat	Vastus medialis_lat	Biceps femoris_med	Semitendinosus_med	Vastus lateralis_med	Vastus medialis_med	Biceps femoris_lat	Semitendinosus_lat	Vastus lateralis_lat	Vastus medialis_lat	Biceps femoris_med	Semitendinosus_med	Vastus lateralis_med	Vastus medialis_med	Biceps femoris_lat	Semitendinosus_lat	Vastus lateralis_lat	Vastus medialis_lat	Biceps femoris_med	Semitendinosus_med	Vastus lateralis_med	Vastus medialis_med
	P2D	P2D	P2D	P2D	P2D	P2D	P2D	P2D	P2D	P2D	P2D	P2D	P2D	P2D	P2D	P2D	P2D	P2D	P2D	P2D	P2D	P2D	P2D	P2D	P2D	P2D	P2D	P2D	P2D	P2D	P2D	P2D	P2D	P2D	P2D	P2D	P2D	P2D	P2D	P2D	P2D	P2D	P2D	P2D	P2D	P2D	P2D	P2D	P2D	P2D	P2D	P2D	P2D	P2D	P2D	P2D	P2D	P2D	P2D	P2D	P2D	P2D	P2D	P2D	P2D	P2D	P2D	P2D	P2D	P2D	P2D	P2D	P2D	P2D	P2D	P2D	P2D	P2D	P2D	P2D
	EMG_lat	EMG_lat	EMG_lat	EMG_lat	EMG_med	EMG_med	EMG_med	EMG_med	EMG_lat	EMG_lat	EMG_lat	EMG_lat	EMG_med	EMG_med	EMG_med	EMG_med	EMG_lat	EMG_lat	EMG_lat	EMG_lat	EMG_med	EMG_med	EMG_med	EMG_med	EMG_lat	EMG_lat	EMG_lat	EMG_lat	EMG_med	EMG_med	EMG_med	EMG_med	EMG_lat	EMG_lat	EMG_lat	EMG_lat	EMG_med	EMG_med	EMG_med	EMG_med	EMG_lat	EMG_lat	EMG_lat	EMG_lat	EMG_med	EMG_med	EMG_med	EMG_med	EMG_lat	EMG_lat	EMG_lat	EMG_lat	EMG_med	EMG_med	EMG_med	EMG_med	EMG_lat	EMG_lat	EMG_lat	EMG_lat	EMG_med	EMG_med	EMG_med	EMG_med	EMG_lat	EMG_lat	EMG_lat	EMG_lat	EMG_med	EMG_med	EMG_med	EMG_med	EMG_lat	EMG_lat	EMG_lat	EMG_lat	EMG_med	EMG_med	EMG_med	EMG_med
ITEM	Y	Y	Y	Y	Y	Y	Y	Y	Y	Y	Y	Y	Y	Y	Y	Y	Y	Y	Y	Y	Y	Y	Y	Y	Y	Y	Y	Y	Y	Y	Y	Y	Y	Y	Y	Y	Y	Y	Y	Y	Y	Y	Y	Y	Y	Y	Y	Y	Y	Y	Y	Y	Y	Y	Y	Y	Y	Y	Y	Y	Y	Y	Y	Y	Y	Y	Y	Y	Y	Y	Y	Y	Y	Y	Y	Y	Y	Y	Y	Y
1	0.163383	0.292333	0.464946	0.305013	0.532093	0.473857	0.183413	0.267570	0.351394	0.400350	0.234294	0.161650	0.611537	0.705175	0.377959	0.214782	0.093021	0.238420	0.577499	0.157818	0.704655	0.556007	0.228996	0.291906	0.171778	0.323163	0.655606	0.249259	0.362038	0.459274	0.153514	0.247191	0.188690	0.285468	0.345161	0.144067	0.589184	0.386029	0.188622	0.134488	0.272400	0.270673	0.384496	0.243400	0.412616	0.376151	0.500839	0.295807	0.308327	0.500543	0.129830	0.197898	0.306096	0.488278	0.234419	0.174913	0.133092	0.176963	0.260056	0.165198	0.302829	0.313044	0.271266	0.257531	0.278554	0.267915	0.393447	0.254548	0.157022	0.258093	0.459380	0.388601	0.234605	0.258568	0.420393	0.266844	0.139355	0.173123	0.235299	0.355288
2	0.186000	0.380251	0.447486	0.302761	0.571945	0.483888	0.186920	0.222955	0.316582	0.381362	0.245569	0.152973	0.611954	0.719037	0.365481	0.186086	0.071201	0.235738	0.606545	0.204037	0.693697	0.528553	0.223086	0.293330	0.160528	0.317591	0.589236	0.268525	0.296679	0.403673	0.232089	0.253835	0.157464	0.299102	0.344451	0.143414	0.596329	0.383249	0.189651	0.130614	0.275189	0.267712	0.377218	0.244530	0.384181	0.409380	0.482120	0.291788	0.325433	0.497571	0.142537	0.167522	0.273594	0.507126	0.311973	0.170030	0.127131	0.130948	0.262361	0.167785	0.282983	0.312123	0.302330	0.299253	0.201873	0.234657	0.344245	0.295656	0.146453	0.251253	0.491574	0.375738	0.209473	0.262855	0.374880	0.317294	0.140282	0.146129	0.226915	0.333417
3	0.188457	0.379593	0.457426	0.296051	0.621013	0.515943	0.184773	0.145189	0.292210	0.365207	0.321102	0.168282	0.598498	0.736222	0.348179	0.168333	0.068645	0.287772	0.602367	0.209376	0.682034	0.475506	0.218574	0.237152	0.111997	0.258574	0.562230	0.275551	0.297218	0.285485	0.235129	0.262274	0.176847	0.334981	0.348319	0.193455	0.599141	0.373680	0.178606	0.130984	0.260205	0.257172	0.377662	0.247487	0.354631	0.422301	0.479856	0.278244	0.326307	0.506343	0.195503	0.139300	0.229256	0.428692	0.355468	0.178973	0.122094	0.133923	0.272444	0.187264	0.277712	0.319757	0.333218	0.312888	0.096032	0.228845	0.216586	0.339661	0.125979	0.251403	0.511540	0.393283	0.178753	0.334140	0.327602	0.283992	0.140442	0.138817	0.211874	0.307734
4	0.170296	0.362489	0.518441	0.252939	0.899407	0.624825	0.185445	0.132943	0.298178	0.374359	0.351851	0.160213	0.565157	0.732122	0.344518	0.159152	0.077874	0.305262	0.534778	0.239026	0.683236	0.518576	0.221143	0.189662	0.104433	0.248537	0.524930	0.282139	0.269299	0.235747	0.267074	0.285329	0.159913	0.320004	0.369272	0.211820	0.546248	0.331243	0.199088	0.143169	0.249361	0.234287	0.321591	0.232067	0.351133	0.415956	0.487597	0.282858	0.329395	0.503089	0.209412	0.141672	0.167560	0.368710	0.408629	0.175468	0.129960	0.140424	0.249884	0.213927	0.271161	0.319909	0.364199	0.291986	0.081979	0.180603	0.239563	0.387601	0.112122	0.228157	0.574747	0.492748	0.221120	0.359947	0.366756	0.331782	0.140288	0.128623	0.189181	0.339655
5	0.165945	0.390405	0.569447	0.238835	0.988581	0.644898	0.201728	0.140586	0.336783	0.408254	0.368668	0.173155	0.559208	0.740391	0.311883	0.164845	0.076291	0.304253	0.505942	0.264497	0.655487	0.490423	0.228284	0.195046	0.103633	0.229741	0.372320	0.350746	0.122662	0.103356	0.289719	0.252400	0.124632	0.293341	0.364741	0.210086	0.424593	0.321280	0.224510	0.139037	0.247116	0.216586	0.265003	0.251835	0.333592	0.367962	0.441452	0.282540	0.330763	0.488036	0.232709	0.224379	0.163138	0.385183	0.429887	0.164128	0.150689	0.137761	0.250388	0.215135	0.250259	0.308043	0.415459	0.311280	0.068765	0.163646	0.329457	0.352769	0.118231	0.234323	0.563494	0.527486	0.254832	0.365089	0.484834	0.353114	0.141217	0.127059	0.173696	0.356199
6	0.180503	0.458500	0.571486	0.375518	0.994424	0.655385	0.234278	0.187042	0.368995	0.426972	0.402734	0.197604	0.559069	0.746374	0.255862	0.165257	0.097258	0.326959	0.491421	0.258944	0.499508	0.387073	0.223151	0.204874	0.132821	0.257281	0.232387	0.374082	0.135221	0.092057	0.296961	0.240572	0.117326	0.293743	0.358163	0.207629	0.412858	0.267239	0.229770	0.127109	0.246918	0.230364	0.249595	0.251495	0.319908	0.363567	0.391942	0.272437	0.333054	0.493442	0.252044	0.343824	0.176474	0.396843	0.432158	0.193258	0.141414	0.136682	0.284371	0.226271	0.196760	0.266805	0.421669	0.366349	0.067693	0.110619	0.361778	0.380031	0.107456	0.234547	0.569825	0.501687	0.286197	0.389352	0.456918	0.425943	0.141526	0.125372	0.178026	0.355041
7	0.178333	0.466201	0.587823	0.487910	0.988354	0.577383	0.236068	0.187691	0.337106	0.385481	0.403454	0.207085	0.557032	0.739618	0.218462	0.162808	0.103071	0.321717	0.451634	0.301129	0.449527	0.374292	0.256143	0.216226	0.183221	0.351543	0.181631	0.398857	0.134736	0.131432	0.295290	0.236962	0.158584	0.273633	0.342221	0.216119	0.354638	0.258233	0.242654	0.117810	0.257879	0.242661	0.180770	0.238904	0.312282	0.339575	0.401995	0.301271	0.310216	0.483824	0.260254	0.343280	0.176981	0.424781	0.424818	0.330728	0.138485	0.133930	0.303043	0.260906	0.189193	0.244588	0.431074	0.376455	0.111388	0.187314	0.372777	0.373544	0.114432	0.233448	0.566685	0.490395	0.286166	0.422009	0.556660	0.377633	0.140765	0.126795	0.184403	0.331331
8	0.179556	0.464787	0.602054	0.488184	0.984926	0.568700	0.333743	0.191373	0.323756	0.369074	0.400887	0.271420	0.549423	0.732846	0.226892	0.168523	0.111079	0.311661	0.337813	0.294151	0.299532	0.372557	0.244183	0.307049	0.184040	0.357066	0.173986	0.390383	0.133622	0.150927	0.292331	0.206907	0.197341	0.271769	0.283137	0.217976	0.241515	0.251533	0.335896	0.117214	0.263435	0.239283	0.144505	0.248730	0.269784	0.351116	0.385075	0.310968	0.292445	0.396010	0.257027	0.409692	0.175566	0.427403	0.428778	0.382981	0.229756	0.190328	0.302445	0.301945	0.188464	0.227214	0.440993	0.374320	0.187710	0.454459	0.344315	0.341320	0.120170	0.247860	0.610528	0.559685	0.272388	0.367197	0.566892	0.438157	0.129604	0.127552	0.255310	0.322601
9	0.205633	0.463548	0.563309	0.510025	0.938943	0.571284	0.432530	0.191669	0.317618	0.367102	0.390848	0.327533	0.355748	0.667072	0.268285	0.182469	0.121859	0.312035	0.309851	0.289896	0.274008	0.389592	0.253040	0.350256	0.231804	0.421297	0.135412	0.358572	0.132161	0.172896	0.324217	0.194351	0.242849	0.267519	0.211278	0.241632	0.242546	0.242226	0.344093	0.127355	0.255687	0.216416	0.142725	0.289651	0.269226	0.381988	0.346543	0.304941	0.239874	0.386814	0.274189	0.474252	0.165510	0.380221	0.445726	0.387276	0.303756	0.244791	0.296598	0.331034	0.187890	0.214895	0.433090	0.392860	0.232610	0.502809	0.226982	0.433530	0.137256	0.283076	0.563502	0.552895	0.227778	0.403092	0.591898	0.432656	0.085173	0.094591	0.374924	0.319835
10	0.211282	0.454898	0.495866	0.544834	0.876153	0.568628	0.443095	0.194962	0.325178	0.373226	0.418595	0.352751	0.212952	0.604242	0.294882	0.229064	0.132245	0.240207	0.276861	0.272514	0.224300	0.504846	0.321511	0.355322	0.252544	0.446893	0.119707	0.352443	0.139110	0.176117	0.325677	0.196967	0.246215	0.266133	0.207165	0.281938	0.207798	0.210943	0.379091	0.139625	0.259945	0.214818	0.142913	0.335343	0.283257	0.444955	0.352675	0.354462	0.273619	0.400215	0.274960	0.498914	0.160775	0.371602	0.492836	0.399698	0.315144	0.237547	0.295059	0.373411	0.180069	0.210423	0.418079	0.397715	0.271154	0.635235	0.264104	0.410362	0.145099	0.267085	0.526855	0.538541	0.228708	0.510628	0.469623	0.400241	0.071023	0.093449	0.533701	0.325407
11	0.208757	0.419384	0.479674	0.583585	0.827973	0.559410	0.447276	0.274979	0.339074	0.384938	0.454155	0.352319	0.211064	0.552426	0.308856	0.334132	0.135716	0.235014	0.127704	0.297416	0.261805	0.576166	0.372604	0.352949	0.260261	0.444535	0.143800	0.371930	0.133041	0.170464	0.325510	0.222154	0.309425	0.303200	0.239005	0.287465	0.207734	0.201125	0.374880	0.138271	0.248024	0.186180	0.136838	0.338270	0.290697	0.505754	0.356772	0.383996	0.254318	0.398774	0.266841	0.501456	0.179384	0.355851	0.534180	0.410694	0.322728	0.236607	0.289487	0.470956	0.185016	0.208052	0.405529	0.393494	0.265836	0.627103	0.285407	0.451547	0.145268	0.245348	0.519114	0.531797	0.193060	0.547471	0.428477	0.341377	0.077750	0.094582	0.585537	0.335272
12	0.199447	0.349554	0.484847	0.586999	0.813458	0.521269	0.528818	0.290376	0.327786	0.370958	0.470389	0.363030	0.211493	0.491001	0.305988	0.414099	0.170147	0.226310	0.115991	0.298428	0.261778	0.574157	0.366501	0.366796	0.266238	0.441919	0.151826	0.404973	0.147004	0.175771	0.323716	0.214228	0.318487	0.259223	0.318371	0.331536	0.173650	0.188993	0.399904	0.125425	0.230613	0.220620	0.164434	0.361771	0.276681	0.513904	0.368079	0.379203	0.252451	0.381718	0.238772	0.502358	0.180861	0.321443	0.519141	0.447530	0.323352	0.233981	0.263511	0.506967	0.186461	0.192870	0.404065	0.405788	0.248284	0.504867	0.381572	0.466793	0.138680	0.238054	0.435060	0.455966	0.143831	0.606118	0.368621	0.364067	0.118575	0.104583	0.590496	0.361232
13	0.199791	0.343640	0.453481	0.588185	0.576603	0.415287	0.628086	0.313990	0.317521	0.350921	0.463170	0.371461	0.156038	0.436074	0.300096	0.423623	0.199856	0.205939	0.093526	0.314840	0.257837	0.574352	0.380715	0.420344	0.268589	0.439291	0.210008	0.408537	0.187115	0.188087	0.286365	0.232036	0.337812	0.300799	0.321040	0.315776	0.191522	0.212792	0.466473	0.143639	0.252581	0.257709	0.180468	0.423175	0.255652	0.488084	0.422388	0.382336	0.242616	0.276450	0.228729	0.502178	0.188103	0.306948	0.512472	0.471880	0.328539	0.258996	0.248866	0.568132	0.184204	0.186835	0.401816	0.415228	0.228542	0.489903	0.395288	0.378469	0.132658	0.224964	0.432385	0.370935	0.144344	0.626745	0.343066	0.319666	0.147188	0.099708	0.649976	0.395141
14	0.201137	0.349656	0.380281	0.612074	0.247990	0.349222	0.655097	0.313070	0.311849	0.339719	0.421954	0.359415	0.118474	0.418039	0.303761	0.424481	0.232899	0.242918	0.105389	0.334662	0.251047	0.546398	0.427031	0.465433	0.270652	0.437804	0.211579	0.382299	0.177748	0.184107	0.301335	0.253062	0.354203	0.318079	0.307597	0.318362	0.185549	0.226670	0.489605	0.143176	0.251785	0.270582	0.189040	0.501135	0.256904	0.473477	0.497495	0.382311	0.227025	0.254481	0.208377	0.477807	0.204724	0.309463	0.483165	0.472244	0.327679	0.296221	0.239478	0.588652	0.181033	0.184565	0.401949	0.415982	0.180584	0.295741	0.378433	0.369877	0.126483	0.224289	0.402335	0.366932	0.161140	0.636506	0.384773	0.273232	0.149872	0.097520	0.769002	0.419398
15	0.202792	0.310759	0.285410	0.618975	0.184413	0.261728	0.652107	0.298951	0.304810	0.320218	0.417689	0.367570	0.116925	0.365968	0.308823	0.437099	0.234054	0.218974	0.115069	0.340537	0.248996	0.517930	0.478426	0.492555	0.276057	0.436174	0.209638	0.335402	0.176462	0.166713	0.300048	0.252714	0.357345	0.325073	0.339035	0.339002	0.184316	0.197740	0.429861	0.143662	0.251007	0.269093	0.192043	0.548057	0.264543	0.477691	0.530376	0.373938	0.216946	0.240034	0.170964	0.399316	0.241408	0.286657	0.467449	0.470455	0.337992	0.340996	0.204753	0.582410	0.189791	0.179155	0.432055	0.397915	0.204371	0.304962	0.376440	0.448274	0.115665	0.224227	0.385540	0.355573	0.152495	0.522511	0.453969	0.288257	0.148426	0.098058	0.859243	0.417679
16	0.193638	0.190191	0.289498	0.546268	0.186522	0.159316	0.656248	0.331317	0.244956	0.253521	0.415823	0.375810	0.109186	0.343371	0.344092	0.439058	0.253884	0.266870	0.123247	0.352158	0.249775	0.519258	0.525156	0.492492	0.250239	0.369559	0.205629	0.297334	0.177502	0.150281	0.299199	0.322423	0.353500	0.322084	0.341399	0.352320	0.171008	0.180026	0.393903	0.140009	0.248148	0.260070	0.218580	0.563749	0.276199	0.489553	0.531033	0.373617	0.187288	0.221596	0.155272	0.401562	0.238696	0.246770	0.487813	0.465525	0.338510	0.353948	0.183088	0.569319	0.179018	0.162246	0.464951	0.374618	0.176835	0.241639	0.284692	0.469119	0.113233	0.219936	0.291018	0.238170	0.136714	0.464303	0.457690	0.249451	0.148075	0.104195	0.893177	0.410760
17	0.191658	0.167206	0.259109	0.436670	0.171790	0.163064	0.639942	0.355466	0.180568	0.217508	0.385199	0.369694	0.107825	0.329296	0.383250	0.448836	0.321648	0.286449	0.131640	0.391218	0.220666	0.518259	0.511723	0.483409	0.260502	0.353667	0.201858	0.287439	0.172374	0.109967	0.289682	0.330463	0.335783	0.316754	0.428568	0.389329	0.155465	0.171316	0.374860	0.122308	0.238917	0.253063	0.249014	0.564282	0.282376	0.466965	0.519735	0.370866	0.194696	0.174272	0.152740	0.337277	0.253883	0.184209	0.505525	0.399322	0.262528	0.333107	0.178904	0.550985	0.165609	0.155989	0.467750	0.372390	0.142842	0.161868	0.261169	0.480674	0.089562	0.146870	0.251770	0.226120	0.117918	0.358211	0.446254	0.214606	0.150896	0.121113	0.891858	0.416449
18	0.194101	0.191585	0.223908	0.428400	0.160582	0.155536	0.556054	0.364163	0.174516	0.217226	0.379237	0.356469	0.115090	0.320821	0.407356	0.499249	0.311611	0.312349	0.130403	0.356488	0.222219	0.495379	0.506189	0.456077	0.253038	0.332425	0.205792	0.274444	0.157810	0.103561	0.257643	0.354363	0.308004	0.298689	0.465101	0.406342	0.154723	0.170290	0.358233	0.112358	0.242613	0.253504	0.248726	0.558668	0.232939	0.448012	0.510948	0.328807	0.177193	0.134506	0.118316	0.237399	0.254227	0.167837	0.501769	0.315799	0.197917	0.329903	0.174411	0.569213	0.164060	0.151395	0.433410	0.354590	0.151724	0.166658	0.191302	0.540108	0.083017	0.115613	0.249807	0.326660	0.104942	0.208979	0.374078	0.309558	0.156018	0.133277	0.886467	0.406030
19	0.170140	0.196785	0.245984	0.387463	0.147397	0.158440	0.530879	0.363535	0.178729	0.223792	0.383100	0.309884	0.123884	0.289136	0.420554	0.543759	0.288450	0.310768	0.130662	0.351898	0.210563	0.489051	0.514453	0.416464	0.231114	0.249437	0.203399	0.289242	0.157790	0.106496	0.248441	0.369700	0.293659	0.291921	0.489177	0.399854	0.160310	0.168488	0.350011	0.120251	0.236650	0.252603	0.249024	0.566956	0.228819	0.428898	0.505510	0.306934	0.261294	0.202801	0.111659	0.177952	0.254942	0.170889	0.490897	0.312662	0.181188	0.357573	0.166114	0.647583	0.148383	0.108261	0.405853	0.299674	0.149815	0.153002	0.209860	0.447746	0.098303	0.106596	0.274663	0.332335	0.075774	0.154411	0.399929	0.472326	0.157913	0.132954	0.881440	0.385058
20	0.178392	0.247743	0.294443	0.331159	0.142356	0.155301	0.542999	0.330967	0.191379	0.243162	0.382652	0.264679	0.128197	0.268374	0.435140	0.590107	0.264784	0.313736	0.147831	0.315706	0.206305	0.434214	0.494782	0.447790	0.218351	0.223009	0.193829	0.270946	0.137634	0.101034	0.217060	0.353931	0.273838	0.281152	0.513638	0.400627	0.176619	0.171627	0.278927	0.190341	0.182319	0.243331	0.258736	0.561319	0.224884	0.398150	0.513104	0.304290	0.291669	0.225149	0.109936	0.179807	0.255416	0.170851	0.429987	0.294598	0.175415	0.365087	0.224424	0.603023	0.140889	0.089432	0.405111	0.264737	0.138616	0.147415	0.196353	0.402863	0.089908	0.114010	0.278214	0.344649	0.072411	0.115793	0.278136	0.660063	0.160473	0.131946	0.860518	0.366492
21	0.203852	0.342140	0.316805	0.251960	0.141886	0.164233	0.514386	0.334185	0.187012	0.227310	0.373546	0.330935	0.128801	0.264386	0.455286	0.627230	0.242817	0.277402	0.181255	0.287632	0.180264	0.259893	0.446928	0.464472	0.213283	0.215347	0.203139	0.201107	0.095729	0.089503	0.215428	0.372589	0.219930	0.267518	0.519610	0.425618	0.270215	0.158482	0.189216	0.192965	0.191306	0.245921	0.263927	0.559304	0.203728	0.345151	0.518097	0.241323	0.309199	0.267260	0.088368	0.177865	0.240891	0.161126	0.363018	0.283085	0.166266	0.365509	0.301143	0.565526	0.141661	0.094512	0.396629	0.264013	0.137405	0.145522	0.199164	0.403994	0.091798	0.130006	0.296021	0.376005	0.100077	0.130594	0.246552	0.881395	0.164007	0.135655	0.802210	0.366959
22	0.205030	0.355567	0.312338	0.242546	0.140009	0.173668	0.390301	0.322655	0.158621	0.199884	0.338649	0.383909	0.131577	0.247938	0.459077	0.648014	0.246659	0.278777	0.175884	0.289626	0.172648	0.216594	0.431374	0.461729	0.205985	0.224156	0.184643	0.170744	0.060125	0.094440	0.211424	0.422335	0.217339	0.252506	0.488671	0.417439	0.265851	0.192910	0.180311	0.190433	0.179801	0.323481	0.243867	0.538356	0.200345	0.293613	0.563468	0.136216	0.322187	0.280792	0.081005	0.187600	0.237788	0.157729	0.337758	0.231434	0.148698	0.347274	0.362705	0.491734	0.137938	0.085235	0.390702	0.255181	0.130489	0.154250	0.193014	0.310320	0.090197	0.134977	0.314372	0.382801	0.104402	0.129626	0.250451	1.031858	0.158912	0.134741	0.712531	0.369458
23	0.266029	0.380475	0.306863	0.236767	0.160132	0.159511	0.359848	0.332498	0.186433	0.211506	0.323672	0.376581	0.122686	0.201923	0.451315	0.646360	0.188280	0.210733	0.225081	0.218739	0.211584	0.234671	0.431651	0.444151	0.209068	0.246632	0.146665	0.153730	0.066055	0.094992	0.255845	0.475932	0.151271	0.181340	0.489326	0.417058	0.304513	0.361939	0.180313	0.189492	0.158598	0.356271	0.226388	0.485965	0.196741	0.272413	0.587829	0.099005	0.336251	0.320714	0.094710	0.248421	0.228265	0.157507	0.291993	0.150854	0.128993	0.313864	0.374964	0.480808	0.121483	0.062399	0.388379	0.235442	0.125812	0.235392	0.137861	0.422013	0.089291	0.153699	0.318909	0.382213	0.125619	0.139525	0.287301	1.054563	0.155590	0.142517	0.684472	0.363816
24	0.276283	0.393638	0.320176	0.166509	0.140417	0.168117	0.353464	0.336019	0.313450	0.255296	0.313664	0.365527	0.114592	0.184128	0.440652	0.618812	0.109445	0.180718	0.234246	0.234102	0.214065	0.257398	0.398747	0.398083	0.239444	0.285967	0.152132	0.151486	0.076739	0.114272	0.307692	0.535098	0.130579	0.154983	0.474782	0.417779	0.330372	0.365555	0.188834	0.192460	0.158844	0.354416	0.216837	0.404898	0.193887	0.285448	0.549775	0.085347	0.345930	0.367866	0.100465	0.274958	0.221456	0.155062	0.274580	0.114258	0.104485	0.267712	0.369991	0.523186	0.115547	0.064048	0.380250	0.242517	0.121955	0.232837	0.159818	0.411179	0.089191	0.163485	0.310402	0.384186	0.144754	0.168475	0.283837	1.014287	0.113348	0.149724	0.688925	0.358880
25	0.280764	0.418909	0.340184	0.178628	0.137093	0.172603	0.339341	0.303995	0.433647	0.290028	0.296863	0.365966	0.114690	0.183539	0.419792	0.553957	0.099065	0.132766	0.248525	0.417697	0.224871	0.259266	0.341521	0.363391	0.244779	0.275613	0.259818	0.176893	0.078346	0.121114	0.348785	0.538069	0.124573	0.155203	0.463972	0.442808	0.509622	0.491839	0.208502	0.214869	0.167673	0.370936	0.219673	0.337595	0.192448	0.305366	0.488225	0.086368	0.403059	0.372608	0.100985	0.256204	0.214824	0.177112	0.257995	0.119262	0.097346	0.250314	0.430042	0.571999	0.095217	0.069966	0.380051	0.230839	0.138196	0.254350	0.178289	0.409960	0.089140	0.159908	0.293192	0.368670	0.148410	0.167623	0.213000	0.850655	0.093100	0.150665	0.618482	0.337535
26	0.297516	0.555268	0.334871	0.183981	0.169308	0.198563	0.340831	0.261251	0.613827	0.451520	0.312512	0.362509	0.111444	0.186326	0.403784	0.529708	0.101631	0.082605	0.352322	0.429750	0.263675	0.277405	0.249197	0.338350	0.261169	0.274759	0.330863	0.240909	0.076694	0.124796	0.357348	0.640850	0.120429	0.154674	0.461480	0.448971	0.520228	0.505695	0.209363	0.251178	0.179903	0.422338	0.192305	0.323145	0.192775	0.299156	0.435018	0.086247	0.404357	0.401814	0.245474	0.301623	0.195242	0.186341	0.211486	0.111205	0.112496	0.241790	0.504305	0.596853	0.109679	0.130697	0.381060	0.207900	0.152369	0.303871	0.193782	0.519044	0.084880	0.148396	0.267218	0.272185	0.138196	0.147630	0.225403	0.736146	0.082910	0.151430	0.464775	0.308216
27	0.379821	0.641167	0.332257	0.184220	0.203495	0.234520	0.361932	0.239674	0.692986	0.512829	0.330746	0.369398	0.112607	0.190853	0.402463	0.531728	0.100597	0.080457	0.365577	0.462726	0.276635	0.281141	0.192245	0.350438	0.261763	0.275349	0.334196	0.243416	0.075112	0.121535	0.358828	0.748884	0.128664	0.171800	0.369840	0.438649	0.527155	0.514333	0.217405	0.216223	0.181806	0.456453	0.180232	0.333052	0.241914	0.308518	0.410689	0.085396	0.409980	0.401476	0.341176	0.311961	0.181121	0.203248	0.222943	0.119932	0.134577	0.221289	0.523806	0.555255	0.122622	0.171187	0.378582	0.199720	0.149262	0.267164	0.290444	0.413566	0.042351	0.150697	0.250163	0.255753	0.124320	0.149055	0.228932	0.438420	0.080969	0.150164	0.309370	0.287309
28	0.381836	0.683565	0.330606	0.184280	0.213124	0.239429	0.365655	0.329734	0.701385	0.519424	0.333897	0.394346	0.112643	0.187660	0.400736	0.526679	0.099379	0.072932	0.494524	0.516494	0.272604	0.281696	0.184747	0.355303	0.240568	0.261139	0.334839	0.231593	0.082063	0.125522	0.356270	0.834865	0.142098	0.201578	0.375185	0.424331	0.530917	0.528279	0.223477	0.186384	0.159348	0.459337	0.188269	0.357584	0.295809	0.332636	0.408585	0.085218	0.342581	0.364467	0.374364	0.377396	0.222763	0.231622	0.254597	0.142827	0.127410	0.170978	0.528225	0.496927	0.125881	0.194196	0.343687	0.191163	0.144144	0.258932	0.312842	0.439079	0.043363	0.151928	0.239475	0.244437	0.117519	0.174043	0.216514	0.318475	0.079746	0.145111	0.260691	0.244691
29	0.391674	0.707992	0.304608	0.179867	0.216254	0.250581	0.350649	0.376925	0.704352	0.518865	0.344974	0.395420	0.112550	0.161941	0.389155	0.523370	0.080539	0.080076	0.528534	0.550822	0.266474	0.282767	0.162833	0.347656	0.228467	0.254185	0.361480	0.238499	0.121080	0.145476	0.355502	0.853392	0.136446	0.189625	0.337191	0.429668	0.498929	0.518744	0.218029	0.186986	0.152167	0.456967	0.192616	0.323047	0.300396	0.334707	0.407034	0.081910	0.308852	0.346690	0.378410	0.420488	0.235228	0.233825	0.256003	0.132475	0.125787	0.158485	0.507948	0.609076	0.115803	0.197438	0.260091	0.184990	0.136738	0.262388	0.324850	0.437293	0.038404	0.149434	0.224890	0.197273	0.097454	0.188375	0.138179	0.352504	0.072716	0.136430	0.282552	0.212808
30	0.384435	0.692610	0.258691	0.168125	0.218093	0.251559	0.330757	0.413176	0.703608	0.513308	0.352042	0.424610	0.113107	0.128176	0.350542	0.523406	0.072991	0.089140	0.519277	0.579581	0.266319	0.264745	0.132053	0.304773	0.234924	0.262966	0.437097	0.332950	0.125658	0.131129	0.352050	0.829302	0.124030	0.171325	0.304984	0.401592	0.490973	0.439008	0.217800	0.209023	0.161765	0.462743	0.206201	0.286015	0.297428	0.340388	0.406280	0.076713	0.291651	0.319698	0.425476	0.462517	0.285453	0.268675	0.279142	0.122979	0.139084	0.147254	0.467198	0.745774	0.115730	0.201269	0.191577	0.188441	0.121888	0.199316	0.332262	0.260163	0.036280	0.170123	0.190937	0.317589	0.077710	0.273798	0.155752	0.403091	0.062935	0.130256	0.310076	0.221394
31	0.367664	0.650763	0.208086	0.167327	0.219240	0.243555	0.308728	0.543019	0.700476	0.515057	0.347208	0.473451	0.110515	0.116398	0.315563	0.497468	0.080411	0.091270	0.509502	0.592084	0.253639	0.232956	0.123574	0.245054	0.249803	0.255721	0.452016	0.395287	0.130607	0.131033	0.313998	0.789975	0.113630	0.164406	0.318168	0.368006	0.472483	0.401152	0.232002	0.245876	0.150658	0.452107	0.233577	0.297091	0.295376	0.342713	0.398363	0.064651	0.281868	0.315558	0.463143	0.476266	0.331705	0.290345	0.298872	0.145789	0.154791	0.140277	0.434379	0.794180	0.115345	0.201912	0.181976	0.188517	0.067298	0.131925	0.241648	0.206304	0.045742	0.163580	0.168741	0.455882	0.094355	0.362916	0.144881	0.448831	0.063645	0.141170	0.316010	0.269649
32	0.358592	0.638040	0.184594	0.172342	0.201322	0.257631	0.318329	0.629331	0.699166	0.527358	0.320859	0.464460	0.099847	0.134085	0.315340	0.473180	0.079126	0.092505	0.502960	0.552861	0.244237	0.245053	0.122594	0.243063	0.250924	0.219080	0.456399	0.417709	0.129829	0.124892	0.252384	0.767479	0.118367	0.169463	0.357056	0.367760	0.349018	0.340958	0.241731	0.280856	0.139521	0.372096	0.248447	0.301230	0.295304	0.322138	0.375427	0.061283	0.265288	0.281784	0.484646	0.448306	0.334448	0.289919	0.324221	0.147453	0.155886	0.136200	0.470359	0.788790	0.114678	0.202707	0.191145	0.184737	0.074319	0.139789	0.221848	0.151229	0.057226	0.152182	0.159222	0.465674	0.100390	0.406020	0.148586	0.491089	0.068496	0.148288	0.317400	0.279086
33	0.307667	0.618332	0.184088	0.185110	0.216952	0.269877	0.386517	0.664133	0.702163	0.532341	0.311993	0.462245	0.099660	0.158641	0.334673	0.474207	0.075479	0.085944	0.418912	0.541019	0.221844	0.261734	0.119795	0.222294	0.234597	0.195608	0.454503	0.420341	0.124492	0.115572	0.223170	0.735465	0.132897	0.179152	0.378969	0.383346	0.234327	0.217480	0.250954	0.259720	0.133329	0.330647	0.256386	0.291476	0.280342	0.285766	0.295089	0.080679	0.256814	0.206890	0.487922	0.442713	0.334218	0.287425	0.356228	0.169497	0.152109	0.125596	0.497871	0.849712	0.113320	0.201867	0.190221	0.182264	0.055247	0.082634	0.248946	0.169426	0.065634	0.158852	0.118243	0.498350	0.104910	0.407636	0.151997	0.446826	0.075650	0.156931	0.325892	0.274689
34	0.297248	0.605277	0.170901	0.233972	0.220808	0.261606	0.393439	0.674014	0.700972	0.529100	0.307906	0.463358	0.132287	0.209174	0.335640	0.431220	0.073905	0.087531	0.368936	0.515759	0.206178	0.244488	0.117936	0.185831	0.212264	0.154848	0.448592	0.471792	0.123730	0.100887	0.147130	0.700258	0.160303	0.198170	0.393181	0.371324	0.233662	0.219860	0.250846	0.255533	0.132789	0.329589	0.286741	0.281765	0.278322	0.273039	0.207382	0.101840	0.146416	0.197830	0.487068	0.467834	0.333243	0.285222	0.358865	0.206581	0.157171	0.129180	0.461689	0.936536	0.109023	0.198654	0.178081	0.199990	0.082672	0.116848	0.393478	0.205212	0.096503	0.175796	0.123671	0.591489	0.099318	0.407585	0.142751	0.408317	0.103773	0.175051	0.334076	0.270048
35	0.297144	0.589960	0.132354	0.230069	0.209891	0.250277	0.386255	0.681294	0.652111	0.506097	0.348821	0.463006	0.146888	0.252296	0.338995	0.384510	0.060628	0.117750	0.172874	0.561476	0.206172	0.239195	0.115924	0.165099	0.154107	0.135647	0.405956	0.574542	0.122809	0.100613	0.140605	0.565300	0.184556	0.211683	0.381949	0.339226	0.149457	0.174029	0.250459	0.274239	0.118630	0.304814	0.287687	0.274981	0.277907	0.254022	0.189662	0.106118	0.123687	0.132059	0.440889	0.488727	0.311446	0.264910	0.418513	0.215701	0.142080	0.110841	0.389695	0.960671	0.116425	0.213496	0.171579	0.198856	0.104227	0.138875	0.448531	0.206097	0.182594	0.227528	0.129775	0.597931	0.087493	0.372775	0.156755	0.357917	0.116064	0.173276	0.327069	0.272288
36	0.278532	0.468835	0.121516	0.271356	0.180557	0.221438	0.357164	0.766678	0.581432	0.487944	0.376392	0.462443	0.147741	0.258722	0.337686	0.357314	0.065253	0.199287	0.116944	0.525902	0.152453	0.228963	0.100702	0.162295	0.130602	0.125447	0.407084	0.646930	0.124793	0.100349	0.260523	0.425949	0.181255	0.209733	0.371604	0.415915	0.126887	0.138245	0.286149	0.316759	0.100719	0.215814	0.282277	0.291120	0.274561	0.231442	0.176113	0.145464	0.094593	0.125419	0.371392	0.487893	0.301109	0.242129	0.523146	0.221144	0.123377	0.100428	0.375633	0.958313	0.131322	0.246369	0.178456	0.188603	0.114810	0.177953	0.485500	0.216281	0.207208	0.239946	0.155654	0.680178	0.080892	0.256694	0.246715	0.393399	0.117178	0.165494	0.302099	0.243847
37	0.143721	0.330094	0.141914	0.516322	0.158676	0.206806	0.376949	0.803277	0.370034	0.334674	0.342420	0.456529	0.146580	0.260017	0.341089	0.349195	0.064360	0.233350	0.157903	0.510831	0.113915	0.212490	0.135451	0.169494	0.128803	0.129795	0.408124	0.678962	0.108388	0.079725	0.317199	0.527472	0.162752	0.182872	0.360846	0.592986	0.125523	0.137707	0.305843	0.309643	0.091090	0.147492	0.267387	0.323032	0.265698	0.230240	0.149861	0.200572	0.105798	0.191241	0.352121	0.440486	0.294441	0.234095	0.515655	0.390055	0.123017	0.102624	0.411280	0.917398	0.139840	0.270658	0.187346	0.176168	0.117676	0.179568	0.547000	0.179835	0.318914	0.347861	0.161457	0.801490	0.125770	0.207309	0.650255	0.329161	0.123155	0.176057	0.289700	0.264153
38	0.129639	0.215222	0.265669	0.706205	0.177677	0.221739	0.388963	0.784712	0.214460	0.240237	0.308431	0.440156	0.146720	0.259353	0.341597	0.349695	0.073116	0.261451	0.170495	0.466395	0.097805	0.212876	0.145641	0.237297	0.138553	0.164020	0.403539	0.689569	0.112088	0.095832	0.350075	0.665455	0.160821	0.162239	0.354256	0.606040	0.137021	0.141543	0.304568	0.314034	0.102527	0.142500	0.268070	0.333275	0.203974	0.184837	0.138945	0.225617	0.116295	0.265790	0.349757	0.402379	0.265779	0.197029	0.499265	0.728427	0.128597	0.104241	0.424564	0.841413	0.146109	0.288158	0.187112	0.168786	0.114202	0.173780	0.520601	0.141881	0.327964	0.335252	0.189451	0.867942	0.170866	0.183523	0.701689	0.338735	0.135986	0.185137	0.278253	0.349881
39	0.096344	0.089817	0.376681	0.748767	0.208112	0.242558	0.386193	0.784750	0.187970	0.227122	0.305624	0.419512	0.146484	0.265417	0.346357	0.360809	0.084346	0.301477	0.171149	0.458749	0.102219	0.216848	0.178154	0.385930	0.132293	0.148214	0.344516	0.733303	0.136963	0.128190	0.476107	0.670310	0.163473	0.157336	0.364807	0.599730	0.134093	0.148267	0.279398	0.283499	0.102492	0.143363	0.325793	0.302537	0.110238	0.139575	0.138906	0.249837	0.119426	0.270978	0.298894	0.358572	0.245044	0.185872	0.514636	0.880682	0.116332	0.109355	0.454792	0.747081	0.138803	0.280482	0.186330	0.167041	0.096402	0.194438	0.472827	0.117228	0.332157	0.345685	0.213334	0.813189	0.183769	0.229518	0.918360	0.423319	0.158513	0.200942	0.250340	0.429062
40	0.129076	0.115810	0.383097	0.779724	0.212815	0.245093	0.390990	0.717986	0.177037	0.227598	0.295353	0.477554	0.151562	0.294879	0.358987	0.369354	0.110890	0.371173	0.176891	0.442774	0.107267	0.228396	0.207368	0.516725	0.108963	0.133183	0.315998	0.741013	0.140618	0.134640	0.553918	0.686629	0.172279	0.165329	0.349838	0.600017	0.109832	0.126579	0.278737	0.282724	0.091358	0.129350	0.358694	0.306280	0.138571	0.161228	0.139535	0.256480	0.121633	0.276555	0.254221	0.382127	0.219253	0.166427	0.506731	0.891279	0.094902	0.111589	0.476749	0.718554	0.123199	0.250367	0.185196	0.165762	0.077638	0.174493	0.434199	0.087069	0.340055	0.364611	0.234584	0.798794	0.259056	0.345002	1.007290	0.443806	0.171046	0.210504	0.224442	0.463960
41	0.135820	0.119771	0.436891	0.913545	0.200955	0.232881	0.371362	0.629421	0.179544	0.230119	0.285475	0.536955	0.159933	0.331727	0.379992	0.365345	0.111559	0.365865	0.272843	0.440976	0.115728	0.238038	0.267908	0.569977	0.094184	0.132684	0.327039	0.735382	0.141387	0.132006	0.564389	0.682970	0.171141	0.165626	0.311713	0.589080	0.089058	0.099084	0.268669	0.278953	0.091879	0.120477	0.338023	0.294732	0.241324	0.162570	0.130652	0.271430	0.119347	0.278112	0.241303	0.385224	0.147693	0.112689	0.501802	0.978356	0.096305	0.109315	0.438055	0.707229	0.111985	0.237578	0.181962	0.179741	0.081391	0.230922	0.327103	0.066912	0.392808	0.401321	0.235542	0.786119	0.273643	0.360975	1.002783	0.387226	0.172687	0.213121	0.191342	0.469826
42	0.138878	0.134000	0.503735	0.990897	0.218808	0.236772	0.277974	0.576487	0.189635	0.210069	0.311206	0.506165	0.166518	0.339626	0.386961	0.358946	0.111879	0.359105	0.331393	0.357179	0.108028	0.232340	0.283445	0.603796	0.111072	0.139777	0.332105	0.734247	0.146672	0.131497	0.588914	0.720026	0.166590	0.166390	0.267887	0.577574	0.096052	0.104667	0.215215	0.249385	0.098735	0.122352	0.340214	0.293986	0.269712	0.155467	0.127612	0.289091	0.115926	0.279371	0.246620	0.391014	0.254004	0.190808	0.494561	1.091726	0.097252	0.141948	0.401169	0.586536	0.106678	0.238377	0.176742	0.190467	0.060271	0.244139	0.212495	0.131525	0.409678	0.407747	0.217809	0.720431	0.265957	0.360823	0.842699	0.360054	0.172905	0.211319	0.150767	0.460594
43	0.140687	0.137958	0.509028	1.012679	0.237446	0.235525	0.259081	0.559492	0.196853	0.191870	0.333677	0.455340	0.168786	0.338953	0.391559	0.356622	0.111690	0.313659	0.480723	0.352900	0.093991	0.211838	0.363322	0.741332	0.110235	0.140304	0.336262	0.729412	0.148990	0.137112	0.635973	0.757666	0.156348	0.156638	0.243900	0.568794	0.177414	0.159339	0.198503	0.210992	0.112069	0.131693	0.356126	0.313749	0.272322	0.160506	0.180173	0.297316	0.114227	0.279776	0.257593	0.414230	0.322020	0.230272	0.500173	1.156879	0.097647	0.217072	0.380633	0.395173	0.107971	0.238222	0.169833	0.185936	0.074685	0.269896	0.246039	0.277591	0.410332	0.390074	0.239377	0.704289	0.232483	0.354370	0.809026	0.369569	0.169981	0.200212	0.145628	0.476930
44	0.143701	0.136948	0.504635	1.009251	0.240675	0.237826	0.307056	0.567826	0.192452	0.192357	0.346989	0.423301	0.168774	0.341761	0.400121	0.354878	0.117893	0.310483	0.527429	0.341131	0.085175	0.174236	0.476652	0.873352	0.111892	0.155358	0.333854	0.650689	0.152812	0.170934	0.637321	0.785484	0.120219	0.128321	0.236244	0.590900	0.232189	0.168509	0.122825	0.183125	0.112124	0.126752	0.347570	0.391655	0.315940	0.213036	0.199382	0.293245	0.113744	0.280844	0.257811	0.458687	0.368531	0.269833	0.520629	1.164254	0.107101	0.272618	0.373164	0.334790	0.112334	0.238421	0.142959	0.185734	0.135966	0.337567	0.237953	0.309971	0.392876	0.381063	0.290888	0.666387	0.224244	0.358908	0.672910	0.314941	0.166144	0.193036	0.156439	0.541499
45	0.147608	0.138588	0.502029	1.005129	0.252176	0.233515	0.364484	0.488320	0.168121	0.182716	0.350871	0.455620	0.168481	0.338366	0.392968	0.353114	0.103982	0.261925	0.533283	0.325782	0.092775	0.186157	0.505325	0.917587	0.109303	0.154349	0.332823	0.567056	0.154824	0.199213	0.590524	0.736382	0.105448	0.123848	0.237952	0.625478	0.282319	0.189754	0.215658	0.183766	0.112474	0.122630	0.406774	0.417499	0.378979	0.214124	0.202122	0.286680	0.171264	0.304697	0.254244	0.512161	0.428344	0.305392	0.496979	1.160850	0.102599	0.268536	0.365609	0.365076	0.114081	0.240048	0.113217	0.185100	0.137414	0.311698	0.264914	0.360941	0.342368	0.293092	0.324434	0.521608	0.165207	0.258556	0.430996	0.256426	0.160875	0.182448	0.146880	0.626356
46	0.149405	0.140674	0.511479	1.005151	0.261454	0.236117	0.421215	0.381145	0.163892	0.187203	0.310266	0.499958	0.166938	0.328030	0.366696	0.331492	0.210168	0.292466	0.534410	0.337295	0.123463	0.220164	0.506940	0.922019	0.108287	0.152382	0.324424	0.497438	0.147660	0.199203	0.594854	0.544292	0.121343	0.140637	0.233986	0.559520	0.296727	0.202700	0.238076	0.164621	0.112409	0.125924	0.484448	0.407779	0.385724	0.240249	0.207899	0.289154	0.226263	0.300811	0.235762	0.525461	0.544046	0.430167	0.477129	1.161959	0.107084	0.297502	0.321875	0.454824	0.114123	0.239771	0.103486	0.181059	0.149371	0.339849	0.308365	0.359967	0.314291	0.279603	0.316401	0.344584	0.142417	0.275523	0.398978	0.253110	0.150918	0.169770	0.276771	0.763178
47	0.147353	0.141098	0.519949	0.908575	0.253151	0.222369	0.414956	0.410770	0.178278	0.208699	0.274341	0.507847	0.150055	0.308881	0.342968	0.334107	0.493937	0.357990	0.542877	0.335710	0.133592	0.222016	0.517568	0.937117	0.100247	0.134620	0.323290	0.493502	0.119481	0.196335	0.531804	0.509326	0.127417	0.146299	0.233047	0.464073	0.334728	0.290074	0.331102	0.175846	0.110278	0.128374	0.525743	0.390520	0.434399	0.292823	0.206196	0.287433	0.233440	0.239626	0.239183	0.520924	0.570515	0.480097	0.549554	1.149499	0.122880	0.357878	0.344918	0.702746	0.114050	0.240463	0.105009	0.162542	0.155024	0.466520	0.287460	0.263694	0.315668	0.286231	0.323153	0.241799	0.131489	0.259877	0.428558	0.250085	0.150040	0.168582	0.368315	0.880083
48	0.146957	0.143448	0.487022	0.773071	0.233407	0.209468	0.422039	0.499917	0.179045	0.211900	0.279464	0.520856	0.117687	0.269132	0.322501	0.356013	0.553620	0.395153	0.509190	0.268685	0.136438	0.222613	0.525390	0.925041	0.092200	0.126549	0.315304	0.424928	0.098438	0.197252	0.466459	0.487848	0.128132	0.153783	0.219051	0.467968	0.371812	0.353839	0.359464	0.166822	0.112622	0.129221	0.523035	0.388305	0.459408	0.311814	0.204759	0.272773	0.254211	0.232149	0.236702	0.519041	0.575511	0.484669	0.547482	1.006993	0.120725	0.373387	0.309114	0.782823	0.111798	0.239715	0.114617	0.152786	0.102295	0.423758	0.280483	0.248415	0.315942	0.304493	0.331431	0.230360	0.131520	0.262516	0.394990	0.229700	0.154174	0.170257	0.467631	0.911968
49	0.139604	0.139571	0.409189	0.747151	0.230379	0.218729	0.481473	0.529311	0.171679	0.214181	0.412823	0.585455	0.103380	0.253041	0.283657	0.359223	0.659365	0.434359	0.497226	0.301331	0.137165	0.219979	0.520179	0.895450	0.098461	0.173014	0.292435	0.297707	0.105653	0.201325	0.422520	0.470799	0.126234	0.163086	0.187743	0.465579	0.375606	0.356905	0.359218	0.164911	0.119859	0.136994	0.476932	0.408694	0.480891	0.328293	0.205694	0.259081	0.248460	0.210939	0.215690	0.489167	0.575505	0.485280	0.537676	0.830902	0.124358	0.385360	0.287383	0.794114	0.092962	0.210812	0.111011	0.297772	0.095091	0.471497	0.257190	0.184820	0.265992	0.253338	0.333920	0.229475	0.136001	0.239921	0.271804	0.156280	0.167403	0.178813	0.491939	0.902769
50	0.111527	0.113265	0.399774	0.729900	0.233978	0.222985	0.534344	0.533782	0.171463	0.214901	0.544914	0.626879	0.100963	0.253015	0.272968	0.361456	0.675418	0.436659	0.332578	0.298009	0.149339	0.261009	0.516940	0.825638	0.095188	0.216128	0.258266	0.216640	0.102825	0.206567	0.407648	0.405367	0.116118	0.157005	0.179956	0.465192	0.406325	0.372168	0.375809	0.170270	0.117163	0.135687	0.447746	0.413387	0.481730	0.325728	0.207165	0.237712	0.250326	0.210687	0.176052	0.493201	0.574140	0.481545	0.578658	0.838361	0.126620	0.392231	0.299238	0.871676	0.081621	0.179181	0.107156	0.525060	0.079653	0.449661	0.157030	0.145352	0.214830	0.246650	0.335923	0.219085	0.135451	0.246390	0.286301	0.130794	0.162865	0.177602	0.638589	0.871913
51	0.100187	0.107859	0.345702	0.557889	0.211819	0.189079	0.557059	0.532210	0.179825	0.233466	0.574948	0.584789	0.100943	0.252121	0.268504	0.360253	0.679440	0.435875	0.297282	0.274097	0.157321	0.275991	0.492148	0.765847	0.066532	0.281590	0.237302	0.194707	0.099334	0.207730	0.354388	0.324892	0.116416	0.153612	0.155729	0.464758	0.376921	0.376966	0.433016	0.192828	0.114063	0.140153	0.446362	0.413696	0.468948	0.319897	0.204890	0.237019	0.251152	0.217849	0.142290	0.483723	0.568879	0.479244	0.641874	0.785199	0.133113	0.380970	0.295830	0.949285	0.063313	0.136064	0.157812	0.706294	0.078788	0.275625	0.157285	0.145764	0.151783	0.224462	0.326337	0.193434	0.085203	0.140526	0.481596	0.188253	0.145242	0.162503	0.814512	0.855381
52	0.096775	0.086289	0.238708	0.397725	0.171185	0.179748	0.551746	0.536653	0.186197	0.258253	0.575219	0.551124	0.100569	0.251193	0.270921	0.366356	0.679288	0.438613	0.293896	0.279810	0.153561	0.271901	0.469942	0.763015	0.066474	0.332655	0.236721	0.189111	0.105589	0.205388	0.286655	0.227613	0.111069	0.145275	0.145046	0.475395	0.375341	0.379418	0.421604	0.188727	0.111313	0.160054	0.435903	0.413380	0.428425	0.319438	0.198520	0.228508	0.251997	0.219828	0.123171	0.443840	0.528597	0.461109	0.677081	0.611385	0.123270	0.387034	0.296947	0.978033	0.059990	0.126185	0.167669	0.837534	0.185814	0.286771	0.143400	0.115327	0.144145	0.218367	0.275571	0.165618	0.086705	0.120328	0.551788	0.366996	0.132922	0.148164	0.893819	0.891243
53	0.095736	0.080985	0.228625	0.333958	0.168246	0.208429	0.541831	0.545072	0.176360	0.256235	0.582408	0.606503	0.094622	0.229749	0.271930	0.511697	0.592306	0.337348	0.294874	0.278426	0.153562	0.273569	0.461507	0.680853	0.083892	0.375703	0.196526	0.178664	0.106609	0.176284	0.281601	0.158326	0.106685	0.144441	0.117969	0.519592	0.336069	0.366744	0.416342	0.179629	0.100038	0.162540	0.417235	0.394691	0.428240	0.324015	0.189555	0.209979	0.253148	0.221039	0.111333	0.360016	0.496464	0.445923	0.676596	0.458169	0.135377	0.512485	0.309606	0.976110	0.074200	0.127869	0.169005	0.892210	0.213666	0.184919	0.121342	0.080779	0.130468	0.239269	0.220746	0.152270	0.097680	0.115657	0.662216	0.462489	0.142363	0.160472	0.898243	0.966753
54	0.088624	0.083717	0.229498	0.317479	0.149339	0.215440	0.508985	0.547269	0.160117	0.241461	0.579434	0.649756	0.084628	0.165528	0.250326	0.877043	0.468500	0.301976	0.260140	0.265614	0.154109	0.273257	0.329886	0.484038	0.086560	0.403030	0.132376	0.163374	0.099071	0.188158	0.262667	0.155441	0.109892	0.162936	0.118041	0.540904	0.335313	0.357418	0.367289	0.132483	0.102761	0.191371	0.398001	0.316964	0.431101	0.317382	0.138287	0.196216	0.224177	0.208204	0.115590	0.336144	0.453282	0.422743	0.659544	0.393781	0.184501	0.691481	0.308352	0.964714	0.097753	0.137420	0.193207	0.896051	0.243789	0.184458	0.397121	0.226069	0.120501	0.250923	0.214570	0.108531	0.099672	0.134374	0.857872	0.618125	0.204545	0.203235	0.908405	1.014875
55	0.065698	0.085872	0.226799	0.317061	0.126015	0.209240	0.451101	0.563678	0.152019	0.218854	0.571252	0.663382	0.089111	0.125321	0.249122	1.075320	0.271421	0.209148	0.197319	0.212371	0.159782	0.270865	0.230795	0.303881	0.087819	0.409455	0.104570	0.127864	0.100307	0.237665	0.255116	0.158418	0.122382	0.199335	0.124854	0.522449	0.251228	0.233183	0.380031	0.126095	0.099464	0.187030	0.338368	0.325677	0.410534	0.305622	0.114564	0.193991	0.157111	0.174239	0.133672	0.332648	0.433658	0.413209	0.666129	0.394542	0.186298	0.700644	0.330184	0.930966	0.110043	0.128624	0.227583	0.918004	0.239221	0.182757	0.470980	0.245241	0.114794	0.253307	0.195710	0.113208	0.156131	0.196795	0.879953	0.638382	0.210008	0.208227	0.923367	1.008344
56	0.065267	0.081423	0.210130	0.300594	0.135450	0.215990	0.423108	0.586359	0.151194	0.207806	0.566348	0.642446	0.099707	0.130967	0.267666	1.112696	0.155351	0.157555	0.161995	0.186243	0.143898	0.241668	0.220678	0.252407	0.087546	0.426435	0.135405	0.113695	0.100380	0.238123	0.204389	0.195548	0.134924	0.240254	0.146210	0.473052	0.270047	0.268548	0.518298	0.171015	0.103491	0.191305	0.238451	0.379929	0.355127	0.402782	0.108569	0.194631	0.131578	0.167390	0.178497	0.351372	0.231645	0.291392	0.637980	0.453801	0.170424	0.696461	0.454451	0.740277	0.112715	0.119318	0.236778	1.014400	0.176533	0.169544	0.525944	0.270273	0.103902	0.211071	0.146455	0.131745	0.173398	0.213069	0.824953	0.631968	0.210250	0.213891	0.927056	0.984622
57	0.070505	0.085987	0.191859	0.398009	0.138536	0.205718	0.425223	0.500333	0.143175	0.199429	0.565537	0.609399	0.122413	0.134452	0.255291	1.118328	0.120743	0.130285	0.166830	0.206230	0.129033	0.226642	0.211433	0.216157	0.089523	0.435479	0.154169	0.203612	0.092954	0.230941	0.248451	0.210241	0.152557	0.289315	0.140000	0.467297	0.275307	0.260181	0.533332	0.175289	0.110970	0.207535	0.187161	0.403388	0.365817	0.394640	0.094557	0.188089	0.092670	0.231079	0.215403	0.360125	0.127871	0.146803	0.598032	0.612255	0.170186	0.695589	0.467841	0.663055	0.117226	0.131860	0.249393	1.125658	0.148896	0.208220	0.614336	0.275678	0.109935	0.215096	0.120002	0.131038	0.168645	0.213516	0.726698	0.562713	0.209987	0.217777	0.929685	0.923164
58	0.085843	0.109942	0.161756	0.641793	0.131558	0.180145	0.439346	0.423693	0.125913	0.189315	0.565573	0.604323	0.134348	0.133450	0.252193	1.127599	0.155585	0.152945	0.225358	0.190200	0.119432	0.225221	0.152389	0.168477	0.086825	0.423559	0.151073	0.368576	0.088542	0.259321	0.457901	0.212058	0.146167	0.289877	0.153366	0.493680	0.283939	0.285859	0.551179	0.181711	0.107110	0.215575	0.193998	0.394515	0.304994	0.391401	0.101868	0.159575	0.108759	0.248655	0.221591	0.371717	0.082001	0.123483	0.649211	0.675538	0.180243	0.750583	0.451001	0.636492	0.119579	0.137212	0.272555	1.181366	0.112514	0.226387	0.501915	0.208151	0.107367	0.198892	0.120523	0.158108	0.162106	0.211838	0.716848	0.547620	0.204485	0.213781	0.897430	0.804341
59	0.139177	0.304043	0.189118	0.679766	0.135197	0.183596	0.397520	0.404327	0.125155	0.227460	0.562384	0.594552	0.138293	0.135212	0.254347	1.140665	0.171308	0.141163	0.275675	0.150580	0.118832	0.225215	0.145051	0.191188	0.082030	0.404697	0.146129	0.416773	0.105610	0.313258	0.559591	0.215812	0.147612	0.334407	0.168593	0.504068	0.295234	0.289055	0.585036	0.207364	0.102305	0.206282	0.273158	0.419052	0.268246	0.434513	0.127757	0.123278	0.104335	0.277838	0.230385	0.398605	0.105639	0.132235	0.662458	0.689356	0.209272	0.838823	0.465941	0.524401	0.124029	0.142434	0.311110	1.198824	0.150379	0.275629	0.419423	0.207487	0.106333	0.196841	0.121919	0.193491	0.170047	0.216128	0.495024	0.456862	0.201172	0.212499	0.870437	0.685301
60	0.181333	0.407041	0.261486	0.750321	0.206837	0.198730	0.362221	0.406613	0.125583	0.242116	0.469010	0.530118	0.141943	0.140953	0.260647	1.156699	0.190657	0.132188	0.278443	0.200318	0.112214	0.211402	0.134827	0.205896	0.084684	0.376495	0.151228	0.444203	0.232886	0.393273	0.555018	0.198918	0.172871	0.412779	0.167916	0.504771	0.371863	0.376404	0.581531	0.213897	0.119656	0.211855	0.373622	0.432485	0.230864	0.445655	0.130841	0.128974	0.123840	0.312309	0.233630	0.407251	0.136659	0.146737	0.640970	0.667371	0.208586	0.850429	0.487557	0.375362	0.135363	0.178852	0.331441	1.215120	0.162556	0.266389	0.362960	0.176929	0.123339	0.199496	0.143891	0.198645	0.141751	0.177402	0.360559	0.442386	0.194855	0.208827	0.821746	0.658547
61	0.187566	0.413029	0.372917	0.761290	0.265099	0.275417	0.366254	0.417727	0.123744	0.255373	0.308934	0.481066	0.150396	0.152814	0.277563	1.177074	0.198356	0.138612	0.268680	0.234759	0.081114	0.155977	0.134825	0.236307	0.081667	0.311290	0.155914	0.445324	0.267819	0.419166	0.562364	0.204061	0.176622	0.417136	0.168148	0.526619	0.375760	0.378325	0.581814	0.213908	0.136848	0.228910	0.393737	0.459290	0.227879	0.446005	0.136130	0.146155	0.184495	0.311970	0.236550	0.411307	0.138196	0.146434	0.586422	0.660358	0.210258	0.828699	0.490555	0.291227	0.144544	0.200410	0.333662	1.225306	0.157700	0.239099	0.184005	0.163167	0.129373	0.178321	0.148990	0.189785	0.122858	0.156917	0.359981	0.459635	0.181754	0.197083	0.806201	0.652990
62	0.193957	0.446793	0.407439	0.859408	0.286008	0.283500	0.382347	0.413028	0.112007	0.248611	0.248245	0.479027	0.150670	0.148563	0.341234	1.187877	0.298739	0.233569	0.275994	0.238956	0.072341	0.155989	0.137538	0.268005	0.082162	0.289022	0.169065	0.456103	0.268634	0.421619	0.588860	0.213366	0.178231	0.418847	0.201628	0.531219	0.423148	0.396472	0.563534	0.211967	0.139397	0.228423	0.408239	0.498047	0.228822	0.444452	0.135254	0.167076	0.189266	0.312304	0.241459	0.395689	0.133114	0.140667	0.548077	0.669698	0.194173	0.725691	0.495238	0.274925	0.148640	0.200004	0.337502	1.218556	0.144708	0.225557	0.145849	0.134353	0.221493	0.169372	0.255098	0.189557	0.121068	0.153730	0.369914	0.530276	0.176045	0.198896	0.670965	0.653961
63	0.228101	0.565716	0.416057	0.965449	0.354320	0.295424	0.400010	0.393055	0.092534	0.220085	0.242508	0.434658	0.150275	0.141102	0.399006	1.193341	0.381047	0.273962	0.286196	0.258836	0.072476	0.177544	0.167503	0.289279	0.076764	0.192417	0.190381	0.478910	0.290052	0.413583	0.629251	0.214117	0.178021	0.419504	0.239247	0.472490	0.431811	0.390150	0.453027	0.187794	0.140752	0.219881	0.421439	0.515276	0.222580	0.444220	0.214182	0.240035	0.199499	0.301718	0.259337	0.336384	0.124037	0.123227	0.523092	0.667490	0.160268	0.574940	0.518624	0.272733	0.147593	0.212471	0.349514	1.164410	0.099524	0.158541	0.140361	0.108601	0.313993	0.159199	0.286082	0.195637	0.121200	0.153668	0.358163	0.511296	0.176568	0.228329	0.451275	0.627881
64	0.241147	0.678663	0.453095	1.022440	0.482237	0.341133	0.400520	0.378151	0.089255	0.225270	0.206502	0.361435	0.151600	0.139329	0.405201	1.200592	0.480596	0.315039	0.275387	0.255332	0.072692	0.180388	0.243223	0.297940	0.083769	0.180569	0.193610	0.559922	0.352364	0.459625	0.682742	0.189910	0.172505	0.407822	0.242372	0.412128	0.426013	0.348819	0.376072	0.165669	0.171632	0.222017	0.419808	0.516189	0.189887	0.442659	0.270750	0.262382	0.202833	0.291399	0.256690	0.361843	0.120690	0.113701	0.552183	0.670786	0.159780	0.560023	0.508036	0.260838	0.147241	0.216791	0.342376	1.063410	0.073124	0.137180	0.229049	0.174471	0.314607	0.171398	0.288431	0.197371	0.118287	0.158105	0.266036	0.412144	0.176478	0.228591	0.330097	0.538705
65	0.258540	0.721329	0.501115	1.047275	0.516567	0.343864	0.417285	0.316930	0.089043	0.241490	0.200932	0.307154	0.152489	0.138011	0.413469	1.203374	0.470518	0.327701	0.266132	0.252839	0.068910	0.180168	0.253626	0.342973	0.088291	0.161364	0.206607	0.647429	0.372692	0.486089	0.724367	0.155996	0.155818	0.387184	0.267498	0.395465	0.456298	0.355832	0.334185	0.153058	0.189527	0.237383	0.420843	0.492533	0.180593	0.451236	0.301407	0.262788	0.217428	0.316872	0.247856	0.354881	0.122085	0.109522	0.577331	0.680843	0.160526	0.540233	0.377904	0.274878	0.156231	0.218554	0.334172	0.960303	0.085617	0.148052	0.307800	0.180084	0.321568	0.176723	0.288761	0.206108	0.107900	0.129319	0.198282	0.368776	0.155717	0.216080	0.321249	0.389603
66	0.281190	0.750920	0.538265	1.047789	0.515396	0.338166	0.418147	0.273994	0.083303	0.250927	0.205738	0.274666	0.153390	0.137797	0.438508	1.191286	0.468049	0.330164	0.294601	0.244751	0.055595	0.173481	0.287141	0.368769	0.093794	0.117016	0.226586	0.683073	0.377330	0.480075	0.650740	0.156365	0.126872	0.347967	0.279023	0.408815	0.510990	0.403829	0.209272	0.099714	0.191108	0.229924	0.406875	0.448055	0.151331	0.433500	0.434236	0.268213	0.222353	0.290917	0.229804	0.343776	0.137574	0.139146	0.575757	0.665176	0.160795	0.532164	0.409103	0.255621	0.164783	0.219894	0.333879	0.870809	0.153267	0.159767	0.309164	0.175163	0.365618	0.187287	0.286674	0.199903	0.082037	0.098899	0.192627	0.363058	0.069999	0.182414	0.284109	0.263172
67	0.282576	0.763624	0.569838	1.015153	0.514077	0.337467	0.358535	0.299256	0.074946	0.254974	0.214489	0.272183	0.153144	0.138327	0.475493	1.038122	0.469440	0.338907	0.360446	0.191698	0.057886	0.171513	0.366485	0.378947	0.102971	0.123775	0.242412	0.634129	0.381086	0.456274	0.530155	0.148734	0.112737	0.325834	0.275760	0.374864	0.467112	0.331698	0.074983	0.070168	0.183757	0.215482	0.400063	0.405797	0.153996	0.363921	0.482062	0.305034	0.213131	0.274658	0.227045	0.332411	0.235098	0.217046	0.540458	0.555214	0.143304	0.419644	0.420345	0.259237	0.155869	0.216821	0.330170	0.849337	0.175142	0.170946	0.330959	0.167447	0.372542	0.199554	0.284241	0.163273	0.105527	0.134340	0.267005	0.289701	0.066179	0.180945	0.236707	0.210839
68	0.311781	0.869902	0.599954	0.877488	0.511669	0.334396	0.308610	0.322173	0.071669	0.257501	0.242548	0.279316	0.145925	0.134863	0.492034	0.757636	0.465175	0.326243	0.357438	0.176537	0.063215	0.172628	0.393684	0.386894	0.107578	0.132264	0.264657	0.578417	0.350463	0.400689	0.525676	0.144520	0.111449	0.311618	0.279352	0.349115	0.444687	0.323803	0.078492	0.175563	0.177283	0.205445	0.397569	0.389367	0.115002	0.358393	0.488111	0.344407	0.217855	0.261764	0.276342	0.295016	0.302036	0.229726	0.494956	0.441365	0.096883	0.224221	0.388525	0.266179	0.143715	0.220916	0.306129	0.845340	0.170131	0.166602	0.284022	0.114763	0.371906	0.230030	0.273395	0.159590	0.113671	0.156227	0.318475	0.278206	0.060924	0.171305	0.206218	0.172577
69	0.307192	0.896480	0.591822	0.839501	0.497378	0.331262	0.300554	0.321454	0.069066	0.249486	0.247054	0.281285	0.134441	0.130265	0.490598	0.605897	0.379991	0.260285	0.357077	0.175828	0.065377	0.171028	0.403000	0.382198	0.107197	0.158531	0.282341	0.561686	0.289892	0.332885	0.545627	0.129089	0.091458	0.204749	0.279586	0.344757	0.418259	0.318677	0.120865	0.264683	0.174876	0.205640	0.363158	0.346142	0.108111	0.322808	0.497899	0.346184	0.247403	0.276235	0.320399	0.280840	0.306421	0.225725	0.453044	0.420978	0.088837	0.183335	0.369116	0.253650	0.149218	0.296573	0.294757	0.771316	0.212332	0.211468	0.425155	0.220106	0.368185	0.226821	0.268631	0.162529	0.113045	0.146544	0.341379	0.302444	0.067987	0.172444	0.194149	0.174074
70	0.281895	0.859063	0.571880	0.772240	0.461357	0.278427	0.286017	0.309828	0.064048	0.210840	0.245562	0.282308	0.120728	0.137018	0.486190	0.594051	0.280234	0.218686	0.362457	0.163475	0.070374	0.167599	0.406159	0.367906	0.111574	0.205871	0.456938	0.551794	0.287269	0.327136	0.526102	0.110770	0.041767	0.085575	0.307075	0.338424	0.421964	0.305798	0.160782	0.330334	0.166340	0.194971	0.314709	0.336627	0.108160	0.238116	0.502519	0.346051	0.227814	0.309758	0.335881	0.274185	0.290558	0.212097	0.455034	0.426057	0.090718	0.179879	0.398846	0.243478	0.149601	0.321160	0.290087	0.601289	0.177174	0.177772	0.464960	0.236197	0.338617	0.222833	0.219573	0.173082	0.111762	0.151323	0.356018	0.309866	0.084018	0.175865	0.211307	0.176235
71	0.277226	0.860539	0.526751	0.766959	0.442395	0.233097	0.303132	0.288482	0.073717	0.193404	0.244658	0.288734	0.100364	0.125083	0.487335	0.570849	0.182465	0.181641	0.349599	0.175626	0.066640	0.136271	0.405966	0.354724	0.114099	0.231666	0.530110	0.548384	0.282244	0.313652	0.479827	0.076574	0.055415	0.088120	0.323183	0.290231	0.398448	0.300817	0.296432	0.342918	0.157515	0.168299	0.301533	0.299436	0.113833	0.210043	0.511517	0.343980	0.225401	0.315064	0.336699	0.271489	0.321981	0.248786	0.451580	0.408217	0.094821	0.178950	0.454122	0.244993	0.142073	0.314116	0.273982	0.419760	0.156139	0.163891	0.489474	0.237946	0.238851	0.213223	0.137268	0.166427	0.111901	0.153631	0.438150	0.277646	0.094082	0.177714	0.231421	0.205788
72	0.272737	0.844721	0.527062	0.666227	0.420214	0.233136	0.370367	0.297261	0.078353	0.174526	0.244101	0.299469	0.090545	0.132006	0.487600	0.539896	0.178326	0.145310	0.330619	0.180318	0.065393	0.130444	0.410628	0.314404	0.106684	0.231470	0.541907	0.535969	0.231214	0.248538	0.416644	0.058271	0.086216	0.105170	0.293627	0.261323	0.367371	0.303494	0.346448	0.371620	0.155192	0.156477	0.282349	0.239172	0.115954	0.258913	0.522754	0.343131	0.214334	0.312387	0.322875	0.267170	0.373667	0.294782	0.479312	0.389635	0.081148	0.162456	0.447827	0.259105	0.140503	0.313665	0.240783	0.332550	0.157646	0.174743	0.513482	0.239567	0.216955	0.184344	0.145824	0.150308	0.116863	0.160235	0.448410	0.243874	0.104738	0.178853	0.231681	0.226943
73	0.244369	0.772141	0.528520	0.497761	0.268169	0.186254	0.448316	0.278088	0.076722	0.163715	0.246586	0.308825	0.093676	0.171543	0.483339	0.468407	0.148041	0.101603	0.245291	0.180414	0.068720	0.089173	0.424648	0.281801	0.103038	0.231339	0.624397	0.484838	0.165505	0.161227	0.303354	0.060453	0.105814	0.115282	0.277286	0.253682	0.251684	0.217910	0.360485	0.433625	0.155188	0.156437	0.301660	0.202827	0.115224	0.285969	0.523052	0.328851	0.211261	0.312333	0.320467	0.196602	0.383953	0.297257	0.492520	0.412415	0.097954	0.136734	0.498069	0.240888	0.132141	0.311068	0.198767	0.281935	0.084046	0.108354	0.383000	0.163717	0.201004	0.177792	0.147609	0.152574	0.110076	0.151052	0.436535	0.230589	0.109097	0.182168	0.234536	0.228132
74	0.231161	0.673751	0.498799	0.363375	0.130156	0.176245	0.455806	0.213771	0.079083	0.165050	0.257475	0.295458	0.082307	0.165426	0.474557	0.380078	0.123844	0.090577	0.196631	0.184069	0.079523	0.072564	0.398665	0.266856	0.098630	0.228055	0.675669	0.349887	0.162112	0.141643	0.261527	0.119097	0.120749	0.139345	0.272713	0.217428	0.210013	0.171146	0.374621	0.467845	0.140740	0.162552	0.361116	0.196506	0.172620	0.308545	0.493593	0.271736	0.200567	0.294291	0.310192	0.170618	0.398925	0.297593	0.471099	0.432306	0.098481	0.111159	0.590433	0.213638	0.121766	0.311115	0.182356	0.221642	0.055199	0.109604	0.356938	0.144547	0.146192	0.162037	0.152878	0.230213	0.119016	0.164409	0.427014	0.266950	0.108622	0.163080	0.261157	0.209461
75	0.212143	0.628428	0.449285	0.270705	0.126665	0.181019	0.452125	0.213113	0.080023	0.154956	0.235968	0.252990	0.072713	0.160905	0.446975	0.304115	0.112446	0.080045	0.196042	0.178900	0.090596	0.099247	0.370446	0.237856	0.112190	0.228625	0.674121	0.210442	0.156636	0.140417	0.260554	0.137150	0.121931	0.139305	0.229869	0.179747	0.204461	0.175760	0.376374	0.473546	0.122300	0.147017	0.414910	0.199281	0.258208	0.343569	0.473789	0.250074	0.194285	0.291022	0.300897	0.170066	0.400159	0.297882	0.422972	0.417310	0.107006	0.113763	0.576743	0.250262	0.124461	0.350782	0.204182	0.195988	0.075570	0.129154	0.374702	0.142950	0.061692	0.161152	0.156809	0.287385	0.120079	0.172498	0.436162	0.330419	0.105651	0.126426	0.399959	0.202646
76	0.177925	0.592846	0.402059	0.250156	0.179123	0.233110	0.452137	0.187310	0.080844	0.150132	0.205693	0.236588	0.073099	0.165682	0.384385	0.279324	0.138709	0.106767	0.178919	0.170590	0.093871	0.107733	0.368262	0.170168	0.110281	0.229234	0.666702	0.141814	0.145813	0.139028	0.233566	0.160168	0.128337	0.150583	0.254028	0.196575	0.201058	0.220925	0.367256	0.429292	0.117734	0.143572	0.447166	0.191906	0.367936	0.378629	0.484225	0.250475	0.193707	0.288867	0.299177	0.154831	0.405402	0.295018	0.414159	0.415989	0.110403	0.129495	0.570281	0.251349	0.130701	0.364248	0.229920	0.196918	0.076824	0.118951	0.462351	0.190194	0.045381	0.094283	0.195452	0.290488	0.117560	0.174170	0.461149	0.358989	0.110725	0.122164	0.472212	0.202903
77	0.176164	0.579757	0.348841	0.259948	0.356153	0.331595	0.436048	0.127399	0.090197	0.186127	0.197268	0.233288	0.082287	0.176855	0.346620	0.250916	0.322161	0.227259	0.147736	0.122302	0.090655	0.108283	0.300940	0.135611	0.100194	0.221468	0.658306	0.141274	0.141897	0.140354	0.140600	0.166432	0.132622	0.158120	0.266692	0.207941	0.244214	0.280768	0.369444	0.391300	0.118504	0.141941	0.445793	0.200463	0.413418	0.402383	0.404882	0.244816	0.188595	0.277150	0.248434	0.135507	0.381380	0.253556	0.446157	0.382395	0.113577	0.111657	0.611068	0.239070	0.139156	0.362242	0.270012	0.209414	0.125845	0.163678	0.500054	0.194645	0.036131	0.092309	0.211719	0.304842	0.109628	0.158576	0.488050	0.450442	0.111278	0.110204	0.485591	0.203194
78	0.115561	0.411000	0.337023	0.280328	0.451606	0.352275	0.444863	0.129431	0.102192	0.202380	0.194741	0.233446	0.111095	0.193569	0.343994	0.233536	0.392608	0.268474	0.141508	0.094199	0.086779	0.107750	0.230030	0.104683	0.098449	0.203341	0.656888	0.109880	0.135001	0.141461	0.117549	0.166761	0.133411	0.158647	0.243732	0.208652	0.276849	0.301665	0.334582	0.349675	0.119144	0.149097	0.445919	0.227681	0.417548	0.401528	0.368688	0.194846	0.133512	0.210758	0.178919	0.107444	0.317371	0.225863	0.457073	0.350188	0.112573	0.127377	0.658836	0.263356	0.139550	0.363498	0.294537	0.221634	0.126825	0.169082	0.542514	0.266012	0.036336	0.107884	0.214882	0.337116	0.109112	0.159717	0.497244	0.506209	0.111801	0.108983	0.616649	0.193327
79	0.060126	0.198938	0.413515	0.256023	0.459814	0.381367	0.450711	0.138885	0.097809	0.197190	0.251395	0.245137	0.228800	0.263295	0.316154	0.228027	0.538443	0.342792	0.139006	0.091717	0.091156	0.111896	0.225247	0.096821	0.097500	0.184022	0.604687	0.103859	0.119429	0.146322	0.118785	0.168480	0.134664	0.160017	0.256149	0.261397	0.283157	0.306364	0.192890	0.344128	0.117696	0.157811	0.424435	0.221725	0.467757	0.462892	0.362699	0.123387	0.089936	0.161731	0.161049	0.077187	0.306721	0.234493	0.456457	0.312709	0.108143	0.138687	0.639616	0.262617	0.123799	0.361194	0.296945	0.225452	0.140798	0.173995	0.530003	0.274361	0.036509	0.107528	0.266290	0.362311	0.086990	0.128138	0.485514	0.490314	0.113757	0.110047	0.767136	0.194564
80	0.058007	0.172875	0.427218	0.244475	0.623505	0.511769	0.447668	0.139739	0.094390	0.205187	0.335668	0.253799	0.379873	0.396231	0.257733	0.212507	0.561615	0.358910	0.164341	0.090014	0.095682	0.118700	0.232190	0.098857	0.091626	0.133715	0.502465	0.104668	0.111419	0.138582	0.143574	0.172468	0.148219	0.173232	0.229637	0.296723	0.327400	0.338638	0.185547	0.278899	0.113961	0.167663	0.507236	0.221804	0.509308	0.505393	0.345114	0.120897	0.082622	0.179940	0.189518	0.082816	0.308839	0.241712	0.446353	0.303935	0.100055	0.141734	0.615195	0.319694	0.117192	0.360850	0.305755	0.225470	0.138608	0.169778	0.464775	0.285393	0.044859	0.128531	0.273202	0.359697	0.114357	0.175544	0.510329	0.448466	0.117457	0.122323	0.845223	0.208459
81	0.059166	0.150748	0.405474	0.238807	0.643804	0.535174	0.376445	0.188174	0.109759	0.235732	0.364913	0.250057	0.434991	0.431614	0.192020	0.194308	0.603589	0.372334	0.165632	0.076248	0.110938	0.138970	0.234600	0.099477	0.096342	0.147846	0.536347	0.132220	0.084780	0.115354	0.158533	0.191523	0.139527	0.172158	0.226980	0.311858	0.468275	0.370246	0.140191	0.191686	0.121698	0.182152	0.586787	0.227747	0.519269	0.510134	0.329957	0.120923	0.087429	0.187106	0.211096	0.105183	0.287909	0.221919	0.444536	0.304700	0.099683	0.145327	0.636443	0.534011	0.116917	0.361706	0.337261	0.222395	0.095583	0.115506	0.412583	0.325864	0.050497	0.132864	0.322064	0.351927	0.111789	0.174317	0.523005	0.398606	0.109022	0.118859	0.864542	0.218068
82	0.061585	0.146641	0.408891	0.244669	0.655580	0.548246	0.277025	0.359941	0.135588	0.274289	0.370028	0.235600	0.452057	0.434896	0.170716	0.231497	0.597595	0.369452	0.196250	0.080962	0.117948	0.147523	0.239572	0.099674	0.104286	0.166635	0.529168	0.171010	0.051137	0.093667	0.185416	0.296664	0.122963	0.159313	0.257674	0.316289	0.481649	0.376718	0.169570	0.099818	0.133203	0.196483	0.591499	0.222628	0.518633	0.513381	0.313982	0.104995	0.105436	0.210531	0.221166	0.105265	0.216294	0.139729	0.405264	0.288494	0.089140	0.162714	0.621253	0.581449	0.110253	0.328773	0.357003	0.215769	0.100792	0.118240	0.349698	0.319675	0.048325	0.121412	0.350052	0.324114	0.109973	0.174798	0.513228	0.366324	0.111180	0.130508	0.860641	0.219051
83	0.063814	0.146302	0.442126	0.259043	0.666978	0.560970	0.220551	0.503549	0.151219	0.290595	0.372896	0.226676	0.458748	0.433030	0.249890	0.299564	0.573382	0.345607	0.211177	0.081233	0.117226	0.148120	0.231799	0.099479	0.108009	0.176389	0.469501	0.171350	0.050955	0.097146	0.181022	0.300606	0.107399	0.137260	0.289154	0.315954	0.539308	0.376458	0.206263	0.118496	0.125047	0.182780	0.570568	0.224393	0.516650	0.492214	0.298716	0.085366	0.099713	0.212242	0.242223	0.096552	0.179194	0.122879	0.365353	0.248631	0.109891	0.203098	0.586238	0.580790	0.099140	0.277775	0.360843	0.214320	0.059337	0.085477	0.299814	0.345878	0.052691	0.144727	0.369589	0.258218	0.107756	0.175726	0.513696	0.144074	0.111333	0.136152	0.856774	0.198162
84	0.077603	0.145310	0.489952	0.249192	0.669849	0.561492	0.283974	0.517873	0.156386	0.291460	0.386312	0.221674	0.513886	0.479232	0.347046	0.349412	0.509731	0.299198	0.225750	0.064586	0.114828	0.148357	0.230722	0.098010	0.106987	0.176186	0.438807	0.169708	0.074765	0.098163	0.210241	0.318614	0.101312	0.125335	0.299507	0.315644	0.515929	0.327543	0.214821	0.168741	0.100887	0.157387	0.539824	0.216554	0.531196	0.488422	0.304443	0.088484	0.090536	0.196774	0.238940	0.093126	0.142931	0.123131	0.362802	0.186680	0.120515	0.226322	0.580983	0.567806	0.100323	0.271604	0.406994	0.211390	0.087974	0.140661	0.244228	0.323765	0.062610	0.154049	0.380382	0.246790	0.107731	0.175313	0.521030	0.193658	0.099351	0.125244	0.856579	0.180523
85	0.081398	0.136162	0.497933	0.254228	0.664689	0.551983	0.305187	0.553239	0.156409	0.290649	0.402332	0.222988	0.669625	0.624409	0.399189	0.363108	0.388969	0.218358	0.270030	0.064182	0.105563	0.138633	0.232476	0.095814	0.084353	0.159721	0.490504	0.175008	0.083520	0.096781	0.213479	0.350616	0.100059	0.128033	0.291844	0.302906	0.486336	0.287519	0.271135	0.237080	0.099883	0.158349	0.520960	0.223573	0.528221	0.479556	0.313960	0.090383	0.132255	0.206632	0.253540	0.106629	0.136590	0.123162	0.349991	0.182237	0.117894	0.222802	0.588330	0.584581	0.104529	0.271927	0.447987	0.202025	0.113825	0.171817	0.317644	0.336643	0.071721	0.161254	0.365285	0.237526	0.080574	0.112756	0.603624	0.269822	0.092727	0.116942	0.855558	0.179586
86	0.083272	0.142112	0.497948	0.261231	0.609218	0.506127	0.310007	0.625748	0.156178	0.291969	0.426409	0.220336	0.735168	0.709921	0.410992	0.366280	0.272232	0.173244	0.279052	0.059698	0.096959	0.122860	0.229202	0.073765	0.085844	0.170787	0.591306	0.194254	0.091799	0.110071	0.220057	0.411869	0.091363	0.113095	0.261722	0.280297	0.475078	0.283264	0.294815	0.247842	0.109282	0.174653	0.548388	0.242694	0.497238	0.458269	0.311719	0.090360	0.143957	0.207611	0.280791	0.123531	0.127277	0.121364	0.340307	0.168713	0.124775	0.229832	0.544384	0.628924	0.108745	0.271423	0.452376	0.192355	0.119415	0.209596	0.343606	0.322845	0.075767	0.154466	0.362992	0.182772	0.089250	0.111881	0.547332	0.271857	0.092355	0.116941	0.838901	0.180037
87	0.084821	0.142574	0.508177	0.288573	0.522536	0.491704	0.302635	0.674372	0.157288	0.287519	0.464005	0.201732	0.807431	0.763912	0.411430	0.379862	0.160868	0.118528	0.310323	0.069566	0.096914	0.120555	0.227993	0.075584	0.089253	0.174273	0.623437	0.195213	0.107568	0.138589	0.233286	0.432279	0.089046	0.110003	0.259583	0.279509	0.463726	0.262875	0.295446	0.266736	0.121349	0.179816	0.575000	0.239340	0.422744	0.420438	0.261910	0.088560	0.146212	0.208048	0.322226	0.134001	0.082343	0.109287	0.307652	0.166711	0.127592	0.221191	0.537045	0.635493	0.113522	0.264605	0.456379	0.184045	0.133618	0.212691	0.363699	0.280537	0.077489	0.150652	0.325076	0.105941	0.077305	0.109336	0.628742	0.302127	0.094163	0.118950	0.779628	0.179772
88	0.097827	0.141053	0.485463	0.277670	0.521530	0.492864	0.282781	0.693986	0.150864	0.255081	0.481540	0.206241	0.833685	0.776209	0.425142	0.389157	0.146597	0.114822	0.349810	0.074409	0.099058	0.122313	0.230002	0.065689	0.088433	0.175595	0.620183	0.191203	0.106791	0.124898	0.228297	0.433172	0.088336	0.110481	0.255271	0.259324	0.316784	0.172031	0.306997	0.284355	0.124103	0.175477	0.575421	0.228513	0.382008	0.399368	0.199540	0.087971	0.147880	0.203937	0.352752	0.141920	0.087202	0.112672	0.176400	0.135599	0.132546	0.227234	0.540229	0.647251	0.112556	0.233450	0.467248	0.173711	0.121929	0.182123	0.377269	0.273065	0.074371	0.133571	0.313481	0.092466	0.089489	0.123925	0.654224	0.380354	0.160105	0.158667	0.757373	0.175494
89	0.111218	0.147561	0.416439	0.270191	0.365433	0.378334	0.299353	0.693505	0.141640	0.241936	0.480056	0.198623	0.842218	0.779880	0.452641	0.400341	0.252832	0.176331	0.417759	0.080367	0.095481	0.119055	0.212432	0.055007	0.089623	0.178890	0.615464	0.185838	0.127282	0.131288	0.245277	0.432899	0.081827	0.110491	0.234285	0.211244	0.263152	0.151037	0.314342	0.284812	0.121895	0.169804	0.552853	0.236845	0.373332	0.381237	0.166642	0.087940	0.145277	0.182358	0.353408	0.137344	0.135335	0.139230	0.148920	0.133836	0.135391	0.232299	0.532202	0.617728	0.101339	0.186605	0.468236	0.192797	0.113111	0.177946	0.838227	0.344192	0.072695	0.125885	0.268725	0.092758	0.093850	0.128319	0.656450	0.407027	0.276212	0.242051	0.748499	0.168894
90	0.113545	0.145272	0.392045	0.272123	0.264398	0.312697	0.289345	0.692263	0.140961	0.241723	0.466273	0.174792	0.844128	0.778556	0.455892	0.413343	0.307516	0.275014	0.444650	0.082510	0.089187	0.112095	0.187142	0.054219	0.086673	0.164130	0.590426	0.181300	0.211163	0.192670	0.225669	0.391506	0.057633	0.095743	0.284122	0.207914	0.185084	0.116426	0.326225	0.280691	0.120361	0.162324	0.452388	0.226615	0.306042	0.300418	0.160795	0.076130	0.142647	0.180198	0.345914	0.120276	0.210951	0.140122	0.187697	0.138872	0.137264	0.238857	0.499435	0.450933	0.092817	0.174170	0.452482	0.230549	0.109105	0.135765	0.987091	0.346977	0.069183	0.120335	0.210947	0.091214	0.115178	0.155604	0.561150	0.379113	0.372310	0.303500	0.631217	0.168975
91	0.121080	0.151892	0.397163	0.276027	0.234806	0.269405	0.318205	0.642723	0.142568	0.240234	0.455203	0.153787	0.842677	0.776415	0.457092	0.422185	0.634657	0.526052	0.431924	0.080002	0.075914	0.093457	0.170692	0.048702	0.078403	0.147378	0.536645	0.133471	0.288072	0.241274	0.215232	0.343100	0.056605	0.092939	0.344391	0.270444	0.086819	0.071971	0.453097	0.257026	0.110670	0.145681	0.364159	0.216995	0.229146	0.221249	0.166574	0.078056	0.133103	0.155111	0.335420	0.122772	0.240661	0.142310	0.213360	0.153701	0.130675	0.221967	0.442209	0.458469	0.091331	0.183438	0.428401	0.250689	0.089766	0.130188	1.131178	0.382851	0.064772	0.093157	0.180823	0.078119	0.117937	0.152513	0.533430	0.376419	0.385272	0.309793	0.472947	0.158347
92	0.142340	0.175415	0.370192	0.269226	0.182432	0.218160	0.355384	0.539114	0.130767	0.213613	0.465895	0.150216	0.833859	0.773099	0.457529	0.424331	0.682815	0.628435	0.423019	0.101572	0.064196	0.065154	0.168811	0.051493	0.072730	0.145333	0.486046	0.123795	0.315916	0.260905	0.207550	0.346668	0.061555	0.101948	0.328727	0.360782	0.087442	0.076342	0.506557	0.208628	0.100888	0.127940	0.360637	0.226808	0.211026	0.209950	0.168315	0.108376	0.137976	0.146072	0.311040	0.146474	0.268822	0.180360	0.200450	0.166996	0.114507	0.185975	0.365746	0.506975	0.092989	0.191888	0.420610	0.253520	0.113315	0.153466	1.132927	0.385978	0.059886	0.074265	0.128014	0.060789	0.113610	0.148137	0.526908	0.356773	0.404879	0.353923	0.365037	0.143665
93	0.163456	0.212194	0.320213	0.258926	0.190450	0.216862	0.407141	0.505404	0.096666	0.161630	0.467410	0.157377	0.785727	0.728588	0.477458	0.419958	1.047295	0.839969	0.421996	0.191353	0.091948	0.087750	0.139246	0.058810	0.063845	0.139810	0.477875	0.131255	0.340822	0.292842	0.189188	0.311348	0.078016	0.125417	0.350662	0.381783	0.095646	0.081503	0.487648	0.161703	0.098522	0.126164	0.362885	0.227771	0.209437	0.187815	0.165851	0.125201	0.141938	0.149105	0.323451	0.243452	0.291966	0.186890	0.206731	0.162966	0.104445	0.157593	0.398654	0.531951	0.092954	0.192379	0.430605	0.252718	0.108630	0.144466	0.827395	0.255427	0.044917	0.055252	0.117588	0.083546	0.118672	0.142747	0.329202	0.379721	0.507627	0.477187	0.320628	0.159920
94	0.179195	0.235889	0.238178	0.258442	0.289919	0.225242	0.391398	0.495888	0.070402	0.135329	0.465267	0.147047	0.745259	0.688438	0.523807	0.414888	1.050660	0.855426	0.412847	0.196187	0.105089	0.102828	0.104678	0.060114	0.068366	0.164489	0.453285	0.138335	0.365981	0.339817	0.187051	0.239792	0.077779	0.130498	0.381399	0.384874	0.089644	0.083729	0.587903	0.155445	0.116498	0.149130	0.351606	0.226902	0.206302	0.179769	0.156072	0.130083	0.108502	0.134246	0.334405	0.304200	0.335371	0.211720	0.215000	0.156244	0.101761	0.153120	0.394777	0.525059	0.093411	0.197072	0.430237	0.252637	0.107427	0.138111	0.658829	0.233742	0.045607	0.054584	0.139694	0.107062	0.128751	0.157542	0.301947	0.273948	0.553591	0.524818	0.303819	0.225388
95	0.181609	0.233588	0.222866	0.260788	0.310302	0.238908	0.390971	0.419558	0.062118	0.127926	0.452290	0.126610	0.734231	0.691259	0.557877	0.403048	1.045427	0.853996	0.352503	0.197965	0.112839	0.107675	0.100612	0.060389	0.078528	0.167981	0.334795	0.111873	0.393181	0.343074	0.167257	0.152192	0.082561	0.129706	0.382618	0.400495	0.089380	0.085905	0.677541	0.105140	0.164945	0.206861	0.302795	0.213655	0.154761	0.136207	0.143264	0.129592	0.095575	0.149741	0.326793	0.301367	0.398804	0.261109	0.209947	0.161649	0.090907	0.149354	0.414325	0.497539	0.095479	0.206231	0.426199	0.252841	0.117063	0.135484	0.307397	0.182124	0.052893	0.071320	0.188718	0.141558	0.107784	0.129324	0.307897	0.261976	0.563713	0.536199	0.306733	0.257275
96	0.182019	0.247695	0.230354	0.260201	0.368016	0.369380	0.388879	0.311217	0.066636	0.133629	0.431331	0.131209	0.733943	0.696225	0.551506	0.361727	1.026552	0.850611	0.284879	0.226710	0.168398	0.154366	0.099585	0.067724	0.073925	0.161493	0.182438	0.079276	0.392430	0.339559	0.177392	0.136672	0.082673	0.128900	0.398886	0.423719	0.087952	0.083776	0.699983	0.097333	0.180999	0.198017	0.192411	0.192269	0.102107	0.093082	0.122099	0.133708	0.112737	0.225986	0.298420	0.304886	0.408031	0.322424	0.265625	0.165638	0.089254	0.144336	0.358822	0.495958	0.095312	0.207013	0.431223	0.249916	0.110224	0.163546	0.540546	0.277491	0.072167	0.097800	0.204865	0.161694	0.090456	0.115455	0.349879	0.251616	0.570926	0.544710	0.311904	0.267299
97	0.183069	0.279296	0.206009	0.218327	0.425043	0.366433	0.389695	0.245726	0.066429	0.151696	0.407202	0.133647	0.732391	0.696720	0.503300	0.306821	0.957376	0.776920	0.288689	0.251156	0.170963	0.165434	0.094984	0.134870	0.072753	0.164139	0.154675	0.079779	0.392028	0.339384	0.159945	0.141811	0.103070	0.194522	0.439687	0.445872	0.090411	0.087877	0.708448	0.112491	0.176077	0.233879	0.137564	0.185687	0.069542	0.060643	0.097085	0.132988	0.124207	0.257170	0.249665	0.316808	0.407814	0.330911	0.351572	0.200575	0.093784	0.141518	0.353905	0.525366	0.095983	0.217453	0.411517	0.241404	0.182408	0.247409	0.602420	0.295321	0.089295	0.116153	0.217170	0.171915	0.111948	0.162401	0.523577	0.279392	0.572055	0.547204	0.312751	0.272378
98	0.174354	0.275888	0.186448	0.209347	0.497459	0.418973	0.372606	0.289087	0.063529	0.166816	0.359963	0.128992	0.625664	0.612437	0.444343	0.270639	0.831362	0.703025	0.287690	0.264960	0.176107	0.171651	0.092128	0.202870	0.070540	0.164923	0.141697	0.079489	0.376599	0.329184	0.166155	0.170189	0.121932	0.240406	0.449270	0.462701	0.123325	0.098147	0.655762	0.130678	0.178805	0.239907	0.187443	0.171048	0.073578	0.055491	0.093343	0.140131	0.126803	0.256484	0.225726	0.354313	0.407364	0.330408	0.378203	0.222883	0.092009	0.130577	0.338743	0.545399	0.094892	0.226583	0.353687	0.238683	0.188798	0.255928	0.959267	0.305469	0.107731	0.134691	0.227342	0.175366	0.107562	0.169400	0.605155	0.310059	0.573522	0.547099	0.310573	0.276547
99	0.166522	0.272606	0.215830	0.209718	0.708583	0.547800	0.363577	0.353882	0.081987	0.179654	0.338485	0.117238	0.509441	0.479016	0.418618	0.266861	0.549863	0.430721	0.258862	0.244782	0.180772	0.175615	0.180114	0.234998	0.079009	0.224348	0.107768	0.087320	0.327492	0.290001	0.228034	0.218998	0.123799	0.252058	0.443769	0.466961	0.133549	0.103584	0.588440	0.151798	0.186467	0.238786	0.205980	0.187677	0.076031	0.081578	0.101390	0.150703	0.136304	0.273515	0.219747	0.376114	0.400730	0.323854	0.378402	0.232938	0.093209	0.117271	0.368238	0.542401	0.095547	0.229553	0.330082	0.238371	0.265593	0.340628	0.995474	0.316862	0.114540	0.140680	0.251467	0.212766	0.088356	0.156441	0.629648	0.329043	0.573154	0.547336	0.300592	0.313065
100	0.165147	0.273014	0.230070	0.206804	0.727130	0.594406	0.366889	0.388074	0.119144	0.245819	0.338383	0.112589	0.399059	0.350192	0.415321	0.250960	0.143660	0.225308	0.223733	0.221902	0.190173	0.185786	0.286810	0.238077	0.099418	0.272085	0.128331	0.103632	0.270755	0.255252	0.233095	0.202155	0.123532	0.252829	0.397877	0.438046	0.210943	0.124899	0.583604	0.150513	0.187592	0.237324	0.206674	0.208301	0.081038	0.123558	0.105719	0.156894	0.141024	0.295092	0.227618	0.379192	0.359584	0.316328	0.365517	0.229168	0.089066	0.114611	0.359719	0.521266	0.094177	0.224270	0.329635	0.234580	0.316451	0.362854	0.898568	0.374623	0.114645	0.142467	0.265891	0.252156	0.082170	0.147819	0.797330	0.451013	0.548941	0.532823	0.285944	0.353999
101	0.160883	0.286557	0.246552	0.177677	0.733807	0.599090	0.351084	0.378944	0.120364	0.247852	0.297163	0.139299	0.283063	0.280590	0.413145	0.228576	0.126120	0.259176	0.253157	0.233119	0.198796	0.200186	0.302509	0.250090	0.098891	0.279132	0.145548	0.103926	0.241759	0.241250	0.259847	0.197489	0.123783	0.252341	0.379464	0.416472	0.213295	0.135177	0.544033	0.146313	0.190291	0.240717	0.206635	0.261713	0.081465	0.135179	0.134782	0.158225	0.135426	0.296696	0.232845	0.372599	0.342971	0.319449	0.363893	0.217867	0.096417	0.142018	0.359129	0.532566	0.089044	0.206408	0.322056	0.233540	0.298230	0.325440	0.866700	0.374349	0.118865	0.153195	0.284220	0.272913	0.090855	0.161051	0.852870	0.486760	0.497008	0.502023	0.262633	0.386061
