	212_C_T1_sh_ND_02.c3d	212_C_T1_sh_ND_02.c3d	212_C_T1_sh_ND_02.c3d	212_C_T1_sh_ND_02.c3d	212_C_T1_sh_ND_02.c3d	212_C_T1_sh_ND_02.c3d	212_C_T1_sh_ND_02.c3d	212_C_T1_sh_ND_02.c3d	212_C_T1_sh_ND_03.c3d	212_C_T1_sh_ND_03.c3d	212_C_T1_sh_ND_03.c3d	212_C_T1_sh_ND_03.c3d	212_C_T1_sh_ND_03.c3d	212_C_T1_sh_ND_03.c3d	212_C_T1_sh_ND_03.c3d	212_C_T1_sh_ND_03.c3d	212_C_T1_sh_ND_04.c3d	212_C_T1_sh_ND_04.c3d	212_C_T1_sh_ND_04.c3d	212_C_T1_sh_ND_04.c3d	212_C_T1_sh_ND_04.c3d	212_C_T1_sh_ND_04.c3d	212_C_T1_sh_ND_04.c3d	212_C_T1_sh_ND_04.c3d	212_C_T1_sh_ND_05.c3d	212_C_T1_sh_ND_05.c3d	212_C_T1_sh_ND_05.c3d	212_C_T1_sh_ND_05.c3d	212_C_T1_sh_ND_05.c3d	212_C_T1_sh_ND_05.c3d	212_C_T1_sh_ND_05.c3d	212_C_T1_sh_ND_05.c3d	212_C_T1_sh_ND_07.c3d	212_C_T1_sh_ND_07.c3d	212_C_T1_sh_ND_07.c3d	212_C_T1_sh_ND_07.c3d	212_C_T1_sh_ND_07.c3d	212_C_T1_sh_ND_07.c3d	212_C_T1_sh_ND_07.c3d	212_C_T1_sh_ND_07.c3d	212_C_T1_sh_ND_08.c3d	212_C_T1_sh_ND_08.c3d	212_C_T1_sh_ND_08.c3d	212_C_T1_sh_ND_08.c3d	212_C_T1_sh_ND_08.c3d	212_C_T1_sh_ND_08.c3d	212_C_T1_sh_ND_08.c3d	212_C_T1_sh_ND_08.c3d	212_C_T1_sh_ND_10.c3d	212_C_T1_sh_ND_10.c3d	212_C_T1_sh_ND_10.c3d	212_C_T1_sh_ND_10.c3d	212_C_T1_sh_ND_10.c3d	212_C_T1_sh_ND_10.c3d	212_C_T1_sh_ND_10.c3d	212_C_T1_sh_ND_10.c3d
	Biceps femoris_lat	Semitendinosus_lat	Vastus lateralis_lat	Vastus medialis_lat	Biceps femoris_med	Semitendinosus_med	Vastus lateralis_med	Vastus medialis_med	Biceps femoris_lat	Semitendinosus_lat	Vastus lateralis_lat	Vastus medialis_lat	Biceps femoris_med	Semitendinosus_med	Vastus lateralis_med	Vastus medialis_med	Biceps femoris_lat	Semitendinosus_lat	Vastus lateralis_lat	Vastus medialis_lat	Biceps femoris_med	Semitendinosus_med	Vastus lateralis_med	Vastus medialis_med	Biceps femoris_lat	Semitendinosus_lat	Vastus lateralis_lat	Vastus medialis_lat	Biceps femoris_med	Semitendinosus_med	Vastus lateralis_med	Vastus medialis_med	Biceps femoris_lat	Semitendinosus_lat	Vastus lateralis_lat	Vastus medialis_lat	Biceps femoris_med	Semitendinosus_med	Vastus lateralis_med	Vastus medialis_med	Biceps femoris_lat	Semitendinosus_lat	Vastus lateralis_lat	Vastus medialis_lat	Biceps femoris_med	Semitendinosus_med	Vastus lateralis_med	Vastus medialis_med	Biceps femoris_lat	Semitendinosus_lat	Vastus lateralis_lat	Vastus medialis_lat	Biceps femoris_med	Semitendinosus_med	Vastus lateralis_med	Vastus medialis_med
	P2D	P2D	P2D	P2D	P2D	P2D	P2D	P2D	P2D	P2D	P2D	P2D	P2D	P2D	P2D	P2D	P2D	P2D	P2D	P2D	P2D	P2D	P2D	P2D	P2D	P2D	P2D	P2D	P2D	P2D	P2D	P2D	P2D	P2D	P2D	P2D	P2D	P2D	P2D	P2D	P2D	P2D	P2D	P2D	P2D	P2D	P2D	P2D	P2D	P2D	P2D	P2D	P2D	P2D	P2D	P2D
	EMG_lat	EMG_lat	EMG_lat	EMG_lat	EMG_med	EMG_med	EMG_med	EMG_med	EMG_lat	EMG_lat	EMG_lat	EMG_lat	EMG_med	EMG_med	EMG_med	EMG_med	EMG_lat	EMG_lat	EMG_lat	EMG_lat	EMG_med	EMG_med	EMG_med	EMG_med	EMG_lat	EMG_lat	EMG_lat	EMG_lat	EMG_med	EMG_med	EMG_med	EMG_med	EMG_lat	EMG_lat	EMG_lat	EMG_lat	EMG_med	EMG_med	EMG_med	EMG_med	EMG_lat	EMG_lat	EMG_lat	EMG_lat	EMG_med	EMG_med	EMG_med	EMG_med	EMG_lat	EMG_lat	EMG_lat	EMG_lat	EMG_med	EMG_med	EMG_med	EMG_med
ITEM	Y	Y	Y	Y	Y	Y	Y	Y	Y	Y	Y	Y	Y	Y	Y	Y	Y	Y	Y	Y	Y	Y	Y	Y	Y	Y	Y	Y	Y	Y	Y	Y	Y	Y	Y	Y	Y	Y	Y	Y	Y	Y	Y	Y	Y	Y	Y	Y	Y	Y	Y	Y	Y	Y	Y	Y
1	0.136183	0.137967	0.148939	0.380119	0.421204	0.198365	0.116019	0.112993	0.136981	0.053150	0.130724	0.174226	0.197300	0.088899	0.153367	0.218017	0.189422	0.182838	0.144660	0.119848	0.195045	0.084940	0.111280	0.121675	0.116895	0.067355	0.161091	0.172603	0.064486	0.033077	0.087473	0.085190	0.072737	0.052865	0.094798	0.097667	0.131476	0.078167	0.172508	0.101767	0.100125	0.082174	0.085808	0.078313	0.148287	0.088529	0.176610	0.244423	0.215027	0.142977	0.137880	0.194177	0.152136	0.031550	0.081163	0.163945
2	0.134159	0.136769	0.128005	0.374600	0.419872	0.195425	0.114685	0.103717	0.139240	0.052779	0.132326	0.173062	0.197527	0.089932	0.162168	0.227818	0.191165	0.140826	0.141229	0.243657	0.206282	0.092882	0.113329	0.145058	0.121979	0.073646	0.147106	0.175056	0.068141	0.033658	0.108109	0.087040	0.071437	0.052497	0.089284	0.097911	0.133448	0.075394	0.180381	0.139008	0.079362	0.075278	0.100703	0.101259	0.154973	0.092693	0.175127	0.247380	0.218264	0.144443	0.173132	0.198726	0.128880	0.033104	0.062638	0.141630
3	0.131237	0.143939	0.134476	0.295531	0.440145	0.186401	0.109766	0.124611	0.150708	0.058068	0.144265	0.176386	0.196801	0.089948	0.265459	0.363886	0.184352	0.119780	0.141966	0.259333	0.208850	0.094031	0.115039	0.151400	0.121710	0.074089	0.134363	0.171418	0.071644	0.034249	0.101275	0.087062	0.068833	0.052562	0.087769	0.096558	0.111980	0.062615	0.182328	0.150534	0.079040	0.074012	0.097438	0.119643	0.151280	0.087556	0.172970	0.246881	0.234553	0.150717	0.187358	0.214064	0.125917	0.033909	0.077217	0.132294
4	0.151052	0.149292	0.146271	0.285862	0.440020	0.167665	0.121499	0.130995	0.159833	0.060960	0.163716	0.190161	0.214559	0.099634	0.279751	0.488296	0.129213	0.095699	0.148136	0.290228	0.199622	0.087623	0.114254	0.151998	0.129615	0.074820	0.147774	0.285110	0.058425	0.028959	0.101918	0.056399	0.069230	0.051282	0.070254	0.096493	0.100957	0.054556	0.181298	0.154569	0.084081	0.076794	0.095148	0.115282	0.148282	0.082874	0.174114	0.246027	0.233997	0.151268	0.204665	0.212418	0.115669	0.037335	0.078394	0.134909
5	0.168871	0.158040	0.124347	0.283392	0.401245	0.125401	0.138936	0.177440	0.161552	0.061356	0.179341	0.208668	0.226559	0.102222	0.288473	0.500588	0.108853	0.062327	0.141387	0.299500	0.174154	0.076629	0.138570	0.162592	0.159684	0.080026	0.172535	0.286639	0.049809	0.028544	0.123350	0.054899	0.072457	0.055889	0.057529	0.106082	0.098920	0.054624	0.181301	0.145020	0.093924	0.084914	0.094289	0.124092	0.140000	0.082777	0.157009	0.235799	0.224729	0.147496	0.202268	0.210803	0.052127	0.032329	0.077434	0.134700
6	0.154667	0.153004	0.092682	0.252155	0.321404	0.078590	0.157677	0.217634	0.158171	0.062428	0.180845	0.212841	0.175393	0.087708	0.308197	0.580187	0.107830	0.060026	0.135945	0.312376	0.169433	0.079030	0.140584	0.178388	0.183032	0.097346	0.204985	0.291663	0.053935	0.030418	0.137899	0.079796	0.072721	0.062307	0.058550	0.114249	0.096326	0.054691	0.182177	0.140883	0.118805	0.095966	0.112342	0.124806	0.137973	0.083768	0.148985	0.145312	0.174472	0.102060	0.174098	0.216590	0.050387	0.034756	0.074408	0.133067
7	0.138338	0.142506	0.096121	0.201255	0.294679	0.060438	0.270930	0.219939	0.141122	0.057307	0.181157	0.202770	0.189351	0.097262	0.350791	0.606478	0.106233	0.058213	0.135486	0.311103	0.174631	0.075203	0.145230	0.172529	0.184419	0.096582	0.262568	0.313882	0.067687	0.038919	0.155555	0.081882	0.084782	0.079965	0.054440	0.112667	0.093625	0.052057	0.190010	0.147934	0.118871	0.093298	0.120821	0.121369	0.134629	0.081848	0.151218	0.132022	0.133931	0.066956	0.173005	0.214426	0.055232	0.033789	0.075728	0.131459
8	0.141561	0.141148	0.114970	0.165789	0.298976	0.064792	0.339720	0.227510	0.119098	0.049734	0.184523	0.152512	0.234706	0.124470	0.351664	0.630692	0.105780	0.057252	0.122101	0.309584	0.130506	0.069066	0.170219	0.177200	0.182811	0.095419	0.261351	0.315067	0.075175	0.043342	0.212161	0.081245	0.084877	0.082302	0.048968	0.115915	0.093523	0.053767	0.183208	0.181631	0.150928	0.096978	0.121794	0.121658	0.133515	0.079017	0.101807	0.098902	0.120341	0.064559	0.167592	0.173755	0.055618	0.034170	0.076600	0.120609
9	0.143919	0.141930	0.124660	0.149764	0.286280	0.064881	0.340115	0.228999	0.110549	0.048161	0.184755	0.153206	0.252004	0.133833	0.344301	0.637417	0.094779	0.049802	0.118929	0.279098	0.144839	0.089291	0.188318	0.194975	0.182071	0.096494	0.258839	0.303669	0.103712	0.057121	0.208591	0.081958	0.082652	0.082205	0.028567	0.118074	0.093315	0.059298	0.154056	0.183737	0.160987	0.097486	0.122514	0.123637	0.088583	0.053117	0.069447	0.063020	0.111508	0.059761	0.129278	0.166687	0.057701	0.034958	0.071760	0.080477
10	0.149283	0.142468	0.124175	0.158571	0.282663	0.064425	0.334800	0.282225	0.111502	0.051158	0.189295	0.163079	0.246460	0.129908	0.340789	0.620239	0.091265	0.047875	0.118991	0.210602	0.150125	0.101570	0.188257	0.199826	0.166174	0.094963	0.226241	0.189930	0.103980	0.056260	0.195137	0.079595	0.079334	0.080636	0.027616	0.115705	0.091271	0.051825	0.147554	0.183820	0.162238	0.097541	0.122536	0.123839	0.065595	0.040554	0.069208	0.058343	0.062141	0.032980	0.109222	0.148332	0.062065	0.039553	0.068749	0.078454
11	0.154298	0.136583	0.119757	0.152580	0.271091	0.063053	0.370041	0.347982	0.113960	0.055637	0.186041	0.166298	0.239141	0.124281	0.336693	0.617461	0.088066	0.047726	0.115958	0.178697	0.147599	0.104530	0.188770	0.198322	0.139417	0.093367	0.199865	0.176602	0.102709	0.055735	0.194409	0.078636	0.079024	0.079570	0.025392	0.111481	0.105966	0.047958	0.145072	0.181525	0.162106	0.097197	0.122531	0.123635	0.063147	0.037869	0.068047	0.059021	0.054658	0.031799	0.068865	0.111371	0.061997	0.044829	0.063972	0.072435
12	0.142450	0.114086	0.151645	0.117229	0.287766	0.083935	0.523746	0.361390	0.120432	0.063232	0.179437	0.161246	0.238002	0.123738	0.255084	0.560952	0.079172	0.046634	0.083263	0.144144	0.148259	0.106044	0.189408	0.197994	0.087778	0.067659	0.145385	0.148055	0.102917	0.054798	0.192579	0.076847	0.079626	0.079799	0.025592	0.111065	0.101403	0.048630	0.149308	0.176548	0.161451	0.095996	0.121288	0.121144	0.064892	0.037699	0.059836	0.060225	0.051453	0.029414	0.065283	0.096342	0.058463	0.044140	0.042386	0.044536
13	0.155604	0.102022	0.151137	0.114726	0.331843	0.125360	0.567061	0.367059	0.134891	0.076884	0.173481	0.162854	0.222851	0.117198	0.231746	0.436100	0.055859	0.041181	0.046047	0.107612	0.147969	0.108624	0.171009	0.193519	0.042850	0.051161	0.036979	0.061971	0.108888	0.056369	0.178277	0.071123	0.090302	0.086980	0.026090	0.111299	0.099069	0.051224	0.134013	0.147236	0.159754	0.095094	0.106770	0.114718	0.063397	0.031090	0.058823	0.059250	0.087437	0.088025	0.057051	0.039582	0.053119	0.042938	0.032302	0.041956
14	0.171996	0.104117	0.148668	0.117260	0.321013	0.147098	0.570075	0.362915	0.132183	0.077938	0.194343	0.175165	0.207020	0.110228	0.220433	0.420617	0.033191	0.036692	0.092051	0.105158	0.141263	0.106981	0.169451	0.164638	0.037137	0.049325	0.038078	0.054805	0.125650	0.061714	0.170835	0.046821	0.104601	0.135753	0.026669	0.111197	0.098569	0.047493	0.132452	0.136421	0.155780	0.096246	0.102005	0.082465	0.065745	0.030060	0.041518	0.061186	0.129442	0.126875	0.019085	0.034871	0.060510	0.049032	0.114387	0.098504
15	0.179624	0.110921	0.167758	0.142469	0.316727	0.152142	0.567288	0.358490	0.149936	0.088804	0.182368	0.167277	0.200186	0.106205	0.192059	0.302830	0.026772	0.037215	0.175559	0.162360	0.125289	0.104673	0.164774	0.143782	0.034112	0.043351	0.039398	0.049228	0.138889	0.068064	0.144583	0.038426	0.117072	0.174936	0.024559	0.088394	0.092777	0.046436	0.133154	0.131583	0.152840	0.096611	0.101804	0.075569	0.075925	0.057748	0.052215	0.090689	0.143936	0.128547	0.020572	0.038969	0.078166	0.053749	0.125498	0.100406
16	0.177683	0.111208	0.156431	0.150108	0.324963	0.151867	0.563716	0.334427	0.165442	0.099714	0.152052	0.145721	0.177762	0.097566	0.097578	0.235753	0.044712	0.039932	0.249576	0.176926	0.116541	0.109251	0.134091	0.137334	0.030108	0.037260	0.041558	0.046905	0.147905	0.075099	0.063342	0.056947	0.119052	0.174319	0.017221	0.055371	0.081033	0.041764	0.133482	0.130986	0.150575	0.093632	0.099661	0.051273	0.080212	0.064495	0.058740	0.102146	0.211782	0.207178	0.065005	0.129894	0.118277	0.078953	0.133288	0.112161
17	0.188542	0.112302	0.161122	0.152512	0.316536	0.150583	0.560181	0.312577	0.170933	0.102357	0.132892	0.121825	0.111751	0.058264	0.077238	0.172687	0.089844	0.052669	0.264845	0.208086	0.098377	0.099572	0.055675	0.113207	0.045888	0.038441	0.128133	0.074552	0.147118	0.083138	0.062372	0.074828	0.111797	0.167140	0.033694	0.054288	0.083074	0.041496	0.122076	0.131649	0.150420	0.091981	0.089072	0.038694	0.083095	0.067910	0.057085	0.104990	0.257654	0.267450	0.119873	0.159837	0.171965	0.115056	0.217762	0.154030
18	0.186728	0.111380	0.183665	0.235254	0.319701	0.156476	0.516430	0.315724	0.172770	0.101810	0.132242	0.118037	0.060311	0.030457	0.098965	0.141059	0.098442	0.066401	0.288875	0.214930	0.056995	0.077618	0.047894	0.067587	0.120701	0.066251	0.131455	0.082996	0.162360	0.095132	0.067402	0.087713	0.104738	0.167005	0.035321	0.050387	0.087093	0.041315	0.091670	0.120700	0.164585	0.108468	0.041119	0.029594	0.082026	0.068682	0.084389	0.115536	0.262787	0.323899	0.151427	0.199653	0.253743	0.158204	0.255113	0.209277
19	0.177630	0.106830	0.182570	0.260103	0.354756	0.161343	0.480157	0.309786	0.174089	0.101868	0.131821	0.116946	0.081633	0.044485	0.100321	0.140968	0.112715	0.089215	0.321068	0.241707	0.045687	0.068179	0.046079	0.048081	0.203866	0.115404	0.171490	0.099217	0.165921	0.103875	0.078760	0.088984	0.113546	0.171621	0.037893	0.044976	0.087882	0.038604	0.086604	0.053435	0.165695	0.127597	0.033889	0.028801	0.106638	0.085044	0.103440	0.116742	0.276870	0.359352	0.211413	0.200232	0.313833	0.186795	0.258860	0.209912
20	0.171925	0.102677	0.151163	0.296638	0.363597	0.167070	0.481962	0.309436	0.175215	0.102475	0.124289	0.114653	0.092551	0.051864	0.101407	0.140923	0.114623	0.088351	0.321373	0.276444	0.045228	0.066535	0.043213	0.051960	0.278552	0.161901	0.256169	0.151294	0.165156	0.104981	0.086555	0.092849	0.160712	0.202091	0.040604	0.063963	0.086844	0.028673	0.086124	0.040222	0.155659	0.150196	0.019968	0.019415	0.123162	0.096124	0.103512	0.116383	0.319901	0.399142	0.215091	0.205641	0.322836	0.188834	0.259443	0.210387
21	0.142783	0.082836	0.183767	0.296931	0.370589	0.171693	0.483568	0.259340	0.179397	0.107450	0.121596	0.111696	0.095144	0.056569	0.101816	0.136351	0.127387	0.088018	0.329114	0.279105	0.046790	0.061779	0.041802	0.048365	0.336326	0.193016	0.258066	0.154051	0.160229	0.106699	0.082924	0.098097	0.173244	0.208097	0.062748	0.067913	0.081406	0.027499	0.086764	0.033267	0.158997	0.182667	0.029047	0.018661	0.124316	0.097178	0.142138	0.142293	0.316332	0.429505	0.222724	0.280663	0.324385	0.188984	0.259486	0.211031
22	0.137409	0.066869	0.187808	0.296298	0.372197	0.173205	0.446868	0.164908	0.183403	0.116582	0.113232	0.085763	0.106283	0.069474	0.127755	0.133784	0.128664	0.089029	0.318156	0.260406	0.052379	0.062388	0.052540	0.046213	0.338026	0.193379	0.269103	0.170699	0.144655	0.103260	0.084438	0.095483	0.174934	0.209024	0.072533	0.069480	0.059480	0.026195	0.094601	0.053834	0.169494	0.289976	0.034317	0.024208	0.133326	0.100770	0.156772	0.167502	0.314301	0.458884	0.232982	0.321899	0.324337	0.190520	0.253261	0.206007
23	0.141372	0.057887	0.175518	0.282298	0.350575	0.163242	0.248714	0.134759	0.180706	0.123822	0.111231	0.081841	0.106392	0.069754	0.132478	0.128357	0.130776	0.091802	0.276972	0.243188	0.073743	0.076731	0.058439	0.047685	0.345986	0.194212	0.257055	0.169366	0.123478	0.095527	0.072187	0.094811	0.176266	0.260652	0.123761	0.085033	0.064101	0.038102	0.094292	0.124505	0.177144	0.321124	0.080125	0.031753	0.159610	0.105019	0.169316	0.170886	0.285061	0.441617	0.249587	0.325935	0.320582	0.198744	0.231698	0.200855
24	0.139992	0.065346	0.174725	0.278240	0.307426	0.133973	0.133251	0.118042	0.172313	0.126917	0.103224	0.079332	0.117373	0.072568	0.132265	0.141094	0.119620	0.104048	0.227582	0.232767	0.080290	0.078553	0.059617	0.052552	0.328604	0.187383	0.261142	0.170845	0.113513	0.094609	0.068849	0.078807	0.181079	0.255234	0.142269	0.106621	0.072254	0.050336	0.106705	0.138627	0.280815	0.418495	0.125768	0.034860	0.228253	0.143094	0.210763	0.182320	0.261430	0.414315	0.252128	0.312796	0.323368	0.211534	0.240031	0.201031
25	0.123259	0.070065	0.163654	0.272881	0.279052	0.109643	0.121446	0.111739	0.173907	0.148484	0.090655	0.066688	0.121546	0.073688	0.144091	0.222302	0.099870	0.107984	0.210428	0.210752	0.081296	0.075149	0.062088	0.049024	0.294314	0.177762	0.211164	0.168972	0.090855	0.132365	0.071140	0.066496	0.171863	0.242860	0.144238	0.217310	0.092324	0.073342	0.109989	0.142302	0.343680	0.497688	0.133190	0.055883	0.257640	0.213117	0.311991	0.220852	0.264861	0.374446	0.253083	0.295814	0.315837	0.210383	0.235921	0.200216
26	0.125746	0.074462	0.137190	0.198117	0.254109	0.102175	0.121541	0.112496	0.176731	0.174857	0.029713	0.028144	0.121297	0.074556	0.189171	0.232578	0.097581	0.106786	0.162998	0.189013	0.082012	0.074024	0.063770	0.047339	0.226504	0.203599	0.147305	0.144151	0.082504	0.125049	0.068599	0.051000	0.168823	0.246234	0.145618	0.228266	0.146329	0.118410	0.115504	0.142750	0.359573	0.524538	0.157032	0.058177	0.318489	0.314333	0.315984	0.213925	0.291533	0.352938	0.223724	0.302946	0.300650	0.222818	0.123213	0.130489
27	0.133440	0.082438	0.136674	0.154994	0.226863	0.101275	0.118683	0.107236	0.148796	0.170401	0.027194	0.027420	0.145104	0.091048	0.232632	0.230856	0.093616	0.107784	0.125079	0.161599	0.081718	0.073942	0.065195	0.049793	0.179327	0.251667	0.144322	0.140500	0.101771	0.130726	0.077355	0.070066	0.171097	0.259079	0.146838	0.240052	0.171732	0.139802	0.148139	0.171553	0.361619	0.531288	0.174508	0.068760	0.317098	0.313658	0.310964	0.227346	0.271002	0.315960	0.221867	0.302048	0.211662	0.200258	0.163870	0.142145
28	0.133331	0.089562	0.133195	0.049147	0.222976	0.105051	0.109190	0.092860	0.143609	0.186838	0.029452	0.027007	0.172179	0.113020	0.283664	0.279607	0.086033	0.113734	0.123024	0.096043	0.080997	0.095990	0.094719	0.098390	0.210795	0.309607	0.105497	0.117415	0.114962	0.165446	0.071974	0.073551	0.172538	0.262122	0.146891	0.244803	0.199565	0.150398	0.151655	0.194798	0.358999	0.532134	0.182358	0.074566	0.312396	0.312989	0.311748	0.256406	0.264422	0.265040	0.215161	0.245205	0.192064	0.205097	0.168769	0.181737
29	0.145998	0.136553	0.093741	0.047515	0.227266	0.103150	0.088541	0.076145	0.144235	0.190108	0.032157	0.033913	0.186583	0.114135	0.325854	0.320800	0.075444	0.115024	0.087664	0.095931	0.100952	0.129736	0.095227	0.124586	0.228265	0.328690	0.075009	0.094979	0.145132	0.226936	0.078145	0.081078	0.172213	0.260888	0.147073	0.263144	0.222952	0.163904	0.158476	0.196114	0.350231	0.530245	0.198845	0.077668	0.314312	0.313718	0.351698	0.244295	0.258479	0.202881	0.206519	0.180979	0.209481	0.211067	0.177882	0.248876
30	0.134799	0.153092	0.094500	0.042641	0.202675	0.096314	0.071615	0.062943	0.155175	0.196389	0.032618	0.038812	0.216922	0.126028	0.335440	0.320992	0.074743	0.114972	0.067739	0.086271	0.141397	0.161090	0.093645	0.126029	0.253125	0.337974	0.038213	0.085506	0.175008	0.328829	0.139070	0.091836	0.148818	0.244948	0.153665	0.274029	0.224843	0.166535	0.174746	0.196672	0.342175	0.525250	0.201512	0.080856	0.317385	0.322101	0.400801	0.234764	0.250915	0.185504	0.174294	0.124747	0.224387	0.220278	0.194246	0.253288
31	0.134330	0.153574	0.154476	0.075288	0.207698	0.085625	0.056215	0.052690	0.195938	0.240218	0.049107	0.065067	0.230474	0.131456	0.328936	0.321389	0.069345	0.112955	0.045817	0.064562	0.148993	0.158771	0.140613	0.160449	0.249578	0.358414	0.016470	0.054084	0.214889	0.330568	0.145456	0.107112	0.117916	0.265411	0.196405	0.272934	0.224853	0.168048	0.192414	0.197760	0.336831	0.519592	0.212273	0.133785	0.302795	0.338696	0.402221	0.279926	0.238978	0.175749	0.141554	0.124228	0.282556	0.232026	0.196728	0.255754
32	0.137625	0.199342	0.193534	0.115860	0.206221	0.084343	0.041495	0.048481	0.236605	0.291477	0.189190	0.107333	0.234211	0.137060	0.326604	0.321574	0.070112	0.093635	0.034714	0.042015	0.151130	0.156808	0.158877	0.170361	0.242570	0.331068	0.019281	0.031952	0.219616	0.329345	0.146690	0.112203	0.134792	0.312866	0.210230	0.278616	0.225418	0.172149	0.237459	0.206880	0.331603	0.511362	0.216369	0.175673	0.259677	0.324585	0.414377	0.285467	0.241243	0.187581	0.105896	0.106264	0.306189	0.229837	0.192183	0.257565
33	0.198057	0.264223	0.231019	0.499393	0.209809	0.091983	0.038940	0.047860	0.262619	0.316308	0.233152	0.113791	0.229334	0.137706	0.325842	0.316649	0.067715	0.092647	0.033990	0.041569	0.151234	0.155973	0.159681	0.171383	0.249383	0.314335	0.024352	0.031115	0.220096	0.316334	0.147492	0.112081	0.163230	0.296790	0.194031	0.275808	0.225574	0.173505	0.292892	0.209053	0.328075	0.487664	0.222352	0.187146	0.245394	0.303272	0.424559	0.254476	0.197138	0.175382	0.049780	0.080517	0.310550	0.213866	0.192406	0.261583
34	0.251058	0.328656	0.247886	0.539050	0.209997	0.091584	0.042144	0.057521	0.284136	0.330355	0.260247	0.117033	0.226445	0.137776	0.318519	0.268205	0.052107	0.073354	0.033061	0.041531	0.150545	0.155775	0.161199	0.171367	0.231563	0.256017	0.029307	0.027655	0.220271	0.315683	0.154801	0.111488	0.161261	0.282202	0.172766	0.273309	0.225733	0.172779	0.297646	0.184540	0.325788	0.459578	0.225731	0.220603	0.183178	0.212675	0.436210	0.256264	0.146038	0.146962	0.042526	0.067932	0.302232	0.208112	0.302266	0.346074
35	0.252183	0.329995	0.295985	0.603675	0.227582	0.094240	0.055670	0.057422	0.321749	0.347729	0.290021	0.131048	0.226251	0.137932	0.292541	0.248346	0.045696	0.057880	0.030049	0.039178	0.150770	0.156271	0.161059	0.171566	0.217270	0.259353	0.031761	0.017407	0.221515	0.312632	0.145433	0.101720	0.158341	0.273012	0.170978	0.207816	0.222852	0.169232	0.318060	0.180097	0.307696	0.448963	0.216882	0.223638	0.179769	0.212331	0.436869	0.242825	0.132375	0.138976	0.035256	0.046555	0.309422	0.189413	0.341455	0.389400
36	0.297766	0.345660	0.397599	0.653570	0.262882	0.107059	0.070945	0.049042	0.387734	0.370280	0.314479	0.143217	0.214072	0.130094	0.249793	0.250834	0.093298	0.137017	0.033128	0.039132	0.150753	0.147446	0.148442	0.166368	0.259321	0.307074	0.175494	0.134170	0.225573	0.290529	0.167540	0.152291	0.159996	0.261497	0.169685	0.179232	0.237173	0.167051	0.347517	0.262987	0.200708	0.437144	0.207180	0.220251	0.185319	0.217754	0.467260	0.216341	0.322704	0.387849	0.025100	0.040709	0.341829	0.233959	0.338444	0.382405
37	0.398958	0.479116	0.462396	0.670255	0.275049	0.113192	0.073411	0.049370	0.391201	0.361335	0.434917	0.223345	0.181493	0.106994	0.206247	0.203092	0.157484	0.223247	0.035215	0.039867	0.143164	0.129594	0.159849	0.151137	0.290419	0.324252	0.303068	0.407889	0.203055	0.244014	0.340773	0.455828	0.163148	0.251309	0.167328	0.163653	0.221513	0.141189	0.348503	0.316432	0.155839	0.433571	0.226403	0.223537	0.185719	0.229032	0.525268	0.291405	0.489626	0.542651	0.028748	0.040570	0.348009	0.246379	0.459677	0.372833
38	0.412743	0.522587	0.463546	0.675492	0.280570	0.115401	0.079802	0.049704	0.447948	0.424333	0.471084	0.255829	0.166803	0.119983	0.145720	0.151405	0.159886	0.235330	0.034410	0.036260	0.102493	0.104068	0.172101	0.171507	0.322602	0.315854	0.400457	0.456920	0.194565	0.112374	0.437846	0.480036	0.163232	0.247401	0.169100	0.156556	0.204364	0.124138	0.339433	0.323041	0.166502	0.554164	0.211715	0.293798	0.188584	0.215671	0.540823	0.360854	0.558892	0.613389	0.032724	0.029207	0.385035	0.272942	0.516156	0.349807
39	0.408331	0.544203	0.444196	0.672693	0.284331	0.110973	0.094868	0.051140	0.564629	0.625054	0.471618	0.259495	0.142603	0.123436	0.121812	0.170412	0.171716	0.237719	0.036602	0.036397	0.078888	0.121532	0.175722	0.196102	0.345722	0.324364	0.595028	0.467708	0.150103	0.114181	0.465569	0.544065	0.173556	0.257192	0.169604	0.131998	0.174514	0.114551	0.377463	0.447570	0.180398	0.576056	0.208114	0.320271	0.286587	0.198861	0.555563	0.442408	0.564357	0.653926	0.040673	0.030644	0.424744	0.276152	0.513665	0.359957
40	0.410279	0.532479	0.429608	0.666570	0.269726	0.101784	0.099959	0.068201	0.611619	0.720420	0.472532	0.261086	0.116175	0.116112	0.153703	0.167056	0.177647	0.247823	0.233096	0.149159	0.081763	0.132471	0.154225	0.185780	0.403058	0.351421	0.627689	0.494751	0.157817	0.119297	0.623254	0.563145	0.174374	0.266341	0.171748	0.092317	0.142399	0.100456	0.380048	0.462060	0.187330	0.588870	0.205034	0.325007	0.303273	0.201731	0.631372	0.456928	0.832504	0.893433	0.048204	0.036021	0.425494	0.335770	0.513135	0.352488
41	0.386552	0.515468	0.411139	0.456093	0.239263	0.098143	0.119826	0.069265	0.612749	0.730270	0.475333	0.261175	0.148515	0.228365	0.183015	0.185313	0.281030	0.277138	0.297517	0.361246	0.084502	0.132711	0.152812	0.194057	0.409518	0.349625	0.631432	0.500786	0.185914	0.153951	0.685243	0.583738	0.188473	0.251499	0.155621	0.133357	0.147915	0.106838	0.383476	0.482756	0.188061	0.595345	0.199053	0.335654	0.289923	0.166894	0.600547	0.580520	0.894517	0.980143	0.054428	0.038572	0.406936	0.343349	0.512409	0.351495
42	0.355518	0.483121	0.402718	0.411003	0.227906	0.105390	0.127543	0.080485	0.609812	0.750834	0.482807	0.268233	0.163069	0.255174	0.198956	0.189811	0.473215	0.591846	0.373608	0.452556	0.101986	0.147950	0.153303	0.240400	0.376735	0.294560	0.609873	0.436136	0.180756	0.176706	0.688445	0.590728	0.189708	0.199503	0.216758	0.163531	0.181769	0.115241	0.377061	0.485364	0.185664	0.597417	0.204481	0.342017	0.287894	0.156387	0.601954	0.640847	0.920346	1.018395	0.073749	0.054346	0.408812	0.343541	0.487478	0.338165
43	0.355974	0.517836	0.368150	0.309660	0.217531	0.102235	0.129355	0.082783	0.595721	0.743572	0.481729	0.261069	0.185444	0.261301	0.208488	0.190718	0.486207	0.616072	0.500980	0.476474	0.120533	0.157417	0.168057	0.260881	0.349535	0.292590	0.576468	0.364320	0.165915	0.200889	0.688280	0.591315	0.166599	0.168237	0.355340	0.162899	0.196106	0.127776	0.353327	0.482845	0.197905	0.597532	0.219451	0.328681	0.289560	0.155678	0.618578	0.664037	0.881495	0.968316	0.162746	0.221864	0.420917	0.345371	0.433939	0.194969
44	0.348713	0.544964	0.252973	0.187347	0.211653	0.093200	0.135950	0.109013	0.581325	0.731746	0.439302	0.267861	0.257740	0.267263	0.255141	0.192253	0.565574	0.683041	0.678738	0.482566	0.213528	0.157964	0.180793	0.259653	0.316630	0.277642	0.512323	0.310925	0.165769	0.197027	0.693528	0.566002	0.166817	0.200849	0.367967	0.164670	0.235732	0.213747	0.306113	0.485130	0.218354	0.597062	0.246194	0.347394	0.286175	0.144477	0.615767	0.673943	0.799104	0.899533	0.207707	0.266594	0.425814	0.340072	0.408868	0.174386
45	0.220663	0.421881	0.097893	0.115100	0.217162	0.095885	0.156427	0.145419	0.571164	0.726978	0.433058	0.281073	0.272114	0.269987	0.369375	0.197159	0.602226	0.697592	0.692876	0.519325	0.243236	0.159251	0.174722	0.292359	0.261679	0.312560	0.351277	0.289855	0.209817	0.215015	0.681139	0.518023	0.188530	0.229562	0.388333	0.164891	0.261168	0.240810	0.302425	0.499190	0.228125	0.585395	0.263599	0.340557	0.299262	0.131938	0.545087	0.672918	0.751498	0.877196	0.286320	0.315166	0.405143	0.320667	0.387030	0.127773
46	0.243251	0.438029	0.184980	0.125606	0.209838	0.097723	0.156703	0.148925	0.561723	0.725223	0.422626	0.284789	0.275171	0.284659	0.447700	0.207466	0.631834	0.697661	0.700084	0.523448	0.244732	0.143820	0.170326	0.283501	0.158177	0.352751	0.303161	0.257481	0.257110	0.249753	0.649095	0.518659	0.198424	0.241315	0.414374	0.164549	0.273791	0.247455	0.287567	0.505337	0.223855	0.574386	0.261106	0.328718	0.314210	0.144381	0.493360	0.636495	0.782026	0.852367	0.354526	0.316024	0.394803	0.319527	0.172459	0.123241
47	0.279943	0.436594	0.525885	0.158102	0.168470	0.085125	0.150884	0.149520	0.537129	0.717398	0.412435	0.288012	0.284612	0.295996	0.443994	0.200868	0.649710	0.697590	0.700700	0.522412	0.276022	0.134641	0.238165	0.281781	0.115822	0.355101	0.306915	0.252701	0.310405	0.293106	0.625574	0.483318	0.194733	0.240493	0.443537	0.190236	0.262787	0.247722	0.264464	0.466626	0.215494	0.535555	0.253293	0.329731	0.231701	0.128532	0.470980	0.566730	0.527530	0.617263	0.525011	0.410557	0.326663	0.289697	0.101027	0.073214
48	0.339186	0.442586	0.692991	0.582278	0.153311	0.077937	0.149604	0.149945	0.496111	0.707472	0.375536	0.281105	0.291422	0.295442	0.452770	0.216874	0.717349	0.765981	0.661893	0.446362	0.303172	0.120518	0.240076	0.342759	0.101853	0.338232	0.306409	0.368417	0.322141	0.296315	0.552328	0.491092	0.207553	0.239669	0.475904	0.244923	0.264661	0.263511	0.264767	0.433836	0.201509	0.441092	0.241718	0.331487	0.204982	0.121446	0.340592	0.631358	0.406473	0.460503	0.711181	0.560312	0.251841	0.257580	0.090889	0.065206
49	0.395735	0.449688	0.713296	0.710234	0.144808	0.075308	0.146164	0.155707	0.490607	0.704442	0.226213	0.219270	0.338083	0.304267	0.482492	0.280206	0.671986	0.787418	0.647355	0.397209	0.301780	0.118994	0.242783	0.373330	0.158285	0.342276	0.264087	0.316446	0.366079	0.346451	0.498554	0.506862	0.225478	0.229701	0.505119	0.269069	0.270940	0.293682	0.263419	0.415022	0.192957	0.385560	0.224064	0.312787	0.203467	0.125252	0.312610	0.552448	0.355006	0.363565	0.747237	0.628561	0.238994	0.189151	0.090729	0.086025
50	0.403049	0.449047	0.750045	0.744287	0.137061	0.074419	0.139277	0.160180	0.414194	0.642208	0.181038	0.196987	0.351242	0.242639	0.489507	0.400146	0.670382	0.705351	0.659250	0.299536	0.298528	0.121040	0.242642	0.424843	0.193698	0.363587	0.277847	0.327828	0.377165	0.373576	0.507789	0.590574	0.258249	0.235781	0.521671	0.272618	0.282832	0.357973	0.229092	0.265077	0.168769	0.210042	0.222152	0.241262	0.186371	0.123184	0.320273	0.530920	0.344882	0.329510	0.887174	0.634852	0.234506	0.203573	0.088957	0.093214
51	0.434032	0.423010	0.861636	0.783832	0.136764	0.072654	0.137356	0.185744	0.232302	0.425040	0.180615	0.191540	0.350265	0.206715	0.483761	0.420140	0.726827	0.732737	0.492392	0.342163	0.292540	0.110743	0.239964	0.498319	0.194853	0.309647	0.216119	0.330400	0.394189	0.371985	0.548219	0.592301	0.306359	0.279492	0.517089	0.264729	0.291353	0.358931	0.245935	0.267061	0.157794	0.175818	0.220348	0.236648	0.190362	0.118152	0.387600	0.506735	0.347074	0.294629	0.950953	0.843703	0.210591	0.224337	0.084857	0.096524
52	0.446998	0.395196	0.915346	0.844675	0.139336	0.070399	0.120108	0.190077	0.119946	0.306304	0.179665	0.190822	0.340355	0.201722	0.487215	0.502641	0.669567	0.661810	0.359536	0.327443	0.268473	0.110591	0.241417	0.535155	0.190020	0.220165	0.215176	0.341976	0.412615	0.398540	0.532579	0.586240	0.362724	0.275792	0.501757	0.234479	0.315050	0.396809	0.229305	0.235360	0.163927	0.139197	0.210962	0.221449	0.245771	0.130641	0.361085	0.491540	0.383951	0.231640	0.958997	0.932096	0.181603	0.258353	0.075292	0.095143
53	0.466631	0.401650	0.942702	0.948775	0.139222	0.061363	0.111985	0.188448	0.114926	0.263584	0.169868	0.187873	0.318445	0.199441	0.501903	0.603878	0.642482	0.655167	0.359843	0.329072	0.282917	0.113232	0.258451	0.540932	0.191008	0.209584	0.201017	0.318997	0.391004	0.385193	0.473438	0.499835	0.366240	0.273783	0.416207	0.234032	0.312789	0.406782	0.240487	0.230162	0.194528	0.123374	0.208090	0.209262	0.254819	0.141471	0.344342	0.452114	0.340637	0.215445	0.935098	0.946501	0.116694	0.251497	0.046600	0.091512
54	0.459886	0.325737	0.958189	0.962882	0.142921	0.060839	0.116709	0.191999	0.138675	0.260731	0.151312	0.178040	0.398588	0.245772	0.451310	0.660895	0.615472	0.654472	0.373292	0.386154	0.287254	0.116596	0.330328	0.548529	0.210336	0.221929	0.152133	0.185997	0.367855	0.366333	0.450308	0.510616	0.369538	0.378477	0.392250	0.232986	0.312182	0.404440	0.241846	0.227878	0.226641	0.172897	0.186575	0.189070	0.225624	0.130473	0.340281	0.450866	0.281062	0.173930	0.865036	0.918379	0.077998	0.245813	0.030388	0.091222
55	0.454057	0.305479	0.829280	0.959652	0.140098	0.061045	0.117947	0.189450	0.203899	0.335219	0.144448	0.177341	0.425682	0.252394	0.363512	0.681345	0.589745	0.647823	0.423908	0.484731	0.261667	0.142785	0.281537	0.541925	0.233470	0.206691	0.137688	0.147685	0.353211	0.356821	0.429700	0.481335	0.365978	0.599935	0.379025	0.242787	0.285018	0.366031	0.242879	0.214742	0.246623	0.228948	0.153670	0.146092	0.220134	0.131378	0.337711	0.439533	0.280368	0.161639	0.802808	0.864876	0.090063	0.242480	0.029716	0.092655
56	0.410016	0.289779	0.697806	0.777787	0.128403	0.055657	0.087589	0.187903	0.276057	0.462462	0.138028	0.131255	0.422525	0.248687	0.359878	0.682583	0.505110	0.533084	0.538796	0.784563	0.229559	0.318036	0.269625	0.507302	0.277319	0.259296	0.083794	0.122479	0.362554	0.359204	0.321219	0.456417	0.382030	0.635365	0.353548	0.261702	0.260123	0.351066	0.236639	0.171258	0.264331	0.310542	0.082103	0.091308	0.222583	0.179816	0.321900	0.305532	0.267484	0.176296	0.839729	0.861672	0.111814	0.241739	0.027478	0.091913
57	0.354368	0.253178	0.680075	0.668264	0.117201	0.047335	0.081859	0.196888	0.328556	0.600801	0.111736	0.112775	0.417128	0.242107	0.430768	0.698447	0.483148	0.471905	0.569818	0.803704	0.235247	0.415847	0.271189	0.492257	0.280611	0.263176	0.079215	0.111350	0.340260	0.320997	0.315041	0.380184	0.395114	0.679124	0.355119	0.328541	0.246930	0.355298	0.236336	0.148020	0.316804	0.412530	0.038272	0.081321	0.227869	0.235920	0.315888	0.239204	0.285710	0.215820	0.683700	0.868845	0.130700	0.240717	0.026422	0.064446
58	0.359843	0.249161	0.643135	0.635073	0.196311	0.069468	0.083779	0.199465	0.327742	0.603984	0.071685	0.095539	0.414939	0.235061	0.624828	0.745780	0.350537	0.277474	0.528006	0.868400	0.248486	0.498390	0.276074	0.419496	0.306282	0.264447	0.071189	0.058814	0.328138	0.289277	0.288962	0.272286	0.396206	0.719585	0.471260	0.471278	0.269718	0.365955	0.270857	0.183666	0.327654	0.442002	0.040169	0.079934	0.238113	0.267618	0.277758	0.080948	0.321498	0.338546	0.607300	0.661767	0.130418	0.240576	0.023235	0.056959
59	0.327428	0.248776	0.494388	0.590280	0.374169	0.127238	0.086295	0.199546	0.327257	0.604338	0.059010	0.062524	0.478211	0.245787	0.779766	0.747701	0.236838	0.210976	0.522971	0.870069	0.256097	0.503120	0.273842	0.333150	0.351125	0.261916	0.050809	0.050258	0.309257	0.283669	0.204647	0.267645	0.437387	0.754180	0.561946	0.462586	0.264536	0.353746	0.296313	0.202574	0.341789	0.449167	0.043005	0.072835	0.229287	0.271201	0.091419	0.046106	0.272233	0.338629	0.586207	0.519148	0.136507	0.205372	0.023614	0.048100
60	0.289532	0.209687	0.397169	0.500936	0.446150	0.161318	0.089408	0.195220	0.329629	0.616772	0.059589	0.037280	0.533418	0.260603	0.806894	0.748405	0.240223	0.187403	0.518062	0.878209	0.248229	0.513909	0.262329	0.229318	0.397378	0.259862	0.024577	0.031885	0.310741	0.270458	0.166207	0.261882	0.548353	0.871787	0.605240	0.461475	0.262724	0.330116	0.350528	0.210164	0.353878	0.449198	0.046116	0.062822	0.164663	0.271444	0.056604	0.043488	0.226110	0.329729	0.600665	0.494225	0.141046	0.186155	0.035293	0.092675
61	0.318210	0.191090	0.329934	0.263826	0.461786	0.169336	0.087972	0.190312	0.353592	0.650139	0.061542	0.030522	0.536520	0.262496	0.887760	0.707425	0.240540	0.184200	0.582598	0.909318	0.181484	0.537002	0.254679	0.184216	0.607590	0.359013	0.065982	0.020573	0.341694	0.288828	0.090202	0.159052	0.588159	0.911698	0.610511	0.475251	0.286778	0.267489	0.381491	0.208378	0.362511	0.446854	0.046372	0.054546	0.121142	0.266082	0.054370	0.039770	0.221721	0.333455	0.590571	0.490182	0.147360	0.155781	0.046471	0.105710
62	0.402444	0.319317	0.232104	0.190787	0.505636	0.178231	0.086295	0.158591	0.379643	0.674273	0.065798	0.030439	0.536165	0.272169	0.950096	0.625814	0.252213	0.188787	0.702721	0.983765	0.179798	0.578496	0.139153	0.133433	0.593765	0.333593	0.121821	0.047871	0.334139	0.279439	0.080638	0.070505	0.570172	0.934204	0.628976	0.496131	0.297063	0.272942	0.376667	0.205486	0.375174	0.452914	0.045021	0.048961	0.129808	0.270320	0.054256	0.031612	0.222130	0.334832	0.467476	0.432261	0.155959	0.113677	0.096827	0.106322
63	0.407000	0.373044	0.201725	0.186085	0.552250	0.178885	0.090588	0.153480	0.390286	0.674695	0.064948	0.024735	0.514589	0.239595	0.976256	0.570354	0.252857	0.191492	0.686776	0.903732	0.180685	0.579604	0.108225	0.131061	0.598325	0.341019	0.141573	0.213480	0.309189	0.252680	0.056941	0.048948	0.566558	0.943680	0.657283	0.562692	0.266932	0.212776	0.404481	0.204375	0.480290	0.538262	0.081386	0.046836	0.145680	0.273975	0.077369	0.050818	0.217655	0.331910	0.323478	0.329609	0.186890	0.120817	0.115252	0.113323
64	0.493363	0.385357	0.199135	0.183915	0.566504	0.189907	0.193653	0.173698	0.395040	0.674648	0.064113	0.024208	0.535373	0.282168	0.976853	0.556780	0.241907	0.195010	0.605877	0.728099	0.175629	0.517303	0.108754	0.084340	0.573184	0.340060	0.150475	0.221035	0.274020	0.224943	0.048222	0.035234	0.566600	0.927139	0.750880	0.642556	0.249021	0.194481	0.451436	0.235247	0.559286	0.607420	0.290937	0.165634	0.147917	0.247432	0.158636	0.060266	0.242228	0.399254	0.305347	0.217114	0.196001	0.138012	0.147619	0.123969
65	0.586041	0.469861	0.188927	0.170810	0.580502	0.204121	0.396793	0.253090	0.394945	0.673108	0.064517	0.029179	0.537794	0.284952	0.975849	0.551723	0.220992	0.201270	0.575345	0.696752	0.172825	0.447261	0.101042	0.067115	0.566718	0.343126	0.158647	0.259305	0.263820	0.178468	0.040638	0.023736	0.573182	0.788109	0.842806	0.672836	0.254419	0.192387	0.516093	0.258512	0.570290	0.614987	0.402756	0.424425	0.146456	0.200996	0.183189	0.109576	0.376167	0.532054	0.234678	0.199738	0.214656	0.162407	0.155086	0.124359
66	0.616618	0.499388	0.167519	0.145968	0.592674	0.218372	0.629535	0.395533	0.382764	0.655547	0.064946	0.044666	0.543489	0.320440	0.947794	0.524854	0.213086	0.204254	0.580470	0.625218	0.152642	0.330710	0.078978	0.061721	0.487109	0.343631	0.162182	0.271381	0.261952	0.173673	0.032179	0.012958	0.598164	0.747467	0.881222	0.687361	0.323409	0.224846	0.529701	0.283507	0.573433	0.614245	0.502519	0.431180	0.181391	0.160442	0.188227	0.142599	0.460505	0.591767	0.165392	0.107706	0.212762	0.170655	0.156482	0.124582
67	0.613353	0.488437	0.131777	0.125406	0.601449	0.245399	0.750755	0.439560	0.346419	0.605239	0.178884	0.140795	0.520062	0.351926	0.823654	0.417215	0.211891	0.169337	0.588502	0.604912	0.130829	0.323005	0.074106	0.060248	0.233262	0.170527	0.151669	0.285901	0.300646	0.157339	0.023084	0.008128	0.603309	0.697243	0.885251	0.699551	0.386906	0.270022	0.529855	0.306275	0.581214	0.610107	0.565214	0.433322	0.284785	0.162647	0.198813	0.210320	0.500414	0.617192	0.077275	0.077396	0.223544	0.171559	0.156924	0.136561
68	0.605377	0.488904	0.100621	0.106126	0.608736	0.277343	0.765034	0.438599	0.293718	0.495165	0.292842	0.361817	0.443684	0.377573	0.652189	0.291174	0.180670	0.139828	0.585207	0.606248	0.131615	0.313193	0.060208	0.058098	0.232409	0.153160	0.113570	0.310401	0.264105	0.112133	0.023057	0.009961	0.604607	0.666601	0.823772	0.587334	0.413828	0.323396	0.522204	0.306608	0.563855	0.549646	0.580363	0.443122	0.290562	0.153787	0.233953	0.235494	0.647130	0.745909	0.074828	0.056777	0.227855	0.171751	0.154201	0.179399
69	0.574356	0.487861	0.080446	0.087892	0.587007	0.287088	0.849905	0.468342	0.243133	0.370255	0.329944	0.384211	0.365433	0.370877	0.622295	0.234818	0.179650	0.153105	0.473462	0.478898	0.128426	0.268771	0.044962	0.049849	0.221578	0.134482	0.234291	0.282370	0.222116	0.061354	0.044286	0.042640	0.589965	0.642528	0.740975	0.584361	0.395523	0.320224	0.498418	0.289432	0.544523	0.497404	0.687419	0.456511	0.296160	0.153809	0.238578	0.286851	0.718951	0.904632	0.072237	0.055006	0.224710	0.167127	0.151746	0.164932
70	0.505975	0.405496	0.066952	0.072880	0.520683	0.268120	0.925527	0.503845	0.241684	0.367486	0.352405	0.409089	0.363929	0.373270	0.497465	0.218342	0.212137	0.167053	0.288279	0.296691	0.111940	0.167495	0.031169	0.042879	0.222140	0.133853	0.345334	0.281673	0.212664	0.043201	0.047528	0.072540	0.470004	0.458922	0.688356	0.582176	0.391533	0.341265	0.484149	0.289840	0.549586	0.491461	0.781980	0.482857	0.323360	0.202348	0.294054	0.310165	0.723242	0.907773	0.062855	0.046173	0.227991	0.154067	0.145783	0.176803
71	0.492746	0.348060	0.077654	0.075995	0.464257	0.254555	0.963651	0.519121	0.249230	0.365057	0.354618	0.440984	0.356010	0.371333	0.326502	0.199166	0.389350	0.203012	0.217829	0.231930	0.107660	0.132756	0.020680	0.039257	0.182098	0.112083	0.351305	0.271403	0.212055	0.039505	0.050960	0.082954	0.369972	0.327201	0.680943	0.577363	0.389241	0.343259	0.447249	0.287725	0.555768	0.494723	0.847555	0.510895	0.331897	0.215233	0.316064	0.312154	0.717594	0.883939	0.051912	0.030939	0.218948	0.140424	0.117324	0.180104
72	0.408556	0.333450	0.078008	0.081380	0.461773	0.263329	0.968750	0.543361	0.268978	0.342512	0.354720	0.457519	0.296492	0.369086	0.159577	0.169612	0.844509	0.631512	0.211263	0.229734	0.095461	0.127668	0.016831	0.047286	0.122720	0.077411	0.375279	0.268826	0.182866	0.040055	0.103016	0.089948	0.326309	0.223452	0.668378	0.551032	0.363335	0.338867	0.414467	0.287021	0.580968	0.505810	0.876384	0.513556	0.342633	0.217300	0.290855	0.316111	0.637095	0.765386	0.049987	0.025164	0.201937	0.137037	0.093213	0.172924
73	0.262027	0.197982	0.078106	0.109295	0.428925	0.270143	0.970775	0.577817	0.278418	0.289910	0.369313	0.513621	0.199014	0.321265	0.149987	0.088273	0.982757	0.994779	0.198029	0.224548	0.122937	0.110967	0.022818	0.075510	0.146371	0.094920	0.463549	0.616954	0.176518	0.051242	0.122577	0.093417	0.316565	0.169388	0.638999	0.510115	0.349176	0.335788	0.405663	0.266685	0.601169	0.515836	0.881487	0.514866	0.347895	0.213459	0.275325	0.303915	0.615745	0.734938	0.055473	0.030269	0.161981	0.103062	0.055811	0.172427
74	0.147450	0.085669	0.169099	0.125564	0.378061	0.274521	0.975784	0.661712	0.262462	0.265328	0.372161	0.530611	0.175289	0.301310	0.163822	0.096461	1.219954	1.142375	0.170219	0.197448	0.127944	0.098888	0.051743	0.097850	0.215089	0.130445	0.534263	0.890579	0.171520	0.055302	0.123319	0.094753	0.319616	0.167376	0.555528	0.394972	0.349193	0.332209	0.376399	0.259830	0.574701	0.482308	0.940005	0.600690	0.321844	0.205210	0.272494	0.290923	0.585247	0.709140	0.063430	0.037225	0.139782	0.070787	0.045087	0.172073
75	0.163214	0.086848	0.377525	0.453582	0.364564	0.273236	0.979881	0.672773	0.252107	0.271313	0.379272	0.545984	0.150485	0.266269	0.159096	0.107463	1.305716	1.185181	0.137010	0.158386	0.140786	0.092635	0.053982	0.113962	0.247717	0.141309	0.511976	1.044734	0.089189	0.054977	0.158154	0.105644	0.299592	0.167634	0.374944	0.326448	0.350587	0.329532	0.305723	0.231836	0.460677	0.355060	0.975612	0.758425	0.233390	0.199847	0.267002	0.247412	0.425471	0.584022	0.067706	0.056769	0.126452	0.075444	0.042485	0.171756
76	0.227535	0.124349	0.516270	0.542884	0.352353	0.272827	0.917314	0.650560	0.246966	0.271066	0.381557	0.549251	0.145846	0.227088	0.182244	0.160667	1.360226	1.209029	0.106758	0.115955	0.138429	0.089554	0.063857	0.116111	0.351365	0.349465	0.614361	1.075873	0.087171	0.063172	0.214978	0.133242	0.236371	0.150139	0.240582	0.274638	0.337747	0.326045	0.169290	0.205334	0.414661	0.295340	0.937987	0.688201	0.226931	0.199637	0.240967	0.225713	0.272017	0.254892	0.069776	0.065168	0.100470	0.085901	0.040410	0.128892
77	0.277419	0.157099	0.576951	0.584885	0.340036	0.266346	0.782396	0.573390	0.247486	0.269725	0.411053	0.552680	0.144856	0.139794	0.224400	0.173025	1.390824	1.239046	0.085296	0.078334	0.132151	0.055395	0.081332	0.117838	0.378904	0.422671	0.612320	1.080475	0.106775	0.083844	0.245396	0.134389	0.172503	0.129558	0.209717	0.216213	0.269859	0.303873	0.119217	0.168948	0.401818	0.280797	0.899088	0.694722	0.216550	0.194534	0.239472	0.156337	0.262845	0.239293	0.071808	0.075692	0.096792	0.090708	0.040236	0.093926
78	0.298578	0.175008	0.762599	0.587192	0.323671	0.241208	0.692407	0.573843	0.259586	0.256189	0.489533	0.556871	0.141449	0.123895	0.234213	0.211843	1.381355	1.259849	0.072194	0.055498	0.135085	0.050978	0.153865	0.220210	0.377314	0.427158	0.596338	1.079428	0.155850	0.136972	0.275178	0.126347	0.163445	0.134284	0.285349	0.446683	0.175779	0.264930	0.135752	0.125144	0.368065	0.219100	0.894173	0.762595	0.163767	0.130422	0.177012	0.126689	0.236139	0.205596	0.074671	0.127568	0.092317	0.087910	0.037849	0.078547
79	0.420549	0.281421	0.903700	0.621769	0.307156	0.204850	0.677906	0.678668	0.277693	0.267716	0.486787	0.528241	0.129503	0.110944	0.257640	0.223462	1.336682	1.257602	0.073877	0.053813	0.140951	0.053860	0.176226	0.231968	0.362965	0.433965	0.515618	0.801099	0.170780	0.139988	0.367133	0.120995	0.190961	0.147764	0.344827	0.536305	0.124946	0.187914	0.166356	0.131913	0.378158	0.225511	0.930646	0.784992	0.134874	0.085488	0.228144	0.189441	0.232256	0.191242	0.264251	0.268250	0.049044	0.090316	0.036174	0.058448
80	0.488464	0.336028	0.942575	0.675395	0.304897	0.184911	0.569979	0.667960	0.298819	0.272836	0.487909	0.485851	0.131197	0.095089	0.271127	0.225223	1.061210	0.967001	0.078424	0.073436	0.146616	0.061169	0.188126	0.258378	0.358518	0.433913	0.459448	0.621876	0.199567	0.153056	0.363688	0.128169	0.221783	0.164229	0.371323	0.586973	0.137092	0.179454	0.177231	0.140834	0.435280	0.261820	0.906100	0.793845	0.117839	0.076363	0.346048	0.183595	0.106082	0.091841	0.444838	0.313280	0.042558	0.123419	0.045067	0.055818
81	0.512400	0.359433	0.958216	0.689641	0.253015	0.182637	0.443088	0.666638	0.328667	0.256472	0.513387	0.561056	0.125166	0.092540	0.273426	0.241113	0.968812	0.776525	0.088856	0.083408	0.128513	0.061927	0.322279	0.260378	0.346811	0.435414	0.367355	0.279677	0.198371	0.155319	0.363436	0.129138	0.260039	0.180060	0.362705	0.647986	0.148545	0.155143	0.171782	0.116170	0.467525	0.287974	0.815609	0.792688	0.124589	0.073557	0.357377	0.190030	0.079358	0.075016	0.481438	0.321880	0.050649	0.139396	0.055448	0.042071
82	0.526426	0.399461	0.946522	0.694336	0.250133	0.175298	0.368077	0.673688	0.352178	0.269794	0.521902	0.595620	0.116539	0.088727	0.278873	0.242972	0.661818	0.534044	0.127900	0.113278	0.161249	0.086842	0.347391	0.261015	0.234156	0.267276	0.079395	0.168184	0.197580	0.156054	0.363112	0.129000	0.267644	0.181283	0.465089	0.652591	0.157817	0.183814	0.156954	0.117351	0.467636	0.295336	0.741418	0.773301	0.140048	0.080149	0.395674	0.197055	0.108682	0.103232	0.520983	0.329597	0.055099	0.145564	0.056528	0.039835
83	0.524422	0.400185	0.885159	0.538135	0.231994	0.155850	0.358920	0.657564	0.362831	0.282411	0.529150	0.596105	0.139340	0.099659	0.273142	0.239606	0.532355	0.470359	0.171616	0.122964	0.164172	0.094011	0.348309	0.256547	0.242318	0.270183	0.054692	0.117799	0.198519	0.155959	0.345502	0.113418	0.311080	0.224434	0.519618	0.652400	0.160251	0.189469	0.163945	0.112576	0.439994	0.276722	0.681873	0.765254	0.148187	0.081031	0.456803	0.195762	0.110191	0.119099	0.520747	0.459916	0.055313	0.143849	0.059255	0.042036
84	0.500601	0.394192	0.813653	0.451407	0.201508	0.135218	0.360671	0.624700	0.349144	0.271777	0.527698	0.598064	0.150403	0.100130	0.276050	0.238821	0.356479	0.396901	0.200582	0.152857	0.156430	0.092421	0.346781	0.255355	0.286750	0.288589	0.108592	0.137366	0.198471	0.147740	0.313585	0.086849	0.358709	0.280207	0.523725	0.657406	0.164244	0.198754	0.193379	0.111531	0.395547	0.247037	0.670196	0.765822	0.183075	0.094937	0.473435	0.208921	0.114644	0.132627	0.527219	0.502298	0.056304	0.138457	0.064765	0.044138
85	0.504233	0.413512	0.774498	0.397986	0.182958	0.125909	0.356728	0.537812	0.325982	0.280958	0.524022	0.546965	0.158644	0.098821	0.259462	0.254476	0.272133	0.269092	0.205403	0.154953	0.155901	0.088733	0.345417	0.254972	0.301916	0.300535	0.160679	0.149803	0.185480	0.147130	0.310230	0.099446	0.376660	0.311270	0.528845	0.662743	0.165534	0.203814	0.198548	0.122744	0.378483	0.232364	0.636423	0.760290	0.191896	0.095580	0.478355	0.225069	0.118307	0.138401	0.559887	0.589912	0.051994	0.138189	0.065891	0.052111
86	0.520164	0.464510	0.590838	0.396861	0.157229	0.108477	0.305991	0.517868	0.318014	0.295343	0.543965	0.591632	0.166928	0.103628	0.240749	0.270786	0.252572	0.175375	0.211248	0.157198	0.152851	0.088572	0.321216	0.183904	0.276980	0.293612	0.209542	0.254876	0.160997	0.176022	0.281579	0.146902	0.377877	0.320651	0.529759	0.663606	0.163700	0.208871	0.198404	0.136345	0.378968	0.233071	0.530880	0.604464	0.195125	0.095982	0.482977	0.212538	0.155810	0.140378	0.652951	0.638771	0.054668	0.140910	0.080410	0.054420
87	0.422310	0.420485	0.340830	0.337772	0.123128	0.078353	0.302870	0.513558	0.321504	0.294539	0.571413	0.665555	0.169348	0.105286	0.227230	0.245219	0.238557	0.173544	0.228451	0.182729	0.148063	0.087719	0.308538	0.159310	0.272773	0.284802	0.242991	0.294274	0.196911	0.284483	0.179078	0.153875	0.376662	0.320179	0.524076	0.683218	0.164065	0.208720	0.200870	0.144562	0.372207	0.233784	0.477093	0.517038	0.197197	0.094600	0.442393	0.149039	0.178808	0.142428	0.618066	0.639381	0.060818	0.140902	0.121583	0.051769
88	0.353963	0.415646	0.238803	0.270346	0.102444	0.071026	0.281541	0.509694	0.346861	0.298051	0.602333	0.685078	0.173105	0.105632	0.198886	0.232910	0.180641	0.150203	0.246876	0.180692	0.143301	0.082966	0.308304	0.114721	0.264195	0.248550	0.261226	0.326488	0.174257	0.281151	0.175987	0.170130	0.372281	0.316972	0.489873	0.612587	0.162785	0.208249	0.202310	0.161082	0.368427	0.231783	0.477049	0.503305	0.181772	0.088155	0.354416	0.144063	0.178733	0.144737	0.598047	0.635673	0.078633	0.125747	0.126021	0.042606
89	0.331183	0.404725	0.316879	0.530429	0.104998	0.074206	0.231158	0.462395	0.386659	0.309511	0.603095	0.691792	0.156298	0.092834	0.218799	0.233660	0.126105	0.093383	0.267737	0.265159	0.141076	0.080456	0.205708	0.089463	0.241155	0.204921	0.302913	0.341664	0.168701	0.284626	0.170404	0.215420	0.369711	0.313929	0.460461	0.445062	0.154747	0.205753	0.195322	0.164093	0.366234	0.229986	0.446447	0.433917	0.164620	0.086665	0.348330	0.150420	0.161888	0.193122	0.581149	0.646809	0.088043	0.110243	0.118243	0.042368
90	0.322368	0.365847	0.590917	0.816650	0.107267	0.085232	0.228596	0.286713	0.411332	0.341161	0.586883	0.721930	0.152869	0.086628	0.251598	0.218218	0.114823	0.074608	0.302519	0.347473	0.098728	0.053648	0.141796	0.068717	0.194709	0.165256	0.289332	0.332381	0.164995	0.287288	0.174002	0.244830	0.353403	0.307140	0.454749	0.413761	0.136542	0.199927	0.179158	0.155251	0.364943	0.226918	0.296031	0.375486	0.161569	0.090566	0.304988	0.162359	0.190675	0.201906	0.682409	0.676292	0.085978	0.091034	0.116795	0.041559
91	0.335229	0.361255	0.809703	0.849253	0.097882	0.096334	0.216004	0.264664	0.412840	0.351258	0.590861	0.740142	0.157091	0.090697	0.247346	0.215506	0.100612	0.066897	0.312197	0.365711	0.076987	0.044787	0.148076	0.055496	0.136405	0.118415	0.302653	0.368020	0.165769	0.288624	0.174445	0.262467	0.331287	0.300746	0.451104	0.283065	0.125013	0.188627	0.170668	0.134402	0.305585	0.194298	0.178282	0.349366	0.157049	0.087736	0.225150	0.178513	0.245932	0.267673	0.869761	0.885734	0.086097	0.090088	0.114958	0.041131
92	0.338315	0.356684	0.836004	0.963772	0.096828	0.095883	0.204752	0.190646	0.409356	0.359358	0.574060	0.714947	0.138724	0.079386	0.245019	0.208266	0.105149	0.071267	0.340459	0.372711	0.072579	0.053852	0.149723	0.062321	0.120594	0.108521	0.327289	0.494721	0.165839	0.288199	0.176538	0.279809	0.320254	0.304457	0.371822	0.254649	0.110053	0.174077	0.170226	0.132323	0.224241	0.143406	0.152946	0.322464	0.128680	0.076632	0.266986	0.178691	0.280231	0.294060	0.905792	0.918638	0.090904	0.096822	0.117999	0.042075
93	0.333035	0.331077	0.997740	1.042048	0.096528	0.097528	0.182433	0.106240	0.397738	0.363748	0.552919	0.719879	0.121970	0.066608	0.239528	0.204613	0.150479	0.120348	0.472884	0.381333	0.073080	0.058370	0.157300	0.063367	0.118186	0.093344	0.430038	0.497596	0.163019	0.274756	0.149747	0.322906	0.285862	0.291032	0.283439	0.256131	0.097522	0.139309	0.170016	0.124544	0.178044	0.102758	0.151661	0.321070	0.119550	0.077134	0.279434	0.482103	0.289669	0.324124	0.878683	0.973636	0.120508	0.116820	0.178240	0.068113
94	0.317913	0.255647	1.173984	1.068605	0.081467	0.104954	0.174949	0.096076	0.382263	0.361938	0.611347	0.700473	0.112846	0.063173	0.235877	0.149006	0.157835	0.127467	0.480571	0.418492	0.073902	0.059262	0.166454	0.066096	0.151229	0.111600	0.508464	0.576845	0.153289	0.245117	0.238312	0.312534	0.222021	0.239898	0.411989	0.356334	0.088008	0.117058	0.147703	0.123998	0.227119	0.084420	0.149564	0.336707	0.118107	0.076470	0.264274	0.530360	0.295755	0.326414	1.007164	1.062721	0.148370	0.118138	0.235249	0.076554
95	0.332333	0.241317	1.218546	1.074291	0.062582	0.101821	0.158472	0.093937	0.375033	0.351400	0.651716	0.683838	0.097802	0.055724	0.224819	0.082845	0.162648	0.130103	0.507058	0.511271	0.072861	0.063407	0.173275	0.090858	0.256828	0.183921	0.756164	0.660221	0.108462	0.131012	0.266595	0.308317	0.256721	0.184508	0.522272	0.747767	0.079827	0.091227	0.104734	0.123001	0.261767	0.088957	0.148919	0.358602	0.114109	0.075243	0.265414	0.633848	0.350046	0.335179	1.063147	1.111221	0.168058	0.130021	0.237534	0.096434
96	0.327400	0.181132	1.219056	1.060053	0.058637	0.101840	0.127642	0.090065	0.398409	0.357530	0.664653	0.676705	0.095348	0.057131	0.256070	0.079046	0.164473	0.128788	0.612679	0.551240	0.083884	0.126344	0.173664	0.095003	0.276329	0.211502	0.783915	0.714822	0.119274	0.139628	0.261600	0.286537	0.287962	0.162075	0.535010	0.784771	0.074305	0.079263	0.095980	0.110682	0.262062	0.092821	0.177941	0.357245	0.117651	0.084584	0.304289	0.641271	0.355282	0.302496	1.056284	1.108919	0.168329	0.131996	0.260304	0.098595
97	0.310294	0.165107	1.189333	0.942924	0.057896	0.101497	0.102108	0.083599	0.429488	0.378855	0.670047	0.670334	0.105464	0.067326	0.276952	0.244244	0.204320	0.147982	0.627116	0.598743	0.093954	0.188916	0.144626	0.090626	0.292331	0.217422	0.789405	0.749883	0.115890	0.130960	0.260272	0.263216	0.304328	0.173717	0.577388	0.846430	0.071587	0.065163	0.096649	0.095121	0.272304	0.096045	0.187803	0.358238	0.148348	0.116844	0.303713	0.641661	0.340650	0.286737	0.999273	1.045091	0.189548	0.143393	0.304326	0.101964
98	0.299714	0.178533	1.080488	0.709124	0.056820	0.101493	0.078807	0.071457	0.456451	0.418241	0.646748	0.606708	0.125801	0.083770	0.241604	0.264766	0.229257	0.156452	0.817671	0.646375	0.094165	0.198790	0.127566	0.095255	0.361430	0.286378	0.827232	0.694377	0.115370	0.134042	0.259668	0.235582	0.299642	0.195004	0.685599	0.917018	0.068920	0.066325	0.092647	0.083228	0.327012	0.091773	0.187642	0.355480	0.150514	0.121211	0.313714	0.646970	0.301360	0.218867	0.835826	0.862656	0.213286	0.155258	0.313933	0.102848
99	0.286402	0.202675	0.933626	0.672054	0.058450	0.094196	0.059071	0.058988	0.465751	0.475548	0.620308	0.525580	0.133710	0.094002	0.200305	0.283520	0.287924	0.180949	0.909524	0.674435	0.089415	0.197130	0.119093	0.118396	0.393259	0.320428	0.855880	0.740110	0.112939	0.144123	0.262156	0.214842	0.291034	0.204667	0.714510	0.939505	0.069326	0.062813	0.088097	0.048299	0.398753	0.170470	0.180894	0.360625	0.157480	0.123669	0.334269	0.643203	0.271737	0.177645	0.775006	0.782187	0.218776	0.157349	0.315287	0.102745
100	0.282746	0.209160	0.912684	0.496757	0.052139	0.092420	0.046544	0.050436	0.452255	0.487772	0.588691	0.507056	0.127230	0.090186	0.223138	0.294092	0.315745	0.189269	0.880382	0.722730	0.094990	0.209432	0.118083	0.125789	0.373211	0.309858	0.794190	0.704293	0.114984	0.164062	0.261775	0.184384	0.289164	0.202352	0.701252	0.938976	0.066275	0.051849	0.075355	0.036591	0.436293	0.192673	0.238508	0.325978	0.154744	0.121370	0.278068	0.638354	0.245777	0.127821	0.733741	0.697551	0.219321	0.157346	0.315310	0.101871
101	0.228868	0.206780	0.733251	0.301829	0.042561	0.079620	0.043288	0.043384	0.416080	0.476607	0.568173	0.498986	0.126030	0.089576	0.227182	0.302344	0.296832	0.165168	0.872453	0.769534	0.106175	0.216313	0.111092	0.124939	0.327290	0.310910	0.682206	0.683551	0.114140	0.169051	0.249139	0.057339	0.298425	0.199346	0.720617	0.938788	0.064310	0.050517	0.051557	0.043114	0.432395	0.239162	0.323063	0.266632	0.151568	0.119641	0.256399	0.445900	0.235137	0.132228	0.661735	0.606851	0.212958	0.146021	0.306813	0.099900
