	213_C_T2_sh_ND_01.c3d	213_C_T2_sh_ND_01.c3d	213_C_T2_sh_ND_01.c3d	213_C_T2_sh_ND_01.c3d	213_C_T2_sh_ND_01.c3d	213_C_T2_sh_ND_01.c3d	213_C_T2_sh_ND_01.c3d	213_C_T2_sh_ND_01.c3d	213_C_T2_sh_ND_02.c3d	213_C_T2_sh_ND_02.c3d	213_C_T2_sh_ND_02.c3d	213_C_T2_sh_ND_02.c3d	213_C_T2_sh_ND_02.c3d	213_C_T2_sh_ND_02.c3d	213_C_T2_sh_ND_02.c3d	213_C_T2_sh_ND_02.c3d	213_C_T2_sh_ND_03.c3d	213_C_T2_sh_ND_03.c3d	213_C_T2_sh_ND_03.c3d	213_C_T2_sh_ND_03.c3d	213_C_T2_sh_ND_03.c3d	213_C_T2_sh_ND_03.c3d	213_C_T2_sh_ND_03.c3d	213_C_T2_sh_ND_03.c3d	213_C_T2_sh_ND_04.c3d	213_C_T2_sh_ND_04.c3d	213_C_T2_sh_ND_04.c3d	213_C_T2_sh_ND_04.c3d	213_C_T2_sh_ND_04.c3d	213_C_T2_sh_ND_04.c3d	213_C_T2_sh_ND_04.c3d	213_C_T2_sh_ND_04.c3d	213_C_T2_sh_ND_05.c3d	213_C_T2_sh_ND_05.c3d	213_C_T2_sh_ND_05.c3d	213_C_T2_sh_ND_05.c3d	213_C_T2_sh_ND_05.c3d	213_C_T2_sh_ND_05.c3d	213_C_T2_sh_ND_05.c3d	213_C_T2_sh_ND_05.c3d	213_C_T2_sh_ND_07.c3d	213_C_T2_sh_ND_07.c3d	213_C_T2_sh_ND_07.c3d	213_C_T2_sh_ND_07.c3d	213_C_T2_sh_ND_07.c3d	213_C_T2_sh_ND_07.c3d	213_C_T2_sh_ND_07.c3d	213_C_T2_sh_ND_07.c3d	213_C_T2_sh_ND_08.c3d	213_C_T2_sh_ND_08.c3d	213_C_T2_sh_ND_08.c3d	213_C_T2_sh_ND_08.c3d	213_C_T2_sh_ND_08.c3d	213_C_T2_sh_ND_08.c3d	213_C_T2_sh_ND_08.c3d	213_C_T2_sh_ND_08.c3d	213_C_T2_sh_ND_09.c3d	213_C_T2_sh_ND_09.c3d	213_C_T2_sh_ND_09.c3d	213_C_T2_sh_ND_09.c3d	213_C_T2_sh_ND_09.c3d	213_C_T2_sh_ND_09.c3d	213_C_T2_sh_ND_09.c3d	213_C_T2_sh_ND_09.c3d	213_C_T2_sh_ND_10.c3d	213_C_T2_sh_ND_10.c3d	213_C_T2_sh_ND_10.c3d	213_C_T2_sh_ND_10.c3d	213_C_T2_sh_ND_10.c3d	213_C_T2_sh_ND_10.c3d	213_C_T2_sh_ND_10.c3d	213_C_T2_sh_ND_10.c3d
	Biceps femoris_lat	Semitendinosus_lat	Vastus lateralis_lat	Vastus medialis_lat	Biceps femoris_med	Semitendinosus_med	Vastus lateralis_med	Vastus medialis_med	Biceps femoris_lat	Semitendinosus_lat	Vastus lateralis_lat	Vastus medialis_lat	Biceps femoris_med	Semitendinosus_med	Vastus lateralis_med	Vastus medialis_med	Biceps femoris_lat	Semitendinosus_lat	Vastus lateralis_lat	Vastus medialis_lat	Biceps femoris_med	Semitendinosus_med	Vastus lateralis_med	Vastus medialis_med	Biceps femoris_lat	Semitendinosus_lat	Vastus lateralis_lat	Vastus medialis_lat	Biceps femoris_med	Semitendinosus_med	Vastus lateralis_med	Vastus medialis_med	Biceps femoris_lat	Semitendinosus_lat	Vastus lateralis_lat	Vastus medialis_lat	Biceps femoris_med	Semitendinosus_med	Vastus lateralis_med	Vastus medialis_med	Biceps femoris_lat	Semitendinosus_lat	Vastus lateralis_lat	Vastus medialis_lat	Biceps femoris_med	Semitendinosus_med	Vastus lateralis_med	Vastus medialis_med	Biceps femoris_lat	Semitendinosus_lat	Vastus lateralis_lat	Vastus medialis_lat	Biceps femoris_med	Semitendinosus_med	Vastus lateralis_med	Vastus medialis_med	Biceps femoris_lat	Semitendinosus_lat	Vastus lateralis_lat	Vastus medialis_lat	Biceps femoris_med	Semitendinosus_med	Vastus lateralis_med	Vastus medialis_med	Biceps femoris_lat	Semitendinosus_lat	Vastus lateralis_lat	Vastus medialis_lat	Biceps femoris_med	Semitendinosus_med	Vastus lateralis_med	Vastus medialis_med
	P2D	P2D	P2D	P2D	P2D	P2D	P2D	P2D	P2D	P2D	P2D	P2D	P2D	P2D	P2D	P2D	P2D	P2D	P2D	P2D	P2D	P2D	P2D	P2D	P2D	P2D	P2D	P2D	P2D	P2D	P2D	P2D	P2D	P2D	P2D	P2D	P2D	P2D	P2D	P2D	P2D	P2D	P2D	P2D	P2D	P2D	P2D	P2D	P2D	P2D	P2D	P2D	P2D	P2D	P2D	P2D	P2D	P2D	P2D	P2D	P2D	P2D	P2D	P2D	P2D	P2D	P2D	P2D	P2D	P2D	P2D	P2D
	EMG_lat	EMG_lat	EMG_lat	EMG_lat	EMG_med	EMG_med	EMG_med	EMG_med	EMG_lat	EMG_lat	EMG_lat	EMG_lat	EMG_med	EMG_med	EMG_med	EMG_med	EMG_lat	EMG_lat	EMG_lat	EMG_lat	EMG_med	EMG_med	EMG_med	EMG_med	EMG_lat	EMG_lat	EMG_lat	EMG_lat	EMG_med	EMG_med	EMG_med	EMG_med	EMG_lat	EMG_lat	EMG_lat	EMG_lat	EMG_med	EMG_med	EMG_med	EMG_med	EMG_lat	EMG_lat	EMG_lat	EMG_lat	EMG_med	EMG_med	EMG_med	EMG_med	EMG_lat	EMG_lat	EMG_lat	EMG_lat	EMG_med	EMG_med	EMG_med	EMG_med	EMG_lat	EMG_lat	EMG_lat	EMG_lat	EMG_med	EMG_med	EMG_med	EMG_med	EMG_lat	EMG_lat	EMG_lat	EMG_lat	EMG_med	EMG_med	EMG_med	EMG_med
ITEM	Y	Y	Y	Y	Y	Y	Y	Y	Y	Y	Y	Y	Y	Y	Y	Y	Y	Y	Y	Y	Y	Y	Y	Y	Y	Y	Y	Y	Y	Y	Y	Y	Y	Y	Y	Y	Y	Y	Y	Y	Y	Y	Y	Y	Y	Y	Y	Y	Y	Y	Y	Y	Y	Y	Y	Y	Y	Y	Y	Y	Y	Y	Y	Y	Y	Y	Y	Y	Y	Y	Y	Y
1	0.057242	0.161777	0.279080	0.245003	0.115731	0.042200	0.154653	0.202894	0.177038	0.418570	0.188822	0.152659	0.057625	0.063653	0.123670	0.234021	0.069404	0.137556	0.154406	0.115352	0.212798	0.180271	0.165499	0.451394	0.037469	0.099445	0.157992	0.214838	0.066622	0.205233	0.211400	0.464882	0.057077	0.112931	0.213157	0.475419	0.037505	0.023224	0.231514	0.509271	0.142291	0.051135	0.179285	0.142042	0.048396	0.143802	0.137984	0.283236	0.055316	0.047539	0.201506	0.317140	0.611439	0.296517	0.196368	0.145288	0.157870	0.203958	0.206721	0.314579	0.213971	0.182807	0.152756	0.350220	0.063772	0.054474	0.248601	0.152458	0.113441	0.054028	0.166526	0.177388
2	0.059836	0.165985	0.281568	0.246489	0.221290	0.059675	0.194260	0.183780	0.156731	0.420250	0.189631	0.149301	0.059531	0.061308	0.124428	0.268712	0.069043	0.123466	0.163788	0.138260	0.213012	0.180183	0.166245	0.517163	0.037247	0.089067	0.153852	0.217702	0.070285	0.174759	0.212640	0.453222	0.046068	0.095162	0.220588	0.459436	0.055910	0.039911	0.222978	0.517283	0.127608	0.041585	0.185040	0.178902	0.046866	0.199271	0.137689	0.281343	0.057992	0.048292	0.208665	0.324026	0.528468	0.266864	0.195340	0.135259	0.156055	0.204876	0.216914	0.347077	0.215464	0.182213	0.152079	0.345600	0.065019	0.054462	0.275043	0.154047	0.111089	0.060170	0.160457	0.162072
3	0.063743	0.168246	0.287723	0.243154	0.314338	0.065299	0.209019	0.186405	0.150377	0.429142	0.192510	0.143415	0.059118	0.061018	0.140760	0.281975	0.075081	0.115448	0.181398	0.161671	0.198670	0.179309	0.172162	0.543787	0.041865	0.080287	0.166504	0.226454	0.071198	0.143495	0.211441	0.459358	0.039678	0.082578	0.206465	0.454253	0.057608	0.044980	0.209598	0.514271	0.117025	0.037930	0.184680	0.178033	0.041970	0.223598	0.111478	0.274151	0.061458	0.045200	0.190020	0.322751	0.503770	0.257797	0.200230	0.135105	0.149890	0.191404	0.256385	0.353343	0.204424	0.168858	0.151370	0.344611	0.065872	0.057123	0.324984	0.160653	0.100294	0.093215	0.168347	0.171580
4	0.066070	0.167932	0.292525	0.241615	0.340181	0.065369	0.217638	0.162427	0.149083	0.436397	0.190457	0.139937	0.056846	0.059198	0.143803	0.285973	0.085311	0.110621	0.210947	0.177244	0.172813	0.174966	0.176487	0.521411	0.043518	0.072040	0.200329	0.227142	0.070614	0.150649	0.231837	0.446279	0.035426	0.069575	0.220541	0.460906	0.057826	0.045608	0.200793	0.550069	0.108315	0.034998	0.175199	0.179917	0.048736	0.246374	0.108961	0.293613	0.061587	0.039188	0.180823	0.317986	0.488378	0.254530	0.218532	0.145370	0.122599	0.146830	0.307437	0.354611	0.168941	0.140793	0.152517	0.462321	0.065190	0.059766	0.358787	0.165252	0.109538	0.110756	0.214112	0.183765
5	0.067671	0.166589	0.293535	0.241420	0.340414	0.072384	0.217244	0.126985	0.148942	0.436909	0.189726	0.139458	0.056071	0.060327	0.142405	0.287492	0.091035	0.099808	0.241097	0.202224	0.176867	0.151158	0.177631	0.467718	0.043804	0.063791	0.227650	0.229342	0.069478	0.157828	0.282293	0.391044	0.035166	0.055190	0.288947	0.466254	0.059744	0.046618	0.224623	0.588414	0.089498	0.034483	0.175173	0.182537	0.037612	0.253004	0.130134	0.286244	0.062650	0.033779	0.171178	0.313272	0.434244	0.228897	0.230008	0.187521	0.110362	0.127824	0.396956	0.364801	0.137930	0.107623	0.201728	0.513167	0.064972	0.063275	0.375797	0.186886	0.111771	0.147415	0.224899	0.198872
6	0.069011	0.162995	0.290123	0.238062	0.391598	0.089038	0.211999	0.128459	0.148832	0.431601	0.195367	0.127786	0.051441	0.058538	0.141961	0.305219	0.093470	0.088197	0.248870	0.221116	0.173757	0.118949	0.182214	0.467060	0.044888	0.055819	0.237001	0.228827	0.064164	0.136556	0.281407	0.316704	0.041138	0.045605	0.398039	0.484915	0.062221	0.048693	0.243630	0.574444	0.084046	0.035501	0.184840	0.202269	0.039991	0.253780	0.126895	0.281065	0.062924	0.030519	0.167983	0.312536	0.286757	0.182018	0.228765	0.232745	0.110450	0.125746	0.484575	0.371985	0.116096	0.077662	0.256411	0.549057	0.063736	0.065930	0.373239	0.191406	0.109675	0.150544	0.208757	0.199878
7	0.068975	0.154768	0.300222	0.234360	0.593560	0.112652	0.227917	0.135020	0.148812	0.425088	0.201367	0.109532	0.047233	0.066965	0.151317	0.318731	0.094345	0.081519	0.239532	0.228128	0.167104	0.115524	0.184246	0.486548	0.053118	0.047444	0.234439	0.222287	0.058604	0.133491	0.270771	0.331397	0.044003	0.039308	0.506515	0.527446	0.066061	0.052600	0.249364	0.552354	0.079108	0.037639	0.190423	0.242045	0.047174	0.255074	0.147135	0.278466	0.060443	0.031085	0.191223	0.304056	0.220277	0.135969	0.224693	0.235401	0.101766	0.115316	0.536749	0.401874	0.107966	0.063528	0.266436	0.587354	0.062529	0.067085	0.378405	0.190871	0.127976	0.171212	0.257596	0.238538
8	0.066679	0.142404	0.312147	0.228990	0.622570	0.116800	0.246080	0.138378	0.148777	0.417439	0.196547	0.095217	0.042929	0.066308	0.179107	0.323098	0.091130	0.077168	0.231311	0.228179	0.138932	0.109148	0.184587	0.512803	0.062132	0.043532	0.230995	0.206685	0.045305	0.133068	0.254831	0.423289	0.046387	0.036206	0.544933	0.525377	0.068510	0.054832	0.243874	0.635312	0.076422	0.041683	0.193009	0.266619	0.049910	0.204944	0.148460	0.348215	0.060897	0.032400	0.237150	0.257380	0.183863	0.113734	0.226620	0.244875	0.102821	0.109685	0.547334	0.425811	0.108602	0.058699	0.265314	0.591341	0.061861	0.068013	0.392801	0.186880	0.143830	0.172982	0.326768	0.244403
9	0.063824	0.130002	0.312094	0.206369	0.622731	0.116807	0.258125	0.144158	0.147884	0.407944	0.185353	0.099279	0.045684	0.074840	0.165599	0.341061	0.090149	0.076041	0.235767	0.234573	0.125345	0.071472	0.184487	0.525771	0.062998	0.040543	0.227636	0.190349	0.047662	0.134813	0.241064	0.429444	0.046776	0.035303	0.548001	0.501817	0.068435	0.054323	0.244124	0.651734	0.079415	0.044379	0.194295	0.277367	0.056547	0.171940	0.150247	0.362582	0.064483	0.035770	0.250401	0.324938	0.152413	0.111636	0.224141	0.289316	0.109904	0.107171	0.549781	0.434910	0.109131	0.057958	0.261672	0.597627	0.061487	0.071940	0.400632	0.176806	0.170574	0.183006	0.339635	0.241921
10	0.063422	0.120037	0.312548	0.203317	0.622344	0.116483	0.258211	0.146176	0.145568	0.399656	0.172331	0.104017	0.052326	0.077611	0.155705	0.341825	0.090144	0.074724	0.250032	0.243345	0.125983	0.062486	0.182971	0.502611	0.064672	0.036754	0.224597	0.172615	0.041086	0.135180	0.236978	0.441984	0.056942	0.043276	0.558348	0.487801	0.075799	0.055404	0.253141	0.592522	0.078928	0.044537	0.197259	0.281200	0.055958	0.113501	0.173590	0.402701	0.070274	0.038640	0.267368	0.396032	0.139127	0.111752	0.239369	0.348310	0.109242	0.103114	0.581306	0.429896	0.108527	0.057279	0.266197	0.648687	0.060960	0.073638	0.412812	0.168441	0.182198	0.200450	0.338588	0.236879
11	0.063260	0.110947	0.313692	0.192889	0.622710	0.115810	0.258975	0.166991	0.143844	0.394026	0.161762	0.106207	0.055140	0.076398	0.173444	0.345169	0.094550	0.071977	0.261892	0.243459	0.124185	0.061665	0.183866	0.465789	0.063789	0.030116	0.222670	0.170031	0.066257	0.136748	0.258519	0.416844	0.064835	0.051277	0.601878	0.509346	0.083241	0.059485	0.238924	0.655773	0.076075	0.043063	0.195230	0.288616	0.065856	0.073100	0.191049	0.386401	0.068111	0.040396	0.280167	0.385049	0.142105	0.112962	0.267560	0.398310	0.107416	0.099057	0.641257	0.464552	0.112441	0.057518	0.284449	0.737359	0.060920	0.074622	0.435253	0.165383	0.181572	0.213916	0.330871	0.228287
12	0.064050	0.104637	0.313951	0.185976	0.613015	0.111904	0.241010	0.241338	0.139182	0.388304	0.156300	0.106587	0.061791	0.079422	0.200232	0.375551	0.101817	0.070855	0.284020	0.243251	0.121807	0.062328	0.198775	0.498667	0.062836	0.019961	0.223212	0.167564	0.084755	0.112595	0.261972	0.394225	0.065358	0.053568	0.672169	0.561506	0.081776	0.051991	0.226322	0.681581	0.073995	0.041996	0.173427	0.412964	0.065228	0.054479	0.167997	0.375328	0.069149	0.044396	0.283768	0.372164	0.150478	0.114963	0.265986	0.412092	0.107163	0.096255	0.682844	0.525939	0.116187	0.059041	0.339034	0.808430	0.065908	0.075453	0.462491	0.165408	0.177221	0.215503	0.299685	0.218968
13	0.063779	0.098949	0.313782	0.185967	0.574075	0.103405	0.206488	0.328643	0.131617	0.374281	0.155555	0.105770	0.066631	0.083163	0.188699	0.374913	0.107636	0.071403	0.293217	0.246925	0.116342	0.064370	0.241312	0.543456	0.062962	0.015787	0.224294	0.162767	0.083959	0.087564	0.199775	0.388856	0.068596	0.054417	0.727909	0.583801	0.088901	0.050583	0.227741	0.682616	0.076767	0.044549	0.181558	0.464598	0.063948	0.051581	0.164100	0.354925	0.090442	0.056226	0.317965	0.386144	0.149397	0.111328	0.257001	0.424610	0.108287	0.095550	0.711491	0.558593	0.118839	0.063407	0.379785	0.837277	0.071763	0.073712	0.487141	0.160650	0.162128	0.215341	0.283953	0.200700
14	0.064930	0.095498	0.313437	0.190298	0.534796	0.102034	0.221535	0.338245	0.121097	0.350349	0.153717	0.111113	0.068507	0.083162	0.188298	0.384905	0.110119	0.072106	0.290516	0.252882	0.108156	0.066357	0.278605	0.537134	0.062869	0.018070	0.224693	0.159845	0.084090	0.063462	0.189817	0.398836	0.078993	0.060546	0.755481	0.589672	0.095630	0.056782	0.234496	0.654816	0.081801	0.051484	0.182392	0.459248	0.058059	0.040944	0.147167	0.337931	0.098148	0.062210	0.396545	0.389354	0.145130	0.103898	0.256425	0.438896	0.113284	0.097786	0.726199	0.555841	0.118112	0.065322	0.395219	0.834843	0.071733	0.073220	0.489270	0.149258	0.160187	0.226147	0.282884	0.178534
15	0.073301	0.094500	0.314555	0.222453	0.527625	0.102388	0.281007	0.361411	0.110112	0.315587	0.139847	0.113679	0.070877	0.082304	0.187131	0.386580	0.111779	0.072825	0.289105	0.266303	0.109514	0.070453	0.289688	0.478727	0.062463	0.022467	0.218835	0.161355	0.085547	0.057495	0.182401	0.380369	0.085350	0.065450	0.764432	0.576060	0.097405	0.057146	0.226858	0.617276	0.083575	0.058893	0.185232	0.458131	0.054559	0.044268	0.135194	0.235243	0.097169	0.062730	0.441052	0.389167	0.128785	0.088948	0.259620	0.437019	0.126228	0.102605	0.729202	0.533796	0.111125	0.063716	0.398472	0.826971	0.073532	0.078639	0.481541	0.146953	0.145269	0.211716	0.249962	0.123663
16	0.081427	0.094635	0.305915	0.262782	0.526741	0.096374	0.295273	0.416088	0.096084	0.258174	0.131489	0.110918	0.069705	0.078898	0.187623	0.367053	0.112939	0.073301	0.291759	0.280011	0.110941	0.073258	0.286577	0.463234	0.062097	0.025057	0.219135	0.175356	0.086635	0.057607	0.170995	0.264668	0.088169	0.067190	0.764977	0.572291	0.095923	0.055373	0.196347	0.602352	0.086751	0.064025	0.186586	0.457638	0.049763	0.052737	0.136389	0.176830	0.097813	0.068918	0.458256	0.391546	0.107786	0.072016	0.275921	0.431463	0.133119	0.105203	0.727964	0.511827	0.107781	0.061627	0.400027	0.822582	0.076025	0.089130	0.466088	0.144171	0.133112	0.209831	0.154585	0.210801
17	0.085715	0.093315	0.276368	0.264758	0.435111	0.076067	0.324776	0.451204	0.076233	0.208717	0.131442	0.112587	0.067515	0.072698	0.185464	0.368139	0.113569	0.073026	0.290744	0.277764	0.110040	0.072932	0.291511	0.484325	0.061217	0.025516	0.223947	0.209487	0.085688	0.053961	0.156342	0.227328	0.088335	0.067391	0.764958	0.574664	0.094149	0.052790	0.185907	0.598110	0.080701	0.062935	0.175276	0.453368	0.034316	0.056535	0.100385	0.071982	0.101870	0.075537	0.458853	0.394642	0.093684	0.060903	0.287317	0.420447	0.135968	0.105940	0.716965	0.494857	0.107119	0.061201	0.399724	0.816776	0.074965	0.088945	0.433553	0.134740	0.097563	0.202154	0.204919	0.589753
18	0.085956	0.088692	0.250207	0.263342	0.154077	0.054278	0.363221	0.452332	0.061370	0.191337	0.128417	0.125157	0.065832	0.069450	0.168595	0.361757	0.112009	0.070668	0.283434	0.264718	0.106152	0.071715	0.306388	0.484362	0.061345	0.025709	0.224951	0.209849	0.083729	0.052017	0.159163	0.190682	0.088180	0.067341	0.754056	0.555472	0.090731	0.050170	0.183611	0.520541	0.079173	0.062506	0.162932	0.433860	0.034841	0.101788	0.082571	0.065248	0.111507	0.078524	0.457799	0.394526	0.084836	0.055041	0.302075	0.396782	0.135152	0.105303	0.700258	0.493385	0.107436	0.061673	0.395343	0.755597	0.073222	0.097847	0.395738	0.133044	0.067488	0.184839	0.337408	0.622788
19	0.084391	0.080234	0.257580	0.266936	0.127423	0.056651	0.371298	0.451395	0.052124	0.190117	0.123029	0.132613	0.064282	0.055587	0.178117	0.324220	0.107213	0.064822	0.270156	0.256785	0.110641	0.075309	0.317825	0.471089	0.059550	0.024675	0.225254	0.199235	0.066345	0.048494	0.137276	0.139391	0.088012	0.066758	0.726979	0.548402	0.089872	0.050227	0.180269	0.418567	0.073851	0.058568	0.168071	0.415009	0.044980	0.136124	0.080530	0.063865	0.121512	0.079638	0.457913	0.393768	0.083422	0.053828	0.305377	0.383817	0.135175	0.105270	0.661466	0.487326	0.107623	0.061474	0.370677	0.733254	0.069479	0.109718	0.360450	0.107972	0.084235	0.155116	0.354751	0.756984
20	0.083029	0.070827	0.258390	0.272918	0.133055	0.060017	0.366464	0.445786	0.045637	0.175287	0.116620	0.142391	0.057378	0.051164	0.177136	0.318949	0.101558	0.057334	0.245702	0.247560	0.108676	0.077454	0.325787	0.454867	0.057615	0.025132	0.198081	0.186689	0.033990	0.047804	0.093240	0.154977	0.084602	0.063683	0.668007	0.509333	0.084013	0.048827	0.162181	0.407809	0.076498	0.057223	0.176119	0.410053	0.068977	0.186920	0.106158	0.059340	0.121547	0.078757	0.457385	0.394327	0.083468	0.053815	0.300496	0.419807	0.134941	0.105036	0.592615	0.483582	0.105290	0.061195	0.342694	0.703375	0.064041	0.119472	0.361559	0.098404	0.082213	0.142429	0.388878	0.865608
21	0.081740	0.064543	0.257272	0.298555	0.129941	0.060830	0.365609	0.442012	0.042443	0.153424	0.115495	0.222791	0.056573	0.044405	0.155259	0.261808	0.097194	0.051568	0.220467	0.221527	0.093773	0.072002	0.338092	0.432463	0.057691	0.027744	0.167821	0.180904	0.039339	0.043870	0.107896	0.154855	0.083612	0.062654	0.593012	0.459745	0.073021	0.043304	0.155708	0.298702	0.076684	0.059541	0.175825	0.411061	0.107552	0.272181	0.120753	0.061667	0.120927	0.078214	0.455387	0.395071	0.083229	0.053065	0.305707	0.436564	0.132166	0.102890	0.529617	0.466758	0.095167	0.059762	0.340684	0.658952	0.063538	0.123461	0.369235	0.102155	0.087903	0.124375	0.483931	0.894988
22	0.080570	0.063138	0.274485	0.341353	0.119467	0.058967	0.364833	0.427800	0.040824	0.148781	0.129748	0.271863	0.045496	0.034013	0.125522	0.192387	0.091275	0.045741	0.215500	0.203476	0.084935	0.063934	0.338169	0.419111	0.057367	0.030175	0.154250	0.182392	0.050926	0.042333	0.108779	0.133346	0.082066	0.063464	0.565695	0.452607	0.068783	0.043508	0.156593	0.170848	0.079123	0.061252	0.172517	0.417721	0.113160	0.365091	0.143914	0.065949	0.121855	0.078401	0.435813	0.394243	0.082118	0.050708	0.329640	0.404627	0.120693	0.095194	0.508640	0.443314	0.083209	0.057957	0.342055	0.658540	0.070300	0.126983	0.358907	0.092950	0.087899	0.099784	0.530854	0.894854
23	0.078806	0.062562	0.305133	0.368856	0.119287	0.057722	0.362791	0.385798	0.040692	0.152671	0.129673	0.294004	0.039772	0.025927	0.133167	0.189347	0.088874	0.039918	0.216377	0.197334	0.082212	0.060818	0.336415	0.419984	0.052560	0.032742	0.153372	0.178864	0.051019	0.037705	0.124065	0.137549	0.081543	0.065716	0.565764	0.456412	0.057092	0.060673	0.134966	0.141471	0.082275	0.061269	0.163015	0.386658	0.116026	0.398328	0.191698	0.070823	0.123418	0.082235	0.423470	0.348233	0.080546	0.050786	0.326951	0.360561	0.103944	0.083744	0.508211	0.425014	0.078249	0.057238	0.341422	0.652896	0.077660	0.131191	0.349405	0.094595	0.086538	0.096563	0.531346	0.895346
24	0.077690	0.061751	0.324881	0.371270	0.118040	0.057085	0.362767	0.346096	0.038884	0.155832	0.115378	0.297389	0.035097	0.036213	0.145264	0.247191	0.088834	0.034895	0.217480	0.195069	0.082106	0.060693	0.333235	0.416463	0.040353	0.034571	0.154117	0.169624	0.050179	0.038451	0.143283	0.143013	0.072917	0.059740	0.553597	0.462312	0.042708	0.063035	0.109175	0.182973	0.081245	0.060295	0.157607	0.227334	0.116832	0.399263	0.189348	0.085939	0.121332	0.085904	0.414730	0.247832	0.069199	0.046572	0.303658	0.342036	0.093310	0.074018	0.484250	0.421925	0.075912	0.057101	0.334707	0.595414	0.080617	0.147073	0.338560	0.091867	0.086562	0.097833	0.527767	0.889233
25	0.081167	0.061594	0.325102	0.384058	0.117584	0.054957	0.331910	0.346350	0.045107	0.158263	0.107748	0.316373	0.031860	0.043726	0.175117	0.265653	0.087623	0.028810	0.209789	0.180977	0.079192	0.059626	0.314245	0.363398	0.034390	0.035032	0.153972	0.174752	0.055153	0.038575	0.146422	0.143789	0.067735	0.054217	0.501228	0.423530	0.033466	0.062980	0.086390	0.230521	0.076456	0.056741	0.149887	0.183968	0.116895	0.390690	0.206423	0.118206	0.120645	0.087152	0.403431	0.208866	0.056262	0.040388	0.300690	0.351453	0.093072	0.072819	0.410641	0.397226	0.067485	0.056029	0.309072	0.479133	0.084366	0.149374	0.315630	0.116210	0.085424	0.098045	0.503052	0.704619
26	0.084434	0.062009	0.313241	0.410118	0.117726	0.052397	0.292474	0.305121	0.058510	0.160640	0.109064	0.338135	0.050247	0.045846	0.190084	0.274145	0.086904	0.028125	0.196330	0.172931	0.074280	0.057376	0.278309	0.285351	0.031343	0.035234	0.154897	0.173548	0.057224	0.092745	0.200559	0.236942	0.070107	0.060441	0.402234	0.368384	0.037789	0.064267	0.118072	0.230162	0.070672	0.049240	0.153941	0.192931	0.112758	0.379407	0.213181	0.169994	0.120256	0.088454	0.397772	0.196585	0.052152	0.038436	0.306832	0.345124	0.093706	0.074520	0.320295	0.288183	0.062804	0.053665	0.242440	0.346749	0.084527	0.153885	0.281785	0.195345	0.078808	0.097502	0.421540	0.663728
27	0.084321	0.062016	0.308449	0.428079	0.116173	0.052763	0.296543	0.240366	0.069075	0.162323	0.116998	0.340307	0.065312	0.046534	0.179267	0.285776	0.078662	0.029067	0.177105	0.172867	0.069129	0.054989	0.237727	0.273088	0.030760	0.035788	0.156527	0.173906	0.060154	0.111376	0.288504	0.279483	0.072576	0.064626	0.293044	0.318292	0.040583	0.066879	0.196905	0.273804	0.062028	0.040757	0.152399	0.201036	0.103784	0.335783	0.201980	0.187921	0.109015	0.088068	0.386332	0.158397	0.049239	0.037981	0.316755	0.344190	0.092993	0.073774	0.233562	0.170525	0.058587	0.048244	0.177774	0.267758	0.078061	0.161225	0.236949	0.264574	0.052730	0.090246	0.399758	0.528167
28	0.083791	0.062106	0.309728	0.427988	0.116165	0.048824	0.253194	0.292628	0.070095	0.161047	0.120137	0.339291	0.062319	0.046121	0.180330	0.293316	0.069404	0.028029	0.137324	0.173346	0.060288	0.049390	0.221864	0.267395	0.031678	0.036296	0.163891	0.174306	0.084048	0.165064	0.300078	0.273091	0.068363	0.058727	0.199219	0.309939	0.040331	0.067118	0.219283	0.351057	0.056139	0.036059	0.158868	0.198491	0.080704	0.299412	0.229271	0.214153	0.093996	0.083837	0.310246	0.136653	0.049079	0.036169	0.316870	0.354202	0.090092	0.070468	0.146300	0.131379	0.056285	0.045452	0.143208	0.267918	0.076774	0.166592	0.202217	0.278142	0.048484	0.088433	0.383715	0.302799
29	0.083759	0.061712	0.315752	0.428671	0.091800	0.043435	0.252364	0.306363	0.069956	0.155610	0.118087	0.339592	0.063158	0.056080	0.185246	0.296811	0.066274	0.051652	0.120113	0.184719	0.055632	0.044064	0.221390	0.233987	0.031640	0.035999	0.176015	0.175048	0.083733	0.169835	0.365969	0.318761	0.075352	0.068817	0.156537	0.323723	0.041133	0.067237	0.228365	0.396059	0.059294	0.036109	0.192620	0.201096	0.074430	0.149526	0.245491	0.224743	0.096058	0.083382	0.228144	0.137443	0.053241	0.032207	0.288728	0.358046	0.072812	0.062676	0.108855	0.127950	0.056142	0.045553	0.131763	0.278016	0.073927	0.165700	0.193796	0.278007	0.029845	0.060407	0.284145	0.151607
30	0.085170	0.061571	0.318860	0.433114	0.081783	0.041660	0.277461	0.358894	0.071111	0.150333	0.123668	0.339972	0.064043	0.056051	0.186738	0.317272	0.070328	0.081254	0.115708	0.184791	0.055110	0.044058	0.212722	0.178848	0.030932	0.034898	0.185664	0.174809	0.077243	0.179044	0.411078	0.363636	0.081844	0.095527	0.165528	0.322703	0.043106	0.067592	0.291875	0.410183	0.060220	0.036061	0.193224	0.203815	0.079065	0.128583	0.234452	0.227971	0.095322	0.080225	0.157749	0.118441	0.058738	0.034855	0.264231	0.359541	0.053275	0.052338	0.106695	0.119220	0.057401	0.045888	0.129740	0.277536	0.073043	0.200164	0.190473	0.282060	0.018512	0.057903	0.168859	0.149774
31	0.090339	0.062323	0.320615	0.434667	0.075041	0.037952	0.281543	0.454782	0.069390	0.149352	0.158208	0.339136	0.063550	0.056052	0.186017	0.337835	0.082013	0.090703	0.117887	0.162202	0.049818	0.041168	0.191330	0.163091	0.030059	0.032897	0.194719	0.185005	0.075492	0.183937	0.416378	0.363992	0.085575	0.104193	0.200433	0.320636	0.042083	0.067161	0.340251	0.411604	0.054571	0.035948	0.179893	0.197289	0.074117	0.123484	0.239380	0.230312	0.088939	0.082385	0.139947	0.087582	0.058600	0.035138	0.261636	0.381905	0.038482	0.047518	0.106119	0.112950	0.057766	0.045748	0.131029	0.277550	0.075980	0.220765	0.179276	0.285534	0.048891	0.068646	0.237076	0.147587
32	0.094129	0.062064	0.324188	0.434180	0.088558	0.039482	0.328747	0.513176	0.072734	0.139361	0.190543	0.343276	0.063275	0.057360	0.186074	0.342466	0.103903	0.093452	0.133213	0.151108	0.029135	0.026548	0.159690	0.163861	0.026975	0.030906	0.191057	0.207741	0.082101	0.189104	0.410796	0.357381	0.086175	0.110158	0.235382	0.316388	0.041904	0.069124	0.342849	0.411293	0.048343	0.031037	0.177508	0.187333	0.074337	0.126657	0.253449	0.200516	0.081541	0.107049	0.145931	0.095870	0.054875	0.036057	0.298565	0.400414	0.042054	0.046849	0.102316	0.106146	0.057402	0.045015	0.127376	0.266750	0.079151	0.220251	0.182211	0.288075	0.086804	0.119451	0.284330	0.135853
33	0.089460	0.058167	0.326756	0.418823	0.107019	0.046222	0.385858	0.551184	0.079189	0.136942	0.216946	0.359114	0.063234	0.059161	0.186149	0.348011	0.133787	0.119413	0.142418	0.152513	0.019155	0.020387	0.133850	0.186222	0.026665	0.036387	0.181717	0.209367	0.082652	0.189159	0.410217	0.359913	0.087121	0.122731	0.254012	0.315314	0.037156	0.060406	0.357003	0.411294	0.046251	0.026305	0.186276	0.182225	0.064417	0.124803	0.278464	0.219082	0.074457	0.137642	0.171584	0.381634	0.054387	0.036282	0.331396	0.362747	0.058343	0.048378	0.098821	0.096399	0.055576	0.043048	0.110419	0.247299	0.079494	0.219105	0.192682	0.288124	0.096210	0.131594	0.288987	0.132132
34	0.081201	0.053041	0.323995	0.380694	0.114858	0.049182	0.415090	0.558350	0.087222	0.167681	0.242199	0.367441	0.063657	0.051250	0.189534	0.294341	0.156852	0.144276	0.152138	0.156230	0.030606	0.023281	0.134531	0.206451	0.026685	0.050349	0.180268	0.203984	0.090022	0.173876	0.392000	0.345006	0.097091	0.126235	0.273981	0.323504	0.040832	0.044012	0.376136	0.400112	0.039149	0.024630	0.219536	0.162057	0.051000	0.120716	0.287990	0.209124	0.080595	0.153472	0.285904	0.585327	0.057087	0.037767	0.328440	0.340263	0.082628	0.063248	0.097868	0.083934	0.052678	0.039186	0.097198	0.232232	0.079076	0.214614	0.182628	0.285208	0.117121	0.132237	0.308615	0.148201
35	0.076778	0.049137	0.329765	0.361164	0.115533	0.049342	0.419217	0.551793	0.093909	0.206894	0.261075	0.369298	0.063044	0.050176	0.172971	0.285535	0.159284	0.159001	0.151960	0.174815	0.061531	0.049914	0.161961	0.200250	0.026956	0.056962	0.177473	0.210902	0.089604	0.158882	0.330024	0.299382	0.109858	0.138858	0.276012	0.328730	0.043603	0.059172	0.388219	0.462234	0.035597	0.024870	0.234835	0.199012	0.051379	0.118535	0.265323	0.193632	0.085128	0.157919	0.434905	0.617161	0.062639	0.040998	0.317145	0.340863	0.095950	0.070603	0.098001	0.073684	0.045919	0.032038	0.083953	0.214395	0.079050	0.226174	0.160149	0.288050	0.119300	0.140495	0.371156	0.164711
36	0.075548	0.047530	0.334043	0.359637	0.115823	0.050373	0.415337	0.588569	0.095748	0.216616	0.272636	0.367851	0.043273	0.053287	0.159468	0.260842	0.169004	0.159785	0.149132	0.213753	0.090076	0.064948	0.176490	0.202908	0.027864	0.058190	0.185448	0.250606	0.068344	0.106821	0.317551	0.303014	0.110422	0.140446	0.278356	0.330805	0.040839	0.077975	0.404347	0.733023	0.035548	0.024463	0.231419	0.215797	0.062186	0.083386	0.243315	0.193196	0.087998	0.161526	0.562254	0.629038	0.060656	0.039871	0.341067	0.330320	0.097053	0.070759	0.096937	0.070512	0.036706	0.023202	0.073398	0.198342	0.075701	0.234697	0.177713	0.345294	0.127863	0.145257	0.393192	0.185564
37	0.074970	0.047073	0.325715	0.355837	0.115168	0.050553	0.413941	0.655330	0.095979	0.217362	0.282097	0.367831	0.026686	0.052579	0.162445	0.240214	0.172985	0.160093	0.150574	0.271432	0.097304	0.066656	0.180864	0.239967	0.027885	0.067668	0.192283	0.263092	0.066426	0.090783	0.240648	0.264023	0.120523	0.142924	0.299566	0.321064	0.037153	0.096919	0.381669	0.835580	0.036035	0.024096	0.226359	0.215118	0.058580	0.049933	0.223035	0.188238	0.104699	0.164785	0.647646	0.664310	0.055385	0.037583	0.384168	0.299560	0.104766	0.070028	0.105786	0.094326	0.032932	0.021405	0.061393	0.194511	0.067391	0.235491	0.255322	0.409014	0.130548	0.160077	0.391315	0.186063
38	0.074767	0.046060	0.322503	0.349707	0.113959	0.049613	0.406313	0.675888	0.100592	0.220577	0.284272	0.345703	0.033653	0.049230	0.159309	0.242438	0.175997	0.163312	0.172787	0.308310	0.099741	0.068427	0.181814	0.261124	0.028099	0.069762	0.195258	0.262806	0.065142	0.072911	0.143481	0.200222	0.157010	0.158131	0.341450	0.279797	0.038882	0.099590	0.378549	0.825966	0.037484	0.020613	0.234449	0.213512	0.063183	0.043930	0.226636	0.225022	0.108679	0.162000	0.679289	0.697721	0.054168	0.036924	0.412207	0.287055	0.115478	0.068908	0.163446	0.108779	0.035862	0.023890	0.059397	0.194917	0.071733	0.240797	0.333406	0.443053	0.139963	0.194452	0.384773	0.188477
39	0.073288	0.043545	0.319158	0.330333	0.111020	0.047895	0.393621	0.648361	0.110722	0.225735	0.278934	0.294641	0.031266	0.041647	0.149630	0.242589	0.179135	0.164424	0.201706	0.317680	0.106346	0.077028	0.199002	0.262612	0.028007	0.069741	0.212367	0.290421	0.064138	0.056381	0.115607	0.184498	0.177337	0.164502	0.365935	0.251822	0.038956	0.105503	0.418466	0.924975	0.042806	0.020701	0.256996	0.356203	0.060712	0.037910	0.207791	0.230178	0.108603	0.161112	0.679187	0.716281	0.054833	0.036770	0.414715	0.282638	0.120715	0.067595	0.229539	0.124025	0.053992	0.045490	0.057929	0.194561	0.086320	0.249034	0.353595	0.454793	0.138321	0.192865	0.352451	0.188514
40	0.070861	0.039130	0.302079	0.288232	0.102376	0.043156	0.355936	0.653910	0.114872	0.222470	0.282933	0.268758	0.029645	0.041865	0.161830	0.217030	0.182821	0.165932	0.212101	0.318435	0.106632	0.077744	0.222010	0.262676	0.026822	0.071854	0.257015	0.322976	0.055995	0.040402	0.127192	0.187176	0.183511	0.161727	0.370760	0.229142	0.039473	0.130040	0.421384	1.048188	0.042250	0.020584	0.246321	0.453896	0.060250	0.036183	0.194739	0.191888	0.111207	0.162560	0.700782	0.734336	0.059620	0.039968	0.406473	0.279995	0.121178	0.065452	0.274813	0.127976	0.076068	0.058159	0.053946	0.196579	0.086794	0.248729	0.350875	0.441545	0.116788	0.173583	0.332313	0.219244
41	0.070564	0.036184	0.270515	0.247085	0.098113	0.039210	0.338805	0.636899	0.114659	0.219653	0.298595	0.255728	0.029265	0.046635	0.175351	0.224380	0.192794	0.167667	0.214921	0.320180	0.107421	0.078209	0.229184	0.263026	0.036706	0.073982	0.296934	0.321665	0.052311	0.052945	0.134528	0.189886	0.183142	0.159980	0.373696	0.228123	0.048003	0.131634	0.398681	1.087231	0.047737	0.020417	0.249143	0.460098	0.060349	0.039949	0.190402	0.195198	0.118525	0.162033	0.768490	0.748513	0.059918	0.040647	0.411751	0.270625	0.120804	0.064513	0.285822	0.177228	0.080962	0.061510	0.052945	0.202899	0.088290	0.244606	0.348710	0.409967	0.111742	0.164596	0.379892	0.255776
42	0.070806	0.036023	0.250427	0.240960	0.096470	0.039651	0.331959	0.581840	0.114918	0.219534	0.320791	0.248193	0.031184	0.068094	0.173258	0.214439	0.200816	0.168547	0.214101	0.367188	0.109188	0.078219	0.228432	0.263256	0.044188	0.074363	0.311854	0.328076	0.037892	0.052492	0.152630	0.290006	0.180193	0.159725	0.373503	0.212123	0.054994	0.131085	0.402558	1.088671	0.051416	0.018694	0.287784	0.527796	0.064838	0.055130	0.233733	0.242420	0.139970	0.166220	0.824785	0.754985	0.052837	0.036509	0.437383	0.293866	0.120671	0.064644	0.298656	0.225371	0.082353	0.064070	0.053252	0.203790	0.090409	0.241481	0.365597	0.445538	0.087483	0.170509	0.402354	0.235054
43	0.068285	0.038423	0.264500	0.226769	0.079527	0.036953	0.328547	0.566453	0.110879	0.220829	0.339655	0.220676	0.034130	0.072603	0.176012	0.210119	0.204130	0.173244	0.235577	0.433624	0.109972	0.078122	0.235924	0.263221	0.048402	0.074708	0.314859	0.343785	0.036010	0.054976	0.246808	0.329414	0.173407	0.152383	0.381439	0.193158	0.055768	0.129806	0.406543	1.095863	0.052560	0.018318	0.307347	0.593259	0.055876	0.062028	0.237533	0.253488	0.157434	0.177819	0.868798	0.756793	0.046990	0.033200	0.443388	0.295105	0.122074	0.062869	0.331269	0.238476	0.090647	0.073790	0.064374	0.194144	0.090367	0.239650	0.422315	0.554205	0.086540	0.169337	0.350450	0.226654
44	0.064548	0.042809	0.299363	0.183767	0.062617	0.033395	0.484644	0.551817	0.103963	0.221619	0.349465	0.209425	0.033214	0.074017	0.157750	0.232986	0.203379	0.173780	0.318969	0.479971	0.109789	0.078090	0.261397	0.263290	0.049091	0.074475	0.317178	0.349064	0.034499	0.071275	0.268897	0.367100	0.170187	0.137052	0.388548	0.190664	0.052738	0.129066	0.393670	1.100429	0.054290	0.018684	0.317144	0.605764	0.058306	0.059834	0.254424	0.350446	0.167544	0.207962	0.917008	0.758991	0.046088	0.032785	0.437280	0.275936	0.123311	0.062808	0.369759	0.239861	0.094337	0.075440	0.072698	0.194284	0.087605	0.220798	0.489340	0.596994	0.073957	0.173346	0.320091	0.209183
45	0.067560	0.050763	0.334574	0.153446	0.074465	0.042584	0.569814	0.549455	0.100373	0.221130	0.357051	0.212411	0.034366	0.071450	0.161419	0.241173	0.202030	0.173398	0.422873	0.547501	0.109741	0.078161	0.275027	0.265821	0.050517	0.074734	0.311084	0.369315	0.037726	0.074532	0.339348	0.400450	0.169602	0.132497	0.373996	0.184764	0.049410	0.125295	0.383265	1.085129	0.061780	0.022097	0.302346	0.606461	0.055544	0.060748	0.290247	0.342421	0.169550	0.235853	0.952969	0.759611	0.045795	0.031205	0.429082	0.242450	0.124173	0.066278	0.416781	0.242839	0.094220	0.084560	0.074396	0.191587	0.085859	0.190652	0.519609	0.595959	0.075365	0.184810	0.336231	0.231855
46	0.074288	0.059122	0.446964	0.310006	0.084995	0.052048	0.573395	0.578651	0.101407	0.222536	0.369969	0.212909	0.039762	0.070531	0.166654	0.237200	0.199695	0.170423	0.482279	0.601445	0.110065	0.077860	0.273688	0.251630	0.050625	0.075054	0.304728	0.399802	0.047239	0.074553	0.445716	0.398202	0.175158	0.126738	0.354498	0.214393	0.050452	0.113433	0.373291	0.950254	0.068276	0.024288	0.295893	0.601841	0.055529	0.063616	0.318964	0.351882	0.168915	0.238527	0.970800	0.759484	0.046253	0.031161	0.435032	0.269962	0.127590	0.074318	0.440749	0.247584	0.097213	0.104792	0.072299	0.200311	0.083034	0.189277	0.520209	0.594939	0.060908	0.189208	0.367528	0.256540
47	0.088899	0.067731	0.606335	0.483483	0.088224	0.052303	0.592555	0.553457	0.100956	0.224960	0.380798	0.211882	0.039256	0.071194	0.163896	0.246643	0.194568	0.170404	0.501870	0.613379	0.108154	0.077590	0.276383	0.220407	0.050302	0.075065	0.299155	0.409851	0.054677	0.083062	0.465307	0.398365	0.175285	0.116539	0.342110	0.215309	0.051102	0.095405	0.380366	0.798926	0.076137	0.027988	0.321901	0.602527	0.058298	0.065293	0.383211	0.356879	0.164427	0.224160	0.973290	0.707763	0.040591	0.028496	0.446339	0.342141	0.128565	0.078766	0.444035	0.252231	0.100527	0.109235	0.084362	0.211631	0.081310	0.182887	0.528418	0.597560	0.062650	0.214163	0.381961	0.256915
48	0.105759	0.074458	0.736510	0.531292	0.093141	0.054454	0.652292	0.494364	0.100659	0.225159	0.380476	0.213399	0.034546	0.075863	0.166195	0.257774	0.181688	0.165835	0.500382	0.613554	0.095394	0.067875	0.283775	0.220567	0.051708	0.074991	0.297695	0.398871	0.057318	0.085910	0.464123	0.401264	0.170830	0.111235	0.331444	0.222883	0.049901	0.088454	0.382120	0.787756	0.080257	0.029433	0.336219	0.607623	0.056505	0.060770	0.550580	0.337976	0.159189	0.224369	0.955628	0.528899	0.040220	0.025953	0.433713	0.395942	0.116826	0.073834	0.444039	0.253611	0.100378	0.109239	0.114022	0.208190	0.082315	0.180148	0.585269	0.598339	0.075953	0.233154	0.366524	0.231935
49	0.113117	0.079735	0.812743	0.532882	0.096802	0.058390	0.697297	0.455917	0.099474	0.227604	0.375651	0.214758	0.050662	0.078268	0.177283	0.256179	0.161095	0.146194	0.496896	0.632795	0.077408	0.068188	0.283629	0.214825	0.052172	0.073193	0.309391	0.412704	0.064133	0.077875	0.462466	0.401230	0.168368	0.096646	0.344827	0.333584	0.051379	0.086288	0.340204	0.676651	0.080571	0.029408	0.338984	0.608263	0.045221	0.050323	0.611714	0.321362	0.156786	0.225613	0.905120	0.446632	0.040724	0.026732	0.425943	0.395334	0.102965	0.060730	0.443993	0.253740	0.100521	0.110067	0.140157	0.207638	0.083137	0.166291	0.633944	0.610845	0.091193	0.265634	0.318482	0.193174
50	0.111998	0.083067	0.830148	0.568152	0.102675	0.068014	0.726381	0.457622	0.094690	0.230230	0.365481	0.192082	0.059892	0.078330	0.168249	0.239626	0.143215	0.121582	0.495075	0.660374	0.071130	0.074349	0.281827	0.174320	0.053126	0.067190	0.333574	0.478026	0.075916	0.086265	0.473830	0.325601	0.169374	0.094633	0.362588	0.381325	0.054130	0.043155	0.294772	0.436536	0.077970	0.027958	0.325181	0.582847	0.043667	0.044899	0.614488	0.320786	0.155415	0.223779	0.833877	0.461999	0.039129	0.030534	0.464955	0.396412	0.099834	0.060229	0.443745	0.251201	0.106718	0.116884	0.143592	0.202220	0.083423	0.143862	0.641249	0.603401	0.106876	0.267066	0.278461	0.191048
51	0.115605	0.086495	0.826574	0.647939	0.107342	0.073371	0.729072	0.440007	0.088667	0.218804	0.356352	0.163241	0.066244	0.072731	0.161503	0.217432	0.141456	0.109852	0.494813	0.689288	0.069006	0.075858	0.281669	0.142070	0.054978	0.063286	0.365576	0.549014	0.076875	0.087506	0.461661	0.261140	0.160583	0.086162	0.363596	0.391158	0.053520	0.022831	0.318444	0.247417	0.075824	0.029945	0.313954	0.483807	0.038466	0.044570	0.618455	0.211813	0.147187	0.220692	0.782251	0.536122	0.038941	0.032895	0.477479	0.398337	0.095901	0.060046	0.442872	0.251904	0.112960	0.124388	0.145215	0.198384	0.083170	0.141443	0.620505	0.567990	0.111088	0.286703	0.294681	0.194587
52	0.116807	0.087159	0.843572	0.728912	0.109645	0.073955	0.729798	0.411321	0.082481	0.179723	0.342646	0.148365	0.065539	0.054131	0.159709	0.216443	0.126961	0.109526	0.494878	0.688507	0.058128	0.067474	0.271552	0.193633	0.055630	0.065372	0.394616	0.581754	0.076267	0.096206	0.448778	0.210209	0.123945	0.054390	0.327233	0.396204	0.051568	0.021667	0.374083	0.263127	0.073095	0.034472	0.316913	0.449249	0.046317	0.049345	0.639965	0.203298	0.144239	0.221213	0.774086	0.566132	0.039869	0.032035	0.477794	0.404019	0.082595	0.060347	0.438093	0.264321	0.115941	0.142398	0.166775	0.191552	0.080648	0.120181	0.591265	0.536874	0.110874	0.338314	0.292883	0.197970
53	0.130790	0.089667	0.910394	0.759284	0.111246	0.073407	0.726031	0.402620	0.079715	0.154026	0.334017	0.135457	0.065199	0.048034	0.151832	0.194896	0.123299	0.108951	0.492313	0.672366	0.058703	0.077961	0.254944	0.218311	0.059859	0.059015	0.434425	0.593143	0.074443	0.109604	0.420039	0.146649	0.097553	0.037061	0.311049	0.395928	0.060066	0.025599	0.406008	0.286442	0.068396	0.038349	0.286736	0.414317	0.053896	0.051393	0.676021	0.202556	0.157715	0.225299	0.782670	0.545982	0.034029	0.030327	0.477127	0.405680	0.071749	0.059681	0.431860	0.268041	0.110090	0.157200	0.176806	0.200449	0.063143	0.084513	0.596337	0.529845	0.108354	0.364949	0.264881	0.179741
54	0.144215	0.101213	1.006056	0.770188	0.109691	0.072290	0.680228	0.350978	0.081530	0.150019	0.346295	0.133707	0.065381	0.046391	0.151036	0.179655	0.120308	0.104087	0.486894	0.672387	0.063004	0.093744	0.246762	0.224786	0.068194	0.055305	0.480483	0.601463	0.068957	0.114563	0.298451	0.161593	0.083834	0.038116	0.351536	0.413626	0.064735	0.026895	0.404488	0.269376	0.068068	0.041411	0.255445	0.299185	0.054422	0.051653	0.623720	0.200536	0.175359	0.230427	0.779102	0.577922	0.037702	0.035907	0.462406	0.408729	0.067820	0.060034	0.414163	0.267875	0.096343	0.160947	0.196645	0.201658	0.053224	0.077016	0.620457	0.526918	0.106172	0.347464	0.208816	0.186314
55	0.154518	0.118163	1.112065	0.786697	0.103785	0.070396	0.532463	0.338139	0.079702	0.149263	0.378647	0.142547	0.065817	0.045258	0.133356	0.188539	0.118505	0.102770	0.484672	0.670901	0.064819	0.094911	0.250185	0.258666	0.079945	0.057788	0.509643	0.594849	0.064264	0.110183	0.252518	0.176367	0.078455	0.038378	0.444180	0.457543	0.081170	0.034959	0.431627	0.265311	0.068628	0.043037	0.265811	0.209418	0.059545	0.050997	0.497811	0.199651	0.180422	0.233710	0.726305	0.606878	0.043918	0.042948	0.441601	0.391632	0.067702	0.059515	0.408433	0.263873	0.099107	0.161193	0.238164	0.193912	0.054239	0.077606	0.630040	0.528048	0.098711	0.329706	0.192213	0.186165
56	0.166015	0.131268	1.175241	0.791317	0.088264	0.064195	0.469552	0.312845	0.068263	0.135068	0.426190	0.164453	0.063620	0.042801	0.137949	0.189154	0.110408	0.099521	0.484325	0.671413	0.069262	0.094804	0.257338	0.298920	0.085948	0.056309	0.514049	0.574330	0.060642	0.104948	0.257227	0.214742	0.081738	0.040009	0.526376	0.518702	0.082578	0.044062	0.436617	0.263424	0.063550	0.041874	0.295626	0.229126	0.064362	0.059777	0.485927	0.182571	0.168392	0.232059	0.654040	0.598889	0.051834	0.048057	0.435895	0.386978	0.067439	0.057919	0.413202	0.308352	0.106620	0.165205	0.256015	0.179761	0.048358	0.072969	0.624207	0.505556	0.091726	0.316795	0.192895	0.227984
57	0.172249	0.137317	1.192171	0.792903	0.085365	0.062528	0.468277	0.238536	0.053934	0.114364	0.479470	0.189961	0.063733	0.040696	0.138267	0.179173	0.092084	0.099020	0.500338	0.668246	0.072498	0.094745	0.237411	0.312308	0.085650	0.053622	0.493781	0.573427	0.054103	0.104343	0.304863	0.212822	0.091801	0.044392	0.554174	0.576599	0.084117	0.049685	0.419790	0.313913	0.055793	0.039889	0.295101	0.248185	0.065818	0.061944	0.489107	0.152396	0.147955	0.224684	0.596016	0.598222	0.057918	0.051151	0.434250	0.379023	0.067251	0.058647	0.392677	0.377197	0.099709	0.174303	0.256504	0.179136	0.048563	0.073116	0.609064	0.407281	0.073862	0.290091	0.203752	0.245499
58	0.173381	0.139260	1.192986	0.793596	0.080717	0.062746	0.425219	0.166679	0.051979	0.106915	0.518640	0.194135	0.064918	0.028722	0.138950	0.177681	0.080704	0.099218	0.543060	0.632463	0.082061	0.096022	0.220868	0.310944	0.082554	0.053307	0.487064	0.580609	0.032356	0.097533	0.313855	0.214340	0.097061	0.048063	0.553291	0.605163	0.085011	0.050570	0.407671	0.348052	0.045679	0.037508	0.269398	0.228513	0.064360	0.059295	0.459872	0.143981	0.139434	0.205123	0.523490	0.595854	0.058664	0.051719	0.409601	0.383075	0.066157	0.062850	0.362028	0.384201	0.096243	0.178251	0.256500	0.177728	0.046775	0.068668	0.567282	0.309949	0.058500	0.335262	0.207163	0.245457
59	0.173431	0.139605	1.195041	0.795931	0.076293	0.060966	0.324647	0.139950	0.051470	0.102849	0.532089	0.198708	0.056044	0.055886	0.129767	0.182031	0.074156	0.097518	0.559719	0.596702	0.092714	0.096059	0.240877	0.310382	0.079731	0.052949	0.515565	0.594149	0.039832	0.097448	0.282976	0.217055	0.098038	0.049625	0.550449	0.603082	0.085198	0.069662	0.411092	0.350780	0.033055	0.035086	0.243090	0.200725	0.054932	0.051301	0.386269	0.168579	0.136794	0.166802	0.446910	0.597357	0.058722	0.051628	0.380923	0.355156	0.067212	0.062323	0.308343	0.385465	0.096047	0.172902	0.258660	0.199411	0.044502	0.050240	0.533568	0.321213	0.067468	0.326120	0.220501	0.263877
60	0.173784	0.139467	1.198871	0.826930	0.066724	0.055705	0.218627	0.190469	0.048999	0.096733	0.533334	0.236675	0.048029	0.131327	0.123079	0.182450	0.076726	0.099263	0.526648	0.574626	0.099102	0.096265	0.258779	0.315791	0.083733	0.056705	0.553012	0.687970	0.045975	0.080026	0.269815	0.233655	0.091726	0.047955	0.551954	0.591848	0.083138	0.105793	0.425368	0.364223	0.051462	0.038689	0.233025	0.201370	0.052226	0.049885	0.318747	0.164193	0.137152	0.142222	0.399847	0.608700	0.057073	0.051043	0.365248	0.275560	0.061280	0.053575	0.275792	0.388033	0.092919	0.162434	0.267967	0.201956	0.047811	0.043535	0.525458	0.341277	0.079905	0.285813	0.253680	0.277007
61	0.176127	0.139103	1.199841	0.850892	0.053044	0.040369	0.119119	0.267238	0.054534	0.090066	0.527607	0.361431	0.041542	0.143759	0.117721	0.182388	0.077698	0.085449	0.473740	0.533278	0.102489	0.095065	0.244237	0.315180	0.092882	0.063720	0.621373	0.829696	0.045993	0.057317	0.262361	0.232228	0.094225	0.046389	0.560734	0.601807	0.091760	0.108032	0.411564	0.368487	0.080640	0.054781	0.232057	0.211300	0.047981	0.049718	0.314606	0.165900	0.139054	0.139563	0.390322	0.612353	0.053981	0.050498	0.363130	0.222521	0.048682	0.043177	0.299783	0.408465	0.091486	0.160634	0.302824	0.196679	0.056765	0.043026	0.521538	0.340284	0.086825	0.250701	0.253139	0.281466
62	0.179118	0.138614	1.195252	0.851915	0.047022	0.038276	0.090412	0.278928	0.059777	0.087203	0.527689	0.506685	0.040970	0.162235	0.115268	0.181110	0.074769	0.072649	0.437687	0.494924	0.098146	0.084654	0.238952	0.326145	0.105185	0.072516	0.708479	0.925583	0.045275	0.044560	0.271639	0.211918	0.091819	0.045504	0.570881	0.631729	0.133475	0.141215	0.365349	0.354084	0.082935	0.059248	0.231413	0.241910	0.041250	0.044609	0.242557	0.166354	0.140051	0.120142	0.388647	0.612215	0.053457	0.049303	0.310720	0.222206	0.042099	0.041235	0.331068	0.413602	0.091538	0.160615	0.355474	0.195816	0.056151	0.044930	0.499305	0.339865	0.087324	0.243488	0.254400	0.248961
63	0.177743	0.136731	1.190068	0.854735	0.044616	0.083748	0.094800	0.289418	0.064063	0.086982	0.597193	0.562384	0.041414	0.163288	0.115383	0.178629	0.071846	0.068870	0.421307	0.490933	0.093379	0.077319	0.237442	0.335714	0.116526	0.081762	0.777984	0.975738	0.047482	0.043222	0.277429	0.201112	0.084766	0.046462	0.572436	0.604682	0.141294	0.140908	0.296286	0.314387	0.085155	0.124326	0.234124	0.262571	0.033046	0.024450	0.163037	0.155846	0.140035	0.103637	0.399397	0.611987	0.053908	0.046528	0.186553	0.218268	0.044216	0.043178	0.340970	0.430717	0.090663	0.159735	0.384206	0.217369	0.059196	0.044707	0.454489	0.349233	0.096264	0.248471	0.243827	0.244757
64	0.175168	0.133685	1.160433	0.833783	0.051745	0.199406	0.107778	0.287188	0.072204	0.081183	0.695077	0.570512	0.043027	0.163850	0.117324	0.165136	0.071304	0.068643	0.421061	0.493640	0.093005	0.079054	0.237442	0.335927	0.123950	0.088696	0.810498	0.979786	0.048459	0.042404	0.270585	0.151213	0.091651	0.052468	0.574358	0.606660	0.172611	0.145868	0.288294	0.304175	0.095217	0.186464	0.232455	0.276836	0.037550	0.028511	0.180825	0.148261	0.139449	0.102234	0.403216	0.607983	0.055070	0.046803	0.135186	0.199549	0.048242	0.046206	0.342132	0.466078	0.082155	0.154623	0.386086	0.221009	0.068339	0.046985	0.442983	0.362317	0.100069	0.247640	0.241936	0.210055
65	0.169150	0.129973	1.087890	0.767140	0.061185	0.233250	0.115852	0.286162	0.079426	0.083037	0.778282	0.574719	0.044095	0.165166	0.114218	0.146459	0.074103	0.069453	0.421546	0.490757	0.094282	0.091146	0.251436	0.306024	0.134078	0.094445	0.829897	0.980325	0.048307	0.041589	0.221702	0.146492	0.101279	0.058085	0.569673	0.606728	0.175683	0.144905	0.244457	0.300221	0.096275	0.189618	0.231825	0.278776	0.043763	0.049161	0.201346	0.143988	0.140053	0.103694	0.378130	0.536759	0.054052	0.049391	0.160788	0.178522	0.048159	0.046589	0.343051	0.488017	0.074118	0.147444	0.384170	0.217597	0.070821	0.047826	0.442530	0.372983	0.099204	0.247059	0.252550	0.173510
66	0.158895	0.126026	1.001884	0.741814	0.077420	0.278335	0.114935	0.288420	0.082986	0.083486	0.829172	0.582489	0.047135	0.168955	0.103434	0.141052	0.085340	0.071292	0.421898	0.477323	0.096887	0.087364	0.300454	0.286987	0.141174	0.098168	0.830101	0.975183	0.047797	0.039956	0.186384	0.143269	0.105510	0.059053	0.567199	0.602894	0.175589	0.142888	0.222014	0.296232	0.095842	0.194946	0.220328	0.278703	0.055784	0.059889	0.179162	0.103978	0.138371	0.104720	0.299197	0.432984	0.057230	0.050887	0.183609	0.167808	0.047165	0.046356	0.340060	0.493142	0.067159	0.127227	0.375459	0.229994	0.073568	0.047863	0.447501	0.372170	0.097706	0.167540	0.290239	0.164177
67	0.150800	0.121664	0.936866	0.745681	0.084305	0.330954	0.111705	0.293386	0.082991	0.071865	0.855591	0.605425	0.047436	0.172829	0.107759	0.104729	0.088845	0.072052	0.422752	0.445759	0.096782	0.068641	0.348851	0.282689	0.143218	0.099381	0.817202	0.972767	0.038510	0.034487	0.195793	0.145170	0.105466	0.057548	0.566813	0.602144	0.174740	0.141644	0.250021	0.264036	0.101262	0.197770	0.162659	0.271567	0.075972	0.078092	0.204695	0.095206	0.127968	0.102868	0.261893	0.426364	0.056059	0.049315	0.194321	0.179837	0.048155	0.046072	0.315974	0.496085	0.063405	0.102871	0.371300	0.233717	0.072820	0.046947	0.441320	0.367181	0.081377	0.157612	0.271794	0.133486
68	0.151581	0.119297	0.919915	0.724936	0.101610	0.332704	0.100184	0.297481	0.083710	0.064436	0.863678	0.634511	0.043362	0.173720	0.111869	0.090961	0.090444	0.071289	0.422412	0.462102	0.096234	0.066048	0.378886	0.253865	0.143804	0.097994	0.804074	0.995892	0.029096	0.022922	0.192709	0.126819	0.106206	0.058545	0.543495	0.590777	0.175781	0.144336	0.343876	0.212318	0.101745	0.199033	0.123126	0.232379	0.075970	0.080859	0.199816	0.075596	0.104510	0.093403	0.256621	0.370878	0.052650	0.047299	0.194957	0.212484	0.055944	0.048291	0.291707	0.497848	0.063814	0.092217	0.358878	0.234517	0.071993	0.042657	0.435738	0.367174	0.067811	0.118181	0.238004	0.101060
69	0.151771	0.118569	0.925672	0.660515	0.105035	0.333075	0.090882	0.296234	0.082491	0.063886	0.865794	0.655341	0.037947	0.161587	0.135616	0.092373	0.090616	0.074079	0.422119	0.483374	0.095183	0.072194	0.377645	0.210350	0.145042	0.099452	0.807399	1.021285	0.029355	0.018400	0.194013	0.111823	0.116892	0.066451	0.462059	0.570902	0.179228	0.144074	0.422148	0.247345	0.101713	0.199781	0.121107	0.223729	0.076097	0.081221	0.201486	0.074265	0.080922	0.079699	0.253187	0.258807	0.050205	0.047441	0.191893	0.219480	0.071987	0.058360	0.281330	0.514468	0.051302	0.090554	0.333138	0.229054	0.070354	0.037726	0.423727	0.446189	0.058838	0.089040	0.245971	0.082888
70	0.152374	0.119331	0.915842	0.565983	0.107017	0.334422	0.088823	0.295592	0.078837	0.061729	0.866629	0.660476	0.038269	0.113995	0.142702	0.088454	0.090323	0.080168	0.416678	0.477014	0.092954	0.157460	0.374612	0.186392	0.147942	0.104754	0.848886	1.035282	0.033061	0.027725	0.210019	0.124367	0.117860	0.069478	0.371856	0.514686	0.189132	0.120515	0.427780	0.327745	0.101804	0.200204	0.120431	0.222287	0.076606	0.081608	0.193216	0.078590	0.080861	0.075106	0.256435	0.233499	0.048473	0.047529	0.182077	0.216555	0.074824	0.062987	0.278763	0.498709	0.032344	0.077110	0.321742	0.225535	0.070286	0.035655	0.421804	0.477208	0.058217	0.066424	0.256177	0.088477
71	0.141973	0.118076	0.852888	0.516384	0.107945	0.338662	0.102042	0.237474	0.078796	0.060280	0.876509	0.661066	0.037260	0.091742	0.151287	0.089164	0.090013	0.085944	0.409010	0.476205	0.093407	0.184758	0.377130	0.199350	0.154167	0.110454	0.913081	1.042115	0.032317	0.030877	0.215876	0.138078	0.110878	0.066476	0.333750	0.450655	0.193296	0.119568	0.417823	0.321022	0.099546	0.201053	0.135991	0.211157	0.076144	0.084539	0.211188	0.089222	0.087216	0.086201	0.259266	0.228992	0.050204	0.047737	0.187149	0.217500	0.074713	0.062370	0.282921	0.427680	0.031575	0.040483	0.322162	0.224054	0.072021	0.036038	0.418459	0.473678	0.053693	0.047333	0.255868	0.090512
72	0.129082	0.109776	0.742046	0.513136	0.109914	0.339852	0.113761	0.191578	0.079143	0.059601	0.902867	0.660158	0.038403	0.065730	0.175286	0.095972	0.097128	0.091552	0.404413	0.478169	0.108791	0.187700	0.385506	0.208754	0.157471	0.116120	0.982742	1.042724	0.035160	0.030794	0.217672	0.135256	0.109900	0.063770	0.355324	0.417423	0.167354	0.084357	0.467321	0.332525	0.082044	0.215536	0.154123	0.210425	0.074416	0.089898	0.204209	0.079817	0.085596	0.099598	0.253548	0.227010	0.051809	0.048022	0.203503	0.222616	0.074852	0.059424	0.288863	0.421226	0.032569	0.021126	0.321999	0.221320	0.080988	0.040267	0.415359	0.473983	0.043770	0.053012	0.254473	0.108043
73	0.118472	0.091945	0.578945	0.511940	0.112754	0.340266	0.113921	0.148708	0.082325	0.062038	0.939476	0.662868	0.035675	0.064724	0.199567	0.106628	0.100006	0.091853	0.368865	0.495812	0.127820	0.191105	0.411388	0.204932	0.161842	0.122185	1.045226	1.047073	0.036135	0.030999	0.220898	0.133426	0.108168	0.063484	0.376743	0.424485	0.161510	0.090194	0.534039	0.337719	0.071182	0.226656	0.211474	0.183487	0.064522	0.077860	0.190458	0.074680	0.079382	0.101297	0.251917	0.224695	0.053733	0.048743	0.209135	0.227754	0.075592	0.057465	0.294529	0.431820	0.036592	0.026420	0.320024	0.204050	0.084825	0.043535	0.423060	0.478252	0.063262	0.081429	0.241183	0.115209
74	0.103122	0.071146	0.446527	0.514831	0.110154	0.325456	0.109853	0.139044	0.090527	0.067385	0.967379	0.665860	0.044355	0.083289	0.213808	0.100752	0.099817	0.088020	0.308250	0.591583	0.131926	0.198926	0.451036	0.195958	0.170345	0.128760	1.073946	1.055753	0.034732	0.030861	0.213070	0.136053	0.110092	0.066222	0.377344	0.430024	0.132523	0.097209	0.572432	0.336224	0.072735	0.221557	0.252370	0.142310	0.041067	0.076449	0.174884	0.074759	0.082068	0.107633	0.240626	0.193401	0.054194	0.049516	0.211642	0.265609	0.074452	0.055273	0.289186	0.434087	0.041614	0.030390	0.310195	0.196033	0.082613	0.043432	0.425522	0.486014	0.091818	0.111096	0.176272	0.116378
75	0.093323	0.059359	0.410645	0.515399	0.108352	0.265181	0.107851	0.140162	0.096716	0.070928	0.970084	0.666378	0.050355	0.137413	0.215189	0.102041	0.099463	0.081333	0.303367	0.661583	0.190872	0.218610	0.470790	0.173120	0.175288	0.131465	1.064026	1.048511	0.033282	0.031127	0.189639	0.133678	0.112909	0.068011	0.388101	0.410947	0.114687	0.101775	0.576478	0.337588	0.069693	0.166131	0.248266	0.110984	0.088898	0.078096	0.243819	0.137712	0.098664	0.124053	0.224704	0.173851	0.055070	0.050346	0.231858	0.280008	0.073941	0.055465	0.259013	0.422869	0.043186	0.036263	0.267888	0.194826	0.076131	0.044782	0.424761	0.497874	0.091503	0.124749	0.146453	0.116034
76	0.094910	0.061005	0.411272	0.513619	0.101042	0.253633	0.151912	0.140892	0.100002	0.072396	0.965570	0.667881	0.051827	0.181882	0.213505	0.103424	0.097531	0.074633	0.324818	0.645073	0.242029	0.220393	0.471364	0.152478	0.174443	0.130424	1.047925	1.005816	0.032974	0.030388	0.188299	0.128788	0.112290	0.068494	0.400958	0.339589	0.111550	0.104471	0.575820	0.342676	0.062951	0.138585	0.267416	0.199896	0.114364	0.151053	0.330401	0.188523	0.147947	0.127122	0.217072	0.171921	0.054268	0.049835	0.273382	0.279127	0.074507	0.056558	0.230850	0.413830	0.045396	0.059542	0.205557	0.201421	0.080789	0.056264	0.403277	0.506885	0.099070	0.133088	0.150517	0.110226
77	0.099602	0.070593	0.405452	0.511937	0.102898	0.172685	0.212361	0.141701	0.105472	0.073710	0.957232	0.673220	0.082394	0.179700	0.205383	0.099124	0.096387	0.071205	0.362853	0.631604	0.269316	0.221408	0.475856	0.143435	0.170099	0.127604	1.029184	0.892438	0.032648	0.028775	0.191497	0.137833	0.111580	0.069449	0.403264	0.295593	0.111278	0.105447	0.564142	0.344662	0.063560	0.135917	0.273851	0.266500	0.118333	0.153412	0.351819	0.232585	0.219854	0.127907	0.205277	0.171952	0.054249	0.049687	0.296100	0.274544	0.073599	0.057110	0.202439	0.407192	0.047362	0.060874	0.236290	0.200768	0.086087	0.065143	0.364166	0.502413	0.107015	0.139548	0.175493	0.114578
78	0.099269	0.076098	0.397644	0.467436	0.100656	0.105217	0.232604	0.131716	0.107876	0.073851	0.957660	0.655776	0.088998	0.215929	0.190670	0.080339	0.096121	0.070813	0.376316	0.648233	0.281671	0.237117	0.472551	0.142528	0.163638	0.124052	0.996448	0.770728	0.030959	0.019527	0.149516	0.153047	0.103583	0.070803	0.403509	0.261475	0.109840	0.101551	0.529548	0.329667	0.058696	0.130860	0.273801	0.270340	0.117650	0.149829	0.416978	0.284023	0.293383	0.131558	0.179159	0.170095	0.053432	0.049497	0.299168	0.270535	0.074257	0.063261	0.207357	0.373631	0.049066	0.069886	0.314425	0.210234	0.082372	0.066708	0.336419	0.475522	0.106447	0.148022	0.189142	0.156915
79	0.096019	0.076316	0.398084	0.417758	0.086557	0.105951	0.238217	0.132090	0.104426	0.073089	0.965238	0.561473	0.088891	0.258100	0.184007	0.112767	0.095402	0.071200	0.384373	0.664514	0.280906	0.243749	0.443882	0.138322	0.157797	0.120919	0.956073	0.679054	0.029308	0.014642	0.124941	0.204517	0.095972	0.074144	0.430616	0.278173	0.104840	0.097541	0.456990	0.317008	0.051936	0.126341	0.275006	0.298970	0.118588	0.143912	0.485780	0.287553	0.421846	0.196027	0.173647	0.150840	0.054307	0.048635	0.301789	0.271769	0.074756	0.066579	0.240543	0.339119	0.049619	0.071387	0.386155	0.206180	0.081920	0.067523	0.333870	0.450832	0.102241	0.149748	0.186493	0.168669
80	0.091815	0.076025	0.402205	0.411242	0.085125	0.104625	0.238006	0.134137	0.102489	0.073654	0.947627	0.470103	0.096433	0.259580	0.195858	0.156176	0.093549	0.071919	0.384387	0.656994	0.287748	0.252679	0.406440	0.136698	0.152498	0.118731	0.926042	0.667272	0.026117	0.016137	0.138583	0.210465	0.103940	0.087450	0.461066	0.289725	0.090029	0.093322	0.439076	0.193000	0.053137	0.123939	0.300101	0.368404	0.120632	0.140863	0.496138	0.297579	0.495259	0.214387	0.171594	0.117248	0.066663	0.054226	0.303180	0.261247	0.074946	0.068924	0.272287	0.316179	0.049656	0.072196	0.423687	0.208634	0.081761	0.068365	0.329840	0.444200	0.101591	0.147978	0.190171	0.158957
81	0.093026	0.077785	0.410920	0.404143	0.084421	0.097377	0.244188	0.134330	0.097246	0.073355	0.878626	0.446016	0.102502	0.259646	0.198727	0.173325	0.088205	0.070811	0.390131	0.635302	0.310652	0.358134	0.374712	0.136330	0.147172	0.117083	0.904403	0.661668	0.030448	0.022577	0.144018	0.214508	0.113623	0.096629	0.464830	0.290350	0.066783	0.087186	0.436955	0.146820	0.055623	0.124467	0.367805	0.399401	0.145288	0.147384	0.486492	0.302847	0.503361	0.214315	0.165721	0.116878	0.072301	0.058684	0.308553	0.246270	0.075475	0.072646	0.287695	0.299815	0.052033	0.074374	0.427404	0.228737	0.081149	0.068374	0.314064	0.444074	0.094750	0.133213	0.202996	0.153538
82	0.098075	0.082278	0.412040	0.374602	0.084970	0.081312	0.258345	0.129634	0.090304	0.070857	0.798132	0.454079	0.102585	0.260243	0.179457	0.222178	0.084542	0.069894	0.389688	0.620551	0.316245	0.412770	0.366629	0.126592	0.140346	0.114663	0.892561	0.633809	0.032423	0.024368	0.136115	0.223330	0.114001	0.097273	0.458266	0.278397	0.063944	0.086453	0.388168	0.125214	0.065280	0.131992	0.421018	0.413338	0.130186	0.310898	0.448510	0.259586	0.542227	0.239029	0.216231	0.141152	0.072387	0.058490	0.310769	0.251652	0.076549	0.074111	0.294111	0.338243	0.053352	0.076928	0.442905	0.234483	0.082741	0.069995	0.284115	0.443881	0.063997	0.109120	0.224655	0.153013
83	0.103163	0.086285	0.409572	0.327419	0.080076	0.076672	0.270561	0.126220	0.087480	0.067408	0.728824	0.452177	0.104111	0.260302	0.165834	0.250615	0.084756	0.071786	0.390521	0.610172	0.316083	0.405157	0.374201	0.133162	0.136939	0.111393	0.891728	0.582360	0.032102	0.024228	0.141139	0.236894	0.105286	0.095237	0.471097	0.257614	0.060642	0.077183	0.288701	0.105873	0.070290	0.126919	0.451299	0.417890	0.135439	0.346974	0.397579	0.244462	0.585585	0.280358	0.329031	0.160738	0.071440	0.057788	0.307670	0.254901	0.061373	0.068387	0.296720	0.342993	0.053602	0.077211	0.490523	0.233565	0.091300	0.075240	0.276705	0.376639	0.064655	0.097508	0.243041	0.152689
84	0.105676	0.088566	0.409557	0.281140	0.077998	0.071839	0.272731	0.136000	0.085379	0.063945	0.683775	0.431373	0.098259	0.250937	0.166726	0.251258	0.085570	0.073703	0.398439	0.588810	0.316179	0.399380	0.406822	0.118311	0.135171	0.110318	0.891141	0.492401	0.031795	0.023856	0.175891	0.267084	0.102614	0.095311	0.536661	0.312931	0.043863	0.057306	0.204404	0.108955	0.066774	0.091093	0.440794	0.421443	0.157897	0.456850	0.385225	0.176953	0.625954	0.308132	0.386242	0.190813	0.071394	0.057789	0.311853	0.240109	0.056357	0.061958	0.321317	0.309214	0.059680	0.079927	0.537987	0.235049	0.104938	0.078536	0.281841	0.327892	0.055597	0.086303	0.243669	0.146856
85	0.109969	0.091116	0.407840	0.261222	0.078376	0.069828	0.273863	0.165584	0.086025	0.064280	0.671558	0.391303	0.096870	0.224415	0.172998	0.250382	0.083976	0.071928	0.413762	0.571963	0.311565	0.405140	0.428386	0.119816	0.133560	0.108925	0.879119	0.392915	0.033487	0.024023	0.206454	0.257053	0.101898	0.097521	0.686968	0.371661	0.040573	0.045852	0.217047	0.198123	0.065732	0.072579	0.446487	0.450088	0.183641	0.457316	0.244697	0.117992	0.715506	0.325211	0.409929	0.195256	0.069802	0.057317	0.308000	0.232664	0.056340	0.061449	0.343011	0.308641	0.071733	0.085484	0.573602	0.237316	0.116328	0.083335	0.277811	0.346528	0.030006	0.122625	0.211689	0.141712
86	0.108173	0.090431	0.400417	0.257138	0.078354	0.058118	0.263928	0.168390	0.087523	0.065198	0.667105	0.344934	0.091668	0.193910	0.184741	0.252183	0.081614	0.067869	0.416989	0.569887	0.304987	0.407662	0.404062	0.178505	0.128427	0.103710	0.826845	0.327968	0.036304	0.024752	0.212353	0.281388	0.099260	0.106334	0.814236	0.374723	0.042859	0.041290	0.268579	0.245075	0.068352	0.071099	0.468905	0.465504	0.184156	0.458818	0.136957	0.148442	0.786348	0.329526	0.412487	0.267752	0.069100	0.056897	0.306559	0.229243	0.053441	0.061154	0.359744	0.299342	0.079299	0.087586	0.592015	0.235701	0.116158	0.086058	0.254868	0.344570	0.029101	0.132065	0.178980	0.091723
87	0.103537	0.087201	0.389615	0.260192	0.078130	0.055846	0.232123	0.167393	0.088503	0.063805	0.667101	0.321880	0.067150	0.193139	0.186133	0.253384	0.078590	0.061493	0.416184	0.569836	0.303081	0.406201	0.358336	0.190995	0.115147	0.095821	0.737947	0.289103	0.033901	0.023520	0.250293	0.280438	0.098237	0.131148	0.894836	0.396594	0.045098	0.040720	0.353022	0.382325	0.066636	0.070515	0.470737	0.455263	0.182749	0.459297	0.158229	0.130500	0.797624	0.328495	0.420670	0.361155	0.068438	0.056202	0.308675	0.188113	0.048647	0.059629	0.363365	0.296015	0.078089	0.085092	0.598896	0.235656	0.112498	0.084634	0.248395	0.323980	0.026571	0.146359	0.195508	0.074337
88	0.100805	0.084728	0.380269	0.267783	0.062099	0.040040	0.184051	0.164019	0.088066	0.062728	0.659343	0.317467	0.060584	0.133228	0.191735	0.253272	0.068530	0.053419	0.415769	0.568406	0.272917	0.396134	0.334887	0.200977	0.102289	0.087384	0.623182	0.278714	0.037525	0.024564	0.310210	0.273747	0.108843	0.153494	0.909062	0.450618	0.057069	0.047046	0.378099	0.526320	0.067242	0.068519	0.463036	0.411787	0.157663	0.459127	0.170258	0.159647	0.799955	0.329112	0.468077	0.409668	0.069014	0.056559	0.296459	0.182220	0.048151	0.059222	0.362157	0.303310	0.074442	0.083873	0.601952	0.232885	0.112980	0.084419	0.260402	0.294454	0.025034	0.155060	0.225627	0.095618
89	0.100584	0.084463	0.381717	0.268766	0.048812	0.025587	0.167330	0.166381	0.085373	0.062564	0.625080	0.318890	0.060374	0.045559	0.195123	0.239361	0.060702	0.049434	0.416422	0.538368	0.226694	0.394461	0.334496	0.260790	0.093437	0.078058	0.492259	0.273899	0.047178	0.020679	0.336428	0.270617	0.124648	0.167472	0.900731	0.484176	0.061257	0.049592	0.390133	0.562753	0.068133	0.066727	0.473341	0.416378	0.147390	0.344601	0.167127	0.165194	0.798470	0.335942	0.516044	0.425775	0.071787	0.057559	0.260457	0.189642	0.048212	0.059769	0.362342	0.298227	0.072960	0.079825	0.601734	0.230140	0.113243	0.083555	0.263572	0.264322	0.029319	0.156851	0.244578	0.165009
90	0.098595	0.084207	0.379181	0.248115	0.047678	0.018820	0.166596	0.179711	0.084803	0.061395	0.572902	0.317159	0.043948	0.045659	0.184712	0.207888	0.057693	0.048523	0.403985	0.405840	0.192266	0.393876	0.342152	0.312651	0.077530	0.065727	0.397649	0.222994	0.082712	0.020661	0.337561	0.264269	0.124352	0.169741	0.908725	0.496952	0.078994	0.060394	0.474886	0.566238	0.069192	0.066957	0.486117	0.417268	0.121720	0.273192	0.160067	0.166674	0.793166	0.348331	0.555813	0.432705	0.071268	0.055751	0.229552	0.191060	0.048045	0.058760	0.369142	0.290308	0.072079	0.066871	0.590467	0.226597	0.110607	0.075885	0.262246	0.246023	0.034643	0.158923	0.230763	0.176356
91	0.096389	0.084001	0.366241	0.192350	0.047988	0.017749	0.166452	0.225798	0.081876	0.057590	0.510161	0.308074	0.031929	0.045665	0.173179	0.198425	0.058479	0.049508	0.362790	0.319471	0.170269	0.383835	0.366655	0.330267	0.063369	0.058272	0.382084	0.210536	0.101084	0.022152	0.359503	0.251149	0.124809	0.168745	0.934093	0.499634	0.085759	0.066958	0.566150	0.588157	0.072536	0.067235	0.483056	0.378244	0.084620	0.125427	0.159037	0.168218	0.778155	0.356837	0.581402	0.437600	0.070219	0.053585	0.204666	0.185387	0.050108	0.058190	0.388998	0.289801	0.071211	0.065405	0.559872	0.218234	0.106013	0.068736	0.270453	0.238728	0.041528	0.158211	0.211342	0.287711
92	0.096945	0.084705	0.334878	0.148694	0.043051	0.017489	0.146568	0.234612	0.078636	0.052714	0.480468	0.295356	0.034137	0.042110	0.173359	0.120462	0.063477	0.052191	0.300793	0.312465	0.169459	0.380107	0.409720	0.334357	0.062096	0.058017	0.379223	0.217079	0.155141	0.033303	0.396291	0.233328	0.125311	0.166406	0.940045	0.496434	0.089092	0.071315	0.616986	0.608949	0.070876	0.066575	0.459321	0.427550	0.077898	0.133580	0.157997	0.158358	0.759502	0.360031	0.599373	0.438257	0.063631	0.049721	0.190286	0.171751	0.048395	0.051854	0.414326	0.287641	0.070245	0.055783	0.521038	0.207588	0.102083	0.068466	0.303483	0.239178	0.054571	0.156945	0.205328	0.360972
93	0.101629	0.085561	0.305528	0.136461	0.042701	0.019000	0.107569	0.231659	0.080910	0.051649	0.470503	0.285812	0.032935	0.046596	0.156987	0.065719	0.070110	0.055167	0.227515	0.277900	0.161288	0.379324	0.451943	0.334716	0.063275	0.058441	0.357847	0.216536	0.173045	0.038334	0.447058	0.229139	0.122660	0.162764	0.925071	0.554237	0.091515	0.074617	0.637812	0.615014	0.070075	0.058798	0.478375	0.522428	0.156974	0.177115	0.163727	0.164848	0.707584	0.340009	0.609876	0.438302	0.050859	0.038785	0.179132	0.157759	0.044501	0.046159	0.449700	0.288763	0.070868	0.054455	0.469914	0.205033	0.100196	0.068934	0.325894	0.238891	0.058022	0.130847	0.214049	0.372328
94	0.107426	0.083592	0.300269	0.137927	0.044250	0.022436	0.093911	0.247662	0.084351	0.053102	0.468914	0.279186	0.041805	0.059174	0.142653	0.060350	0.073815	0.056916	0.194583	0.219406	0.111195	0.293520	0.474442	0.338470	0.062002	0.056819	0.305898	0.217618	0.173430	0.041803	0.459268	0.205136	0.111633	0.155436	0.912024	0.789144	0.092142	0.075040	0.633354	0.615967	0.060671	0.035724	0.526738	0.523157	0.194526	0.246657	0.158259	0.162993	0.654471	0.323401	0.615316	0.438777	0.040411	0.027284	0.178333	0.142655	0.043467	0.045562	0.458293	0.300006	0.071878	0.054303	0.441473	0.179460	0.097951	0.068697	0.331132	0.242003	0.060710	0.104000	0.237103	0.374119
95	0.105072	0.075760	0.300857	0.139778	0.042515	0.021076	0.124327	0.240265	0.080638	0.053112	0.465092	0.250835	0.044327	0.070894	0.130991	0.060195	0.077110	0.056603	0.181401	0.174108	0.087594	0.201496	0.481040	0.342815	0.057013	0.051396	0.240224	0.207013	0.174452	0.042005	0.475384	0.130598	0.103222	0.151339	0.908333	0.864453	0.089349	0.072998	0.620920	0.604507	0.072358	0.036638	0.587215	0.530910	0.208225	0.293589	0.151723	0.138033	0.644026	0.322337	0.614182	0.432409	0.034360	0.022159	0.195405	0.124525	0.041527	0.042030	0.469317	0.308649	0.069736	0.052399	0.439414	0.136682	0.098049	0.069315	0.327113	0.270479	0.060610	0.078391	0.249866	0.387278
96	0.105892	0.069598	0.291121	0.139854	0.041846	0.025828	0.144231	0.226473	0.084109	0.054959	0.452872	0.249479	0.057022	0.079265	0.120130	0.050436	0.079401	0.055079	0.175683	0.165653	0.089734	0.171197	0.476766	0.342856	0.052916	0.043719	0.212781	0.181022	0.184460	0.048077	0.490639	0.140566	0.100923	0.149421	0.908369	0.871513	0.086085	0.070745	0.607304	0.572506	0.079005	0.044969	0.595866	0.520105	0.212025	0.291298	0.153653	0.133803	0.628350	0.314945	0.599375	0.423825	0.033842	0.023026	0.252081	0.120876	0.040399	0.042553	0.463371	0.277698	0.068840	0.051934	0.419371	0.122760	0.098354	0.068605	0.312353	0.301695	0.060812	0.057180	0.236852	0.390257
97	0.106093	0.068673	0.263373	0.136043	0.036988	0.028455	0.165488	0.223268	0.099937	0.062352	0.455376	0.273548	0.073799	0.101645	0.118605	0.045698	0.078816	0.054412	0.164096	0.150316	0.086117	0.151738	0.450030	0.342012	0.044970	0.034298	0.206812	0.173196	0.190822	0.050862	0.477342	0.177643	0.101055	0.147838	0.903805	0.929935	0.084871	0.068934	0.573978	0.523695	0.076365	0.047013	0.566785	0.504393	0.212648	0.291181	0.153959	0.133948	0.587081	0.282209	0.551804	0.416789	0.040025	0.028403	0.281534	0.127448	0.039745	0.048750	0.463039	0.224056	0.067813	0.056202	0.358573	0.123790	0.094193	0.065923	0.308223	0.316174	0.059035	0.051852	0.208156	0.365404
98	0.102049	0.068339	0.233864	0.131471	0.033846	0.029014	0.176874	0.223018	0.109321	0.068334	0.477924	0.290157	0.076287	0.114471	0.098169	0.045773	0.077520	0.054057	0.163217	0.133677	0.074398	0.132861	0.411871	0.336558	0.038048	0.027750	0.208173	0.165628	0.179746	0.050195	0.479342	0.206852	0.104074	0.145934	0.860093	0.986389	0.080787	0.066101	0.555856	0.365193	0.072043	0.049694	0.593668	0.500304	0.211918	0.286271	0.152191	0.174596	0.545351	0.250279	0.523498	0.415700	0.052642	0.033607	0.284888	0.133053	0.039602	0.053703	0.455372	0.231324	0.059926	0.064336	0.283902	0.120694	0.095922	0.069878	0.356598	0.301525	0.054103	0.043838	0.200512	0.359350
99	0.098860	0.066485	0.193980	0.128000	0.033750	0.028772	0.176952	0.220822	0.114143	0.071641	0.500441	0.296421	0.083256	0.136271	0.065581	0.048228	0.075438	0.052811	0.158531	0.115044	0.061838	0.129332	0.389865	0.306135	0.037402	0.026878	0.208722	0.160891	0.179353	0.051850	0.471414	0.231430	0.110735	0.145912	0.734097	1.018375	0.077027	0.065730	0.556091	0.267773	0.068892	0.053535	0.653487	0.497568	0.193866	0.282673	0.158264	0.187263	0.457342	0.224531	0.532496	0.478201	0.060400	0.035254	0.294642	0.123201	0.041849	0.054718	0.461214	0.233295	0.044321	0.079023	0.206366	0.117138	0.095258	0.073441	0.437852	0.273054	0.048445	0.042373	0.205329	0.297448
100	0.094259	0.061051	0.163292	0.123088	0.033606	0.028725	0.176812	0.214881	0.116334	0.072493	0.506963	0.298619	0.087207	0.156683	0.054164	0.043903	0.077663	0.050478	0.127602	0.085968	0.058700	0.135483	0.375852	0.295114	0.039229	0.027086	0.209836	0.163630	0.151389	0.047936	0.434654	0.283620	0.118072	0.146898	0.623485	1.032189	0.064388	0.061307	0.504038	0.265155	0.068398	0.054777	0.698061	0.504202	0.144560	0.222618	0.158440	0.212897	0.263127	0.206345	0.582241	0.516838	0.062263	0.035054	0.309678	0.126640	0.048626	0.055683	0.468797	0.234979	0.031735	0.078001	0.152309	0.116406	0.088503	0.071648	0.477851	0.280457	0.037574	0.039478	0.230946	0.196201
101	0.089077	0.054046	0.169194	0.129945	0.032787	0.028743	0.176642	0.187835	0.116545	0.072350	0.505319	0.300318	0.087222	0.157339	0.058859	0.043593	0.080683	0.046765	0.067313	0.066977	0.058741	0.142825	0.364614	0.290643	0.040151	0.027031	0.207098	0.151264	0.124821	0.045106	0.363904	0.291974	0.131064	0.141960	0.587745	1.018571	0.048497	0.051395	0.388702	0.226012	0.076130	0.058942	0.711070	0.516138	0.072819	0.139107	0.126158	0.212335	0.200336	0.204699	0.620671	0.462465	0.060613	0.034336	0.314807	0.117196	0.053358	0.057841	0.459711	0.242176	0.035928	0.095228	0.133538	0.111802	0.086794	0.071772	0.490096	0.303734	0.031929	0.031235	0.247055	0.167242
