	213_C_T1_sh_ND_01.c3d	213_C_T1_sh_ND_01.c3d	213_C_T1_sh_ND_01.c3d	213_C_T1_sh_ND_01.c3d	213_C_T1_sh_ND_01.c3d	213_C_T1_sh_ND_01.c3d	213_C_T1_sh_ND_01.c3d	213_C_T1_sh_ND_01.c3d	213_C_T1_sh_ND_03.c3d	213_C_T1_sh_ND_03.c3d	213_C_T1_sh_ND_03.c3d	213_C_T1_sh_ND_03.c3d	213_C_T1_sh_ND_03.c3d	213_C_T1_sh_ND_03.c3d	213_C_T1_sh_ND_03.c3d	213_C_T1_sh_ND_03.c3d	213_C_T1_sh_ND_04.c3d	213_C_T1_sh_ND_04.c3d	213_C_T1_sh_ND_04.c3d	213_C_T1_sh_ND_04.c3d	213_C_T1_sh_ND_04.c3d	213_C_T1_sh_ND_04.c3d	213_C_T1_sh_ND_04.c3d	213_C_T1_sh_ND_04.c3d	213_C_T1_sh_ND_05.c3d	213_C_T1_sh_ND_05.c3d	213_C_T1_sh_ND_05.c3d	213_C_T1_sh_ND_05.c3d	213_C_T1_sh_ND_05.c3d	213_C_T1_sh_ND_05.c3d	213_C_T1_sh_ND_05.c3d	213_C_T1_sh_ND_05.c3d	213_C_T1_sh_ND_06.c3d	213_C_T1_sh_ND_06.c3d	213_C_T1_sh_ND_06.c3d	213_C_T1_sh_ND_06.c3d	213_C_T1_sh_ND_06.c3d	213_C_T1_sh_ND_06.c3d	213_C_T1_sh_ND_06.c3d	213_C_T1_sh_ND_06.c3d	213_C_T1_sh_ND_07.c3d	213_C_T1_sh_ND_07.c3d	213_C_T1_sh_ND_07.c3d	213_C_T1_sh_ND_07.c3d	213_C_T1_sh_ND_07.c3d	213_C_T1_sh_ND_07.c3d	213_C_T1_sh_ND_07.c3d	213_C_T1_sh_ND_07.c3d	213_C_T1_sh_ND_08.c3d	213_C_T1_sh_ND_08.c3d	213_C_T1_sh_ND_08.c3d	213_C_T1_sh_ND_08.c3d	213_C_T1_sh_ND_08.c3d	213_C_T1_sh_ND_08.c3d	213_C_T1_sh_ND_08.c3d	213_C_T1_sh_ND_08.c3d	213_C_T1_sh_ND_09.c3d	213_C_T1_sh_ND_09.c3d	213_C_T1_sh_ND_09.c3d	213_C_T1_sh_ND_09.c3d	213_C_T1_sh_ND_09.c3d	213_C_T1_sh_ND_09.c3d	213_C_T1_sh_ND_09.c3d	213_C_T1_sh_ND_09.c3d	213_C_T1_sh_ND_10.c3d	213_C_T1_sh_ND_10.c3d	213_C_T1_sh_ND_10.c3d	213_C_T1_sh_ND_10.c3d	213_C_T1_sh_ND_10.c3d	213_C_T1_sh_ND_10.c3d	213_C_T1_sh_ND_10.c3d	213_C_T1_sh_ND_10.c3d
	Biceps femoris_lat	Semitendinosus_lat	Vastus lateralis_lat	Vastus medialis_lat	Biceps femoris_med	Semitendinosus_med	Vastus lateralis_med	Vastus medialis_med	Biceps femoris_lat	Semitendinosus_lat	Vastus lateralis_lat	Vastus medialis_lat	Biceps femoris_med	Semitendinosus_med	Vastus lateralis_med	Vastus medialis_med	Biceps femoris_lat	Semitendinosus_lat	Vastus lateralis_lat	Vastus medialis_lat	Biceps femoris_med	Semitendinosus_med	Vastus lateralis_med	Vastus medialis_med	Biceps femoris_lat	Semitendinosus_lat	Vastus lateralis_lat	Vastus medialis_lat	Biceps femoris_med	Semitendinosus_med	Vastus lateralis_med	Vastus medialis_med	Biceps femoris_lat	Semitendinosus_lat	Vastus lateralis_lat	Vastus medialis_lat	Biceps femoris_med	Semitendinosus_med	Vastus lateralis_med	Vastus medialis_med	Biceps femoris_lat	Semitendinosus_lat	Vastus lateralis_lat	Vastus medialis_lat	Biceps femoris_med	Semitendinosus_med	Vastus lateralis_med	Vastus medialis_med	Biceps femoris_lat	Semitendinosus_lat	Vastus lateralis_lat	Vastus medialis_lat	Biceps femoris_med	Semitendinosus_med	Vastus lateralis_med	Vastus medialis_med	Biceps femoris_lat	Semitendinosus_lat	Vastus lateralis_lat	Vastus medialis_lat	Biceps femoris_med	Semitendinosus_med	Vastus lateralis_med	Vastus medialis_med	Biceps femoris_lat	Semitendinosus_lat	Vastus lateralis_lat	Vastus medialis_lat	Biceps femoris_med	Semitendinosus_med	Vastus lateralis_med	Vastus medialis_med
	P2D	P2D	P2D	P2D	P2D	P2D	P2D	P2D	P2D	P2D	P2D	P2D	P2D	P2D	P2D	P2D	P2D	P2D	P2D	P2D	P2D	P2D	P2D	P2D	P2D	P2D	P2D	P2D	P2D	P2D	P2D	P2D	P2D	P2D	P2D	P2D	P2D	P2D	P2D	P2D	P2D	P2D	P2D	P2D	P2D	P2D	P2D	P2D	P2D	P2D	P2D	P2D	P2D	P2D	P2D	P2D	P2D	P2D	P2D	P2D	P2D	P2D	P2D	P2D	P2D	P2D	P2D	P2D	P2D	P2D	P2D	P2D
	EMG_lat	EMG_lat	EMG_lat	EMG_lat	EMG_med	EMG_med	EMG_med	EMG_med	EMG_lat	EMG_lat	EMG_lat	EMG_lat	EMG_med	EMG_med	EMG_med	EMG_med	EMG_lat	EMG_lat	EMG_lat	EMG_lat	EMG_med	EMG_med	EMG_med	EMG_med	EMG_lat	EMG_lat	EMG_lat	EMG_lat	EMG_med	EMG_med	EMG_med	EMG_med	EMG_lat	EMG_lat	EMG_lat	EMG_lat	EMG_med	EMG_med	EMG_med	EMG_med	EMG_lat	EMG_lat	EMG_lat	EMG_lat	EMG_med	EMG_med	EMG_med	EMG_med	EMG_lat	EMG_lat	EMG_lat	EMG_lat	EMG_med	EMG_med	EMG_med	EMG_med	EMG_lat	EMG_lat	EMG_lat	EMG_lat	EMG_med	EMG_med	EMG_med	EMG_med	EMG_lat	EMG_lat	EMG_lat	EMG_lat	EMG_med	EMG_med	EMG_med	EMG_med
ITEM	Y	Y	Y	Y	Y	Y	Y	Y	Y	Y	Y	Y	Y	Y	Y	Y	Y	Y	Y	Y	Y	Y	Y	Y	Y	Y	Y	Y	Y	Y	Y	Y	Y	Y	Y	Y	Y	Y	Y	Y	Y	Y	Y	Y	Y	Y	Y	Y	Y	Y	Y	Y	Y	Y	Y	Y	Y	Y	Y	Y	Y	Y	Y	Y	Y	Y	Y	Y	Y	Y	Y	Y
1	0.104023	0.066181	0.086700	0.269586	0.061905	0.104823	0.147386	0.235149	0.131377	0.090342	0.109490	0.567959	0.440191	0.136788	0.145835	0.140877	0.059443	0.070868	0.273983	0.396633	0.054500	0.228147	0.104845	0.226505	0.148600	0.387847	0.102751	0.281215	0.111108	0.047228	0.101658	0.295988	0.116377	0.154377	0.197620	0.367097	0.093059	0.073261	0.190551	0.502825	0.143771	0.094846	0.076821	0.439231	0.149135	0.161229	0.164911	0.211405	0.093903	0.155075	0.096433	0.226551	0.095069	0.189163	0.083401	0.204877	0.094495	0.156251	0.131281	0.190883	0.042166	0.049217	0.108030	0.169216	0.064217	0.045991	0.217812	0.296421	0.115298	0.152231	0.222412	0.317965
2	0.093853	0.058712	0.094865	0.261363	0.061845	0.098225	0.150498	0.235069	0.125949	0.091360	0.103794	0.579448	0.434486	0.135057	0.137965	0.160028	0.071215	0.062091	0.272809	0.406262	0.057085	0.228044	0.108812	0.209437	0.149398	0.356701	0.100808	0.280754	0.074347	0.053790	0.128710	0.314085	0.117243	0.154010	0.190870	0.364902	0.094819	0.075638	0.193127	0.538899	0.139663	0.094661	0.073323	0.418426	0.147189	0.169567	0.170244	0.235064	0.074224	0.141011	0.121795	0.221915	0.092427	0.182814	0.092237	0.188273	0.097740	0.143190	0.130497	0.178798	0.042721	0.042276	0.120107	0.170071	0.063259	0.043166	0.241578	0.307508	0.112650	0.152009	0.222157	0.301365
3	0.084169	0.055692	0.104292	0.288375	0.063319	0.078495	0.172428	0.226478	0.127172	0.091863	0.103385	0.597057	0.435629	0.121404	0.137299	0.208579	0.074373	0.056224	0.266438	0.397751	0.057441	0.231621	0.114207	0.197878	0.143592	0.284640	0.099991	0.278967	0.045893	0.053270	0.126116	0.347787	0.120288	0.154097	0.189664	0.337872	0.095938	0.085898	0.210753	0.567345	0.138777	0.095275	0.098504	0.375853	0.134287	0.161206	0.177136	0.274380	0.077047	0.122205	0.166390	0.217139	0.091367	0.144273	0.100027	0.179549	0.093525	0.126742	0.152879	0.177276	0.042699	0.038062	0.123154	0.188702	0.064470	0.040594	0.246330	0.326566	0.109023	0.149260	0.206174	0.279812
4	0.083418	0.050264	0.146354	0.302026	0.062406	0.071942	0.167940	0.220273	0.127356	0.090881	0.099879	0.609806	0.437362	0.119016	0.141450	0.215920	0.075311	0.052310	0.259104	0.388817	0.065073	0.232580	0.113571	0.201604	0.132550	0.181279	0.105075	0.288783	0.046779	0.054448	0.130877	0.360814	0.122924	0.153864	0.193017	0.323711	0.094090	0.092317	0.222495	0.575411	0.139891	0.098532	0.118482	0.343754	0.139217	0.166554	0.196258	0.283228	0.084620	0.089491	0.200986	0.223088	0.089601	0.108687	0.109403	0.186270	0.087502	0.104851	0.183993	0.181795	0.042924	0.037230	0.125509	0.212467	0.064684	0.038833	0.246731	0.358448	0.100182	0.139870	0.191358	0.269905
5	0.078519	0.051449	0.179220	0.292564	0.060596	0.071740	0.156313	0.208878	0.129929	0.090199	0.094600	0.619936	0.436772	0.113622	0.147891	0.208258	0.075268	0.050480	0.249830	0.404212	0.067506	0.212443	0.112381	0.217777	0.127237	0.128058	0.107702	0.358305	0.060886	0.057539	0.139478	0.351286	0.124348	0.153181	0.196663	0.337339	0.088824	0.091391	0.225644	0.572762	0.134256	0.100711	0.126347	0.372201	0.141102	0.165952	0.198777	0.284567	0.091473	0.081409	0.202097	0.227338	0.086526	0.082609	0.111108	0.191825	0.083846	0.073731	0.194625	0.195973	0.046116	0.039354	0.122895	0.225189	0.066749	0.040099	0.267443	0.365626	0.086128	0.107622	0.197025	0.268159
6	0.077214	0.052875	0.191600	0.268851	0.060840	0.063465	0.156879	0.164624	0.129686	0.089968	0.088919	0.625785	0.431130	0.111915	0.152473	0.207158	0.075503	0.049312	0.241463	0.439494	0.071834	0.181730	0.113642	0.210486	0.104162	0.116441	0.143916	0.411856	0.060475	0.057011	0.138773	0.362279	0.124453	0.151734	0.199410	0.362392	0.083511	0.090758	0.225379	0.576956	0.122894	0.098429	0.127572	0.415415	0.121243	0.146507	0.203255	0.314731	0.089623	0.073269	0.196219	0.227565	0.087600	0.159267	0.116248	0.194051	0.082800	0.048399	0.194539	0.206882	0.047794	0.042048	0.121289	0.210649	0.076750	0.049592	0.320322	0.355629	0.080769	0.091110	0.197021	0.292589
7	0.077371	0.053078	0.200212	0.286026	0.059446	0.048125	0.168392	0.143818	0.119516	0.083872	0.086209	0.627342	0.410085	0.106935	0.147172	0.221048	0.081030	0.048603	0.236078	0.461052	0.074115	0.157366	0.122061	0.183797	0.068228	0.112123	0.161933	0.435034	0.060265	0.057378	0.162722	0.371445	0.124450	0.150305	0.200128	0.379948	0.067712	0.090317	0.227136	0.667273	0.111635	0.093578	0.135971	0.431108	0.098284	0.141592	0.215890	0.337554	0.089128	0.066069	0.199956	0.229740	0.090058	0.242022	0.123757	0.189446	0.082821	0.033409	0.196703	0.241938	0.046215	0.041992	0.119525	0.191964	0.095925	0.065684	0.366570	0.350631	0.080980	0.092633	0.203744	0.344869
8	0.077352	0.054475	0.223493	0.300713	0.057899	0.047322	0.173917	0.151507	0.104543	0.070505	0.080983	0.626594	0.373338	0.109480	0.143554	0.237850	0.093171	0.049858	0.239005	0.453405	0.071400	0.132832	0.131101	0.175640	0.063555	0.108231	0.161993	0.454577	0.063972	0.059649	0.214826	0.429387	0.124464	0.148832	0.193428	0.380052	0.072083	0.092634	0.257627	0.789640	0.100786	0.088339	0.133477	0.424023	0.093778	0.144515	0.247519	0.304217	0.088702	0.063615	0.210751	0.284552	0.091867	0.251664	0.125496	0.173450	0.082277	0.030588	0.197974	0.287177	0.040197	0.035326	0.121749	0.190910	0.110076	0.077194	0.386974	0.351902	0.081027	0.091054	0.218408	0.378727
9	0.074826	0.059378	0.236201	0.285492	0.059585	0.041221	0.171160	0.206481	0.089223	0.058023	0.067947	0.625989	0.332719	0.109577	0.151810	0.240901	0.098944	0.051062	0.240836	0.438287	0.071794	0.114421	0.120870	0.179168	0.063706	0.107648	0.170247	0.473851	0.077058	0.063666	0.246277	0.445535	0.124204	0.144818	0.173044	0.409628	0.076242	0.095362	0.367438	0.803937	0.099685	0.086888	0.133139	0.419576	0.089729	0.144918	0.270857	0.285377	0.089250	0.062349	0.238621	0.419157	0.074885	0.272416	0.126075	0.178629	0.081495	0.035546	0.196154	0.321859	0.040862	0.033733	0.138396	0.183147	0.119464	0.082080	0.400281	0.353554	0.080223	0.090645	0.247306	0.383166
10	0.071154	0.060474	0.240946	0.293668	0.060236	0.035469	0.169964	0.217132	0.077264	0.050616	0.064354	0.625969	0.316216	0.102420	0.171240	0.238676	0.101816	0.051876	0.237780	0.413940	0.077439	0.092779	0.143711	0.189353	0.071366	0.108120	0.220582	0.478842	0.085264	0.064098	0.263340	0.410737	0.117901	0.133160	0.143640	0.440102	0.081977	0.100122	0.457141	0.791073	0.099684	0.086960	0.135963	0.431751	0.087794	0.128865	0.253930	0.285577	0.092809	0.061357	0.316044	0.494136	0.075932	0.298165	0.142632	0.217603	0.080891	0.041491	0.195898	0.343541	0.040971	0.033327	0.135332	0.185187	0.121650	0.082276	0.409876	0.360445	0.077183	0.088917	0.269618	0.383085
11	0.060611	0.052037	0.241885	0.315138	0.057994	0.041481	0.210883	0.219775	0.071278	0.047899	0.069716	0.627407	0.180701	0.094769	0.173312	0.228961	0.102549	0.051892	0.228132	0.393188	0.080187	0.087628	0.210181	0.219397	0.076580	0.105790	0.281062	0.477459	0.092140	0.064660	0.264523	0.419951	0.105476	0.115154	0.121308	0.441099	0.089453	0.107912	0.462627	0.805293	0.105793	0.087434	0.139263	0.479281	0.081672	0.122682	0.260685	0.308561	0.097157	0.061509	0.437510	0.505594	0.073565	0.300562	0.185303	0.255988	0.080825	0.044123	0.231146	0.345958	0.037808	0.033811	0.149673	0.189287	0.121973	0.082349	0.417075	0.362950	0.075920	0.079090	0.276457	0.387408
12	0.057083	0.043776	0.256704	0.314920	0.056920	0.049678	0.314508	0.217628	0.069244	0.047179	0.068812	0.627508	0.152407	0.096882	0.188270	0.225514	0.102572	0.051677	0.211002	0.397495	0.075827	0.069516	0.264099	0.284978	0.077040	0.102675	0.314749	0.485373	0.094651	0.061524	0.297248	0.454085	0.091423	0.096520	0.118069	0.432227	0.084687	0.103356	0.482012	0.854669	0.110545	0.090033	0.143587	0.546168	0.081149	0.104045	0.332749	0.314648	0.100573	0.065528	0.518304	0.508055	0.111094	0.304232	0.246807	0.265054	0.082321	0.045438	0.298623	0.345478	0.035435	0.034077	0.148072	0.187802	0.122174	0.082567	0.417285	0.350356	0.078916	0.080768	0.274188	0.397899
13	0.059433	0.044316	0.279609	0.297690	0.048359	0.053492	0.323104	0.205063	0.069728	0.047385	0.068539	0.586571	0.155936	0.097142	0.242122	0.238545	0.099251	0.051950	0.189598	0.392670	0.076505	0.069492	0.299055	0.328297	0.077436	0.100051	0.322450	0.504249	0.098255	0.064657	0.396727	0.468240	0.077138	0.080105	0.117999	0.439696	0.090885	0.107397	0.575356	0.906407	0.114121	0.094329	0.172242	0.607556	0.082992	0.097535	0.372401	0.312480	0.101430	0.076549	0.542309	0.527931	0.155126	0.308683	0.281406	0.259539	0.079632	0.045260	0.345799	0.359320	0.035272	0.034940	0.160899	0.180814	0.121988	0.082161	0.428130	0.327395	0.079381	0.080489	0.296308	0.412862
14	0.054175	0.044560	0.270994	0.275558	0.056606	0.067579	0.321600	0.203883	0.072045	0.047131	0.069716	0.490560	0.150679	0.098902	0.313039	0.241836	0.098016	0.054851	0.182608	0.382960	0.076103	0.058628	0.308898	0.329734	0.077422	0.096717	0.322964	0.528257	0.101463	0.080082	0.473399	0.452623	0.061683	0.069884	0.102926	0.463205	0.095714	0.117049	0.646487	0.916099	0.120989	0.097635	0.216538	0.653293	0.068189	0.084742	0.396498	0.321769	0.100935	0.082723	0.548139	0.562151	0.167160	0.311717	0.284960	0.257660	0.075449	0.044609	0.357952	0.384644	0.038889	0.034804	0.197637	0.157101	0.123952	0.080533	0.458037	0.307029	0.086476	0.081711	0.329986	0.423345
15	0.050982	0.046257	0.259838	0.282808	0.057992	0.073351	0.332583	0.199931	0.073344	0.046824	0.093679	0.428439	0.147502	0.101117	0.368734	0.207651	0.098019	0.059101	0.182928	0.378859	0.068590	0.053852	0.323177	0.355031	0.075208	0.090872	0.335433	0.548084	0.099413	0.087408	0.483334	0.440475	0.058422	0.061035	0.113271	0.477797	0.106256	0.117447	0.667860	0.905000	0.124792	0.100326	0.260364	0.677399	0.061747	0.084920	0.410041	0.317294	0.099380	0.081985	0.603717	0.613244	0.167457	0.312002	0.288107	0.273349	0.072344	0.044282	0.361073	0.413620	0.040840	0.034352	0.232425	0.127475	0.123742	0.081639	0.485627	0.304632	0.089615	0.084248	0.359226	0.424108
16	0.052118	0.048235	0.278838	0.280199	0.056859	0.079166	0.348285	0.197754	0.072040	0.047098	0.144684	0.427955	0.143461	0.103933	0.385077	0.200624	0.097478	0.062351	0.178402	0.373898	0.064232	0.049007	0.370945	0.385725	0.073304	0.082488	0.362840	0.563774	0.096275	0.087138	0.482916	0.433648	0.053731	0.050820	0.149217	0.483003	0.105772	0.113367	0.671347	0.896924	0.126838	0.103160	0.299372	0.679551	0.061037	0.078130	0.408584	0.281130	0.099919	0.083858	0.697811	0.649597	0.168025	0.311853	0.319623	0.294438	0.072593	0.044679	0.390088	0.445150	0.037432	0.030665	0.255652	0.120801	0.123322	0.086439	0.502053	0.309217	0.088302	0.084520	0.371566	0.421636
17	0.053168	0.047808	0.284243	0.276352	0.059848	0.080761	0.384619	0.202527	0.068581	0.048191	0.180132	0.460213	0.147926	0.113853	0.383615	0.201627	0.095086	0.062165	0.164541	0.370095	0.064277	0.050692	0.425613	0.400704	0.073822	0.071905	0.398615	0.574533	0.095092	0.085999	0.481077	0.422251	0.053313	0.042651	0.184701	0.490330	0.104352	0.111229	0.670306	0.896235	0.128972	0.105740	0.320677	0.677825	0.062301	0.073190	0.414879	0.284047	0.100571	0.088039	0.773893	0.660633	0.176352	0.313084	0.390197	0.304011	0.077594	0.047934	0.437609	0.477603	0.034292	0.026404	0.262208	0.120748	0.125005	0.090682	0.503659	0.302844	0.087216	0.082613	0.366910	0.421724
18	0.047562	0.050388	0.310773	0.275825	0.073059	0.085133	0.457731	0.209462	0.064677	0.049808	0.184479	0.477404	0.138635	0.119244	0.413513	0.206774	0.086390	0.058093	0.180026	0.360079	0.064223	0.059357	0.459828	0.404527	0.078306	0.064207	0.435375	0.578711	0.095248	0.086772	0.468648	0.408216	0.051131	0.040647	0.209056	0.494181	0.103974	0.111071	0.670260	0.888918	0.129604	0.105957	0.328872	0.676662	0.062411	0.067705	0.419921	0.317425	0.098970	0.087341	0.805145	0.656363	0.186086	0.312902	0.445612	0.310265	0.081440	0.053463	0.494395	0.503413	0.031821	0.023552	0.262723	0.126502	0.124581	0.091709	0.502547	0.288421	0.084795	0.077136	0.365282	0.416064
19	0.045609	0.049086	0.362026	0.272870	0.078425	0.086066	0.522802	0.162725	0.062173	0.051083	0.185790	0.455150	0.138422	0.118940	0.493047	0.223316	0.078948	0.054931	0.207711	0.341096	0.065155	0.061431	0.477641	0.403310	0.081597	0.059402	0.461821	0.580431	0.090473	0.084101	0.448313	0.333193	0.044850	0.040720	0.221425	0.495005	0.102961	0.110487	0.669806	0.799731	0.128820	0.103069	0.327183	0.667192	0.059602	0.060282	0.429864	0.330695	0.088422	0.079925	0.813348	0.668349	0.187510	0.258683	0.461759	0.314192	0.078195	0.059012	0.530638	0.521439	0.028785	0.023826	0.260309	0.120619	0.124455	0.091593	0.505368	0.254403	0.081917	0.069901	0.363211	0.363853
20	0.055124	0.048227	0.372575	0.263349	0.077672	0.085413	0.529947	0.136307	0.062027	0.051095	0.189568	0.414965	0.142389	0.117925	0.583252	0.238769	0.076612	0.053933	0.216422	0.335556	0.061771	0.058150	0.482230	0.401291	0.083730	0.056106	0.473050	0.579279	0.079710	0.080649	0.435887	0.311300	0.039001	0.040309	0.221064	0.488784	0.099788	0.109643	0.653504	0.648690	0.122232	0.097771	0.327885	0.638233	0.061495	0.055671	0.430301	0.326048	0.080719	0.074834	0.813939	0.678554	0.186493	0.200509	0.465261	0.313559	0.072022	0.062268	0.548717	0.534896	0.028392	0.023942	0.257694	0.125554	0.123882	0.090664	0.501289	0.219946	0.081400	0.068811	0.354672	0.287105
21	0.066172	0.049418	0.372597	0.223101	0.077851	0.085016	0.520236	0.145701	0.056991	0.049036	0.194022	0.382679	0.133096	0.112963	0.638182	0.248687	0.075867	0.054834	0.219282	0.333685	0.053094	0.062926	0.473057	0.393596	0.085051	0.053982	0.477470	0.548573	0.071628	0.078772	0.431259	0.300613	0.036092	0.039829	0.218301	0.477024	0.097582	0.109811	0.592729	0.582749	0.112486	0.092913	0.328505	0.596747	0.067429	0.054589	0.407073	0.293979	0.079177	0.074717	0.816623	0.680392	0.184481	0.195454	0.467051	0.312990	0.072166	0.063127	0.555572	0.544718	0.030263	0.023843	0.296215	0.124022	0.119287	0.086649	0.471883	0.209634	0.081253	0.064387	0.335408	0.254329
22	0.066191	0.049142	0.391724	0.227042	0.077916	0.077982	0.465464	0.140692	0.051274	0.043235	0.202352	0.366117	0.115109	0.106213	0.655092	0.249411	0.075940	0.055635	0.220266	0.308449	0.049318	0.081465	0.446966	0.376023	0.085310	0.053469	0.473792	0.501067	0.065109	0.075814	0.431492	0.262080	0.035998	0.040072	0.245426	0.484081	0.091111	0.128338	0.541589	0.579847	0.107575	0.090304	0.324064	0.581155	0.062196	0.044037	0.379787	0.266615	0.087434	0.076545	0.818828	0.667008	0.181765	0.147756	0.464722	0.295859	0.071910	0.062415	0.553111	0.548172	0.032813	0.024876	0.319897	0.122127	0.106051	0.076085	0.431481	0.204006	0.079081	0.055737	0.304410	0.250929
23	0.067263	0.053175	0.408009	0.253573	0.077212	0.077139	0.436361	0.146012	0.046575	0.039319	0.209498	0.373216	0.099475	0.099502	0.657133	0.249438	0.075511	0.054977	0.220087	0.264098	0.048870	0.098413	0.416543	0.326539	0.085016	0.053748	0.467555	0.466993	0.059919	0.075895	0.390134	0.190107	0.035996	0.040600	0.373312	0.540934	0.085642	0.124561	0.538324	0.547108	0.109333	0.090448	0.322789	0.581577	0.050320	0.035907	0.352970	0.245560	0.088452	0.077351	0.813800	0.605423	0.180140	0.110478	0.456817	0.264103	0.071331	0.061238	0.553204	0.543879	0.035896	0.027076	0.317193	0.122183	0.089382	0.063014	0.407471	0.198836	0.068167	0.054393	0.287395	0.247072
24	0.064821	0.053573	0.441911	0.266677	0.067390	0.062876	0.435479	0.172035	0.042752	0.038513	0.216912	0.392157	0.095122	0.097318	0.648595	0.248816	0.066891	0.064679	0.215934	0.244769	0.045092	0.103520	0.390972	0.285426	0.083633	0.054672	0.466821	0.442168	0.052903	0.065651	0.275002	0.126911	0.035807	0.041683	0.493644	0.585244	0.085073	0.136486	0.496904	0.429686	0.110176	0.091897	0.323889	0.581065	0.049672	0.029837	0.329495	0.242218	0.084002	0.077478	0.798825	0.537132	0.178804	0.108622	0.436154	0.224883	0.071312	0.060877	0.557341	0.539057	0.035759	0.027621	0.304293	0.123664	0.075586	0.054442	0.394224	0.197638	0.050696	0.041099	0.286173	0.220964
25	0.075767	0.053515	0.456037	0.263894	0.061852	0.059155	0.434355	0.197345	0.042795	0.038981	0.229586	0.412350	0.084417	0.097065	0.625043	0.229029	0.048819	0.098767	0.211037	0.253585	0.043592	0.102666	0.396299	0.285442	0.079550	0.054123	0.464897	0.420213	0.049645	0.046662	0.185174	0.161268	0.035215	0.043713	0.570661	0.579783	0.076483	0.141488	0.373480	0.267298	0.113553	0.093381	0.325092	0.570472	0.050585	0.032591	0.337138	0.254416	0.084380	0.077629	0.754330	0.522150	0.143498	0.114696	0.405345	0.209410	0.072005	0.061080	0.559838	0.526295	0.029780	0.028247	0.282462	0.119921	0.069066	0.052632	0.382866	0.187282	0.048872	0.032448	0.271402	0.169022
26	0.076961	0.047810	0.442118	0.255765	0.064129	0.048021	0.467313	0.217670	0.043108	0.041243	0.245849	0.427286	0.082936	0.094376	0.596013	0.204054	0.036443	0.114896	0.209406	0.258941	0.042636	0.109640	0.513188	0.249123	0.072215	0.052323	0.446985	0.412596	0.053949	0.032739	0.209297	0.180555	0.034223	0.047189	0.611883	0.573981	0.064511	0.131146	0.249521	0.172673	0.111086	0.094745	0.326203	0.528726	0.053155	0.038497	0.367110	0.259943	0.096370	0.078509	0.704151	0.528925	0.106321	0.118601	0.389207	0.208126	0.072480	0.060774	0.561254	0.503404	0.029285	0.029521	0.254053	0.104814	0.068908	0.052302	0.374744	0.173567	0.041049	0.035358	0.235904	0.114651
27	0.077046	0.047711	0.432567	0.249379	0.072428	0.046707	0.504853	0.215263	0.042857	0.043451	0.259254	0.430272	0.083434	0.091677	0.569941	0.203400	0.031773	0.116163	0.209329	0.259315	0.039924	0.115582	0.565140	0.179486	0.065539	0.050416	0.425247	0.425820	0.058308	0.031280	0.234329	0.180616	0.042845	0.054632	0.624014	0.573896	0.045114	0.125195	0.171660	0.159367	0.104290	0.093704	0.327721	0.455955	0.059467	0.046393	0.486678	0.250659	0.112657	0.079490	0.684499	0.515372	0.094945	0.113244	0.389109	0.204550	0.072244	0.058351	0.562228	0.483316	0.029036	0.029283	0.236574	0.095976	0.068423	0.051779	0.373723	0.164049	0.022483	0.031191	0.206526	0.123703
28	0.075917	0.047011	0.444420	0.221105	0.069404	0.044147	0.469241	0.206735	0.039491	0.043948	0.267737	0.426993	0.082885	0.086642	0.566285	0.206494	0.036469	0.118204	0.209349	0.255177	0.030442	0.119061	0.548124	0.134519	0.063726	0.050862	0.456375	0.437651	0.063821	0.032899	0.237067	0.184017	0.058176	0.063466	0.624959	0.572796	0.041207	0.124478	0.160524	0.194758	0.097473	0.088002	0.320861	0.372593	0.068969	0.053490	0.657516	0.219249	0.121683	0.073746	0.685577	0.474570	0.094955	0.116318	0.381794	0.175648	0.072153	0.055506	0.561590	0.470169	0.032479	0.032681	0.287810	0.103986	0.068499	0.051705	0.365690	0.152243	0.016354	0.026857	0.199613	0.138098
29	0.076245	0.043789	0.416265	0.200839	0.066768	0.046081	0.382962	0.197017	0.036496	0.044158	0.265589	0.426096	0.070971	0.071062	0.568064	0.211021	0.041753	0.122668	0.206882	0.243395	0.039122	0.127845	0.518227	0.129585	0.063317	0.051532	0.523543	0.427204	0.065937	0.034114	0.253209	0.199674	0.057902	0.062280	0.646395	0.570314	0.043005	0.124635	0.179033	0.229755	0.085088	0.080390	0.314533	0.298218	0.069063	0.054299	0.734683	0.198400	0.124787	0.072729	0.654760	0.406369	0.093142	0.129086	0.342781	0.135663	0.073356	0.055946	0.552841	0.483907	0.045943	0.039692	0.372608	0.099606	0.059041	0.051425	0.328899	0.143559	0.018561	0.032378	0.213275	0.145336
30	0.073816	0.041325	0.399822	0.203826	0.072762	0.047284	0.377122	0.187936	0.032008	0.044058	0.266083	0.424411	0.070124	0.065714	0.539515	0.202288	0.043436	0.126256	0.199874	0.225912	0.037811	0.135858	0.512406	0.128851	0.063073	0.052658	0.567779	0.390563	0.068202	0.034416	0.296441	0.222691	0.056577	0.057967	0.705448	0.566882	0.050312	0.124950	0.183211	0.230175	0.075918	0.073381	0.337839	0.298430	0.062172	0.053199	0.741618	0.193437	0.146357	0.074520	0.563036	0.333652	0.072926	0.127144	0.251366	0.115357	0.073256	0.057680	0.535220	0.512541	0.050238	0.041406	0.394997	0.096355	0.044283	0.047429	0.282389	0.132224	0.025333	0.038399	0.220288	0.147184
31	0.065870	0.037768	0.403512	0.215222	0.080443	0.049771	0.436798	0.177498	0.031531	0.044081	0.266694	0.429787	0.059615	0.062327	0.463406	0.159850	0.048770	0.133420	0.195514	0.204746	0.038076	0.137054	0.553446	0.136014	0.063950	0.057535	0.594082	0.347977	0.070644	0.040120	0.332325	0.226589	0.057860	0.060857	0.774781	0.554036	0.053951	0.124740	0.180346	0.233976	0.073197	0.066650	0.377613	0.355187	0.066148	0.055128	0.784176	0.191156	0.194675	0.077115	0.431146	0.296649	0.049719	0.123827	0.158032	0.093889	0.076572	0.061436	0.529767	0.515780	0.050355	0.042234	0.385862	0.085732	0.037473	0.037306	0.235248	0.118240	0.030314	0.041228	0.220869	0.148547
32	0.073205	0.038544	0.389415	0.237754	0.080958	0.050161	0.525138	0.180806	0.033120	0.041861	0.278867	0.429361	0.049766	0.052212	0.370062	0.134276	0.059654	0.138338	0.195111	0.184346	0.038156	0.134640	0.622788	0.141589	0.066751	0.056811	0.596057	0.307708	0.073081	0.044181	0.342559	0.230063	0.061733	0.064638	0.825456	0.541167	0.056096	0.123294	0.182548	0.258774	0.069881	0.059860	0.434821	0.395166	0.081700	0.066976	0.911086	0.183121	0.198457	0.079102	0.353380	0.310928	0.044171	0.122045	0.138774	0.078961	0.081428	0.065129	0.545507	0.498117	0.064964	0.045660	0.377824	0.077124	0.022232	0.024179	0.203908	0.110377	0.032669	0.041961	0.230224	0.156330
33	0.081932	0.036996	0.359137	0.231871	0.083551	0.053701	0.570309	0.192948	0.033913	0.038303	0.296210	0.387576	0.045170	0.048331	0.325691	0.150235	0.065503	0.148551	0.190255	0.171680	0.037739	0.124839	0.663294	0.150458	0.069995	0.059903	0.575256	0.275906	0.073231	0.044195	0.340574	0.233651	0.071800	0.076630	0.860775	0.537510	0.055251	0.115986	0.198757	0.280900	0.069396	0.056964	0.473541	0.403253	0.087778	0.077539	1.039804	0.176516	0.198419	0.087826	0.443194	0.300273	0.042298	0.121208	0.158809	0.085240	0.086657	0.069330	0.559477	0.472716	0.077033	0.051138	0.448580	0.077914	0.027051	0.033097	0.222941	0.173531	0.033435	0.042062	0.264793	0.167570
34	0.082477	0.031565	0.311780	0.208944	0.090192	0.056046	0.584312	0.173523	0.034274	0.031496	0.311065	0.341268	0.050862	0.053061	0.317223	0.151822	0.066320	0.161317	0.174931	0.165783	0.037851	0.111619	0.670125	0.158001	0.066573	0.081182	0.549472	0.260529	0.073054	0.042919	0.340977	0.232273	0.074596	0.091328	0.879194	0.541639	0.055678	0.087723	0.193999	0.284112	0.070048	0.060677	0.483698	0.403492	0.091181	0.080320	1.080414	0.169056	0.198543	0.093697	0.642280	0.291021	0.042608	0.121040	0.167322	0.088210	0.089661	0.073595	0.547809	0.444522	0.077609	0.059628	0.518181	0.080078	0.053359	0.048553	0.284016	0.254510	0.033965	0.042170	0.303901	0.174090
35	0.077410	0.029159	0.275594	0.230400	0.090584	0.055079	0.682632	0.166416	0.034447	0.031511	0.313634	0.331912	0.056859	0.059487	0.315638	0.152444	0.065321	0.162396	0.144802	0.164531	0.037646	0.104795	0.683489	0.206237	0.058855	0.098210	0.529975	0.253942	0.074098	0.042022	0.355352	0.212859	0.073526	0.096525	0.885108	0.545083	0.052830	0.084172	0.189587	0.283743	0.072962	0.066290	0.482183	0.411858	0.090692	0.077482	1.074676	0.157131	0.198369	0.098806	0.829986	0.326209	0.049296	0.127570	0.168506	0.092562	0.089204	0.076223	0.515126	0.414966	0.079174	0.062790	0.543015	0.087660	0.069412	0.059818	0.351746	0.306822	0.033704	0.042696	0.327788	0.177924
36	0.085773	0.031573	0.269226	0.271258	0.102626	0.064574	0.796973	0.167631	0.033831	0.036841	0.311151	0.331891	0.067708	0.069574	0.318763	0.154953	0.064996	0.162641	0.109669	0.199417	0.037336	0.103519	0.705687	0.221043	0.053814	0.102925	0.527070	0.252296	0.075203	0.043792	0.354831	0.171208	0.072967	0.097622	0.886310	0.546780	0.052342	0.050106	0.254227	0.291192	0.074979	0.069363	0.486758	0.430367	0.088697	0.074156	1.069108	0.099447	0.197064	0.107706	0.966453	0.387547	0.057167	0.136211	0.169141	0.106278	0.091175	0.075766	0.466061	0.384887	0.079762	0.061924	0.545987	0.087631	0.074979	0.067745	0.431052	0.335031	0.034009	0.045734	0.338272	0.185220
37	0.088189	0.037779	0.294654	0.296766	0.112860	0.077290	0.850145	0.189443	0.033892	0.039627	0.317173	0.329174	0.068668	0.069792	0.331065	0.158238	0.068968	0.162746	0.141549	0.247739	0.036501	0.095985	0.637775	0.222358	0.051152	0.104345	0.533784	0.254716	0.065629	0.042399	0.335121	0.160857	0.072857	0.098645	0.885940	0.542780	0.054667	0.023666	0.359250	0.293907	0.073082	0.068902	0.503106	0.445172	0.087792	0.073107	1.028130	0.075757	0.201047	0.112899	1.028349	0.428607	0.064581	0.140102	0.166595	0.116611	0.090096	0.072215	0.426797	0.358632	0.079983	0.061696	0.569193	0.093499	0.084202	0.074313	0.501368	0.341447	0.035495	0.056726	0.338708	0.186993
38	0.088081	0.045700	0.299243	0.321386	0.110784	0.080702	0.878794	0.193206	0.050649	0.039628	0.328023	0.322018	0.072264	0.070667	0.339659	0.161059	0.072107	0.162425	0.200732	0.267310	0.037207	0.088442	0.571918	0.243938	0.050247	0.105605	0.538353	0.262900	0.060549	0.041143	0.325034	0.162780	0.073009	0.103914	0.871750	0.506007	0.056079	0.028554	0.385311	0.284863	0.070411	0.069626	0.529847	0.455246	0.099242	0.081254	0.933359	0.092451	0.207419	0.126852	1.036193	0.438019	0.063673	0.122495	0.162638	0.116555	0.087970	0.069242	0.434464	0.344390	0.084082	0.061579	0.587737	0.106567	0.097883	0.081985	0.543326	0.344686	0.036824	0.065498	0.337848	0.182458
39	0.089339	0.046398	0.273889	0.324784	0.104181	0.074479	0.882638	0.206467	0.061575	0.042640	0.334922	0.306083	0.072326	0.071608	0.345065	0.180818	0.074413	0.162077	0.228792	0.275907	0.041153	0.079500	0.551581	0.255429	0.051071	0.105648	0.542787	0.276802	0.069515	0.044286	0.330252	0.156230	0.073102	0.107468	0.824570	0.437822	0.054537	0.034195	0.387954	0.274124	0.065537	0.070566	0.548082	0.462911	0.101395	0.083984	0.905922	0.106589	0.208456	0.132984	1.041796	0.433090	0.063368	0.111904	0.160014	0.116461	0.092784	0.071324	0.485999	0.336168	0.088695	0.059125	0.554120	0.106988	0.103327	0.085763	0.552878	0.345988	0.036692	0.064753	0.358321	0.174154
40	0.088616	0.046324	0.240805	0.350870	0.103329	0.074282	0.899510	0.206919	0.065620	0.046021	0.333225	0.284635	0.072269	0.071925	0.371541	0.179353	0.074778	0.162356	0.239463	0.268238	0.044715	0.056649	0.551444	0.246872	0.055454	0.107064	0.550793	0.289807	0.071207	0.047601	0.306657	0.126069	0.073047	0.130898	0.779518	0.388091	0.057448	0.036516	0.430499	0.260446	0.057438	0.070041	0.557951	0.463749	0.101880	0.088525	0.901890	0.145381	0.203361	0.132289	1.095756	0.467668	0.063682	0.111677	0.157345	0.117093	0.099515	0.074888	0.532117	0.327442	0.083471	0.055775	0.511052	0.102291	0.105844	0.085976	0.556224	0.374654	0.040523	0.076325	0.393393	0.159997
41	0.086963	0.047686	0.226537	0.512066	0.103516	0.075986	0.906817	0.218994	0.066175	0.048637	0.325082	0.260826	0.073587	0.074418	0.379794	0.176272	0.076111	0.156581	0.244726	0.255749	0.044548	0.036024	0.538914	0.248154	0.059834	0.110034	0.555585	0.291134	0.070007	0.046802	0.261926	0.091880	0.073475	0.139007	0.757668	0.362175	0.068449	0.048870	0.501039	0.252175	0.054274	0.068571	0.561395	0.467167	0.103191	0.096472	0.839892	0.164267	0.194574	0.132272	1.174935	0.500403	0.063634	0.104151	0.159345	0.119296	0.101164	0.076201	0.562252	0.327452	0.084710	0.055620	0.507633	0.127698	0.112485	0.088325	0.584617	0.419724	0.050885	0.110165	0.408774	0.157245
42	0.083309	0.047891	0.225471	0.672006	0.112228	0.079884	0.898883	0.224333	0.066120	0.052351	0.319207	0.239624	0.076301	0.077880	0.376441	0.198072	0.077722	0.137290	0.245889	0.253901	0.046064	0.033018	0.492870	0.263404	0.062336	0.112471	0.556328	0.287735	0.068807	0.042741	0.216009	0.088111	0.076728	0.140132	0.764851	0.379421	0.068860	0.062787	0.564991	0.259997	0.053718	0.065694	0.560495	0.511938	0.106848	0.095093	0.661514	0.172521	0.193079	0.133636	1.237124	0.520078	0.064254	0.086743	0.195204	0.130510	0.100838	0.076153	0.578643	0.338831	0.086334	0.060051	0.512947	0.164325	0.117457	0.095192	0.622307	0.443112	0.055505	0.112305	0.408033	0.152936
43	0.073712	0.048683	0.236439	0.687453	0.114409	0.081021	0.870855	0.214865	0.065927	0.053467	0.310218	0.224989	0.078059	0.077709	0.387708	0.238351	0.077866	0.126152	0.248144	0.261087	0.052617	0.033438	0.434653	0.267128	0.062650	0.113292	0.550561	0.271068	0.066663	0.040464	0.205786	0.076212	0.081698	0.162068	0.794835	0.440799	0.067287	0.066623	0.576762	0.248259	0.053336	0.062995	0.561846	0.553172	0.102049	0.088931	0.501883	0.192694	0.208605	0.138206	1.266884	0.525913	0.077603	0.088609	0.229497	0.147185	0.100353	0.076067	0.581886	0.351051	0.076468	0.065548	0.483933	0.177179	0.123728	0.104750	0.650759	0.459262	0.054187	0.113082	0.407240	0.153489
44	0.076154	0.052951	0.234823	0.696042	0.111303	0.078647	0.867560	0.219556	0.067085	0.053356	0.305890	0.212225	0.088213	0.083346	0.405815	0.259366	0.081721	0.125691	0.265070	0.287522	0.064818	0.036599	0.394582	0.261926	0.062676	0.113122	0.512711	0.235906	0.066246	0.040332	0.213131	0.078746	0.092338	0.197305	0.827568	0.471598	0.066893	0.066547	0.591834	0.215638	0.053063	0.061450	0.556891	0.555655	0.101680	0.087533	0.530065	0.232904	0.213267	0.140531	1.280905	0.537444	0.083983	0.093577	0.233201	0.157661	0.101317	0.076263	0.580168	0.357288	0.070220	0.060709	0.398692	0.176654	0.131040	0.115132	0.677635	0.479670	0.053572	0.118793	0.409470	0.148643
45	0.075286	0.053303	0.222862	0.759139	0.111966	0.079594	0.814718	0.230178	0.073096	0.059054	0.305676	0.210761	0.096110	0.094825	0.432957	0.253149	0.079990	0.124947	0.295581	0.322273	0.064592	0.036152	0.385154	0.258006	0.062857	0.112758	0.434319	0.194952	0.066472	0.040494	0.217085	0.089245	0.094553	0.211114	0.820292	0.463373	0.068843	0.067237	0.614259	0.197294	0.054074	0.059884	0.532646	0.526459	0.109968	0.091672	0.600621	0.240082	0.163666	0.139470	1.286557	0.553869	0.085865	0.096563	0.218331	0.173280	0.103511	0.077893	0.587291	0.356928	0.069088	0.051926	0.330652	0.175826	0.137992	0.124884	0.701240	0.502561	0.056988	0.122095	0.421044	0.143091
46	0.067357	0.053588	0.220973	0.842745	0.109133	0.079002	0.699168	0.249248	0.077102	0.069019	0.302773	0.209293	0.101101	0.098896	0.453766	0.256802	0.077750	0.123610	0.325391	0.332969	0.064668	0.038298	0.375491	0.240968	0.063399	0.113317	0.365660	0.174674	0.061963	0.039030	0.198780	0.106943	0.094463	0.213332	0.764714	0.437587	0.074076	0.071250	0.630205	0.226712	0.054084	0.059564	0.486946	0.478620	0.109844	0.096434	0.572808	0.248987	0.151976	0.134266	1.282367	0.551591	0.084647	0.097039	0.230527	0.205522	0.103390	0.077717	0.618138	0.353125	0.068553	0.050854	0.332853	0.177832	0.142637	0.131284	0.717223	0.527349	0.061648	0.123295	0.418126	0.134536
47	0.057108	0.056675	0.201483	0.890181	0.090434	0.072108	0.591063	0.274451	0.077615	0.074649	0.285878	0.187523	0.098566	0.095914	0.456312	0.277204	0.077773	0.121078	0.331946	0.333183	0.067800	0.041449	0.383923	0.263475	0.063318	0.111384	0.307708	0.171617	0.055964	0.036798	0.188295	0.115027	0.093599	0.212864	0.694771	0.424537	0.078904	0.076734	0.634133	0.253317	0.050960	0.058265	0.419412	0.450137	0.102019	0.097362	0.532133	0.270339	0.154083	0.131359	1.259496	0.538357	0.082674	0.096084	0.295618	0.206776	0.101769	0.075902	0.677396	0.336226	0.070406	0.053387	0.318727	0.221261	0.148648	0.136141	0.728794	0.543633	0.069552	0.123270	0.401843	0.134713
48	0.067076	0.057553	0.194191	0.889706	0.085144	0.068420	0.512408	0.271487	0.077486	0.075836	0.245407	0.158494	0.092761	0.089786	0.469040	0.309646	0.072989	0.112799	0.336963	0.337686	0.068977	0.047511	0.424022	0.289856	0.060426	0.111316	0.265390	0.170389	0.054823	0.037220	0.188423	0.154754	0.089697	0.211824	0.636435	0.428374	0.078746	0.077134	0.601475	0.243520	0.049222	0.056675	0.363591	0.482002	0.093234	0.091895	0.592945	0.304320	0.156794	0.127111	1.196084	0.530341	0.079933	0.084735	0.354431	0.203675	0.100524	0.074273	0.750205	0.291352	0.069180	0.054570	0.271309	0.242580	0.150406	0.136485	0.729494	0.536968	0.071664	0.123507	0.389729	0.132422
49	0.070046	0.057431	0.184669	0.929061	0.084077	0.068618	0.505921	0.273519	0.080474	0.078071	0.210885	0.147972	0.094181	0.089803	0.489842	0.328730	0.064109	0.104740	0.356353	0.361295	0.069089	0.051914	0.472711	0.279627	0.053851	0.109781	0.268278	0.170302	0.051099	0.036332	0.178888	0.180561	0.084635	0.206611	0.587423	0.432365	0.076638	0.078817	0.572759	0.256102	0.049166	0.053356	0.346437	0.508017	0.095511	0.092532	0.655024	0.306487	0.157429	0.124251	1.085466	0.516065	0.078737	0.068660	0.387214	0.205236	0.102121	0.071899	0.811562	0.255659	0.063353	0.056256	0.254973	0.241336	0.143959	0.132365	0.710787	0.501175	0.071192	0.122717	0.388979	0.124452
50	0.074387	0.059159	0.195351	1.038565	0.083397	0.068564	0.510190	0.309889	0.082898	0.078467	0.193332	0.143720	0.095977	0.090305	0.502293	0.334732	0.059820	0.085220	0.377257	0.399577	0.070216	0.054233	0.498017	0.261671	0.046158	0.096983	0.275840	0.169763	0.032995	0.028938	0.176994	0.197487	0.084545	0.201644	0.564210	0.433461	0.074838	0.080067	0.590225	0.270777	0.047810	0.049262	0.373914	0.503866	0.098024	0.086901	0.675492	0.360927	0.161513	0.120160	0.957313	0.495204	0.076238	0.056224	0.390597	0.203163	0.100688	0.068244	0.846600	0.246537	0.058652	0.058141	0.271895	0.249093	0.136301	0.127676	0.679537	0.489800	0.070887	0.116963	0.393710	0.124963
51	0.074803	0.058304	0.258857	1.072705	0.080180	0.070797	0.463403	0.345662	0.082534	0.076760	0.190669	0.140490	0.103065	0.094287	0.494063	0.326488	0.060433	0.062177	0.394433	0.438289	0.061759	0.053396	0.498474	0.374717	0.045695	0.073579	0.272648	0.170783	0.029030	0.025765	0.178355	0.206218	0.084495	0.201004	0.571182	0.467058	0.080014	0.081169	0.601314	0.273391	0.043526	0.046371	0.392873	0.501273	0.078947	0.073213	0.658964	0.390224	0.163925	0.120651	0.868494	0.485859	0.077605	0.056311	0.413294	0.210253	0.096440	0.063998	0.857074	0.259911	0.060724	0.060152	0.268999	0.249696	0.133416	0.124016	0.633266	0.585094	0.071305	0.115519	0.387113	0.122380
52	0.075376	0.058900	0.263975	0.975190	0.073976	0.075403	0.396074	0.354465	0.081270	0.074323	0.194130	0.157735	0.104495	0.094949	0.473150	0.341741	0.061075	0.061767	0.415738	0.472852	0.062467	0.053450	0.537818	0.681805	0.046021	0.061149	0.255368	0.170557	0.024471	0.026640	0.175300	0.206682	0.085242	0.202347	0.581211	0.478223	0.082025	0.082694	0.567478	0.261252	0.046942	0.048759	0.376985	0.533370	0.074349	0.069634	0.661544	0.386517	0.157363	0.111275	0.858002	0.474566	0.086262	0.060548	0.463173	0.243097	0.091919	0.059138	0.853675	0.276228	0.065420	0.063888	0.272131	0.241293	0.131988	0.122528	0.574466	0.725772	0.074437	0.116529	0.336766	0.107923
53	0.076758	0.059289	0.284555	1.005430	0.069590	0.076718	0.352336	0.368230	0.080051	0.073602	0.182936	0.205175	0.105287	0.093320	0.478185	0.366032	0.060698	0.061131	0.434980	0.470549	0.074998	0.067261	0.648369	0.803533	0.045356	0.057637	0.228451	0.174773	0.022617	0.024434	0.175003	0.210106	0.087583	0.203243	0.582100	0.478145	0.078973	0.077074	0.499483	0.248396	0.047374	0.047509	0.358095	0.588943	0.078418	0.071865	0.649603	0.384384	0.151667	0.098679	0.868965	0.476077	0.087466	0.064415	0.514001	0.269431	0.088537	0.055159	0.852197	0.314320	0.073007	0.062602	0.310585	0.233425	0.132322	0.121882	0.524066	0.831064	0.071560	0.093612	0.285758	0.100883
54	0.078066	0.056542	0.304290	1.100179	0.067578	0.076059	0.372195	0.399830	0.068035	0.073199	0.158723	0.229864	0.102957	0.090956	0.487753	0.359863	0.056165	0.061000	0.436912	0.448576	0.080945	0.077048	0.699218	0.810416	0.045485	0.054893	0.207557	0.217040	0.022553	0.024112	0.173787	0.222893	0.087425	0.202223	0.579015	0.482502	0.076382	0.066850	0.436245	0.239631	0.050471	0.043565	0.354630	0.606589	0.073006	0.070461	0.586059	0.413390	0.151763	0.098119	0.820141	0.459693	0.090122	0.071864	0.536586	0.273084	0.087236	0.055527	0.860127	0.388035	0.070193	0.058599	0.326781	0.283993	0.139338	0.124150	0.519163	0.865205	0.064545	0.072670	0.281607	0.099012
55	0.082039	0.058025	0.332036	1.103721	0.072271	0.077708	0.384754	0.418197	0.063348	0.071012	0.142491	0.227980	0.098588	0.089284	0.470484	0.332573	0.053367	0.061360	0.418200	0.443026	0.087053	0.088067	0.702501	0.863643	0.045184	0.054539	0.204083	0.257931	0.022754	0.025027	0.153058	0.231803	0.087371	0.197179	0.562238	0.492286	0.075898	0.064722	0.435754	0.239419	0.057070	0.041732	0.353331	0.605697	0.062823	0.063622	0.526340	0.470233	0.151058	0.094096	0.702093	0.462020	0.086116	0.072714	0.527344	0.263962	0.098767	0.063389	0.877988	0.439386	0.070124	0.059970	0.327593	0.295188	0.152905	0.130741	0.553084	0.858301	0.061639	0.072245	0.307121	0.097627
56	0.091129	0.061781	0.334833	1.048764	0.082246	0.080863	0.378868	0.404762	0.062250	0.069188	0.143049	0.219978	0.088606	0.077131	0.421642	0.319079	0.049916	0.061154	0.406850	0.437933	0.090928	0.094357	0.713565	0.997150	0.040844	0.051968	0.219917	0.268768	0.022457	0.028054	0.129100	0.232903	0.087478	0.182398	0.533429	0.507802	0.074607	0.066268	0.425010	0.251771	0.055946	0.041123	0.346239	0.637486	0.063118	0.053541	0.508884	0.476523	0.149060	0.086938	0.560866	0.490450	0.074231	0.065733	0.516321	0.262190	0.118598	0.074647	0.880072	0.443006	0.078508	0.065977	0.305454	0.333102	0.170303	0.138587	0.548983	0.853680	0.062180	0.062906	0.322654	0.096630
57	0.093851	0.059802	0.347325	1.018459	0.085680	0.077605	0.344183	0.391038	0.061878	0.066623	0.135152	0.217294	0.079282	0.057240	0.358080	0.323234	0.049458	0.060008	0.410952	0.438368	0.112848	0.099624	0.760550	1.126856	0.036352	0.045629	0.259390	0.279168	0.023200	0.030609	0.127650	0.228976	0.089821	0.179834	0.490013	0.523612	0.072320	0.069593	0.441132	0.289966	0.055284	0.040696	0.346354	0.685012	0.059247	0.042449	0.481846	0.463959	0.131811	0.079413	0.475637	0.531766	0.071101	0.059132	0.518764	0.274808	0.131201	0.082605	0.852495	0.437676	0.083041	0.067553	0.285446	0.424581	0.171520	0.137288	0.515755	0.883905	0.059131	0.054880	0.306955	0.093080
58	0.088230	0.058164	0.349488	1.029954	0.084608	0.073667	0.345080	0.543147	0.068674	0.064330	0.120566	0.218135	0.068223	0.044372	0.328914	0.321298	0.047477	0.057914	0.423811	0.438640	0.128360	0.114598	0.792856	1.193498	0.036117	0.038057	0.328155	0.283243	0.025415	0.032572	0.133447	0.220120	0.097008	0.177377	0.435849	0.528422	0.069993	0.070691	0.470820	0.284252	0.055641	0.041258	0.350250	0.722547	0.056711	0.041358	0.382854	0.482769	0.107841	0.072422	0.429039	0.548559	0.072974	0.056711	0.521561	0.268617	0.130375	0.083646	0.821611	0.463770	0.094352	0.069902	0.289973	0.474918	0.167766	0.130891	0.480998	0.918036	0.056406	0.053458	0.259294	0.084495
59	0.096904	0.064580	0.343114	1.023397	0.089335	0.076692	0.393052	0.614126	0.082794	0.066215	0.123890	0.231308	0.068949	0.044219	0.330105	0.307170	0.045667	0.056548	0.429562	0.434253	0.135985	0.120366	0.780497	1.201586	0.048790	0.035589	0.385693	0.284324	0.032092	0.035043	0.130226	0.193510	0.090457	0.149467	0.363548	0.526075	0.074461	0.076975	0.480539	0.265286	0.066424	0.045258	0.363600	0.766769	0.050522	0.036044	0.275470	0.550980	0.112462	0.074107	0.406591	0.532205	0.074352	0.057827	0.503352	0.250695	0.128624	0.082375	0.796934	0.520414	0.097715	0.074618	0.297122	0.510107	0.165027	0.126230	0.447338	0.919970	0.048763	0.054207	0.240091	0.086148
60	0.104552	0.069436	0.343150	0.947509	0.097896	0.082515	0.383575	0.606196	0.085372	0.066027	0.125592	0.282563	0.070781	0.047063	0.298368	0.288658	0.044292	0.055935	0.427581	0.427030	0.138940	0.120144	0.752484	1.215717	0.061945	0.038439	0.400970	0.296695	0.032854	0.035283	0.127303	0.177628	0.080384	0.104146	0.285971	0.524677	0.086166	0.088945	0.474540	0.266971	0.076250	0.052729	0.369471	0.804234	0.047256	0.034078	0.251388	0.594648	0.117129	0.077558	0.404182	0.554243	0.077520	0.062879	0.463361	0.260880	0.137132	0.085990	0.780733	0.587560	0.101144	0.080859	0.290869	0.519374	0.161561	0.120699	0.423099	0.908348	0.041173	0.053434	0.242295	0.077811
61	0.106598	0.069769	0.307585	0.854281	0.101962	0.084140	0.376616	0.603646	0.080271	0.059336	0.126828	0.322594	0.067325	0.047067	0.244520	0.283131	0.042767	0.054162	0.416271	0.407458	0.136601	0.119135	0.741118	1.280368	0.063817	0.038561	0.402321	0.334029	0.030433	0.033237	0.124524	0.164027	0.080415	0.086152	0.246865	0.523120	0.086650	0.088263	0.455675	0.266847	0.078517	0.059479	0.368644	0.819244	0.046929	0.034005	0.254541	0.593945	0.117926	0.076839	0.398230	0.644915	0.075315	0.064226	0.422574	0.277391	0.151371	0.094838	0.777228	0.641039	0.100886	0.082064	0.287330	0.518206	0.168409	0.116388	0.396917	0.895433	0.041129	0.048970	0.247978	0.074830
62	0.110896	0.078203	0.303522	0.873276	0.097493	0.076738	0.379686	0.638055	0.076956	0.047277	0.126673	0.334938	0.062413	0.044234	0.208347	0.285205	0.049169	0.048770	0.393350	0.388527	0.139184	0.119200	0.760912	1.356750	0.065076	0.041087	0.404967	0.403437	0.030992	0.031768	0.135111	0.154945	0.080533	0.080996	0.242733	0.522352	0.085860	0.086065	0.446953	0.281067	0.080919	0.063181	0.370828	0.815445	0.039430	0.031460	0.238194	0.615291	0.114523	0.075491	0.358087	0.752758	0.070019	0.062793	0.403122	0.288161	0.155683	0.101320	0.785556	0.671878	0.098292	0.079972	0.290093	0.516437	0.165624	0.110064	0.369635	0.888526	0.041104	0.045977	0.243086	0.078726
63	0.110700	0.081982	0.306704	0.824844	0.097974	0.078138	0.389896	0.702355	0.077374	0.043366	0.128180	0.336932	0.051034	0.035412	0.214336	0.284642	0.051943	0.040246	0.371604	0.394011	0.145885	0.119928	0.788024	1.309060	0.066719	0.046485	0.419477	0.469604	0.031948	0.033778	0.135861	0.154005	0.080286	0.078558	0.251552	0.512916	0.086146	0.089282	0.440978	0.290732	0.083567	0.064590	0.366616	0.794459	0.035101	0.030097	0.238678	0.635677	0.115407	0.080042	0.330088	0.830101	0.070537	0.062382	0.403452	0.296730	0.154824	0.103837	0.791651	0.673911	0.091783	0.075713	0.264663	0.513214	0.162980	0.106570	0.351640	0.887497	0.041174	0.046921	0.236863	0.093732
64	0.115355	0.091569	0.282805	0.719253	0.101385	0.083810	0.378427	0.720227	0.076741	0.039542	0.132142	0.358044	0.048321	0.034177	0.249969	0.260374	0.051608	0.031636	0.375286	0.413589	0.146473	0.117735	0.743402	1.250693	0.069956	0.046740	0.447064	0.516817	0.032571	0.034367	0.144997	0.144483	0.079924	0.077786	0.267214	0.495191	0.082168	0.090765	0.434225	0.289160	0.083826	0.064158	0.355701	0.803307	0.040281	0.035654	0.272776	0.611054	0.121969	0.082607	0.305947	0.843948	0.067238	0.061446	0.374183	0.289241	0.154624	0.104865	0.776918	0.676922	0.084005	0.071128	0.196025	0.504997	0.163184	0.105911	0.345390	0.887518	0.038743	0.043977	0.264197	0.150512
65	0.117049	0.095758	0.252809	0.655816	0.100128	0.085016	0.363823	0.708304	0.073887	0.036146	0.131899	0.388088	0.043793	0.033127	0.255691	0.227260	0.056797	0.027558	0.413517	0.447296	0.150848	0.115507	0.685188	1.268440	0.078575	0.047758	0.480984	0.551942	0.038417	0.035640	0.155395	0.125010	0.076504	0.077898	0.279285	0.494405	0.076990	0.091170	0.433150	0.319037	0.082482	0.062131	0.328518	0.905530	0.041505	0.038230	0.287042	0.587587	0.115065	0.077225	0.303020	0.831484	0.058594	0.056483	0.307478	0.258766	0.154813	0.105412	0.728944	0.692845	0.082773	0.070468	0.174577	0.484515	0.163404	0.105969	0.344587	0.883923	0.037029	0.037735	0.333488	0.176379
66	0.114230	0.094760	0.278765	0.669261	0.089357	0.080062	0.345324	0.704638	0.072765	0.036414	0.141331	0.432896	0.043934	0.032756	0.237485	0.243624	0.061758	0.026623	0.484917	0.464600	0.143803	0.106553	0.683021	1.288920	0.087982	0.050355	0.507490	0.574077	0.040462	0.035937	0.156280	0.124525	0.083792	0.080221	0.271292	0.503505	0.076884	0.092996	0.438688	0.357906	0.081627	0.061680	0.305960	1.018128	0.039199	0.037205	0.284690	0.586966	0.112286	0.073078	0.289019	0.879698	0.058304	0.050624	0.218796	0.246503	0.154300	0.105085	0.646161	0.715081	0.080997	0.067826	0.172727	0.486444	0.163812	0.107474	0.342300	0.831870	0.040701	0.037143	0.392438	0.176837
67	0.125195	0.103629	0.336948	0.654206	0.081449	0.075408	0.348430	0.715466	0.072883	0.037353	0.176160	0.470489	0.048255	0.034115	0.243558	0.344386	0.065015	0.026044	0.546138	0.460332	0.150310	0.113145	0.700246	1.238102	0.097416	0.054897	0.520396	0.583784	0.039998	0.032523	0.141930	0.126570	0.092700	0.081474	0.236210	0.513531	0.077735	0.093061	0.435931	0.366481	0.082790	0.064276	0.323840	1.051201	0.037596	0.036788	0.271038	0.573926	0.112206	0.074461	0.338165	0.955688	0.054169	0.040809	0.168126	0.316968	0.150749	0.104831	0.544828	0.745069	0.073644	0.062526	0.174133	0.448173	0.162895	0.108036	0.339613	0.715752	0.041866	0.039626	0.395540	0.180643
68	0.138408	0.113403	0.318909	0.585547	0.080862	0.075512	0.329911	0.645958	0.073755	0.037555	0.189837	0.479031	0.057556	0.037378	0.289080	0.488316	0.067682	0.026101	0.578451	0.447234	0.148049	0.120721	0.663796	1.125402	0.101934	0.058780	0.535649	0.584850	0.039321	0.029784	0.118017	0.135626	0.097705	0.079521	0.215902	0.534608	0.081390	0.095302	0.409934	0.353478	0.093007	0.074069	0.311872	1.022312	0.039294	0.037107	0.258089	0.526904	0.114550	0.081497	0.340172	0.997593	0.055168	0.040222	0.166816	0.432116	0.149180	0.106501	0.459008	0.786874	0.065668	0.059913	0.175108	0.353551	0.156737	0.104251	0.338655	0.586328	0.041673	0.067066	0.382043	0.193855
69	0.134259	0.109764	0.323847	0.620058	0.078980	0.072913	0.274640	0.556398	0.075211	0.038614	0.189205	0.468906	0.064004	0.038876	0.342371	0.566939	0.069773	0.028112	0.585090	0.431315	0.142059	0.112997	0.589104	1.060200	0.104992	0.060503	0.543938	0.594778	0.037281	0.028733	0.107601	0.171429	0.099610	0.075810	0.217336	0.542835	0.083775	0.095027	0.341607	0.328284	0.107161	0.087153	0.314730	1.006024	0.032982	0.034323	0.240305	0.412979	0.121890	0.092591	0.336495	0.988896	0.055874	0.042285	0.179223	0.484730	0.153769	0.111029	0.420891	0.840660	0.050618	0.055141	0.165640	0.258668	0.145096	0.097635	0.326496	0.530151	0.042051	0.111132	0.412325	0.221965
70	0.127814	0.105903	0.390968	0.706503	0.070290	0.067059	0.205605	0.538625	0.075883	0.038944	0.190094	0.461429	0.064958	0.037963	0.387299	0.570581	0.071555	0.042328	0.573037	0.428805	0.135672	0.105803	0.560590	1.071142	0.105582	0.060570	0.544840	0.620626	0.034301	0.030806	0.116539	0.198389	0.099759	0.073806	0.215465	0.540836	0.080100	0.089710	0.290354	0.337461	0.114373	0.095818	0.338968	1.025218	0.031003	0.032629	0.220648	0.330353	0.129997	0.102698	0.386746	0.965470	0.056903	0.045394	0.192106	0.481521	0.160276	0.116607	0.416838	0.873810	0.046161	0.046347	0.141877	0.204642	0.134545	0.089230	0.267575	0.548252	0.046275	0.135439	0.475073	0.254078
71	0.123739	0.105101	0.481203	0.702094	0.057701	0.059787	0.184548	0.529865	0.072929	0.038837	0.186567	0.464887	0.063551	0.033951	0.399328	0.614314	0.071552	0.063024	0.559842	0.428659	0.132776	0.104346	0.568725	1.058897	0.105632	0.061196	0.543949	0.655941	0.038719	0.035393	0.126708	0.203090	0.101102	0.073566	0.216404	0.539082	0.072773	0.082251	0.302118	0.358308	0.118398	0.098427	0.345965	1.038022	0.032453	0.032538	0.219213	0.321280	0.128091	0.107133	0.445433	0.955653	0.053226	0.046408	0.213335	0.483842	0.161751	0.118512	0.417074	0.865876	0.036495	0.033285	0.120555	0.263555	0.110829	0.075055	0.214621	0.541769	0.044879	0.138158	0.533038	0.269514
72	0.131940	0.105053	0.540177	0.649631	0.054983	0.059029	0.185697	0.486282	0.072940	0.039232	0.184628	0.499843	0.070946	0.032305	0.405221	0.682081	0.071150	0.081299	0.557951	0.423155	0.135283	0.109042	0.584426	0.977828	0.105996	0.063299	0.539955	0.689275	0.040640	0.038633	0.119051	0.207331	0.101429	0.073668	0.221870	0.533576	0.063133	0.073964	0.310354	0.360911	0.120184	0.098695	0.345653	1.017459	0.031913	0.030117	0.205505	0.253651	0.127188	0.107614	0.465609	0.971148	0.050697	0.044740	0.225727	0.510546	0.159639	0.116689	0.402712	0.842672	0.035349	0.032011	0.163746	0.320679	0.104875	0.068375	0.184989	0.477779	0.046429	0.144723	0.556941	0.272924
73	0.137131	0.099595	0.550264	0.623903	0.050173	0.052637	0.163551	0.384397	0.073915	0.039284	0.188789	0.562720	0.071014	0.036323	0.439404	0.737353	0.072990	0.084382	0.555942	0.422830	0.135763	0.118151	0.560929	0.826922	0.107946	0.068871	0.523847	0.719098	0.040014	0.038124	0.109102	0.208769	0.095941	0.070388	0.227808	0.506496	0.064842	0.074011	0.287843	0.345697	0.120292	0.102080	0.349512	0.973710	0.030024	0.026168	0.153150	0.163726	0.123633	0.105510	0.465905	0.999574	0.046582	0.037676	0.226192	0.551520	0.152993	0.112262	0.363548	0.853937	0.038996	0.040166	0.234959	0.351805	0.108088	0.068411	0.167492	0.379439	0.049284	0.158582	0.555830	0.273827
74	0.135684	0.093461	0.547017	0.629016	0.040896	0.038131	0.137221	0.308874	0.063884	0.035436	0.191523	0.639472	0.074270	0.046257	0.485792	0.757408	0.077241	0.088552	0.547869	0.420310	0.129375	0.119194	0.482740	0.729429	0.115783	0.080676	0.498417	0.745119	0.040063	0.036043	0.112227	0.208418	0.085053	0.061793	0.286625	0.474228	0.064947	0.072261	0.248690	0.340900	0.116089	0.104694	0.343212	0.929075	0.022861	0.017503	0.076485	0.126166	0.119083	0.107218	0.491144	1.002676	0.046459	0.038397	0.225991	0.577549	0.142202	0.106527	0.321627	0.906590	0.047448	0.047850	0.282640	0.354108	0.108825	0.062399	0.167791	0.336178	0.052062	0.167631	0.554593	0.272757
75	0.130576	0.088533	0.574962	0.575279	0.034206	0.030042	0.124010	0.390354	0.045859	0.032984	0.202095	0.650942	0.077369	0.048914	0.500530	0.759159	0.077452	0.102786	0.538085	0.418627	0.122136	0.114503	0.447358	0.743743	0.121429	0.092088	0.471142	0.751879	0.038119	0.035984	0.095984	0.207782	0.079091	0.052629	0.346630	0.451264	0.055799	0.063865	0.231702	0.362992	0.109626	0.103532	0.328612	0.893546	0.021319	0.014384	0.056784	0.097314	0.115517	0.111926	0.507996	0.959062	0.045881	0.040948	0.222447	0.581501	0.132211	0.100792	0.305865	0.962843	0.051431	0.049636	0.286154	0.359073	0.109789	0.052858	0.119748	0.338899	0.055938	0.167613	0.554562	0.271750
76	0.132996	0.089998	0.623756	0.545346	0.034442	0.030020	0.127925	0.429945	0.044250	0.036214	0.213518	0.627883	0.077683	0.048984	0.482610	0.772038	0.078458	0.112895	0.537991	0.419071	0.110177	0.111453	0.478056	0.717438	0.118393	0.097132	0.467218	0.749286	0.033677	0.035071	0.083741	0.203165	0.076495	0.048205	0.361800	0.441520	0.053680	0.059741	0.236098	0.374686	0.107343	0.099726	0.324285	0.873959	0.021723	0.015470	0.060091	0.107263	0.115147	0.113152	0.508547	0.911222	0.045067	0.041719	0.216620	0.579094	0.130241	0.098484	0.310852	0.999710	0.050816	0.049180	0.313902	0.387211	0.099247	0.047962	0.092171	0.346151	0.056879	0.167079	0.547176	0.260407
77	0.126643	0.085078	0.645751	0.513810	0.041149	0.034558	0.145799	0.413840	0.043276	0.036700	0.217490	0.615283	0.079226	0.054323	0.474774	0.796549	0.080601	0.145235	0.539964	0.423798	0.109006	0.110667	0.472441	0.606436	0.116512	0.099610	0.471591	0.746597	0.033253	0.034955	0.083515	0.189826	0.077109	0.047586	0.363744	0.440355	0.054706	0.059298	0.272142	0.343451	0.106898	0.097814	0.321779	0.870011	0.018445	0.016130	0.060335	0.108674	0.113767	0.110392	0.508030	0.896640	0.045515	0.042913	0.217092	0.580450	0.133568	0.101980	0.327080	1.004861	0.063295	0.058814	0.381764	0.427318	0.130994	0.052450	0.091797	0.342644	0.053976	0.166615	0.517747	0.242449
78	0.116369	0.071799	0.682270	0.508979	0.041998	0.036165	0.154360	0.406782	0.042844	0.035506	0.255983	0.614914	0.085301	0.065528	0.505293	0.805138	0.077104	0.234709	0.541826	0.430195	0.096161	0.098876	0.426741	0.516449	0.115753	0.098681	0.472017	0.730093	0.034049	0.035513	0.086352	0.198635	0.078625	0.048582	0.382567	0.442974	0.055718	0.060451	0.303265	0.307957	0.106824	0.097471	0.320017	0.870587	0.017033	0.015842	0.060274	0.108850	0.103957	0.105801	0.510864	0.943212	0.044752	0.044246	0.222467	0.588241	0.130284	0.106513	0.342524	0.981445	0.074066	0.070384	0.443215	0.454080	0.183323	0.054882	0.083297	0.336456	0.049617	0.166660	0.467933	0.238579
79	0.112853	0.062308	0.711352	0.548030	0.041020	0.034881	0.181211	0.433599	0.043111	0.035418	0.288290	0.610347	0.092336	0.076934	0.546092	0.758593	0.073659	0.284821	0.544228	0.427519	0.074258	0.085512	0.385188	0.602716	0.114701	0.095938	0.467751	0.690542	0.035022	0.035228	0.086214	0.189864	0.078744	0.051089	0.404533	0.449073	0.054328	0.062261	0.301576	0.302922	0.120404	0.097802	0.320074	0.854903	0.017407	0.016115	0.063337	0.109841	0.097754	0.101979	0.524733	0.972945	0.044332	0.045427	0.221752	0.585721	0.115480	0.105211	0.346875	0.949920	0.078781	0.076299	0.469791	0.465173	0.257650	0.057099	0.080638	0.335349	0.049463	0.167074	0.434374	0.250575
80	0.118488	0.059902	0.695595	0.487388	0.047241	0.042350	0.239081	0.458919	0.043356	0.035275	0.297547	0.597330	0.097280	0.086787	0.541663	0.668073	0.072315	0.300549	0.546155	0.417230	0.063679	0.081247	0.392523	0.691993	0.113816	0.095906	0.466281	0.683946	0.035535	0.033461	0.093070	0.152339	0.080596	0.052311	0.395569	0.465490	0.046810	0.054856	0.304129	0.302886	0.139794	0.098379	0.320343	0.763959	0.017144	0.016053	0.066669	0.112537	0.097495	0.101976	0.541390	0.938209	0.044869	0.045014	0.221570	0.533692	0.109242	0.102391	0.330785	0.924320	0.079857	0.077884	0.474591	0.465362	0.347634	0.062050	0.081162	0.333254	0.049243	0.163571	0.438706	0.261223
81	0.125785	0.058000	0.640999	0.413628	0.056447	0.047192	0.253230	0.461330	0.040984	0.034668	0.297898	0.592580	0.093685	0.088892	0.509500	0.630924	0.073191	0.304915	0.542599	0.394767	0.068519	0.084242	0.420940	0.676893	0.108892	0.095811	0.452647	0.716158	0.032145	0.029578	0.089156	0.119560	0.081188	0.051376	0.392935	0.459149	0.041360	0.051917	0.331819	0.290236	0.170485	0.097927	0.314793	0.593980	0.014119	0.016701	0.061756	0.113034	0.104693	0.105505	0.506790	0.867990	0.044344	0.043653	0.216016	0.446877	0.109420	0.100377	0.304770	0.919658	0.079685	0.077077	0.473195	0.449587	0.453710	0.066919	0.087548	0.318283	0.049639	0.144025	0.430566	0.250016
82	0.126988	0.057455	0.589846	0.431940	0.059084	0.048012	0.299986	0.502906	0.040592	0.033090	0.289478	0.596656	0.094385	0.090551	0.488639	0.642586	0.077250	0.350806	0.516436	0.353600	0.072500	0.087136	0.441058	0.668416	0.102330	0.095091	0.420776	0.724955	0.027466	0.024427	0.081187	0.102802	0.070626	0.043472	0.408160	0.429499	0.038783	0.052316	0.345429	0.269459	0.201358	0.095371	0.289666	0.464212	0.014234	0.016512	0.059226	0.110319	0.104463	0.102770	0.466644	0.834361	0.043225	0.042211	0.200452	0.401821	0.109857	0.099379	0.285424	0.921285	0.079319	0.076045	0.467496	0.403122	0.568656	0.070210	0.098616	0.305850	0.048246	0.115366	0.389297	0.219526
83	0.117047	0.053819	0.596544	0.450190	0.065947	0.055859	0.449203	0.523807	0.040644	0.032655	0.267217	0.605491	0.102443	0.098560	0.503972	0.598762	0.081078	0.386574	0.464488	0.343781	0.067734	0.082999	0.423584	0.689983	0.093407	0.095637	0.404188	0.715521	0.025583	0.019880	0.081421	0.093788	0.064460	0.036907	0.419322	0.433537	0.034313	0.048557	0.337640	0.249738	0.246090	0.089757	0.287079	0.438747	0.017152	0.018229	0.068404	0.114708	0.100232	0.094386	0.471120	0.848407	0.035238	0.036750	0.176219	0.401954	0.109653	0.098612	0.283749	0.918812	0.079352	0.074709	0.445922	0.363410	0.645382	0.070079	0.109847	0.292391	0.050141	0.111798	0.309459	0.203034
84	0.124656	0.074566	0.642768	0.462081	0.070237	0.072317	0.603285	0.527478	0.037898	0.032207	0.269137	0.607647	0.107377	0.105572	0.513571	0.517916	0.080830	0.404066	0.413919	0.429529	0.060922	0.069253	0.422051	0.707391	0.088003	0.094713	0.412605	0.724546	0.027006	0.020468	0.080520	0.092115	0.057474	0.035902	0.421754	0.508789	0.033159	0.045455	0.332545	0.242679	0.288400	0.078520	0.256470	0.433325	0.024224	0.022353	0.085069	0.110815	0.098557	0.087940	0.471074	0.865455	0.035464	0.034975	0.139989	0.390358	0.110659	0.098775	0.284028	0.913398	0.076815	0.069972	0.410219	0.342093	0.663132	0.081449	0.111547	0.261096	0.050500	0.107284	0.230379	0.202196
85	0.148860	0.090033	0.681270	0.454927	0.077746	0.083179	0.660591	0.472344	0.035822	0.031140	0.278794	0.602848	0.112262	0.108230	0.495848	0.440553	0.078179	0.412536	0.393686	0.545897	0.058902	0.068333	0.438857	0.695605	0.086900	0.093479	0.429810	0.758881	0.025799	0.029833	0.074363	0.093058	0.072300	0.049234	0.420650	0.593596	0.030292	0.044710	0.331866	0.241752	0.291182	0.066356	0.183246	0.390541	0.029336	0.025430	0.099812	0.087642	0.102076	0.088551	0.445792	0.858885	0.035074	0.037057	0.141784	0.344194	0.111997	0.098837	0.280616	0.903493	0.071709	0.065836	0.391815	0.340508	0.823293	0.097424	0.110524	0.209690	0.047991	0.104062	0.210832	0.209440
86	0.175488	0.093410	0.689313	0.457017	0.078428	0.083013	0.673386	0.413825	0.037736	0.031643	0.277424	0.605718	0.109698	0.105108	0.460254	0.414832	0.076836	0.417049	0.407348	0.621927	0.063402	0.080279	0.422080	0.667742	0.086845	0.093294	0.444594	0.788098	0.026572	0.039750	0.077551	0.096245	0.084857	0.059213	0.426935	0.644729	0.028163	0.044414	0.327172	0.211658	0.321193	0.061864	0.143696	0.314812	0.030702	0.027427	0.105413	0.075652	0.112492	0.092168	0.430171	0.824555	0.034975	0.039056	0.164077	0.264300	0.112278	0.097600	0.269152	0.878870	0.069981	0.065797	0.391505	0.320064	0.922222	0.100168	0.115215	0.210477	0.045462	0.079329	0.215521	0.210711
87	0.191014	0.092410	0.674819	0.456534	0.075894	0.085897	0.773631	0.438881	0.047546	0.037289	0.282351	0.608001	0.107857	0.104228	0.440756	0.406369	0.074782	0.418483	0.426633	0.667115	0.072705	0.087561	0.384514	0.651812	0.086972	0.094646	0.446838	0.799524	0.029395	0.043394	0.084698	0.103287	0.090706	0.066743	0.442542	0.642406	0.028229	0.044779	0.324027	0.162289	0.333616	0.061277	0.141659	0.219739	0.034043	0.027197	0.114504	0.078259	0.115624	0.094381	0.434884	0.783928	0.034865	0.035625	0.172437	0.208263	0.108155	0.093373	0.254288	0.829987	0.069175	0.064944	0.359867	0.265822	0.939420	0.106716	0.170056	0.245684	0.040648	0.075290	0.217630	0.232329
88	0.223245	0.095673	0.623600	0.456298	0.081757	0.099375	0.921281	0.467245	0.052299	0.040457	0.300809	0.590226	0.107720	0.103763	0.438367	0.376313	0.076210	0.418742	0.430315	0.687197	0.075451	0.089887	0.370871	0.650894	0.090114	0.099645	0.446258	0.811789	0.033328	0.048611	0.085984	0.105730	0.096042	0.071524	0.477527	0.646962	0.028829	0.044258	0.316710	0.137618	0.342303	0.056802	0.122155	0.151824	0.037450	0.027668	0.163572	0.092681	0.113591	0.090333	0.417351	0.762158	0.034112	0.033266	0.173186	0.198006	0.099130	0.086350	0.253726	0.785179	0.052288	0.052947	0.276322	0.184821	0.948566	0.119385	0.253217	0.266908	0.036698	0.075093	0.217949	0.281775
89	0.238134	0.098762	0.590446	0.415504	0.097390	0.115241	1.007960	0.467907	0.051887	0.039338	0.298390	0.521220	0.106059	0.100107	0.430816	0.316148	0.083112	0.419734	0.429608	0.700551	0.075395	0.088939	0.369798	0.639834	0.093355	0.111887	0.457809	0.818375	0.035575	0.049510	0.088815	0.085618	0.096576	0.072611	0.506892	0.665309	0.026639	0.040033	0.279391	0.134838	0.343211	0.048618	0.078375	0.131426	0.044253	0.032271	0.240820	0.094381	0.110065	0.083482	0.398492	0.759793	0.034170	0.032337	0.176670	0.201569	0.096915	0.082351	0.259552	0.776301	0.038122	0.038027	0.182584	0.111989	0.960338	0.129178	0.353182	0.291116	0.036065	0.075306	0.224383	0.324047
90	0.279423	0.098850	0.593659	0.288234	0.104729	0.121075	1.024962	0.447640	0.059653	0.042304	0.298939	0.442560	0.100102	0.092523	0.385046	0.277234	0.082691	0.421426	0.430100	0.712813	0.073664	0.085562	0.369207	0.560002	0.089183	0.136539	0.466068	0.805271	0.034500	0.050354	0.088529	0.083834	0.096478	0.072609	0.475058	0.674255	0.024758	0.036216	0.240016	0.134759	0.344177	0.046792	0.068199	0.144205	0.046563	0.032412	0.258144	0.092413	0.110337	0.081859	0.484133	0.746402	0.033985	0.031088	0.172479	0.191456	0.098313	0.081865	0.257569	0.771181	0.026985	0.027070	0.128172	0.088402	0.974194	0.132189	0.453701	0.346405	0.036155	0.076158	0.235872	0.344904
91	0.327919	0.099787	0.635401	0.268147	0.100450	0.119210	1.021921	0.442716	0.065020	0.045197	0.289252	0.442652	0.089615	0.082535	0.312472	0.273453	0.082236	0.420360	0.430423	0.719645	0.068512	0.080204	0.360696	0.422714	0.075237	0.154444	0.456535	0.800150	0.035589	0.051166	0.082914	0.090198	0.096184	0.073806	0.451261	0.691471	0.025500	0.033080	0.234383	0.134046	0.359430	0.052493	0.070814	0.155918	0.048182	0.033851	0.265735	0.095303	0.115342	0.084587	0.635010	0.685748	0.038164	0.029588	0.180497	0.165964	0.098057	0.081948	0.250489	0.731453	0.019313	0.022540	0.121551	0.087581	0.986662	0.134014	0.519836	0.404191	0.036487	0.077208	0.241591	0.342052
92	0.427375	0.099204	0.656579	0.243284	0.101185	0.121718	1.037886	0.420259	0.066337	0.044637	0.286711	0.476971	0.079555	0.072521	0.290420	0.270779	0.086748	0.416985	0.427897	0.719772	0.061256	0.075646	0.325510	0.384426	0.068906	0.163645	0.441596	0.801824	0.039631	0.050573	0.081003	0.093005	0.102162	0.079955	0.483034	0.725184	0.025899	0.033562	0.221516	0.126840	0.385823	0.055966	0.076754	0.157420	0.050304	0.035020	0.347871	0.101226	0.122570	0.087811	0.742524	0.583129	0.051246	0.029562	0.185352	0.158463	0.093757	0.080680	0.254210	0.658090	0.016786	0.022372	0.122443	0.087264	0.989550	0.134559	0.542501	0.418708	0.034370	0.076598	0.231181	0.340523
93	0.454806	0.105241	0.636220	0.227349	0.106808	0.125746	1.097194	0.383598	0.066808	0.044762	0.277421	0.506481	0.078235	0.072683	0.288138	0.238515	0.098267	0.415749	0.425138	0.719679	0.056391	0.072004	0.271477	0.380239	0.067516	0.163426	0.436108	0.796393	0.070798	0.053639	0.085738	0.095583	0.113037	0.090156	0.523868	0.752091	0.026085	0.034408	0.173398	0.115828	0.399432	0.064190	0.081611	0.152891	0.049632	0.047457	0.458643	0.116512	0.135110	0.092325	0.787850	0.503841	0.057851	0.030672	0.185492	0.161609	0.085228	0.077534	0.253770	0.572956	0.016657	0.022350	0.118339	0.085109	0.986183	0.134368	0.546496	0.416467	0.034294	0.076082	0.214385	0.369368
94	0.469283	0.128997	0.591875	0.240902	0.120106	0.126791	1.138180	0.369424	0.067628	0.045348	0.237735	0.529038	0.075077	0.069101	0.262568	0.182783	0.096922	0.400309	0.431753	0.725924	0.056378	0.069548	0.257513	0.340923	0.071974	0.168834	0.433844	0.788353	0.097971	0.055831	0.091927	0.096104	0.122227	0.097633	0.524383	0.756320	0.025789	0.032377	0.116380	0.098306	0.405283	0.073376	0.089228	0.144441	0.051819	0.058300	0.525149	0.129401	0.155957	0.098851	0.784963	0.494164	0.102648	0.030998	0.184527	0.161884	0.078948	0.074830	0.237351	0.491653	0.016565	0.021332	0.109964	0.085390	0.971810	0.133088	0.548881	0.432607	0.031685	0.070688	0.203511	0.408316
95	0.612650	0.151607	0.552103	0.232690	0.124557	0.126873	1.148015	0.370463	0.072206	0.048801	0.218886	0.534026	0.058297	0.055803	0.218738	0.141632	0.099022	0.354448	0.439948	0.760884	0.056882	0.069844	0.258751	0.284442	0.075664	0.184111	0.432069	0.806479	0.117516	0.055224	0.096551	0.100163	0.123065	0.097848	0.509486	0.752764	0.024066	0.029232	0.083533	0.115013	0.401044	0.076748	0.098490	0.140391	0.049583	0.058353	0.534527	0.140881	0.161962	0.100400	0.783306	0.483663	0.119696	0.029785	0.183984	0.157009	0.074040	0.070580	0.213488	0.430867	0.018079	0.021510	0.101948	0.083930	0.946118	0.131084	0.567474	0.476710	0.027832	0.063746	0.192144	0.426222
96	0.691359	0.155065	0.508152	0.230906	0.125067	0.127678	1.149170	0.398973	0.075814	0.052351	0.243703	0.534223	0.039316	0.041767	0.176363	0.119788	0.102537	0.320420	0.442984	0.816657	0.055960	0.064330	0.222968	0.232502	0.074291	0.190402	0.412219	0.817486	0.134798	0.049019	0.098924	0.100949	0.122020	0.097912	0.509156	0.752310	0.023362	0.028141	0.104666	0.132210	0.390663	0.077056	0.104480	0.141616	0.049358	0.057677	0.533716	0.140852	0.161483	0.100645	0.832631	0.438523	0.120970	0.030165	0.179963	0.152731	0.067882	0.060731	0.192452	0.405880	0.017026	0.026938	0.095486	0.081583	0.904302	0.127880	0.615471	0.534141	0.037579	0.063814	0.193278	0.431438
97	0.707934	0.155420	0.460503	0.228763	0.128171	0.131024	1.128253	0.381944	0.076115	0.053227	0.264482	0.540557	0.027377	0.031384	0.156055	0.125378	0.102701	0.310371	0.443468	0.853632	0.047646	0.047456	0.183428	0.210025	0.075080	0.191318	0.385215	0.798441	0.145953	0.043948	0.097922	0.098559	0.122118	0.098218	0.500826	0.760125	0.023340	0.027806	0.126031	0.131671	0.376588	0.077002	0.102132	0.141951	0.045874	0.057737	0.533074	0.139801	0.164217	0.102782	0.929251	0.368292	0.132836	0.030346	0.174982	0.164102	0.063573	0.048869	0.175135	0.408983	0.019749	0.035742	0.085644	0.079834	0.842246	0.128486	0.680632	0.592955	0.045322	0.046711	0.199206	0.431807
98	0.705205	0.154112	0.462852	0.229121	0.138872	0.139953	1.084145	0.336502	0.076961	0.052975	0.268138	0.538458	0.028871	0.040649	0.177392	0.135519	0.101132	0.303897	0.439262	0.859268	0.031515	0.032748	0.165352	0.207870	0.074496	0.191419	0.376048	0.788670	0.176143	0.038607	0.093725	0.093894	0.121770	0.098243	0.493640	0.758793	0.024156	0.027875	0.129091	0.132771	0.357016	0.076279	0.102643	0.147091	0.042304	0.056739	0.529534	0.129178	0.164471	0.108797	1.008555	0.317814	0.159542	0.028722	0.153566	0.173165	0.059388	0.039890	0.170456	0.419386	0.019231	0.036084	0.078576	0.077662	0.780735	0.139122	0.746313	0.636466	0.047493	0.042773	0.194467	0.430611
99	0.694764	0.149609	0.477290	0.235016	0.137855	0.136865	1.028503	0.297571	0.079956	0.054202	0.269469	0.530122	0.033383	0.047287	0.203202	0.135730	0.098367	0.247689	0.422141	0.856368	0.024893	0.043475	0.188087	0.214624	0.078368	0.190326	0.386864	0.789956	0.226259	0.034804	0.088466	0.087479	0.120718	0.098498	0.494720	0.724755	0.024336	0.027217	0.129934	0.135574	0.314353	0.076320	0.110168	0.151966	0.036103	0.055847	0.539796	0.132904	0.170778	0.114440	1.037818	0.296965	0.173728	0.026230	0.135848	0.162729	0.057131	0.035025	0.174640	0.424164	0.018890	0.037544	0.072096	0.075556	0.772366	0.151549	0.799316	0.654577	0.047896	0.043384	0.189996	0.427855
100	0.683277	0.149152	0.459452	0.240816	0.130516	0.129161	1.008262	0.282662	0.087422	0.058425	0.270709	0.525758	0.034017	0.048434	0.209609	0.131138	0.096214	0.197021	0.394717	0.836507	0.026473	0.059131	0.247291	0.200973	0.086535	0.191488	0.369093	0.784369	0.230544	0.034191	0.084151	0.089653	0.117339	0.095522	0.499401	0.654156	0.024522	0.025147	0.131686	0.134867	0.312948	0.076915	0.122347	0.153791	0.038107	0.056605	0.559467	0.133864	0.171986	0.115434	1.038779	0.290694	0.189523	0.025932	0.125549	0.143535	0.055666	0.034176	0.180958	0.418039	0.018803	0.037280	0.066535	0.063547	0.639966	0.152889	0.822811	0.659418	0.047851	0.057753	0.191459	0.403850
101	0.685108	0.150778	0.428128	0.250287	0.127920	0.127412	1.007510	0.281717	0.099422	0.063997	0.299625	0.525054	0.034451	0.048287	0.208460	0.128412	0.094421	0.164302	0.376847	0.772274	0.027933	0.062412	0.298632	0.153552	0.092108	0.192694	0.332136	0.756731	0.233396	0.032484	0.083439	0.086090	0.107167	0.089270	0.502295	0.576690	0.023565	0.023028	0.127921	0.139166	0.291941	0.075013	0.135419	0.153833	0.037236	0.057040	0.550326	0.134125	0.174827	0.114548	1.034193	0.293025	0.218931	0.026048	0.125113	0.133756	0.056363	0.037090	0.184281	0.402484	0.018883	0.036940	0.063063	0.048060	0.447772	0.154048	0.829498	0.651702	0.049067	0.076341	0.190889	0.367279
