	216_C_T1_sh_L_ND_01.c3d	216_C_T1_sh_L_ND_01.c3d	216_C_T1_sh_L_ND_01.c3d	216_C_T1_sh_L_ND_01.c3d	216_C_T1_sh_L_ND_01.c3d	216_C_T1_sh_L_ND_01.c3d	216_C_T1_sh_L_ND_01.c3d	216_C_T1_sh_L_ND_01.c3d	216_C_T1_sh_L_ND_02.c3d	216_C_T1_sh_L_ND_02.c3d	216_C_T1_sh_L_ND_02.c3d	216_C_T1_sh_L_ND_02.c3d	216_C_T1_sh_L_ND_02.c3d	216_C_T1_sh_L_ND_02.c3d	216_C_T1_sh_L_ND_02.c3d	216_C_T1_sh_L_ND_02.c3d	216_C_T1_sh_L_ND_03.c3d	216_C_T1_sh_L_ND_03.c3d	216_C_T1_sh_L_ND_03.c3d	216_C_T1_sh_L_ND_03.c3d	216_C_T1_sh_L_ND_03.c3d	216_C_T1_sh_L_ND_03.c3d	216_C_T1_sh_L_ND_03.c3d	216_C_T1_sh_L_ND_03.c3d	216_C_T1_sh_L_ND_04.c3d	216_C_T1_sh_L_ND_04.c3d	216_C_T1_sh_L_ND_04.c3d	216_C_T1_sh_L_ND_04.c3d	216_C_T1_sh_L_ND_04.c3d	216_C_T1_sh_L_ND_04.c3d	216_C_T1_sh_L_ND_04.c3d	216_C_T1_sh_L_ND_04.c3d	216_C_T1_sh_L_ND_05.c3d	216_C_T1_sh_L_ND_05.c3d	216_C_T1_sh_L_ND_05.c3d	216_C_T1_sh_L_ND_05.c3d	216_C_T1_sh_L_ND_05.c3d	216_C_T1_sh_L_ND_05.c3d	216_C_T1_sh_L_ND_05.c3d	216_C_T1_sh_L_ND_05.c3d	216_C_T1_sh_L_ND_08.c3d	216_C_T1_sh_L_ND_08.c3d	216_C_T1_sh_L_ND_08.c3d	216_C_T1_sh_L_ND_08.c3d	216_C_T1_sh_L_ND_08.c3d	216_C_T1_sh_L_ND_08.c3d	216_C_T1_sh_L_ND_08.c3d	216_C_T1_sh_L_ND_08.c3d	216_C_T1_sh_L_ND_09.c3d	216_C_T1_sh_L_ND_09.c3d	216_C_T1_sh_L_ND_09.c3d	216_C_T1_sh_L_ND_09.c3d	216_C_T1_sh_L_ND_09.c3d	216_C_T1_sh_L_ND_09.c3d	216_C_T1_sh_L_ND_09.c3d	216_C_T1_sh_L_ND_09.c3d	216_C_T1_sh_L_ND_10.c3d	216_C_T1_sh_L_ND_10.c3d	216_C_T1_sh_L_ND_10.c3d	216_C_T1_sh_L_ND_10.c3d	216_C_T1_sh_L_ND_10.c3d	216_C_T1_sh_L_ND_10.c3d	216_C_T1_sh_L_ND_10.c3d	216_C_T1_sh_L_ND_10.c3d
	Biceps femoris_lat	Semitendinosus_lat	Vastus lateralis_lat	Vastus medialis_lat	Biceps femoris_med	Semitendinosus_med	Vastus lateralis_med	Vastus medialis_med	Biceps femoris_lat	Semitendinosus_lat	Vastus lateralis_lat	Vastus medialis_lat	Biceps femoris_med	Semitendinosus_med	Vastus lateralis_med	Vastus medialis_med	Biceps femoris_lat	Semitendinosus_lat	Vastus lateralis_lat	Vastus medialis_lat	Biceps femoris_med	Semitendinosus_med	Vastus lateralis_med	Vastus medialis_med	Biceps femoris_lat	Semitendinosus_lat	Vastus lateralis_lat	Vastus medialis_lat	Biceps femoris_med	Semitendinosus_med	Vastus lateralis_med	Vastus medialis_med	Biceps femoris_lat	Semitendinosus_lat	Vastus lateralis_lat	Vastus medialis_lat	Biceps femoris_med	Semitendinosus_med	Vastus lateralis_med	Vastus medialis_med	Biceps femoris_lat	Semitendinosus_lat	Vastus lateralis_lat	Vastus medialis_lat	Biceps femoris_med	Semitendinosus_med	Vastus lateralis_med	Vastus medialis_med	Biceps femoris_lat	Semitendinosus_lat	Vastus lateralis_lat	Vastus medialis_lat	Biceps femoris_med	Semitendinosus_med	Vastus lateralis_med	Vastus medialis_med	Biceps femoris_lat	Semitendinosus_lat	Vastus lateralis_lat	Vastus medialis_lat	Biceps femoris_med	Semitendinosus_med	Vastus lateralis_med	Vastus medialis_med
	P2D	P2D	P2D	P2D	P2D	P2D	P2D	P2D	P2D	P2D	P2D	P2D	P2D	P2D	P2D	P2D	P2D	P2D	P2D	P2D	P2D	P2D	P2D	P2D	P2D	P2D	P2D	P2D	P2D	P2D	P2D	P2D	P2D	P2D	P2D	P2D	P2D	P2D	P2D	P2D	P2D	P2D	P2D	P2D	P2D	P2D	P2D	P2D	P2D	P2D	P2D	P2D	P2D	P2D	P2D	P2D	P2D	P2D	P2D	P2D	P2D	P2D	P2D	P2D
	EMG_lat	EMG_lat	EMG_lat	EMG_lat	EMG_med	EMG_med	EMG_med	EMG_med	EMG_lat	EMG_lat	EMG_lat	EMG_lat	EMG_med	EMG_med	EMG_med	EMG_med	EMG_lat	EMG_lat	EMG_lat	EMG_lat	EMG_med	EMG_med	EMG_med	EMG_med	EMG_lat	EMG_lat	EMG_lat	EMG_lat	EMG_med	EMG_med	EMG_med	EMG_med	EMG_lat	EMG_lat	EMG_lat	EMG_lat	EMG_med	EMG_med	EMG_med	EMG_med	EMG_lat	EMG_lat	EMG_lat	EMG_lat	EMG_med	EMG_med	EMG_med	EMG_med	EMG_lat	EMG_lat	EMG_lat	EMG_lat	EMG_med	EMG_med	EMG_med	EMG_med	EMG_lat	EMG_lat	EMG_lat	EMG_lat	EMG_med	EMG_med	EMG_med	EMG_med
ITEM	Y	Y	Y	Y	Y	Y	Y	Y	Y	Y	Y	Y	Y	Y	Y	Y	Y	Y	Y	Y	Y	Y	Y	Y	Y	Y	Y	Y	Y	Y	Y	Y	Y	Y	Y	Y	Y	Y	Y	Y	Y	Y	Y	Y	Y	Y	Y	Y	Y	Y	Y	Y	Y	Y	Y	Y	Y	Y	Y	Y	Y	Y	Y	Y
1	0.359223	0.499845	0.196429	0.134093	0.289102	0.643208	0.320598	0.133034	0.345831	0.651979	0.221646	0.202861	0.415387	0.516811	0.327898	0.372815	0.448016	0.247779	0.239602	0.151311	0.234848	0.502563	0.246233	0.201598	0.366999	0.209538	0.210760	0.206781	0.642925	0.339421	0.162009	0.123486	0.765674	0.230305	0.459995	0.292523	0.345241	0.483927	0.421856	0.335868	0.299669	0.375609	0.788788	0.148474	0.213460	0.655361	0.304512	0.150217	0.422442	0.543454	0.473976	0.320233	0.085059	0.105664	0.531200	0.416018	0.644151	0.326324	0.265974	0.184000	0.067010	0.978913	0.341594	0.327610
2	0.343765	0.526874	0.218790	0.143020	0.242007	0.588835	0.331650	0.137575	0.334991	0.609182	0.261642	0.204730	0.409745	0.519130	0.331769	0.375548	0.464570	0.222568	0.224064	0.231515	0.248018	0.412937	0.242310	0.202366	0.352153	0.209955	0.175945	0.220721	0.530098	0.363138	0.172817	0.158526	0.583645	0.230076	0.454317	0.286947	0.340336	0.447209	0.427530	0.347287	0.269944	0.328332	0.768350	0.143432	0.132958	0.472612	0.198769	0.142273	0.599992	0.566110	0.495305	0.329941	0.087247	0.118924	0.563901	0.363485	0.623260	0.324104	0.268723	0.166977	0.066855	1.006868	0.325137	0.322677
3	0.282831	0.539731	0.228176	0.138696	0.226700	0.525118	0.354778	0.139783	0.280377	0.571969	0.460286	0.230935	0.371828	0.528513	0.371209	0.387088	0.558844	0.226849	0.188332	0.222783	0.461494	0.332767	0.255076	0.169107	0.393919	0.250313	0.130255	0.218544	0.398529	0.460849	0.172152	0.154987	0.590231	0.256253	0.320319	0.285859	0.284322	0.375019	0.411766	0.347311	0.276714	0.291339	0.541796	0.158035	0.123207	0.457237	0.171843	0.157930	0.747789	0.609042	0.594571	0.332933	0.086953	0.121937	0.555932	0.261500	0.578467	0.274938	0.340251	0.146579	0.062985	1.007186	0.329770	0.362414
4	0.282230	0.535799	0.191502	0.140719	0.223325	0.510689	0.381788	0.134685	0.351377	0.701846	0.515422	0.245670	0.334131	0.509696	0.411013	0.410175	0.566322	0.194744	0.283932	0.211216	0.464197	0.353865	0.310302	0.169818	0.360209	0.292127	0.161731	0.230641	0.288618	0.535488	0.233290	0.153912	0.519723	0.264441	0.268297	0.325864	0.154668	0.326971	0.391819	0.320102	0.269694	0.291710	0.519307	0.202112	0.124291	0.458749	0.191337	0.171274	0.940957	0.708715	0.648867	0.235486	0.086574	0.123028	0.554512	0.234047	0.473574	0.287702	0.423083	0.150038	0.061668	0.992004	0.330255	0.409733
5	0.264092	0.502424	0.176954	0.144985	0.222246	0.511339	0.379163	0.178849	0.458094	0.684729	0.624838	0.244103	0.226144	0.409378	0.415913	0.401476	0.563454	0.195950	0.477211	0.208885	0.460775	0.338957	0.291533	0.143315	0.333718	0.284473	0.329425	0.336949	0.146470	0.536441	0.295357	0.173631	0.367057	0.264996	0.125481	0.356633	0.119059	0.313849	0.365961	0.316553	0.244310	0.262399	0.349563	0.191209	0.125066	0.403498	0.191068	0.180022	0.982890	0.696364	0.650101	0.236900	0.084753	0.123769	0.533699	0.219269	0.457215	0.283607	0.430283	0.175234	0.060385	0.951909	0.330093	0.421957
6	0.323712	0.443285	0.160990	0.168318	0.209222	0.513355	0.375404	0.166537	0.525680	0.645385	0.664784	0.252557	0.135597	0.264172	0.443367	0.386409	0.518277	0.183299	0.514909	0.213588	0.455021	0.313169	0.398589	0.136805	0.385293	0.289488	0.378260	0.327190	0.130800	0.530505	0.305665	0.185609	0.408419	0.370179	0.115484	0.322631	0.101833	0.350472	0.364987	0.341142	0.182065	0.217313	0.311392	0.186057	0.178350	0.337694	0.185951	0.202616	1.006301	0.697484	0.652560	0.241939	0.080433	0.128862	0.505492	0.206617	0.452653	0.290582	0.436316	0.178507	0.059157	0.880094	0.330854	0.426086
7	0.410713	0.391234	0.154962	0.169160	0.202606	0.506208	0.448987	0.165685	0.605389	0.627665	0.669228	0.203141	0.127147	0.227683	0.403167	0.393850	0.509445	0.189005	0.558098	0.241663	0.451400	0.303236	0.468755	0.130625	0.396067	0.297849	0.498679	0.359266	0.128894	0.517906	0.323967	0.241761	0.522444	0.415377	0.116170	0.291469	0.094373	0.386167	0.364704	0.318074	0.199595	0.193563	0.339086	0.228261	0.203979	0.329080	0.165424	0.313213	1.007223	0.695251	0.660592	0.196979	0.073543	0.128715	0.495016	0.217907	0.459011	0.466609	0.437344	0.142462	0.059416	0.838884	0.331855	0.504625
8	0.402729	0.331744	0.199824	0.194190	0.203458	0.439343	0.446068	0.178744	0.636797	0.621009	0.658869	0.238660	0.121599	0.241843	0.393593	0.409103	0.479865	0.231605	0.565780	0.227779	0.431531	0.253575	0.471675	0.138940	0.364113	0.268374	0.505956	0.370348	0.128875	0.509279	0.315941	0.329416	0.522859	0.482225	0.177416	0.286712	0.093097	0.385485	0.292251	0.278034	0.223325	0.152575	0.321825	0.272209	0.204703	0.317622	0.317363	0.323923	0.991333	0.584693	0.623466	0.192024	0.059760	0.140560	0.499999	0.314010	0.462151	0.502193	0.422518	0.117723	0.060499	0.839153	0.335278	0.665624
9	0.438477	0.323591	0.221188	0.208618	0.180476	0.337936	0.413109	0.209536	0.695150	0.577178	0.575756	0.241330	0.149110	0.265113	0.392408	0.414802	0.463224	0.243740	0.577241	0.194455	0.424759	0.250991	0.473535	0.144421	0.321865	0.247693	0.502999	0.379444	0.104783	0.498471	0.312571	0.366070	0.561749	0.477683	0.171292	0.294036	0.100007	0.399413	0.228142	0.345245	0.229623	0.141885	0.311457	0.273048	0.213284	0.323378	0.390767	0.327523	0.940167	0.502910	0.504835	0.193025	0.072274	0.258850	0.500650	0.342997	0.470346	0.512231	0.372770	0.132449	0.059035	0.817746	0.297545	0.772652
10	0.434450	0.284559	0.338166	0.210395	0.146312	0.224554	0.390535	0.214820	0.664042	0.367448	0.529094	0.249922	0.139325	0.272385	0.375582	0.465208	0.257031	0.235285	0.580740	0.193941	0.362022	0.273402	0.469832	0.294792	0.371822	0.256083	0.486423	0.380766	0.084474	0.495361	0.314270	0.423193	0.575162	0.474928	0.189980	0.277258	0.107963	0.410394	0.239876	0.426818	0.224162	0.133145	0.310950	0.283515	0.233792	0.352339	0.586454	0.333465	0.773083	0.490343	0.483114	0.205079	0.110061	0.306314	0.449000	0.367688	0.594531	0.588290	0.366294	0.148978	0.058161	0.731201	0.315423	0.762718
11	0.440239	0.286962	0.348362	0.220678	0.148745	0.177243	0.387260	0.214599	0.585489	0.327055	0.407344	0.354638	0.128122	0.270980	0.350981	0.448333	0.244254	0.218476	0.506636	0.203450	0.149582	0.253465	0.439420	0.336481	0.365984	0.250738	0.387075	0.317943	0.070927	0.490284	0.306141	0.423266	0.569421	0.480682	0.189319	0.199977	0.104164	0.408924	0.229906	0.435270	0.230059	0.125030	0.269647	0.263099	0.265400	0.352503	0.603307	0.365096	0.641986	0.357841	0.402482	0.266401	0.153435	0.311616	0.368572	0.407054	0.598743	0.581038	0.367340	0.162962	0.065273	0.578338	0.317642	0.796360
12	0.432500	0.272076	0.346905	0.267778	0.148313	0.167921	0.387497	0.245787	0.538990	0.330104	0.335328	0.454507	0.128737	0.260868	0.348053	0.394358	0.261840	0.187001	0.366096	0.191778	0.139218	0.241283	0.423502	0.366772	0.315493	0.227442	0.330814	0.311972	0.091411	0.416883	0.302281	0.452935	0.539935	0.410825	0.184650	0.182632	0.098151	0.399375	0.215218	0.458720	0.215212	0.110812	0.228523	0.266352	0.257423	0.348141	0.616748	0.450136	0.368308	0.191522	0.327035	0.266092	0.202946	0.317442	0.348869	0.436493	0.594015	0.572511	0.273556	0.204005	0.084725	0.384601	0.301345	0.896412
13	0.318718	0.320770	0.341949	0.264790	0.148641	0.166053	0.419361	0.348062	0.453158	0.341217	0.329354	0.464872	0.129977	0.245087	0.347295	0.435000	0.295221	0.202470	0.326095	0.167295	0.134646	0.231031	0.414782	0.374746	0.315504	0.348386	0.118167	0.254815	0.090144	0.266029	0.292026	0.483608	0.337650	0.376789	0.183012	0.250317	0.098542	0.368420	0.239735	0.460963	0.214543	0.103221	0.210311	0.266827	0.242335	0.329724	0.654150	0.495434	0.228743	0.142273	0.327628	0.269757	0.227263	0.322951	0.240450	0.457201	0.577651	0.566444	0.162823	0.237141	0.085493	0.249759	0.337210	0.929300
14	0.303990	0.337204	0.344544	0.280737	0.152463	0.166673	0.410345	0.363719	0.400986	0.300553	0.308316	0.453274	0.135915	0.226073	0.298782	0.555048	0.420732	0.312395	0.252550	0.137436	0.169880	0.207820	0.252295	0.383516	0.315656	0.471975	0.095492	0.241311	0.100146	0.221894	0.200922	0.515152	0.296984	0.218888	0.122096	0.261040	0.106368	0.330624	0.331279	0.457082	0.206396	0.114313	0.152928	0.234285	0.196096	0.299457	0.655074	0.454297	0.153685	0.124284	0.297900	0.290925	0.289611	0.334223	0.248530	0.461760	0.574097	0.576149	0.154399	0.231632	0.088393	0.221280	0.335085	0.918156
15	0.377200	0.332998	0.323929	0.280918	0.157994	0.164187	0.408520	0.437262	0.258922	0.300198	0.261255	0.460192	0.136892	0.209550	0.262519	0.568223	0.553203	0.393773	0.236973	0.119604	0.200547	0.198174	0.215852	0.410848	0.506248	0.462321	0.086400	0.242488	0.107229	0.210176	0.175456	0.566440	0.189181	0.191428	0.259682	0.261836	0.108536	0.383074	0.333071	0.467464	0.256206	0.254367	0.163360	0.183460	0.191842	0.295346	0.640907	0.577821	0.169726	0.144956	0.280173	0.336191	0.307256	0.348848	0.218843	0.464000	0.586665	0.577598	0.151601	0.241250	0.097805	0.232928	0.345750	0.900908
16	0.468110	0.346986	0.265271	0.312235	0.182331	0.160641	0.410015	0.456570	0.248838	0.303727	0.186997	0.467683	0.148716	0.207575	0.260347	0.626211	0.575510	0.410327	0.208960	0.082749	0.200920	0.201548	0.272310	0.491259	0.518266	0.492967	0.082537	0.213996	0.110383	0.186350	0.110958	0.579194	0.097411	0.172671	0.281948	0.237526	0.096631	0.448425	0.369107	0.489511	0.316441	0.275449	0.158876	0.307889	0.187344	0.282655	0.582391	0.636417	0.456863	0.202817	0.252980	0.345587	0.339251	0.367756	0.227645	0.471468	0.581813	0.427997	0.162263	0.265073	0.100345	0.223226	0.349067	0.904638
17	0.534081	0.333681	0.168258	0.313290	0.211107	0.152472	0.350696	0.527886	0.217786	0.308196	0.275224	0.415781	0.158221	0.211048	0.236647	0.678293	0.672508	0.514538	0.203686	0.090105	0.196176	0.203888	0.274130	0.489433	0.535938	0.546192	0.067510	0.207728	0.110413	0.185116	0.132791	0.521886	0.149623	0.157315	0.331301	0.289896	0.093550	0.437138	0.387785	0.483074	0.367945	0.275576	0.158878	0.370965	0.176682	0.256542	0.438862	0.696618	0.517378	0.202586	0.249944	0.344669	0.341927	0.370056	0.227797	0.483341	0.594763	0.414372	0.171207	0.270750	0.101299	0.219248	0.349117	0.909274
18	0.550481	0.330849	0.145692	0.349142	0.179141	0.142713	0.271455	0.549518	0.158935	0.266186	0.266481	0.275561	0.172856	0.236528	0.259856	0.676919	0.720211	0.541485	0.193711	0.065906	0.185251	0.159635	0.288427	0.434026	0.530153	0.540471	0.106858	0.338172	0.110596	0.170691	0.134707	0.554014	0.186459	0.132237	0.332894	0.302083	0.107369	0.444427	0.381339	0.486047	0.391995	0.350419	0.198439	0.410077	0.100825	0.234435	0.302108	0.703518	0.522248	0.228177	0.179441	0.308748	0.343888	0.372573	0.212863	0.489049	0.582466	0.363298	0.206874	0.259598	0.102677	0.233741	0.348331	0.884462
19	0.564892	0.368653	0.151101	0.329161	0.194367	0.141773	0.268407	0.548598	0.103698	0.234688	0.279607	0.250337	0.194291	0.228480	0.256890	0.666731	0.713880	0.541212	0.167377	0.077903	0.168571	0.130007	0.300756	0.427706	0.532642	0.440347	0.134347	0.363536	0.117188	0.081892	0.128895	0.549781	0.191625	0.124464	0.371518	0.300822	0.112098	0.456514	0.386042	0.482708	0.473624	0.389418	0.240182	0.420065	0.095984	0.251568	0.289492	0.659827	0.544024	0.239012	0.083950	0.293231	0.344164	0.371363	0.200961	0.457366	0.445541	0.257977	0.217695	0.257124	0.102544	0.247035	0.347024	0.833497
20	0.608293	0.313778	0.156867	0.326935	0.221919	0.137747	0.268162	0.559231	0.177666	0.248991	0.286585	0.280063	0.198605	0.208449	0.253661	0.656995	0.700593	0.531574	0.085863	0.083871	0.164164	0.128238	0.308043	0.414044	0.521033	0.353850	0.160662	0.384042	0.147889	0.072764	0.142343	0.530612	0.192237	0.132739	0.402128	0.292879	0.102839	0.440033	0.374244	0.415939	0.481185	0.390822	0.235762	0.438567	0.114790	0.268694	0.223551	0.620723	0.547073	0.238310	0.096147	0.300629	0.341633	0.316989	0.196402	0.389644	0.410973	0.256331	0.208808	0.238447	0.104305	0.286415	0.329414	0.765957
21	0.623759	0.307207	0.122163	0.304268	0.229746	0.110973	0.270789	0.566791	0.181389	0.254551	0.393512	0.260441	0.211166	0.201816	0.280685	0.625043	0.617589	0.456103	0.077102	0.097388	0.162660	0.198905	0.317893	0.429093	0.307742	0.349832	0.162376	0.398945	0.167343	0.073476	0.143536	0.514685	0.190392	0.166595	0.350662	0.296241	0.102674	0.434670	0.370946	0.353872	0.471068	0.386231	0.235021	0.480424	0.097164	0.363418	0.228450	0.604451	0.543296	0.238055	0.103648	0.292407	0.332477	0.245634	0.181154	0.392726	0.361872	0.282361	0.208566	0.231710	0.103610	0.306060	0.301579	0.760916
22	0.537657	0.315066	0.109445	0.516738	0.228833	0.080580	0.281157	0.575883	0.186386	0.245162	0.404514	0.222469	0.220788	0.202901	0.295693	0.620987	0.495818	0.377523	0.097253	0.098757	0.088045	0.445810	0.273227	0.436790	0.231279	0.244419	0.165199	0.411969	0.155596	0.102276	0.140659	0.484159	0.183016	0.188824	0.324671	0.313299	0.104732	0.438708	0.369168	0.337433	0.437852	0.314102	0.238191	0.500299	0.092347	0.578963	0.234298	0.588500	0.538108	0.229078	0.130267	0.250804	0.315907	0.239354	0.181203	0.352576	0.365386	0.288665	0.200734	0.187236	0.106129	0.304807	0.330178	0.741409
23	0.427951	0.256498	0.123160	0.558201	0.229291	0.069770	0.271411	0.556391	0.176886	0.214609	0.358334	0.228819	0.352043	0.225880	0.326762	0.619632	0.445527	0.340062	0.241668	0.158444	0.068255	0.500408	0.253981	0.355057	0.148728	0.126957	0.175156	0.396459	0.151392	0.137362	0.145654	0.486582	0.144025	0.175619	0.265950	0.311294	0.106191	0.454575	0.366695	0.277000	0.385262	0.294358	0.253371	0.509812	0.124384	0.700438	0.251300	0.399192	0.525939	0.209563	0.153205	0.199647	0.287456	0.225186	0.181920	0.319616	0.336635	0.245379	0.203985	0.283871	0.091113	0.297041	0.337533	0.616361
24	0.411558	0.343113	0.191894	0.586656	0.227418	0.067538	0.190613	0.534615	0.176174	0.153072	0.354526	0.227308	0.443994	0.226210	0.320274	0.594283	0.231661	0.138977	0.452603	0.185482	0.070467	0.520149	0.196394	0.301531	0.146412	0.136669	0.253171	0.392143	0.304439	0.146423	0.151388	0.416642	0.063982	0.175823	0.262056	0.299614	0.099401	0.525210	0.320779	0.289003	0.335147	0.288825	0.258213	0.472109	0.127914	0.742812	0.236975	0.335360	0.299046	0.162600	0.185668	0.190568	0.265795	0.214470	0.206165	0.280540	0.349623	0.218596	0.201649	0.301189	0.084238	0.295965	0.300527	0.544124
25	0.425676	0.383768	0.235843	0.556891	0.224963	0.066454	0.189622	0.520818	0.172902	0.136409	0.357400	0.245602	0.449779	0.261244	0.317957	0.468881	0.095135	0.051841	0.507468	0.194558	0.067836	0.515468	0.222450	0.304903	0.123651	0.121601	0.254502	0.400783	0.404087	0.155148	0.151505	0.367871	0.039789	0.194330	0.224233	0.257402	0.088906	0.579148	0.252105	0.358657	0.296464	0.197160	0.270827	0.442221	0.128665	0.961974	0.273286	0.266694	0.299321	0.152281	0.212994	0.193592	0.195724	0.190686	0.192398	0.267592	0.368872	0.218975	0.186226	0.313714	0.111753	0.291983	0.303234	0.545708
26	0.449186	0.344479	0.300573	0.647855	0.218131	0.064066	0.154456	0.492086	0.105478	0.103629	0.380587	0.466197	0.450136	0.310992	0.320717	0.437997	0.089512	0.051164	0.689822	0.208919	0.057255	0.521710	0.209704	0.217000	0.116756	0.076022	0.242819	0.416553	0.476988	0.206349	0.144517	0.364348	0.033286	0.192040	0.142250	0.245998	0.087555	0.548071	0.231097	0.323931	0.115324	0.090441	0.236242	0.432457	0.136039	1.190032	0.307859	0.286437	0.296863	0.111035	0.255038	0.204309	0.172754	0.166671	0.184832	0.274925	0.363655	0.209934	0.178693	0.325020	0.119365	0.296273	0.292310	0.540066
27	0.354358	0.333915	0.318452	0.741507	0.189644	0.057543	0.150292	0.434675	0.061261	0.076650	0.323318	0.524467	0.457649	0.323941	0.341418	0.335745	0.098757	0.053324	0.762366	0.248101	0.058412	0.557290	0.218770	0.220320	0.116446	0.079270	0.278969	0.403976	0.516395	0.218853	0.135220	0.341957	0.052688	0.168567	0.067693	0.357390	0.088087	0.504178	0.138833	0.296923	0.056420	0.083566	0.227171	0.504852	0.126721	1.230282	0.305794	0.262697	0.269184	0.104318	0.359136	0.227727	0.080707	0.113172	0.186774	0.269129	0.301353	0.198926	0.121837	0.333400	0.172818	0.300949	0.289050	0.518708
28	0.309407	0.335034	0.350273	0.738508	0.165776	0.054857	0.145705	0.391645	0.045531	0.083133	0.310291	0.549548	0.476031	0.317625	0.325963	0.209876	0.086702	0.080528	0.769168	0.281342	0.145006	0.661046	0.203730	0.216197	0.100058	0.085340	0.327499	0.400881	0.524777	0.262933	0.133838	0.217003	0.080890	0.152450	0.162388	0.389623	0.081926	0.478660	0.112371	0.293943	0.055800	0.083287	0.263929	0.511059	0.130007	1.220584	0.291343	0.261795	0.307812	0.104834	0.401166	0.233702	0.059875	0.096973	0.180736	0.248663	0.336927	0.209742	0.124690	0.356328	0.176922	0.293743	0.288654	0.506372
29	0.308440	0.331751	0.345079	0.597080	0.160903	0.042041	0.169842	0.366329	0.055792	0.084265	0.322651	0.591247	0.476690	0.301793	0.302260	0.195936	0.083856	0.094619	0.771450	0.352734	0.193401	0.614052	0.206067	0.169479	0.085257	0.079413	0.325031	0.392717	0.523631	0.311495	0.121307	0.197390	0.089386	0.168502	0.238511	0.375426	0.072158	0.458579	0.120458	0.289923	0.052567	0.077137	0.254355	0.490194	0.157182	1.157367	0.300494	0.254473	0.307448	0.109727	0.407261	0.238608	0.046220	0.080703	0.175900	0.271086	0.342681	0.201476	0.136962	0.442052	0.177535	0.272019	0.288596	0.504165
30	0.288897	0.323556	0.398631	0.625838	0.121876	0.034993	0.170873	0.359272	0.063970	0.106457	0.324537	0.601539	0.467970	0.376368	0.299382	0.182535	0.085020	0.099292	0.743353	0.512894	0.243996	0.505490	0.212708	0.151639	0.041036	0.061059	0.250434	0.282320	0.514819	0.339981	0.104720	0.195022	0.100723	0.172085	0.293078	0.402977	0.109417	0.451577	0.118470	0.285715	0.052833	0.066395	0.243971	0.469254	0.145153	1.070522	0.308390	0.205889	0.301364	0.109568	0.396200	0.255837	0.042787	0.076162	0.197748	0.249972	0.349515	0.175052	0.149293	0.440971	0.177661	0.240384	0.288203	0.443427
31	0.263895	0.195609	0.418918	0.847993	0.080382	0.032516	0.172937	0.328512	0.073424	0.112676	0.308242	0.641931	0.462629	0.444046	0.295486	0.174514	0.085040	0.102958	0.688932	0.526724	0.354525	0.507205	0.248309	0.157094	0.040188	0.060098	0.245301	0.257533	0.512055	0.341642	0.178301	0.207133	0.127691	0.145675	0.304184	0.399480	0.108282	0.454169	0.133158	0.287150	0.051820	0.065661	0.271600	0.459940	0.140687	1.042047	0.300167	0.225964	0.291671	0.105603	0.391150	0.299846	0.045231	0.078552	0.277309	0.252751	0.420294	0.203232	0.165649	0.440552	0.176584	0.211648	0.278913	0.259650
32	0.145461	0.117547	0.440713	0.895822	0.084339	0.052951	0.210617	0.354469	0.072819	0.117653	0.293998	0.512752	0.459457	0.452189	0.266250	0.150107	0.088703	0.136964	0.673810	0.547400	0.363105	0.525425	0.298318	0.152638	0.053880	0.060595	0.244018	0.276631	0.512884	0.380992	0.242901	0.271488	0.203731	0.144760	0.309639	0.415235	0.104332	0.477012	0.153715	0.281544	0.046650	0.052364	0.245412	0.449542	0.145179	0.937892	0.336425	0.275002	0.258890	0.106019	0.382431	0.314231	0.052600	0.083350	0.303154	0.256587	0.519502	0.202992	0.164190	0.379437	0.176755	0.180659	0.277031	0.193233
33	0.061080	0.119131	0.449231	0.801623	0.094467	0.075883	0.380245	0.350322	0.075393	0.127659	0.237954	0.471756	0.455990	0.466230	0.255026	0.154220	0.076155	0.145346	0.594900	0.582963	0.424884	0.558675	0.270353	0.156050	0.055567	0.046392	0.192544	0.309566	0.496523	0.426643	0.255295	0.293264	0.207052	0.137969	0.321842	0.336042	0.104257	0.517893	0.185474	0.279021	0.050104	0.071563	0.251146	0.455137	0.137106	0.587729	0.312241	0.391865	0.212792	0.105479	0.361073	0.408159	0.060904	0.084213	0.325787	0.284419	0.504474	0.203988	0.166682	0.378018	0.173125	0.221415	0.203428	0.187066
34	0.069233	0.127410	0.437963	0.804813	0.102008	0.090262	0.396458	0.335892	0.077452	0.133181	0.230317	0.442863	0.363193	0.458889	0.273523	0.149439	0.059148	0.158783	0.537403	0.612548	0.445781	0.571299	0.357129	0.218100	0.053121	0.066740	0.132681	0.346658	0.368323	0.446983	0.258221	0.312440	0.197275	0.118106	0.313197	0.255587	0.102294	0.518737	0.183965	0.275056	0.046615	0.072779	0.268955	0.365615	0.132712	0.288556	0.300795	0.448868	0.194821	0.085643	0.348515	0.597055	0.068597	0.079506	0.351062	0.289117	0.491853	0.202221	0.175149	0.445080	0.170391	0.247891	0.135367	0.186416
35	0.074176	0.145617	0.431970	0.857242	0.104566	0.092532	0.445941	0.308063	0.073219	0.126898	0.175909	0.364041	0.270670	0.473715	0.318586	0.114842	0.064009	0.169507	0.541088	0.622075	0.441230	0.510442	0.371175	0.244846	0.055200	0.112396	0.124370	0.351273	0.338187	0.436744	0.281289	0.333740	0.195004	0.094531	0.244218	0.233502	0.101174	0.433573	0.183554	0.234340	0.038219	0.073211	0.290349	0.302801	0.132382	0.248412	0.299693	0.467770	0.142267	0.080927	0.206672	0.590672	0.066853	0.066308	0.342184	0.288393	0.484294	0.175389	0.189194	0.477134	0.170256	0.255218	0.139529	0.166010
36	0.078154	0.146495	0.435340	0.869098	0.140114	0.114166	0.464872	0.315000	0.066357	0.119628	0.142665	0.347707	0.361159	0.493440	0.321222	0.122437	0.068258	0.181927	0.534165	0.561394	0.438953	0.436687	0.402949	0.250101	0.161015	0.120421	0.133974	0.346882	0.186882	0.418047	0.308137	0.356066	0.196725	0.080302	0.186406	0.159584	0.101197	0.347245	0.184169	0.133922	0.031116	0.075589	0.360250	0.301507	0.104393	0.244995	0.291757	0.477703	0.052147	0.089754	0.186380	0.587576	0.066012	0.058440	0.341003	0.287780	0.474023	0.150969	0.213193	0.662398	0.154318	0.256466	0.123641	0.136393
37	0.087962	0.151572	0.365351	0.806426	0.164469	0.128143	0.466816	0.276965	0.063394	0.139708	0.136868	0.264004	0.501156	0.484940	0.303932	0.129499	0.071389	0.186865	0.499003	0.455360	0.425401	0.463657	0.414082	0.264885	0.322866	0.131702	0.144747	0.336799	0.211762	0.406353	0.380433	0.376881	0.185918	0.119050	0.160649	0.159764	0.101184	0.333420	0.187260	0.136360	0.030801	0.074261	0.367650	0.209741	0.081980	0.232468	0.351681	0.479204	0.076245	0.131738	0.204958	0.624407	0.066125	0.058337	0.343064	0.275427	0.455312	0.147118	0.205144	0.650869	0.147356	0.242116	0.159400	0.126334
38	0.088728	0.151327	0.329662	0.516467	0.184382	0.131584	0.499176	0.283219	0.227879	0.149030	0.085168	0.237333	0.520028	0.478750	0.280824	0.142184	0.071820	0.190328	0.451992	0.435184	0.374505	0.440713	0.399451	0.296607	0.376231	0.146697	0.148696	0.288359	0.208488	0.372702	0.395537	0.386512	0.132418	0.433173	0.152333	0.106520	0.103968	0.340473	0.187622	0.127568	0.031155	0.078789	0.344979	0.181218	0.083169	0.238663	0.355893	0.765522	0.078256	0.134941	0.206305	0.663717	0.063639	0.070752	0.336359	0.268578	0.439948	0.149819	0.264368	0.629274	0.072807	0.226398	0.182490	0.125801
39	0.084505	0.149596	0.212398	0.508123	0.205964	0.133187	0.565050	0.300286	0.253322	0.226786	0.062416	0.133322	0.511036	0.477667	0.276312	0.176334	0.065743	0.178943	0.398094	0.423423	0.322832	0.393968	0.384331	0.306827	0.433667	0.189238	0.243063	0.472203	0.258028	0.335279	0.419124	0.395684	0.181411	0.483439	0.139002	0.110590	0.104600	0.348068	0.188489	0.123524	0.036477	0.098892	0.335509	0.187850	0.072262	0.233085	0.344736	0.869906	0.078102	0.141178	0.204675	0.652269	0.061141	0.071933	0.332149	0.269197	0.423313	0.146122	0.261239	0.655587	0.033850	0.220982	0.184256	0.121000
40	0.068410	0.138407	0.184365	0.505660	0.207788	0.149853	0.562506	0.297225	0.272686	0.225007	0.059078	0.161168	0.511308	0.471209	0.274746	0.177161	0.072812	0.186004	0.249461	0.372011	0.299165	0.384051	0.359776	0.335448	0.435161	0.184692	0.365329	0.676075	0.305173	0.322244	0.420152	0.409058	0.406664	0.662363	0.249702	0.223295	0.085007	0.351024	0.176715	0.121051	0.030484	0.085358	0.327358	0.191209	0.075896	0.219371	0.317103	1.040066	0.075174	0.132496	0.205376	0.649343	0.060293	0.071926	0.335097	0.246805	0.242509	0.109897	0.270799	0.685398	0.035639	0.224688	0.246412	0.124250
41	0.065706	0.125373	0.151663	0.411808	0.224908	0.160256	0.570447	0.323385	0.274485	0.222312	0.061983	0.190767	0.545732	0.409042	0.274403	0.185523	0.074155	0.197878	0.260524	0.321829	0.197938	0.359986	0.346509	0.320005	0.436887	0.172457	0.412180	0.798581	0.308242	0.301925	0.404052	0.541709	0.421055	0.673050	0.792592	0.306777	0.048797	0.351640	0.186745	0.123427	0.034028	0.086795	0.311130	0.187674	0.087271	0.182785	0.357143	1.079415	0.073914	0.131360	0.220393	0.534350	0.061482	0.109584	0.323560	0.220958	0.114217	0.121690	0.284273	0.721427	0.037285	0.243683	0.308107	0.139407
42	0.060833	0.092939	0.133915	0.333023	0.234015	0.165583	0.569971	0.312705	0.276373	0.218925	0.080864	0.194989	0.553697	0.332846	0.273649	0.192013	0.064960	0.184106	0.244877	0.337293	0.191889	0.330941	0.235252	0.307421	0.414912	0.186043	0.494350	0.909523	0.308555	0.210358	0.373957	0.525283	0.446897	0.679373	0.903206	0.307335	0.047207	0.344759	0.179809	0.151408	0.033874	0.096404	0.266519	0.161157	0.086241	0.157049	0.353138	1.067794	0.087794	0.189358	0.224333	0.385011	0.068655	0.148142	0.269296	0.231331	0.084360	0.120439	0.282715	0.714332	0.061475	0.250262	0.308407	0.147999
43	0.042527	0.062900	0.113938	0.371839	0.250107	0.163161	0.545283	0.293924	0.280719	0.202514	0.078426	0.191653	0.551866	0.322764	0.271774	0.193227	0.058625	0.173850	0.258530	0.360158	0.183155	0.322718	0.213705	0.297998	0.278039	0.221243	0.531803	0.951740	0.334573	0.124013	0.387525	0.532156	0.450246	0.680605	1.006980	0.338723	0.051701	0.297128	0.306460	0.173271	0.051242	0.242414	0.150280	0.199001	0.087357	0.143796	0.350020	1.060261	0.160076	0.314263	0.212083	0.383107	0.065178	0.153863	0.215827	0.245470	0.080946	0.119715	0.276766	0.663498	0.077049	0.277276	0.307774	0.164157
44	0.027418	0.075936	0.205893	0.413948	0.250009	0.161863	0.479323	0.318407	0.183915	0.229443	0.076358	0.177981	0.554240	0.302340	0.266299	0.199531	0.060738	0.175265	0.258918	0.343142	0.143700	0.229934	0.154355	0.289830	0.244724	0.242944	0.528992	0.945252	0.336271	0.102748	0.374008	0.518177	0.445325	0.553440	1.043520	0.434385	0.055252	0.207432	0.473093	0.184168	0.059171	0.270389	0.292758	0.317104	0.099414	0.157417	0.299089	1.062076	0.198191	0.328900	0.200609	0.371026	0.062412	0.154015	0.197907	0.219873	0.093077	0.145466	0.264980	0.599473	0.081767	0.291929	0.344395	0.209440
45	0.038755	0.087095	0.217342	0.438960	0.247765	0.171229	0.490057	0.313922	0.151270	0.204571	0.115598	0.170042	0.552698	0.297755	0.239708	0.193094	0.061442	0.170490	0.231676	0.333724	0.071281	0.208018	0.175674	0.258107	0.112489	0.221296	0.482995	0.832962	0.322263	0.100418	0.365691	0.509799	0.434249	0.513203	1.047422	0.462670	0.056475	0.159303	0.537714	0.181965	0.120167	0.282096	0.342492	0.449818	0.207566	0.200919	0.236246	1.046213	0.195589	0.341599	0.171877	0.256590	0.047709	0.153839	0.133065	0.204711	0.097131	0.179956	0.245610	0.431453	0.082021	0.275622	0.360928	0.222252
46	0.049741	0.087956	0.219288	0.441213	0.248759	0.187031	0.446303	0.311696	0.093713	0.196611	0.353400	0.149354	0.546009	0.268393	0.253231	0.200006	0.083928	0.158731	0.235010	0.351867	0.064206	0.200049	0.170325	0.244972	0.104820	0.217202	0.402042	0.728671	0.297636	0.103619	0.304886	0.504640	0.260776	0.286144	1.029454	0.437352	0.079165	0.154997	0.615536	0.182457	0.123303	0.296458	0.354550	0.459413	0.247659	0.199045	0.239362	0.784460	0.208482	0.363002	0.170757	0.153532	0.055344	0.153516	0.122942	0.229843	0.128106	0.192222	0.216876	0.426515	0.081927	0.269663	0.429942	0.222841
47	0.049438	0.091061	0.229188	0.445418	0.240511	0.184982	0.430411	0.295267	0.093263	0.214986	0.366246	0.105992	0.479489	0.179717	0.259121	0.198148	0.121144	0.140483	0.173746	0.499584	0.060107	0.198153	0.165370	0.199087	0.095411	0.209006	0.350901	0.569547	0.277532	0.102135	0.277543	0.568585	0.208092	0.254158	0.708228	0.364565	0.108568	0.179566	0.622468	0.180775	0.128875	0.316871	0.369069	0.511420	0.258593	0.202513	0.238217	0.620029	0.245220	0.458595	0.169149	0.195983	0.068134	0.192345	0.110528	0.234771	0.127300	0.190669	0.149339	0.409519	0.084768	0.269152	0.508543	0.230233
48	0.050715	0.139864	0.228571	0.390325	0.243942	0.180471	0.429192	0.294386	0.098431	0.223123	0.374061	0.211806	0.333142	0.111513	0.331548	0.223825	0.197139	0.126018	0.144851	0.488231	0.051980	0.181436	0.161803	0.175091	0.064758	0.196978	0.234811	0.387602	0.265571	0.109192	0.263986	0.601811	0.129462	0.239229	0.587604	0.397191	0.110142	0.173445	0.634455	0.186146	0.129421	0.319563	0.383128	0.539390	0.267171	0.200068	0.169409	0.321240	0.346821	0.483605	0.195606	0.336382	0.070212	0.204139	0.089129	0.236289	0.133667	0.226244	0.174983	0.386955	0.087583	0.269343	0.515091	0.225653
49	0.053746	0.164930	0.225057	0.444061	0.240876	0.181162	0.403541	0.283420	0.115107	0.241375	0.397805	0.301453	0.288516	0.111929	0.359597	0.248305	0.202785	0.118629	0.172832	0.504781	0.033177	0.124751	0.154858	0.197247	0.045809	0.139675	0.140774	0.281302	0.171209	0.131672	0.256598	0.597873	0.108173	0.231990	0.373508	0.467502	0.148480	0.154596	0.664203	0.188789	0.135165	0.323436	0.384074	0.547522	0.343075	0.222142	0.142694	0.231508	0.350424	0.492235	0.195286	0.325621	0.070109	0.199047	0.095241	0.245394	0.313766	0.232627	0.347480	0.325875	0.087822	0.269087	0.505148	0.233437
50	0.094409	0.195137	0.201283	0.641861	0.231076	0.191711	0.387518	0.256130	0.140522	0.231161	0.411279	0.480227	0.271423	0.141758	0.363155	0.241484	0.203848	0.119075	0.199656	0.510898	0.032878	0.126268	0.150453	0.176987	0.023704	0.090599	0.158956	0.269134	0.165290	0.140307	0.224474	0.525065	0.100205	0.225222	0.234358	0.394012	0.178000	0.141638	0.680336	0.205750	0.134566	0.245543	0.393040	0.565147	0.363633	0.236641	0.133807	0.205797	0.342863	0.470765	0.175197	0.333683	0.069954	0.198144	0.162185	0.280971	0.367303	0.327395	0.454303	0.263228	0.087929	0.270494	0.594189	0.242386
51	0.127407	0.196429	0.160223	0.650424	0.253075	0.180822	0.390113	0.244339	0.139963	0.182475	0.457276	0.596197	0.260964	0.171949	0.363630	0.270599	0.205006	0.123855	0.205373	0.515483	0.035776	0.122248	0.137679	0.183198	0.020530	0.098049	0.165666	0.223981	0.165608	0.164041	0.220612	0.437076	0.099280	0.200456	0.210483	0.432797	0.184503	0.137136	0.685509	0.205388	0.132529	0.218877	0.295387	0.513546	0.368913	0.266405	0.137721	0.204439	0.323133	0.411937	0.156374	0.354732	0.069849	0.198584	0.220750	0.280042	0.445991	0.362760	0.550337	0.256025	0.085464	0.268450	0.604140	0.248458
52	0.131418	0.214576	0.190090	0.664212	0.252376	0.176295	0.400164	0.212657	0.138358	0.187174	0.357985	0.609515	0.177830	0.174175	0.380219	0.331244	0.205360	0.124961	0.205950	0.517645	0.054971	0.122953	0.120257	0.175703	0.021637	0.112167	0.181353	0.115140	0.142684	0.178878	0.196648	0.429794	0.067449	0.116614	0.219499	0.470616	0.191543	0.137540	0.683057	0.203596	0.081892	0.206514	0.227539	0.399046	0.350728	0.241665	0.139610	0.178885	0.307812	0.415798	0.164559	0.400776	0.069070	0.190026	0.227471	0.281585	0.450697	0.365044	0.636255	0.269056	0.082370	0.256473	0.586862	0.242090
53	0.134186	0.240413	0.275877	0.664417	0.241708	0.179354	0.418495	0.211268	0.134514	0.172956	0.474395	0.618625	0.135828	0.207091	0.382848	0.363222	0.191511	0.134267	0.189536	0.456747	0.140687	0.175505	0.059061	0.201273	0.035755	0.115102	0.189815	0.113765	0.115687	0.175783	0.186328	0.427600	0.047263	0.070918	0.235862	0.487727	0.191716	0.135903	0.681049	0.165708	0.075705	0.177906	0.202456	0.378545	0.294740	0.222027	0.127518	0.141970	0.309059	0.415394	0.178284	0.417397	0.067448	0.160020	0.230276	0.285786	0.451519	0.348038	0.654893	0.281281	0.071121	0.263086	0.588309	0.236585
54	0.156989	0.288137	0.381346	0.665315	0.221392	0.182239	0.399320	0.188188	0.126432	0.159054	0.521252	0.664127	0.122735	0.261402	0.384943	0.370178	0.169201	0.134503	0.190867	0.385686	0.206677	0.177195	0.068792	0.212909	0.049941	0.127469	0.324260	0.111182	0.114237	0.181282	0.186056	0.432948	0.035758	0.056544	0.207712	0.477411	0.191044	0.146659	0.574538	0.186821	0.063723	0.135238	0.215076	0.295206	0.280275	0.212442	0.118874	0.118223	0.326058	0.385951	0.186997	0.435302	0.070500	0.152267	0.229419	0.258146	0.450638	0.350330	0.661103	0.299073	0.049001	0.249121	0.592560	0.240455
55	0.157500	0.263445	0.387840	0.643036	0.221829	0.174360	0.370116	0.150065	0.110518	0.134161	0.512452	0.635393	0.127615	0.272247	0.416652	0.368558	0.057519	0.122444	0.251210	0.418681	0.226232	0.162631	0.073228	0.234287	0.053093	0.127148	0.479527	0.303119	0.118325	0.190715	0.175424	0.429066	0.034200	0.049081	0.153386	0.407698	0.190943	0.204870	0.507101	0.186407	0.064575	0.129841	0.188840	0.230001	0.273697	0.210175	0.195757	0.122054	0.363227	0.262965	0.201402	0.535923	0.070301	0.163938	0.227096	0.304160	0.443674	0.346034	0.661127	0.283189	0.038568	0.182960	0.583086	0.201241
56	0.154750	0.264297	0.436691	0.584062	0.221322	0.190562	0.340343	0.164122	0.046842	0.147447	0.506668	0.550225	0.218422	0.330585	0.403357	0.366948	0.052238	0.111533	0.251795	0.408828	0.390876	0.237661	0.085632	0.393387	0.060364	0.114243	0.478992	0.326484	0.169901	0.196962	0.176220	0.363740	0.030685	0.038388	0.227038	0.400926	0.200026	0.221686	0.377003	0.186381	0.054631	0.114685	0.191383	0.211125	0.225611	0.205424	0.295739	0.154178	0.312085	0.239889	0.361562	0.514907	0.072513	0.180223	0.233295	0.353471	0.443859	0.342183	0.664232	0.275924	0.038562	0.177909	0.565892	0.180934
57	0.136695	0.242304	0.483435	0.344884	0.219518	0.234966	0.338424	0.167408	0.053480	0.179371	0.475377	0.376267	0.297435	0.345176	0.385100	0.379289	0.043117	0.110806	0.721905	0.421596	0.478365	0.275173	0.104461	0.421441	0.083748	0.167242	0.563624	0.332844	0.176731	0.200833	0.138413	0.247899	0.025937	0.038065	0.276035	0.326555	0.220001	0.226001	0.319583	0.186886	0.042212	0.092459	0.172423	0.120624	0.115895	0.155598	0.527835	0.233220	0.311621	0.227994	0.406018	0.554699	0.074696	0.337576	0.254567	0.359618	0.419861	0.317562	0.650759	0.236226	0.038815	0.186631	0.531178	0.178129
58	0.114169	0.247815	0.489205	0.225125	0.204390	0.256279	0.338929	0.165819	0.059216	0.233193	0.430169	0.360595	0.312457	0.350046	0.382565	0.400684	0.045404	0.135978	0.856325	0.409849	0.479443	0.278055	0.156659	0.437839	0.096043	0.174130	0.604360	0.379851	0.172877	0.197024	0.113788	0.209650	0.024946	0.044729	0.339025	0.265759	0.225308	0.234115	0.305421	0.187711	0.037337	0.074026	0.171294	0.117021	0.092681	0.107094	0.627616	0.238594	0.318998	0.203040	0.429295	0.568972	0.064196	0.448495	0.274359	0.362532	0.316110	0.308861	0.545776	0.235819	0.035274	0.190306	0.442433	0.144453
59	0.107653	0.247977	0.452612	0.169099	0.182620	0.256611	0.336340	0.175960	0.059045	0.343479	0.310671	0.351939	0.371631	0.363106	0.317746	0.396178	0.065295	0.167185	1.045779	0.404612	0.479583	0.280933	0.176683	0.460799	0.102895	0.189270	0.603516	0.416675	0.169880	0.194134	0.112845	0.190993	0.025018	0.045543	0.344430	0.229403	0.223758	0.245239	0.258248	0.173991	0.038426	0.066344	0.171303	0.105508	0.068518	0.093416	0.795845	0.288287	0.315309	0.199092	0.474029	0.593715	0.065017	0.467602	0.278207	0.363139	0.193023	0.176915	0.569529	0.234686	0.026070	0.287557	0.412299	0.135330
60	0.103368	0.348612	0.401883	0.131565	0.171330	0.261997	0.251433	0.181156	0.072550	0.382587	0.187711	0.210379	0.381834	0.370094	0.280318	0.377453	0.071333	0.170992	1.163779	0.441939	0.472502	0.269862	0.203612	0.524875	0.101285	0.187281	0.506629	0.418660	0.167863	0.180186	0.112357	0.139744	0.024693	0.045359	0.354998	0.242650	0.242141	0.323093	0.179760	0.170005	0.035858	0.053210	0.167692	0.104780	0.079750	0.112649	0.919971	0.353193	0.315974	0.154053	0.507191	0.655912	0.073369	0.538095	0.276709	0.360364	0.130167	0.154290	0.470344	0.230750	0.027059	0.323941	0.412071	0.120051
61	0.068313	0.347817	0.345761	0.088210	0.172132	0.291907	0.206955	0.240300	0.085881	0.411469	0.144501	0.116227	0.385368	0.362911	0.276724	0.414425	0.077476	0.170034	1.191169	0.429745	0.450424	0.246900	0.232538	0.549486	0.099971	0.187138	0.407060	0.307636	0.165977	0.181672	0.112696	0.126897	0.024490	0.046293	0.360804	0.193169	0.257503	0.352086	0.132117	0.153780	0.034882	0.053086	0.116371	0.107997	0.079706	0.111950	0.955763	0.402984	0.310372	0.149774	0.509096	0.677035	0.075941	0.545071	0.260856	0.329529	0.157674	0.229431	0.396006	0.205327	0.028784	0.341671	0.312830	0.108122
62	0.078745	0.440047	0.331438	0.089295	0.120391	0.342070	0.237814	0.308519	0.103648	0.468835	0.144469	0.109317	0.385224	0.348073	0.283154	0.556060	0.101700	0.177403	1.180695	0.385727	0.429311	0.257741	0.230265	0.582486	0.093592	0.188773	0.402393	0.317518	0.179552	0.283785	0.112347	0.117128	0.030515	0.049184	0.339172	0.171142	0.319108	0.351177	0.106274	0.151342	0.031712	0.045114	0.127865	0.110135	0.075378	0.122727	0.966875	0.403266	0.217638	0.165104	0.509652	0.644397	0.081898	0.557134	0.186222	0.328562	0.173733	0.254100	0.393230	0.201135	0.032249	0.354528	0.204139	0.080258
63	0.144059	0.450440	0.280192	0.096159	0.113694	0.345285	0.216495	0.321758	0.225375	0.484918	0.128734	0.144469	0.384840	0.347120	0.315686	0.541525	0.108780	0.193446	1.165260	0.327774	0.420604	0.258278	0.232430	0.580140	0.076113	0.134729	0.267430	0.307692	0.179901	0.289765	0.113144	0.081186	0.033003	0.049678	0.286276	0.181873	0.353483	0.424859	0.104313	0.152606	0.026502	0.041930	0.199965	0.194200	0.064366	0.126315	0.943854	0.394108	0.120209	0.157447	0.497667	0.550420	0.088056	0.557018	0.178434	0.330523	0.186256	0.280133	0.437801	0.193605	0.057918	0.353878	0.150212	0.078462
64	0.148576	0.455747	0.265278	0.118382	0.109011	0.347722	0.206154	0.361625	0.316757	0.545903	0.103086	0.150683	0.384071	0.325681	0.392096	0.532987	0.116317	0.226455	0.907585	0.288439	0.122778	0.171126	0.221318	0.450911	0.058599	0.113501	0.213131	0.245530	0.177640	0.284866	0.182171	0.133291	0.027715	0.041790	0.336457	0.241049	0.361738	0.562453	0.104539	0.164753	0.024941	0.043149	0.221900	0.267371	0.059415	0.126328	0.901114	0.355768	0.119060	0.154908	0.407577	0.536760	0.087329	0.556411	0.171646	0.325784	0.205337	0.281242	0.444968	0.186813	0.058106	0.348301	0.116605	0.076428
65	0.143267	0.448189	0.393979	0.114689	0.105366	0.347524	0.211770	0.436425	0.316531	0.493357	0.154913	0.143672	0.382331	0.285176	0.390940	0.543000	0.142538	0.225586	0.814419	0.289454	0.080433	0.148584	0.216081	0.448793	0.039070	0.122209	0.198400	0.180973	0.182561	0.304111	0.225898	0.224148	0.033641	0.051658	0.458815	0.257694	0.373231	0.609525	0.104386	0.128628	0.024180	0.051679	0.228791	0.276075	0.049284	0.131762	0.760330	0.344475	0.102631	0.152755	0.507420	0.539472	0.080254	0.556471	0.177192	0.325868	0.219606	0.282731	0.444041	0.209625	0.058767	0.412010	0.093945	0.044424
66	0.146699	0.430802	0.410607	0.173515	0.104159	0.346110	0.215976	0.456518	0.315774	0.473684	0.196413	0.147379	0.377256	0.272699	0.356066	0.547220	0.139458	0.247462	0.580737	0.298079	0.081868	0.141579	0.174992	0.415058	0.049509	0.162193	0.200903	0.180822	0.333721	0.397353	0.224513	0.266739	0.037927	0.094942	0.472528	0.257169	0.379015	0.601825	0.106070	0.129741	0.022683	0.053879	0.257232	0.277599	0.050089	0.131926	0.701370	0.332780	0.069487	0.148726	0.573752	0.557625	0.079986	0.561624	0.183459	0.288563	0.227238	0.276610	0.441655	0.209145	0.064001	0.454581	0.063766	0.047294
67	0.164741	0.337547	0.430941	0.185452	0.103996	0.321747	0.228284	0.483478	0.315465	0.442874	0.226085	0.245835	0.327015	0.194598	0.365449	0.556911	0.151759	0.280555	0.335555	0.226676	0.080639	0.139730	0.165593	0.374396	0.113297	0.233655	0.203026	0.184944	0.404586	0.407233	0.232555	0.285797	0.047074	0.110690	0.494696	0.261787	0.372046	0.596522	0.105777	0.129167	0.026807	0.053028	0.346577	0.279859	0.045771	0.111325	0.458758	0.276720	0.063354	0.159528	0.557168	0.475768	0.087305	0.563859	0.180843	0.215968	0.226870	0.275144	0.481186	0.206232	0.080719	0.501127	0.062961	0.081207
68	0.197034	0.296266	0.435598	0.221406	0.094064	0.281372	0.275829	0.493567	0.328936	0.388113	0.236300	0.283006	0.257254	0.174406	0.389068	0.566072	0.186878	0.349271	0.271772	0.133038	0.080225	0.138969	0.204266	0.290672	0.153933	0.424799	0.196838	0.108301	0.448773	0.407696	0.246039	0.317130	0.046042	0.112830	0.499605	0.329305	0.352261	0.594919	0.111649	0.132531	0.028518	0.057009	0.419254	0.359045	0.056650	0.097184	0.340059	0.182053	0.065465	0.151647	0.593599	0.384643	0.084826	0.533214	0.157232	0.173718	0.223053	0.274895	0.425565	0.233954	0.082877	0.501038	0.063395	0.113671
69	0.201347	0.180725	0.434620	0.241687	0.093070	0.266618	0.300612	0.518004	0.275248	0.397398	0.287799	0.479745	0.238180	0.187892	0.416761	0.560264	0.195409	0.356959	0.270908	0.116320	0.074947	0.129579	0.224611	0.224310	0.230522	0.449157	0.212493	0.224631	0.471341	0.408655	0.268252	0.351303	0.043361	0.116096	0.536916	0.342802	0.350287	0.594324	0.116251	0.219027	0.031955	0.068578	0.448215	0.393707	0.082226	0.092469	0.257091	0.121301	0.057620	0.110141	0.646426	0.346616	0.092957	0.440365	0.119741	0.156632	0.193670	0.254242	0.419286	0.237262	0.083849	0.497996	0.072591	0.137161
70	0.168418	0.166012	0.495103	0.407283	0.091918	0.267617	0.300034	0.527520	0.173550	0.263657	0.401837	0.534981	0.131943	0.251247	0.424519	0.559023	0.196379	0.350406	0.265808	0.117197	0.062067	0.105254	0.261255	0.132835	0.310266	0.463354	0.197216	0.228206	0.470619	0.408260	0.276801	0.389500	0.046323	0.123761	0.484906	0.301447	0.342629	0.588797	0.118148	0.419789	0.034420	0.075530	0.432352	0.372766	0.084008	0.080482	0.243455	0.124885	0.060897	0.126186	0.675830	0.359240	0.096569	0.413939	0.107117	0.148556	0.176725	0.204049	0.411463	0.243673	0.083561	0.492056	0.073147	0.148506
71	0.183527	0.160943	0.418410	0.462331	0.091195	0.250286	0.301136	0.581525	0.286311	0.279882	0.395141	0.585841	0.109000	0.354397	0.430938	0.560220	0.191370	0.322688	0.255404	0.118133	0.053781	0.122292	0.280967	0.132375	0.312701	0.461513	0.210566	0.227817	0.461250	0.352596	0.339060	0.413135	0.069638	0.125708	0.332079	0.283121	0.301240	0.540303	0.114456	0.445020	0.049415	0.099164	0.419444	0.320149	0.084231	0.083921	0.243601	0.131832	0.083828	0.176777	0.679357	0.363202	0.089020	0.302664	0.108556	0.157422	0.153344	0.148035	0.397551	0.257160	0.083213	0.462431	0.073904	0.155618
72	0.202941	0.214069	0.399939	0.553861	0.069744	0.193682	0.290837	0.568122	0.293847	0.270837	0.451132	0.676552	0.127324	0.429420	0.433571	0.521543	0.170430	0.305864	0.229334	0.109134	0.043929	0.165166	0.291705	0.134008	0.330676	0.570273	0.237016	0.245456	0.458842	0.331095	0.360666	0.421716	0.117711	0.109197	0.302341	0.256829	0.284235	0.534845	0.106044	0.517363	0.059273	0.119188	0.416713	0.306584	0.084245	0.079840	0.232731	0.146827	0.085358	0.181124	0.628561	0.314745	0.091344	0.286281	0.109380	0.207945	0.128092	0.091746	0.349805	0.241066	0.089469	0.471556	0.098934	0.156272
73	0.255222	0.223534	0.500217	0.611015	0.061674	0.109002	0.260688	0.540243	0.291294	0.281260	0.508604	0.681155	0.186777	0.443615	0.445568	0.346694	0.166881	0.289363	0.186677	0.077860	0.035759	0.166803	0.300112	0.132255	0.331387	0.573946	0.249354	0.265024	0.458632	0.337473	0.347160	0.462798	0.136558	0.085758	0.249280	0.250533	0.183944	0.539502	0.150956	0.541902	0.101794	0.123669	0.400920	0.308091	0.084360	0.078191	0.209887	0.145591	0.085579	0.202699	0.623208	0.272933	0.096653	0.256924	0.115251	0.214486	0.101758	0.098354	0.344909	0.282498	0.119258	0.463265	0.119634	0.157244
74	0.292360	0.315227	0.489694	0.622635	0.040532	0.110734	0.247895	0.534157	0.276082	0.277540	0.508745	0.663567	0.293176	0.483422	0.500975	0.316988	0.146030	0.233585	0.150558	0.086722	0.038526	0.167608	0.310637	0.123778	0.317575	0.524358	0.251327	0.265710	0.458480	0.333395	0.317556	0.455018	0.150961	0.079948	0.226041	0.184301	0.173876	0.427864	0.153820	0.563849	0.145138	0.133142	0.331153	0.321821	0.083113	0.074907	0.160355	0.199870	0.082626	0.207708	0.644805	0.294956	0.107964	0.254274	0.116927	0.232316	0.067364	0.103632	0.349454	0.263705	0.146641	0.474718	0.119925	0.160492
75	0.310587	0.371370	0.535012	0.607787	0.040769	0.085196	0.233811	0.490545	0.264574	0.219449	0.490994	0.556369	0.315283	0.575592	0.471875	0.300698	0.094545	0.141260	0.156231	0.103197	0.042456	0.166582	0.309860	0.094703	0.229038	0.520755	0.199641	0.162323	0.375432	0.238536	0.297734	0.453299	0.152050	0.081348	0.160475	0.152535	0.205608	0.319818	0.159659	0.583407	0.148185	0.131579	0.245928	0.244568	0.070483	0.074904	0.150698	0.407933	0.092616	0.228952	0.622915	0.347206	0.120818	0.256144	0.113497	0.266569	0.060721	0.143615	0.377893	0.309347	0.150037	0.497959	0.119580	0.172871
76	0.342687	0.397555	0.536024	0.593006	0.050165	0.085150	0.238962	0.436983	0.250155	0.196190	0.395354	0.476004	0.328270	0.616816	0.505664	0.272706	0.055611	0.121119	0.158575	0.164839	0.062676	0.168210	0.288842	0.090527	0.193594	0.522359	0.219550	0.197071	0.309005	0.156223	0.300096	0.440925	0.161853	0.074309	0.140077	0.145416	0.190517	0.220422	0.164239	0.588502	0.226065	0.127841	0.172617	0.205718	0.061159	0.052913	0.153645	0.429748	0.132540	0.246423	0.628432	0.351108	0.155981	0.255826	0.109270	0.281418	0.064298	0.154304	0.313790	0.308924	0.192681	0.448961	0.137532	0.185308
77	0.411955	0.419696	0.637949	0.472592	0.090468	0.079940	0.246419	0.437283	0.121041	0.140569	0.410372	0.439545	0.413507	0.643872	0.519049	0.266532	0.063545	0.117704	0.177949	0.220566	0.067044	0.168161	0.383927	0.083039	0.191006	0.512613	0.238259	0.247213	0.158259	0.139810	0.295707	0.434159	0.176629	0.095120	0.144592	0.143976	0.211579	0.214936	0.172554	0.589481	0.251155	0.126721	0.153302	0.189806	0.074692	0.064229	0.155574	0.434501	0.134920	0.245896	0.616069	0.359985	0.164836	0.251569	0.105596	0.291680	0.076898	0.155788	0.345739	0.324099	0.207951	0.400490	0.147882	0.191540
78	0.417522	0.417520	0.672231	0.496082	0.139284	0.094278	0.285318	0.442445	0.063429	0.256202	0.343122	0.286953	0.438851	0.649102	0.506473	0.246605	0.070186	0.119953	0.226323	0.261936	0.066696	0.158384	0.414042	0.089745	0.139313	0.354037	0.204656	0.224364	0.071365	0.122019	0.263732	0.401925	0.263693	0.233018	0.151815	0.154275	0.247328	0.208176	0.186114	0.596926	0.250123	0.123028	0.166075	0.198299	0.107206	0.090177	0.191935	0.496672	0.151063	0.226816	0.598507	0.338801	0.166679	0.246018	0.101286	0.293726	0.094982	0.162003	0.388721	0.344696	0.202081	0.339843	0.161846	0.205973
79	0.425230	0.402124	0.638333	0.365442	0.167027	0.097462	0.273427	0.452134	0.125732	0.279920	0.207596	0.191794	0.440905	0.648021	0.479526	0.196970	0.069846	0.113129	0.276784	0.325634	0.064833	0.073833	0.428741	0.094153	0.110571	0.303176	0.223789	0.212949	0.056346	0.120210	0.262709	0.371166	0.358795	0.256407	0.150190	0.153617	0.254718	0.207302	0.182622	0.597435	0.252838	0.104633	0.182504	0.217929	0.181313	0.090095	0.203803	0.508265	0.197344	0.223574	0.602197	0.361551	0.170942	0.225093	0.098021	0.309210	0.247433	0.200225	0.378787	0.344646	0.200805	0.315465	0.195959	0.199800
80	0.392975	0.389697	0.578070	0.284817	0.190701	0.095469	0.324511	0.426359	0.147440	0.377771	0.179998	0.181353	0.440192	0.642171	0.460135	0.167466	0.065517	0.084886	0.291152	0.358381	0.072293	0.064997	0.418779	0.087239	0.112224	0.202699	0.247120	0.261160	0.064564	0.118404	0.212619	0.335727	0.385183	0.268028	0.140421	0.111524	0.284470	0.193408	0.181946	0.547167	0.260441	0.107001	0.181468	0.225437	0.266908	0.094473	0.204452	0.509957	0.200344	0.227225	0.579482	0.386045	0.168703	0.154421	0.089982	0.316145	0.370186	0.228221	0.392641	0.346715	0.200883	0.316877	0.225058	0.192862
81	0.353188	0.295576	0.571023	0.313888	0.199735	0.092238	0.345335	0.397167	0.165332	0.407128	0.192718	0.194714	0.439949	0.613307	0.459418	0.153712	0.089964	0.105798	0.309375	0.366975	0.071199	0.071030	0.417730	0.086185	0.105768	0.173655	0.258664	0.263819	0.060793	0.102709	0.120434	0.315905	0.393895	0.273700	0.102601	0.075822	0.291827	0.196287	0.175898	0.434329	0.249347	0.095008	0.173586	0.212568	0.288075	0.100323	0.206308	0.512837	0.204047	0.209787	0.506683	0.382128	0.166899	0.151903	0.086692	0.317400	0.396299	0.233732	0.397105	0.399800	0.216824	0.289396	0.247721	0.192665
82	0.329467	0.243955	0.627541	0.328712	0.248376	0.092258	0.372110	0.317760	0.165700	0.406861	0.295700	0.199425	0.437051	0.554530	0.463517	0.161123	0.113851	0.149741	0.310083	0.404192	0.068203	0.088003	0.410971	0.089835	0.058251	0.146327	0.250504	0.225982	0.061884	0.069716	0.107316	0.298089	0.413864	0.281664	0.134722	0.183168	0.291706	0.196726	0.172837	0.406948	0.253487	0.095930	0.187181	0.239304	0.292419	0.100478	0.163336	0.416691	0.203627	0.196106	0.447104	0.297465	0.167556	0.147480	0.084094	0.348204	0.397272	0.244846	0.462111	0.486467	0.221608	0.302582	0.254170	0.227705
83	0.262684	0.172179	0.593629	0.329021	0.256367	0.098868	0.401404	0.310368	0.165614	0.407885	0.278797	0.184368	0.428353	0.499215	0.459756	0.162255	0.151768	0.171016	0.320493	0.404092	0.067264	0.093977	0.407757	0.090228	0.057522	0.145020	0.229793	0.191707	0.062479	0.053065	0.092865	0.193577	0.407335	0.297849	0.178292	0.201099	0.291843	0.196843	0.191853	0.320277	0.197119	0.092986	0.200531	0.246164	0.294125	0.103389	0.150759	0.355734	0.208706	0.158239	0.472755	0.267594	0.168823	0.149644	0.092614	0.428725	0.400339	0.275854	0.610226	0.576718	0.220387	0.337376	0.248011	0.292617
84	0.185527	0.130666	0.459797	0.293700	0.258517	0.099443	0.415484	0.319762	0.164969	0.350572	0.349701	0.158487	0.403722	0.488359	0.442336	0.167309	0.244441	0.253982	0.349955	0.407268	0.061493	0.090862	0.285431	0.173834	0.059208	0.155522	0.240895	0.245505	0.060590	0.043745	0.090332	0.147309	0.378083	0.340582	0.229702	0.198272	0.287413	0.175107	0.182206	0.285259	0.161323	0.090700	0.179988	0.244520	0.290793	0.109568	0.145237	0.342878	0.196838	0.144532	0.392408	0.264429	0.181911	0.153473	0.138290	0.442730	0.435901	0.310121	0.623357	0.566536	0.208121	0.331087	0.237743	0.308657
85	0.129409	0.100168	0.428452	0.244549	0.259814	0.099087	0.416224	0.325849	0.134087	0.322222	0.469647	0.205928	0.334900	0.445378	0.330643	0.162672	0.243417	0.258665	0.317438	0.387722	0.076267	0.092922	0.248668	0.214275	0.055033	0.160355	0.228292	0.231989	0.059501	0.035515	0.080011	0.072941	0.285421	0.315129	0.260045	0.201778	0.268675	0.127623	0.190854	0.229401	0.166125	0.072858	0.179128	0.238978	0.288824	0.088753	0.133897	0.280176	0.201989	0.160785	0.381179	0.264311	0.182906	0.157404	0.153593	0.443491	0.441141	0.317008	0.619342	0.620895	0.185534	0.335065	0.245953	0.308706
86	0.105419	0.078351	0.511638	0.250343	0.260421	0.097097	0.416095	0.324818	0.084746	0.211714	0.525380	0.246477	0.314334	0.317143	0.370753	0.151820	0.246177	0.259188	0.309713	0.343080	0.087581	0.095498	0.155179	0.295244	0.052115	0.125458	0.213637	0.185941	0.059472	0.034854	0.057595	0.064992	0.211375	0.306413	0.262012	0.207394	0.239632	0.112123	0.245720	0.182447	0.158990	0.063606	0.166979	0.229158	0.259912	0.101265	0.075425	0.209573	0.218699	0.159068	0.391413	0.305766	0.173727	0.159270	0.153285	0.442104	0.441132	0.342860	0.599485	0.614368	0.190158	0.311930	0.261226	0.317571
87	0.071673	0.076114	0.549987	0.222955	0.256682	0.096213	0.405983	0.341136	0.029884	0.106764	0.566857	0.265153	0.302931	0.229483	0.386711	0.177457	0.256458	0.262471	0.334371	0.318462	0.141606	0.089581	0.147495	0.306444	0.049434	0.098853	0.196963	0.199703	0.059423	0.038177	0.056765	0.062618	0.190376	0.301755	0.258079	0.208665	0.227191	0.103414	0.293685	0.170179	0.124515	0.050438	0.190356	0.229845	0.238753	0.108854	0.073526	0.190246	0.210771	0.168899	0.395157	0.261146	0.151768	0.158679	0.156719	0.447871	0.439993	0.340150	0.626836	0.613428	0.186097	0.314358	0.262257	0.344975
88	0.073799	0.073048	0.661497	0.184139	0.240572	0.088025	0.400256	0.309939	0.028909	0.107279	0.547823	0.301248	0.158850	0.136780	0.399235	0.176412	0.269376	0.274598	0.328068	0.347840	0.146515	0.111263	0.190852	0.314447	0.046889	0.089712	0.184419	0.219243	0.054072	0.040033	0.056623	0.065939	0.197720	0.365410	0.243904	0.134123	0.199694	0.099398	0.296943	0.167681	0.096223	0.060764	0.206375	0.242221	0.177845	0.152939	0.071409	0.189277	0.239283	0.176714	0.410798	0.257107	0.135664	0.148427	0.161873	0.443183	0.401339	0.322816	0.637769	0.609157	0.152546	0.322706	0.255044	0.344438
89	0.061036	0.075795	0.686447	0.157760	0.215482	0.073711	0.352580	0.238454	0.025425	0.101800	0.543143	0.341801	0.067510	0.112858	0.404126	0.183590	0.300961	0.356349	0.320141	0.324580	0.193959	0.270011	0.193740	0.316611	0.047936	0.098727	0.197174	0.208367	0.037583	0.052197	0.059711	0.076331	0.247096	0.425950	0.220162	0.156975	0.155122	0.106900	0.290340	0.137284	0.081002	0.063804	0.207537	0.206306	0.169920	0.180789	0.091159	0.169230	0.260471	0.186635	0.424971	0.268220	0.129768	0.126574	0.182961	0.457425	0.279866	0.300530	0.624254	0.596316	0.159776	0.323936	0.272678	0.334825
90	0.104327	0.090173	0.682398	0.207285	0.194044	0.072094	0.337703	0.237833	0.024321	0.103873	0.513540	0.348778	0.054628	0.111090	0.397693	0.180170	0.324269	0.366853	0.309216	0.315920	0.252172	0.321958	0.196856	0.332422	0.043475	0.078740	0.217267	0.157439	0.038384	0.090867	0.053112	0.081120	0.261784	0.393624	0.260953	0.314614	0.141012	0.093223	0.293788	0.139648	0.071645	0.096090	0.195295	0.188916	0.238361	0.194181	0.089532	0.142471	0.262110	0.185161	0.359714	0.306422	0.124253	0.118372	0.200036	0.467895	0.259729	0.300923	0.632864	0.549782	0.160528	0.326516	0.270049	0.329290
91	0.105472	0.089339	0.678924	0.273777	0.179438	0.072239	0.289735	0.253207	0.025784	0.082889	0.399759	0.312459	0.093952	0.111980	0.406946	0.175747	0.376248	0.419844	0.522535	0.330224	0.307963	0.339839	0.203045	0.331786	0.040889	0.076015	0.276911	0.178271	0.045616	0.135605	0.052843	0.078480	0.267917	0.412030	0.263946	0.318416	0.062781	0.077215	0.296166	0.146981	0.065249	0.100999	0.199288	0.229471	0.243841	0.192242	0.103158	0.127184	0.264109	0.196794	0.359328	0.403214	0.122596	0.116335	0.200902	0.460000	0.259864	0.277249	0.586902	0.447152	0.161981	0.329601	0.249176	0.333733
92	0.105264	0.093406	0.672763	0.298322	0.152800	0.073911	0.308040	0.263344	0.045592	0.091579	0.340381	0.292793	0.121136	0.104894	0.470982	0.220788	0.383266	0.436330	0.569295	0.333728	0.327081	0.350743	0.208534	0.290831	0.036104	0.083496	0.311415	0.208055	0.041683	0.145686	0.051036	0.071769	0.267621	0.412132	0.266599	0.324094	0.049648	0.073318	0.298284	0.139821	0.046687	0.103497	0.274455	0.402726	0.249060	0.190272	0.098266	0.114789	0.270468	0.195558	0.345631	0.413340	0.119050	0.112133	0.204641	0.466353	0.244102	0.230329	0.425998	0.364316	0.146845	0.330007	0.218980	0.334535
93	0.109388	0.104838	0.652544	0.297752	0.073450	0.073566	0.267482	0.262142	0.045381	0.097026	0.282875	0.294076	0.127871	0.101824	0.466165	0.242210	0.382774	0.453726	0.592776	0.331581	0.596421	0.394986	0.200671	0.229316	0.049975	0.079051	0.515084	0.207777	0.039803	0.148240	0.101397	0.071389	0.266149	0.411627	0.292146	0.323602	0.053228	0.071527	0.299070	0.139476	0.045616	0.109183	0.314476	0.455503	0.249737	0.286648	0.091930	0.114360	0.292614	0.181432	0.347309	0.424235	0.116736	0.111863	0.211359	0.455830	0.185703	0.167286	0.467873	0.332907	0.132785	0.306183	0.211046	0.319664
94	0.115532	0.122152	0.640986	0.326886	0.054410	0.072045	0.225928	0.245906	0.047661	0.098125	0.389411	0.300719	0.135185	0.091491	0.480797	0.336089	0.377209	0.452838	0.646109	0.331084	0.666783	0.430057	0.180359	0.168558	0.050361	0.085103	0.538715	0.188388	0.045005	0.150759	0.107227	0.072181	0.234521	0.368545	0.295041	0.336505	0.055377	0.074721	0.282871	0.138493	0.054100	0.130055	0.315353	0.476456	0.277705	0.547393	0.091281	0.117740	0.250783	0.208146	0.389436	0.401140	0.116030	0.109482	0.366629	0.364191	0.201708	0.163342	0.473646	0.233309	0.132430	0.234166	0.210492	0.257925
95	0.113300	0.124466	0.466059	0.380148	0.050027	0.068001	0.208759	0.240178	0.063004	0.091981	0.414252	0.251384	0.150202	0.096219	0.516818	0.357515	0.365645	0.440917	0.652140	0.276536	0.679766	0.434023	0.148710	0.149734	0.052455	0.094744	0.611032	0.210026	0.100120	0.157789	0.114584	0.071973	0.163821	0.263058	0.287561	0.332294	0.056084	0.077903	0.270999	0.134158	0.062677	0.144524	0.338268	0.501898	0.278211	0.553919	0.087816	0.107767	0.255920	0.192306	0.363080	0.428393	0.088184	0.101971	0.415910	0.311242	0.300358	0.254253	0.452000	0.268087	0.132016	0.205045	0.207959	0.228172
96	0.122975	0.120207	0.422166	0.381642	0.043315	0.061663	0.214606	0.231349	0.135442	0.100615	0.408906	0.242298	0.173222	0.101165	0.534720	0.363784	0.319858	0.385206	0.716124	0.275480	0.692016	0.412767	0.120523	0.133636	0.182686	0.234320	0.632660	0.256348	0.126001	0.168545	0.121599	0.068523	0.095695	0.178705	0.248806	0.184709	0.055366	0.077398	0.261220	0.129508	0.063820	0.147092	0.335214	0.515848	0.297382	0.563756	0.071693	0.099852	0.230461	0.179385	0.348521	0.402122	0.066442	0.096052	0.407450	0.306573	0.359992	0.299349	0.401878	0.340738	0.130963	0.192478	0.199736	0.227079
97	0.086289	0.113239	0.463138	0.342093	0.041476	0.064130	0.217305	0.228937	0.217197	0.113798	0.423631	0.266096	0.174047	0.101177	0.485284	0.370997	0.286491	0.398131	0.740614	0.256062	0.677390	0.311409	0.118023	0.152579	0.341376	0.442345	0.616899	0.259018	0.136228	0.169596	0.126735	0.079082	0.032397	0.070090	0.273389	0.180784	0.053969	0.079193	0.185423	0.119060	0.062526	0.138319	0.331785	0.509377	0.278317	0.595345	0.111977	0.057321	0.213488	0.173593	0.358909	0.434415	0.051448	0.089452	0.417566	0.278473	0.376248	0.317240	0.390822	0.369115	0.119429	0.157837	0.180720	0.210854
98	0.088050	0.117212	0.539051	0.294849	0.041868	0.066823	0.217040	0.193813	0.234106	0.107405	0.419202	0.291980	0.171529	0.100233	0.438265	0.361245	0.200077	0.372874	0.562971	0.212210	0.655921	0.323577	0.133530	0.116899	0.378656	0.546096	0.599327	0.225801	0.136390	0.168589	0.126277	0.072871	0.031884	0.081225	0.264374	0.165838	0.054029	0.080906	0.114199	0.114795	0.056959	0.133532	0.327086	0.494060	0.253418	0.614266	0.113945	0.065675	0.201360	0.174356	0.508984	0.401540	0.046476	0.086960	0.453817	0.243799	0.389448	0.322494	0.391575	0.372972	0.074063	0.137142	0.166309	0.155120
99	0.098479	0.127195	0.563783	0.293783	0.041265	0.066192	0.213254	0.188160	0.270346	0.112206	0.462102	0.370894	0.170763	0.099171	0.411746	0.375445	0.236649	0.387031	0.576418	0.207426	0.642857	0.341606	0.120762	0.111478	0.562340	0.622839	0.439796	0.257001	0.136251	0.155531	0.126307	0.069681	0.076270	0.078684	0.241184	0.166253	0.050490	0.081789	0.098567	0.113167	0.067733	0.131693	0.265354	0.370914	0.265465	0.623911	0.122417	0.070036	0.188301	0.203434	0.560442	0.404290	0.043429	0.087129	0.473932	0.230374	0.422291	0.324148	0.379203	0.419058	0.070139	0.110576	0.166599	0.127300
100	0.095375	0.115355	0.528846	0.285650	0.041169	0.065949	0.209346	0.187704	0.345605	0.135540	0.373129	0.352424	0.170782	0.098356	0.403909	0.374564	0.293524	0.425879	0.548861	0.206944	0.616420	0.326874	0.120934	0.110061	0.584983	0.632720	0.463090	0.327971	0.134479	0.136415	0.129574	0.067816	0.086548	0.063646	0.232429	0.143779	0.041584	0.077304	0.098515	0.112766	0.088560	0.129981	0.225667	0.337082	0.265324	0.623448	0.146076	0.085701	0.169367	0.321821	0.555846	0.399716	0.044043	0.080036	0.475731	0.191339	0.425158	0.351694	0.346019	0.418111	0.037974	0.087308	0.148212	0.125741
101	0.125549	0.105884	0.517373	0.296173	0.041141	0.065540	0.218123	0.166104	0.367218	0.185408	0.324597	0.413144	0.169187	0.098350	0.399335	0.374052	0.295904	0.434360	0.459111	0.227899	0.348271	0.268781	0.118354	0.110359	0.589082	0.635865	0.339242	0.311091	0.133475	0.102123	0.140380	0.072913	0.096338	0.065001	0.233668	0.117021	0.038736	0.076413	0.091809	0.099424	0.100283	0.107160	0.221379	0.317402	0.245198	0.457557	0.161596	0.108759	0.167324	0.357130	0.539517	0.432133	0.037248	0.059183	0.469899	0.125531	0.441554	0.423063	0.331632	0.417492	0.035301	0.081934	0.087168	0.117465
