	217_C_T1_sh_L_ND_01.c3d	217_C_T1_sh_L_ND_01.c3d	217_C_T1_sh_L_ND_01.c3d	217_C_T1_sh_L_ND_01.c3d	217_C_T1_sh_L_ND_01.c3d	217_C_T1_sh_L_ND_01.c3d	217_C_T1_sh_L_ND_01.c3d	217_C_T1_sh_L_ND_01.c3d	217_C_T1_sh_L_ND_02.c3d	217_C_T1_sh_L_ND_02.c3d	217_C_T1_sh_L_ND_02.c3d	217_C_T1_sh_L_ND_02.c3d	217_C_T1_sh_L_ND_02.c3d	217_C_T1_sh_L_ND_02.c3d	217_C_T1_sh_L_ND_02.c3d	217_C_T1_sh_L_ND_02.c3d	217_C_T1_sh_L_ND_05.c3d	217_C_T1_sh_L_ND_05.c3d	217_C_T1_sh_L_ND_05.c3d	217_C_T1_sh_L_ND_05.c3d	217_C_T1_sh_L_ND_05.c3d	217_C_T1_sh_L_ND_05.c3d	217_C_T1_sh_L_ND_05.c3d	217_C_T1_sh_L_ND_05.c3d	217_C_T1_sh_L_ND_06.c3d	217_C_T1_sh_L_ND_06.c3d	217_C_T1_sh_L_ND_06.c3d	217_C_T1_sh_L_ND_06.c3d	217_C_T1_sh_L_ND_06.c3d	217_C_T1_sh_L_ND_06.c3d	217_C_T1_sh_L_ND_06.c3d	217_C_T1_sh_L_ND_06.c3d	217_C_T1_sh_L_ND_11.c3d	217_C_T1_sh_L_ND_11.c3d	217_C_T1_sh_L_ND_11.c3d	217_C_T1_sh_L_ND_11.c3d	217_C_T1_sh_L_ND_11.c3d	217_C_T1_sh_L_ND_11.c3d	217_C_T1_sh_L_ND_11.c3d	217_C_T1_sh_L_ND_11.c3d
	Biceps femoris_lat	Semitendinosus_lat	Vastus lateralis_lat	Vastus medialis_lat	Biceps femoris_med	Semitendinosus_med	Vastus lateralis_med	Vastus medialis_med	Biceps femoris_lat	Semitendinosus_lat	Vastus lateralis_lat	Vastus medialis_lat	Biceps femoris_med	Semitendinosus_med	Vastus lateralis_med	Vastus medialis_med	Biceps femoris_lat	Semitendinosus_lat	Vastus lateralis_lat	Vastus medialis_lat	Biceps femoris_med	Semitendinosus_med	Vastus lateralis_med	Vastus medialis_med	Biceps femoris_lat	Semitendinosus_lat	Vastus lateralis_lat	Vastus medialis_lat	Biceps femoris_med	Semitendinosus_med	Vastus lateralis_med	Vastus medialis_med	Biceps femoris_lat	Semitendinosus_lat	Vastus lateralis_lat	Vastus medialis_lat	Biceps femoris_med	Semitendinosus_med	Vastus lateralis_med	Vastus medialis_med
	P2D	P2D	P2D	P2D	P2D	P2D	P2D	P2D	P2D	P2D	P2D	P2D	P2D	P2D	P2D	P2D	P2D	P2D	P2D	P2D	P2D	P2D	P2D	P2D	P2D	P2D	P2D	P2D	P2D	P2D	P2D	P2D	P2D	P2D	P2D	P2D	P2D	P2D	P2D	P2D
	EMG_lat	EMG_lat	EMG_lat	EMG_lat	EMG_med	EMG_med	EMG_med	EMG_med	EMG_lat	EMG_lat	EMG_lat	EMG_lat	EMG_med	EMG_med	EMG_med	EMG_med	EMG_lat	EMG_lat	EMG_lat	EMG_lat	EMG_med	EMG_med	EMG_med	EMG_med	EMG_lat	EMG_lat	EMG_lat	EMG_lat	EMG_med	EMG_med	EMG_med	EMG_med	EMG_lat	EMG_lat	EMG_lat	EMG_lat	EMG_med	EMG_med	EMG_med	EMG_med
ITEM	Y	Y	Y	Y	Y	Y	Y	Y	Y	Y	Y	Y	Y	Y	Y	Y	Y	Y	Y	Y	Y	Y	Y	Y	Y	Y	Y	Y	Y	Y	Y	Y	Y	Y	Y	Y	Y	Y	Y	Y
1	0.672013	0.451678	0.151810	0.116439	0.579543	0.576065	0.331753	0.258615	0.074079	0.261319	0.194470	0.163764	1.093774	0.566066	0.351333	0.140891	0.060536	0.174444	0.192867	0.349372	0.072993	0.118488	0.610542	0.430710	0.123693	0.105623	0.249584	0.182943	0.067883	0.108608	0.434811	0.305018	0.024700	0.087898	0.379468	0.151282	0.035654	0.076487	0.137362	0.377869
2	0.645005	0.295130	0.158051	0.116978	0.551008	0.482568	0.365116	0.261343	0.084827	0.270314	0.240146	0.183673	1.111156	0.566920	0.359157	0.213245	0.060225	0.169934	0.195923	0.351282	0.088548	0.120891	0.593350	0.440902	0.121003	0.102094	0.250281	0.176650	0.071754	0.108285	0.484681	0.375015	0.025181	0.086000	0.338383	0.149760	0.030484	0.062385	0.102085	0.369253
3	0.589551	0.219248	0.161514	0.115289	0.386927	0.338070	0.385197	0.273125	0.089795	0.271143	0.266679	0.210668	1.138455	0.566781	0.361245	0.220340	0.060729	0.162347	0.206756	0.358863	0.098494	0.134022	0.536365	0.442188	0.122270	0.100898	0.249873	0.169904	0.066708	0.094153	0.493826	0.416050	0.025251	0.079942	0.292383	0.129371	0.043946	0.066579	0.098402	0.364685
4	0.580713	0.209486	0.160793	0.116664	0.285299	0.270119	0.411706	0.339614	0.091976	0.273101	0.266984	0.202499	1.071997	0.540105	0.359343	0.225388	0.060559	0.155530	0.214807	0.362199	0.092160	0.133741	0.491062	0.407802	0.123021	0.101244	0.237747	0.165321	0.064721	0.082977	0.490781	0.428648	0.039735	0.081290	0.294104	0.138316	0.057639	0.074017	0.095339	0.364497
5	0.512363	0.208600	0.138735	0.108654	0.170833	0.233977	0.399571	0.347205	0.090407	0.279824	0.287596	0.245752	1.039153	0.487707	0.349879	0.230702	0.068356	0.149006	0.203560	0.312516	0.087053	0.127492	0.459700	0.395538	0.123272	0.107643	0.217241	0.152198	0.061666	0.082447	0.491134	0.430821	0.047561	0.087258	0.286558	0.237995	0.071193	0.073914	0.105022	0.372960
6	0.122367	0.172097	0.125348	0.114902	0.140864	0.224279	0.420787	0.351772	0.091799	0.254271	0.325088	0.310995	0.942113	0.428651	0.327941	0.266334	0.075307	0.144142	0.175675	0.236591	0.084195	0.121488	0.312754	0.327459	0.118728	0.104516	0.223193	0.157713	0.063401	0.098804	0.489030	0.437113	0.070646	0.109728	0.293866	0.354110	0.097120	0.079378	0.230134	0.391332
7	0.096893	0.143810	0.134935	0.177256	0.129546	0.224443	0.429602	0.371857	0.083872	0.236696	0.329941	0.335310	0.773878	0.362226	0.324888	0.293114	0.082253	0.141864	0.175141	0.241469	0.081023	0.093186	0.164429	0.278105	0.111334	0.107900	0.220849	0.202586	0.087258	0.131797	0.523118	0.509827	0.091153	0.135746	0.288535	0.391195	0.111441	0.089224	0.315865	0.377975
8	0.094998	0.097094	0.185101	0.295698	0.131392	0.206138	0.433305	0.369223	0.092728	0.235809	0.317953	0.333316	0.426940	0.179995	0.316448	0.287534	0.082368	0.143235	0.173964	0.246613	0.079312	0.087496	0.151451	0.264529	0.099854	0.112455	0.175299	0.279937	0.103247	0.150862	0.529184	0.570189	0.093872	0.146491	0.320824	0.389248	0.110099	0.097879	0.351582	0.347279
9	0.094183	0.092034	0.286959	0.384813	0.108511	0.159285	0.418411	0.358049	0.183619	0.207551	0.314903	0.337580	0.389024	0.176358	0.242582	0.320683	0.082133	0.147893	0.157240	0.219557	0.068167	0.171154	0.151043	0.299618	0.091539	0.126921	0.404551	0.359738	0.102448	0.149650	0.532941	0.573811	0.099646	0.145545	0.355564	0.437357	0.110874	0.102592	0.366163	0.339852
10	0.096445	0.099276	0.317638	0.413083	0.086020	0.114015	0.365966	0.371639	0.210088	0.153005	0.311470	0.353993	0.358047	0.155192	0.290283	0.300211	0.093301	0.134412	0.151002	0.204119	0.077435	0.175132	0.263692	0.370644	0.082062	0.127031	0.440474	0.368796	0.105197	0.148030	0.540080	0.584036	0.120905	0.155179	0.356109	0.549376	0.150370	0.102404	0.375172	0.340753
11	0.099962	0.110498	0.319837	0.432342	0.080456	0.105673	0.356457	0.373012	0.222977	0.126342	0.288005	0.350149	0.187496	0.122844	0.282426	0.292129	0.091917	0.103174	0.194463	0.216161	0.086625	0.183495	0.271831	0.365379	0.076413	0.124734	0.531723	0.373493	0.111628	0.149838	0.535686	0.600395	0.126417	0.158603	0.367268	0.606421	0.174324	0.104286	0.376922	0.412107
12	0.099088	0.111698	0.345456	0.509874	0.077991	0.105198	0.316683	0.365363	0.221972	0.118731	0.271001	0.362975	0.156993	0.132002	0.345512	0.330437	0.092875	0.096307	0.199631	0.222782	0.169857	0.196334	0.331774	0.393284	0.072703	0.126829	0.571183	0.379883	0.114014	0.152012	0.513636	0.600002	0.126446	0.156629	0.474563	0.612109	0.187259	0.113680	0.377981	0.479009
13	0.096342	0.103348	0.400701	0.572886	0.079252	0.103876	0.309526	0.371853	0.229416	0.124698	0.289112	0.362713	0.136315	0.131605	0.368811	0.350749	0.095869	0.106946	0.198206	0.246366	0.185944	0.219272	0.359516	0.432943	0.071909	0.128940	0.573672	0.400713	0.115452	0.157517	0.512080	0.582277	0.123700	0.151145	0.567698	0.631525	0.194922	0.122247	0.384410	0.474616
14	0.093646	0.095341	0.438267	0.601464	0.081254	0.112989	0.313109	0.386216	0.229922	0.111509	0.273167	0.356797	0.136115	0.133761	0.355641	0.337478	0.098693	0.117170	0.188727	0.300438	0.192522	0.235244	0.359699	0.439608	0.071849	0.126059	0.575472	0.449446	0.130527	0.170491	0.574570	0.636167	0.123318	0.148668	0.560567	0.631472	0.192529	0.117948	0.443996	0.490107
15	0.090491	0.107908	0.439569	0.602915	0.070105	0.112960	0.264079	0.389795	0.229768	0.096800	0.271444	0.337093	0.142062	0.142281	0.382604	0.362291	0.099105	0.119501	0.189473	0.359404	0.197906	0.234752	0.359011	0.441519	0.072027	0.125475	0.595151	0.494627	0.148069	0.176849	0.725168	0.770688	0.113906	0.141427	0.554806	0.575037	0.191264	0.117613	0.505369	0.564811
16	0.095707	0.126272	0.438324	0.599714	0.057847	0.110983	0.248333	0.386418	0.232899	0.099808	0.254746	0.305297	0.142848	0.147087	0.389304	0.394584	0.096716	0.117088	0.214613	0.423661	0.214036	0.224776	0.368031	0.433944	0.067729	0.120762	0.607418	0.516675	0.152054	0.166594	0.806059	0.837310	0.106041	0.132793	0.580015	0.556574	0.185067	0.126431	0.512020	0.649572
17	0.097267	0.132347	0.431502	0.570985	0.056466	0.109482	0.254339	0.401532	0.232814	0.099034	0.280600	0.294407	0.143895	0.147141	0.391498	0.372948	0.093105	0.125209	0.221522	0.430579	0.242365	0.232506	0.415633	0.482408	0.063207	0.103001	0.606763	0.500193	0.138570	0.159207	0.825771	0.777291	0.108004	0.128454	0.583919	0.564412	0.171926	0.126707	0.462983	0.697098
18	0.098691	0.133288	0.398459	0.509648	0.057512	0.107519	0.240515	0.405546	0.207287	0.099342	0.417045	0.323099	0.135835	0.147401	0.391768	0.392686	0.094944	0.150958	0.268125	0.475393	0.243802	0.249471	0.426557	0.524695	0.049203	0.069475	0.514073	0.434973	0.152294	0.209032	0.853203	0.797501	0.107616	0.132991	0.562819	0.533742	0.170256	0.123672	0.430614	0.707077
19	0.098443	0.132305	0.354341	0.456996	0.059204	0.114180	0.242435	0.403613	0.148606	0.099344	0.444186	0.340042	0.112305	0.136568	0.404911	0.424728	0.097535	0.161150	0.307096	0.585988	0.254461	0.246285	0.469646	0.551128	0.043828	0.050972	0.457631	0.442862	0.167169	0.242091	0.953243	0.882825	0.084407	0.119760	0.552092	0.419225	0.171450	0.117019	0.506827	0.706730
20	0.091830	0.122422	0.342063	0.450372	0.058739	0.127075	0.261692	0.394628	0.111090	0.090604	0.473254	0.324096	0.086400	0.128826	0.382258	0.402824	0.101705	0.164944	0.319383	0.667797	0.288924	0.242468	0.527112	0.602953	0.042176	0.054031	0.434323	0.622015	0.164136	0.244417	1.009665	0.912910	0.074904	0.112827	0.555565	0.342984	0.171399	0.122497	0.546056	0.726630
21	0.083561	0.115017	0.339890	0.403830	0.055673	0.130368	0.258298	0.355037	0.105581	0.098737	0.509969	0.311371	0.064125	0.125319	0.345863	0.375538	0.088564	0.163159	0.316409	0.697802	0.284165	0.218568	0.534349	0.627604	0.043370	0.054492	0.406408	0.826106	0.157971	0.240597	1.036155	0.892646	0.077816	0.117634	0.473811	0.338975	0.132136	0.131210	0.544138	0.721074
22	0.078001	0.113290	0.316777	0.336468	0.056222	0.126566	0.243079	0.340574	0.093068	0.100473	0.490272	0.281480	0.061671	0.120801	0.345250	0.373586	0.084571	0.160888	0.297353	0.698290	0.283127	0.216450	0.535133	0.631857	0.045012	0.061284	0.407559	0.863784	0.158125	0.239746	1.038355	0.873563	0.075028	0.120516	0.341837	0.301694	0.110223	0.129111	0.572346	0.653122
23	0.069462	0.113800	0.270577	0.443292	0.049040	0.117729	0.218589	0.276468	0.075156	0.095758	0.484848	0.290872	0.049973	0.098713	0.329518	0.330104	0.086148	0.157517	0.294734	0.696221	0.281285	0.221742	0.532919	0.631279	0.056722	0.091600	0.415292	0.872921	0.153215	0.232976	1.038285	0.866803	0.071450	0.122781	0.333537	0.234081	0.089362	0.119728	0.587960	0.613057
24	0.072225	0.110245	0.236995	0.563185	0.050893	0.108635	0.220001	0.259567	0.077040	0.099860	0.486433	0.322208	0.042629	0.080329	0.301139	0.268872	0.084018	0.148783	0.294319	0.687813	0.305697	0.195923	0.496958	0.613092	0.092833	0.138874	0.430233	0.947576	0.137015	0.222288	0.955546	0.788456	0.070669	0.114710	0.302465	0.231327	0.074960	0.111865	0.582402	0.617943
25	0.064584	0.093800	0.237940	0.572370	0.067294	0.137588	0.195116	0.226923	0.074505	0.097634	0.469434	0.340055	0.039692	0.082091	0.297889	0.259447	0.081342	0.140850	0.292921	0.664907	0.294452	0.176258	0.412872	0.473763	0.108167	0.151328	0.435407	0.995882	0.116874	0.213299	0.881168	0.656585	0.059169	0.097791	0.244621	0.203298	0.076192	0.110754	0.524765	0.592990
26	0.063104	0.085475	0.246925	0.636194	0.077221	0.230579	0.153482	0.143137	0.067800	0.096531	0.463368	0.349153	0.032883	0.077584	0.255737	0.216030	0.081538	0.138569	0.289572	0.640248	0.310525	0.238063	0.412805	0.467813	0.108578	0.152769	0.444499	1.003826	0.112211	0.213349	0.762998	0.607378	0.062817	0.107432	0.182810	0.168181	0.104400	0.100091	0.481779	0.505058
27	0.062966	0.083632	0.255073	0.714385	0.076740	0.249390	0.141117	0.104007	0.062984	0.095613	0.408298	0.341567	0.029525	0.061543	0.209119	0.114391	0.076288	0.139551	0.347331	0.627966	0.410964	0.292174	0.264073	0.374564	0.113091	0.168369	0.445269	1.005049	0.112898	0.191762	0.738696	0.585561	0.070071	0.120507	0.153312	0.160273	0.108719	0.091672	0.472639	0.381157
28	0.063283	0.084068	0.230453	0.746550	0.080795	0.267303	0.114454	0.085980	0.040336	0.094484	0.296021	0.304846	0.030512	0.048084	0.198561	0.064861	0.071598	0.131865	0.404614	0.693654	0.421056	0.295140	0.194991	0.224442	0.120871	0.188524	0.433833	0.998455	0.095046	0.122453	0.654251	0.462655	0.073884	0.126898	0.151499	0.159128	0.109907	0.100982	0.463164	0.303013
29	0.074415	0.097673	0.224544	0.748954	0.082061	0.272987	0.088430	0.055349	0.040276	0.093418	0.284310	0.287797	0.036926	0.093569	0.166838	0.060487	0.060090	0.101180	0.375526	0.697409	0.424849	0.303149	0.198959	0.170005	0.128213	0.203846	0.393465	0.927748	0.147312	0.077143	0.466928	0.288908	0.075597	0.126485	0.113182	0.111242	0.128222	0.111133	0.452224	0.320385
30	0.083924	0.118805	0.223557	0.748027	0.082250	0.272357	0.132967	0.075681	0.040720	0.085598	0.188597	0.290185	0.054486	0.167971	0.159268	0.036358	0.055091	0.080699	0.353759	0.600513	0.430244	0.303594	0.198211	0.168256	0.133510	0.211002	0.322948	0.744951	0.281912	0.069026	0.267462	0.160001	0.071863	0.120251	0.087303	0.076454	0.144231	0.117106	0.343045	0.321878
31	0.098753	0.126777	0.199451	0.746066	0.082901	0.271514	0.204273	0.230421	0.045599	0.070235	0.148290	0.291316	0.057631	0.187950	0.149498	0.025152	0.057418	0.076390	0.370330	0.525181	0.444449	0.324141	0.206836	0.165487	0.133829	0.209220	0.305016	0.650315	0.416717	0.075729	0.177285	0.131742	0.071697	0.118038	0.069049	0.094758	0.156004	0.110403	0.313671	0.276007
32	0.099530	0.133397	0.157975	0.706513	0.158396	0.266657	0.206750	0.287457	0.062239	0.065607	0.148609	0.292011	0.059016	0.189258	0.110894	0.110901	0.060017	0.077386	0.384114	0.522648	0.497435	0.337585	0.257832	0.289829	0.131468	0.201410	0.297402	0.631648	0.555068	0.142872	0.169663	0.138060	0.077838	0.117639	0.090996	0.236750	0.241081	0.147359	0.289483	0.270003
33	0.106022	0.139229	0.148345	0.565707	0.153738	0.265690	0.256560	0.294265	0.062961	0.070908	0.141954	0.269430	0.060137	0.189234	0.117143	0.205710	0.061789	0.083751	0.385283	0.539362	0.740361	0.346202	0.278825	0.440402	0.111818	0.171518	0.250986	0.486316	0.607726	0.179171	0.185868	0.149207	0.087210	0.122513	0.168734	0.307820	0.249560	0.155594	0.226832	0.258158
34	0.112792	0.141575	0.137505	0.501019	0.147863	0.217339	0.271787	0.301342	0.061270	0.068627	0.116281	0.204721	0.069488	0.192064	0.117979	0.238404	0.056769	0.083461	0.385610	0.549518	0.777772	0.316808	0.262012	0.439894	0.088555	0.152144	0.155786	0.285948	0.639337	0.191625	0.185580	0.142405	0.089484	0.120449	0.174648	0.325183	0.299470	0.204246	0.195156	0.235651
35	0.112194	0.133241	0.135554	0.476381	0.159229	0.187708	0.305302	0.307858	0.066230	0.073799	0.112253	0.142754	0.160914	0.208329	0.116532	0.252500	0.061941	0.101129	0.385088	0.549985	0.818613	0.327679	0.254909	0.442770	0.086451	0.151189	0.098082	0.157445	0.639954	0.191635	0.182907	0.120429	0.081456	0.098985	0.183485	0.338669	0.386724	0.334481	0.188003	0.223165
36	0.107609	0.128194	0.115279	0.353778	0.206343	0.282630	0.320334	0.408179	0.070312	0.070745	0.113535	0.123419	0.160977	0.213550	0.118559	0.265414	0.068867	0.121984	0.384984	0.545599	0.818352	0.321014	0.249411	0.449751	0.083030	0.138557	0.107453	0.129939	0.639790	0.187952	0.169172	0.119310	0.074210	0.096635	0.188256	0.348510	0.476463	0.400486	0.188002	0.222668
37	0.106768	0.126807	0.103943	0.189519	0.220319	0.266283	0.326111	0.471058	0.074462	0.065823	0.112892	0.123463	0.160955	0.212552	0.118018	0.294734	0.076200	0.141929	0.381043	0.536801	0.823909	0.334055	0.285186	0.510052	0.073744	0.111876	0.263631	0.173842	0.641344	0.182909	0.153598	0.132168	0.096390	0.137003	0.195950	0.403782	0.545197	0.405663	0.188373	0.220893
38	0.103609	0.124682	0.107806	0.123814	0.225562	0.282512	0.336358	0.513460	0.075900	0.068656	0.109498	0.118703	0.157022	0.171544	0.118424	0.321027	0.081361	0.155014	0.310064	0.502113	0.838056	0.339869	0.339805	0.547058	0.059720	0.079611	0.311728	0.261534	0.645933	0.182481	0.160221	0.172590	0.099363	0.141230	0.299601	0.420200	0.650842	0.436047	0.187740	0.212458
39	0.092470	0.115319	0.220103	0.138049	0.256762	0.341141	0.330321	0.558060	0.076120	0.077719	0.096862	0.178319	0.180644	0.158243	0.128540	0.329589	0.083360	0.162067	0.218542	0.398749	0.818072	0.399184	0.334130	0.549960	0.044270	0.044971	0.326437	0.354134	0.625813	0.183492	0.169917	0.182105	0.099175	0.141024	0.407694	0.425629	0.706748	0.464201	0.182350	0.187632
40	0.084127	0.120178	0.367292	0.274282	0.249333	0.414823	0.427270	0.568521	0.077992	0.084012	0.134849	0.313587	0.197625	0.214494	0.121440	0.328360	0.083527	0.165898	0.209162	0.325168	0.702105	0.518815	0.334093	0.409574	0.076464	0.059169	0.377235	0.358531	0.548132	0.181560	0.165208	0.206506	0.099151	0.140784	0.416267	0.442363	0.706594	0.491526	0.136487	0.121376
41	0.088918	0.139396	0.449269	0.396308	0.259263	0.432897	0.440521	0.591269	0.076738	0.091491	0.190463	0.353901	0.199255	0.223046	0.116918	0.299102	0.084797	0.167314	0.192421	0.320190	0.457812	0.637240	0.318976	0.353897	0.140664	0.092247	0.417213	0.398185	0.484691	0.173893	0.165206	0.218089	0.095163	0.139566	0.436446	0.395957	0.714087	0.503921	0.064336	0.074922
42	0.106175	0.141525	0.448675	0.415339	0.259036	0.442759	0.436427	0.593262	0.070899	0.097319	0.257992	0.354527	0.209376	0.266405	0.113280	0.284471	0.091958	0.161664	0.138235	0.292752	0.345066	0.869390	0.321366	0.347569	0.141799	0.099646	0.420472	0.412426	0.323261	0.128548	0.165450	0.217438	0.093446	0.140978	0.452389	0.395823	0.734191	0.566224	0.055869	0.073121
43	0.110545	0.181069	0.447425	0.415010	0.257976	0.455898	0.412834	0.593178	0.071547	0.107144	0.270610	0.382252	0.163726	0.307608	0.114148	0.278156	0.135469	0.160373	0.259677	0.361601	0.283368	0.871147	0.325994	0.346084	0.142640	0.100824	0.422193	0.432235	0.192994	0.130071	0.190787	0.258870	0.101689	0.148164	0.531798	0.468361	0.733803	0.611190	0.050108	0.125233
44	0.129739	0.190112	0.459209	0.451369	0.231719	0.422058	0.400083	0.574489	0.072120	0.115415	0.342265	0.446877	0.159703	0.308825	0.116148	0.275878	0.135049	0.174690	0.523579	0.507904	0.314332	0.891873	0.308227	0.290966	0.145314	0.121506	0.425955	0.448778	0.150083	0.146606	0.214445	0.315533	0.113503	0.158412	0.620217	0.497285	0.733449	0.608876	0.083271	0.247990
45	0.138059	0.205075	0.502610	0.535923	0.202115	0.443684	0.396286	0.472253	0.068230	0.115397	0.454646	0.510898	0.163901	0.315597	0.124951	0.249253	0.144195	0.179467	0.573770	0.534236	0.337787	0.992564	0.260982	0.161828	0.147243	0.132193	0.429730	0.450500	0.151122	0.146542	0.243238	0.350705	0.117579	0.153846	0.645509	0.502678	0.708000	0.582025	0.088926	0.261890
46	0.139235	0.205634	0.625796	0.575731	0.207068	0.488390	0.382931	0.456911	0.065998	0.116511	0.498388	0.548585	0.166693	0.331461	0.128573	0.206214	0.162074	0.247109	0.610785	0.545885	0.403018	1.003721	0.186478	0.071346	0.146674	0.134026	0.372002	0.444719	0.156097	0.146353	0.261207	0.360730	0.095842	0.108394	0.647307	0.461613	0.662416	0.515455	0.095295	0.278020
47	0.141819	0.212677	0.685703	0.598232	0.197622	0.532487	0.376805	0.367712	0.070275	0.123793	0.507071	0.561081	0.158706	0.356655	0.117612	0.199802	0.165323	0.265094	0.718623	0.602095	0.416856	0.988203	0.162068	0.040052	0.144562	0.132314	0.327485	0.423280	0.122533	0.145840	0.260980	0.359192	0.090635	0.102576	0.611671	0.445200	0.594483	0.484150	0.126816	0.315201
48	0.152566	0.235774	0.685199	0.605736	0.153168	0.515777	0.260384	0.265550	0.080136	0.133314	0.509022	0.562977	0.134328	0.339350	0.104342	0.180035	0.172409	0.304260	0.787860	0.649909	0.452068	0.966992	0.098944	0.058986	0.148065	0.133906	0.297080	0.334039	0.136082	0.149694	0.248469	0.351785	0.095847	0.113031	0.547461	0.445296	0.549233	0.483834	0.185158	0.346005
49	0.163678	0.238812	0.650044	0.599220	0.117788	0.638310	0.121828	0.164924	0.085155	0.140822	0.549335	0.552200	0.246832	0.346598	0.084959	0.156133	0.179818	0.372051	0.805902	0.681424	0.425564	0.696370	0.220863	0.257576	0.142210	0.137997	0.252342	0.322179	0.245402	0.193142	0.238604	0.349484	0.106636	0.134258	0.547488	0.430860	0.387442	0.457395	0.203414	0.366673
50	0.163098	0.223301	0.566024	0.520374	0.119803	0.660141	0.062872	0.092586	0.087027	0.150613	0.563560	0.514649	0.284600	0.335061	0.084563	0.117542	0.180409	0.393716	0.807897	0.698379	0.437458	0.655898	0.303412	0.392498	0.073155	0.140676	0.171943	0.291998	0.339675	0.204218	0.237659	0.332218	0.112657	0.148071	0.535173	0.431769	0.330063	0.474387	0.231052	0.370364
51	0.151586	0.230987	0.540800	0.469665	0.145625	0.718958	0.045553	0.079108	0.083351	0.155951	0.539214	0.531408	0.305701	0.284773	0.081745	0.076596	0.180595	0.392855	0.816910	0.699301	0.427327	0.652563	0.333217	0.405164	0.079955	0.160831	0.152785	0.277922	0.376850	0.207175	0.237771	0.323761	0.107508	0.145906	0.509673	0.391761	0.318142	0.451175	0.239636	0.390661
52	0.142358	0.269654	0.543660	0.460656	0.162582	0.722887	0.029616	0.078948	0.083199	0.155657	0.529765	0.534907	0.340532	0.285467	0.079351	0.044360	0.181618	0.393014	0.821652	0.699439	0.403100	0.543083	0.409521	0.478405	0.088709	0.172876	0.146959	0.258713	0.387879	0.204182	0.224217	0.315845	0.096938	0.137157	0.439167	0.312122	0.293047	0.434124	0.264241	0.462069
53	0.128633	0.248964	0.544400	0.456151	0.165299	0.701471	0.056578	0.088322	0.121487	0.143877	0.512062	0.500874	0.344709	0.275088	0.057608	0.042672	0.174221	0.398354	0.821623	0.694705	0.276373	0.423332	0.418817	0.548992	0.085715	0.163890	0.141875	0.219906	0.403201	0.193180	0.187596	0.257666	0.087061	0.126258	0.308470	0.304793	0.217522	0.342214	0.266763	0.578205
54	0.107973	0.287869	0.531811	0.390492	0.161044	0.715979	0.170469	0.323962	0.120438	0.137123	0.447367	0.441916	0.349286	0.268114	0.051429	0.063224	0.142126	0.398561	0.783654	0.628190	0.261220	0.320131	0.444854	0.555197	0.081660	0.152920	0.123843	0.209359	0.404287	0.195764	0.154459	0.186847	0.082526	0.118905	0.249445	0.311702	0.158446	0.289483	0.295572	0.638541
55	0.103597	0.334030	0.452476	0.276028	0.152720	0.663717	0.241301	0.526603	0.119350	0.138034	0.336951	0.401497	0.480301	0.270110	0.055636	0.142001	0.141942	0.410346	0.643531	0.494433	0.168629	0.228328	0.453472	0.597676	0.080198	0.151069	0.100920	0.201655	0.404151	0.207259	0.096792	0.137774	0.084636	0.119055	0.242706	0.311293	0.160019	0.293623	0.314718	0.618553
56	0.104768	0.335046	0.256082	0.212817	0.151733	0.647775	0.287829	0.608860	0.118764	0.137566	0.312673	0.380441	0.484048	0.232103	0.054532	0.152290	0.131680	0.411048	0.605726	0.458268	0.155377	0.229453	0.459328	0.613288	0.080719	0.151258	0.091550	0.177688	0.403342	0.274383	0.054658	0.109253	0.084815	0.121860	0.256665	0.312888	0.160436	0.294047	0.334162	0.634276
57	0.108467	0.337316	0.175023	0.152950	0.157377	0.535913	0.309851	0.630897	0.111897	0.127569	0.310155	0.379230	0.455010	0.234526	0.074410	0.158652	0.106733	0.376028	0.566756	0.445254	0.132332	0.188130	0.384496	0.522665	0.075804	0.151485	0.089499	0.158280	0.402556	0.291310	0.053304	0.070166	0.084599	0.128906	0.249526	0.310960	0.165545	0.298229	0.341294	0.710750
58	0.092510	0.326985	0.162032	0.116812	0.195383	0.460793	0.357046	0.768666	0.107348	0.114709	0.287913	0.364351	0.414962	0.226555	0.088165	0.166008	0.097959	0.371749	0.425081	0.457384	0.093063	0.153662	0.378785	0.535152	0.071373	0.144287	0.087407	0.155424	0.408683	0.339884	0.049217	0.049373	0.077940	0.120514	0.243698	0.310718	0.160417	0.299525	0.327608	0.800988
59	0.080343	0.331237	0.162254	0.103205	0.178679	0.364181	0.412380	0.905456	0.105678	0.099334	0.191722	0.320814	0.394425	0.228444	0.146142	0.178899	0.085737	0.395050	0.336690	0.529948	0.090909	0.157136	0.337348	0.508378	0.068702	0.126169	0.059293	0.129272	0.333547	0.395712	0.044353	0.048047	0.073056	0.108071	0.228183	0.314601	0.147459	0.290129	0.315654	0.851363
60	0.081386	0.344958	0.161402	0.105228	0.165203	0.301320	0.425397	0.949993	0.108007	0.080429	0.135616	0.277121	0.376033	0.211696	0.233471	0.229835	0.072505	0.343819	0.333829	0.504537	0.084518	0.108393	0.288095	0.417945	0.057135	0.106915	0.051302	0.078266	0.283332	0.395515	0.037858	0.088189	0.071904	0.107839	0.212776	0.312405	0.130291	0.259578	0.309179	0.866851
61	0.092815	0.341340	0.156104	0.107408	0.158576	0.289396	0.455890	0.960597	0.107987	0.059855	0.126150	0.237490	0.356038	0.209076	0.252716	0.263839	0.071583	0.325722	0.336364	0.503287	0.093751	0.074072	0.281298	0.382009	0.056921	0.167431	0.039899	0.039830	0.245483	0.394754	0.173424	0.352008	0.074655	0.119715	0.189311	0.286720	0.118086	0.190187	0.289361	0.869890
62	0.106356	0.320136	0.145131	0.105082	0.158048	0.239912	0.543270	1.029146	0.090755	0.054427	0.109737	0.225687	0.355934	0.200103	0.252682	0.268084	0.086589	0.340932	0.320015	0.558053	0.116151	0.081909	0.240481	0.361623	0.056237	0.168891	0.047571	0.090103	0.206031	0.391485	0.270789	0.534110	0.084386	0.140994	0.323407	0.295607	0.115949	0.177499	0.280765	0.854788
63	0.125676	0.330254	0.133055	0.100257	0.156150	0.182717	0.559338	1.030997	0.052205	0.054599	0.105196	0.227180	0.154573	0.170367	0.276641	0.288745	0.099048	0.352511	0.334872	0.607355	0.130116	0.092201	0.250145	0.260922	0.055778	0.168336	0.219741	0.228110	0.197935	0.395908	0.282981	0.564141	0.089797	0.153060	0.344581	0.272398	0.114852	0.143182	0.267340	0.806865
64	0.151986	0.293036	0.152210	0.214578	0.145972	0.186980	0.569570	0.961447	0.053541	0.055028	0.111666	0.206265	0.102831	0.184703	0.297681	0.330581	0.102404	0.348581	0.349389	0.633219	0.131700	0.099413	0.217107	0.242147	0.054944	0.167441	0.353756	0.399860	0.194158	0.398680	0.309573	0.574509	0.089287	0.156378	0.385546	0.306826	0.114027	0.107262	0.265465	0.729126
65	0.202626	0.266411	0.352834	0.593978	0.148535	0.211787	0.659665	1.001989	0.052994	0.051178	0.098854	0.154350	0.089399	0.181977	0.294754	0.349421	0.101982	0.345706	0.349088	0.639023	0.129524	0.100704	0.208595	0.181393	0.055563	0.166599	0.398926	0.477548	0.198868	0.385371	0.422978	0.643301	0.090617	0.153885	0.448046	0.334239	0.108900	0.104577	0.242791	0.685921
66	0.216531	0.262844	0.551405	0.872816	0.115404	0.188721	0.676148	0.982829	0.053582	0.047214	0.080626	0.114329	0.086446	0.163248	0.307532	0.346202	0.101022	0.325335	0.338381	0.638482	0.126093	0.099016	0.176892	0.090944	0.060127	0.169377	0.412410	0.486309	0.209496	0.353903	0.461718	0.750090	0.099400	0.147436	0.471487	0.344828	0.077467	0.088947	0.244243	0.692949
67	0.215018	0.251889	0.564997	0.900078	0.093868	0.169630	0.649382	0.864102	0.055690	0.048464	0.084790	0.108305	0.074649	0.154162	0.299842	0.344574	0.101262	0.326201	0.334516	0.639202	0.123997	0.097602	0.138487	0.083101	0.065631	0.181981	0.480775	0.532338	0.207928	0.344383	0.463684	0.810674	0.103507	0.144204	0.465825	0.344381	0.065016	0.085741	0.229917	0.673313
68	0.222143	0.249325	0.623130	0.981981	0.090744	0.171600	0.626294	0.775434	0.059742	0.058980	0.088035	0.115326	0.075345	0.150985	0.260623	0.322521	0.098402	0.318225	0.362575	0.690129	0.114713	0.092862	0.134474	0.062282	0.065644	0.182742	0.548204	0.648255	0.158292	0.246716	0.479328	0.816718	0.102107	0.142399	0.465206	0.334501	0.042910	0.065939	0.217569	0.565040
69	0.246945	0.261774	0.715399	1.162907	0.091012	0.181363	0.624781	0.764439	0.054882	0.057434	0.095947	0.116746	0.075039	0.153520	0.280948	0.296214	0.099120	0.312775	0.497434	0.777789	0.120678	0.086524	0.127376	0.044997	0.064728	0.180047	0.576787	0.732742	0.135553	0.185320	0.588101	0.830279	0.104608	0.160313	0.465046	0.329351	0.038864	0.073120	0.214943	0.412093
70	0.260132	0.241926	0.747586	1.278724	0.092853	0.187326	0.557364	0.702323	0.048549	0.056312	0.190629	0.172853	0.092818	0.146587	0.294877	0.291000	0.092484	0.237801	0.643494	0.781826	0.235424	0.088297	0.108231	0.049424	0.052018	0.106959	0.582976	0.766337	0.135019	0.184856	0.634198	0.826186	0.106850	0.179909	0.464711	0.327621	0.047829	0.161171	0.207470	0.297442
71	0.259821	0.230540	0.765579	1.311837	0.098921	0.190940	0.481429	0.527492	0.058082	0.058873	0.299591	0.289114	0.094182	0.136983	0.282915	0.258456	0.091822	0.217300	0.703836	0.785183	0.290623	0.091657	0.061648	0.096440	0.059244	0.098870	0.587484	0.768740	0.132754	0.180686	0.596844	0.716835	0.096524	0.166054	0.381872	0.261330	0.050885	0.180587	0.200023	0.251098
72	0.256569	0.220923	0.801411	1.314005	0.106817	0.181065	0.466158	0.486969	0.063675	0.063673	0.310865	0.299893	0.086261	0.110606	0.247562	0.178309	0.093401	0.205071	0.716522	0.783269	0.413812	0.189429	0.045110	0.106869	0.068082	0.106260	0.565019	0.746595	0.125482	0.163585	0.589525	0.639199	0.085564	0.153201	0.354160	0.251523	0.074682	0.301213	0.205658	0.246801
73	0.239669	0.188207	0.832934	1.326630	0.102954	0.158351	0.333508	0.419739	0.063624	0.064789	0.310806	0.295080	0.077261	0.083561	0.248964	0.114586	0.082070	0.193930	0.785739	0.794236	0.638424	0.325741	0.047320	0.110752	0.073193	0.109601	0.484311	0.682233	0.119803	0.150621	0.618606	0.637734	0.082727	0.149526	0.312075	0.208883	0.110092	0.387265	0.266948	0.318351
74	0.229040	0.173014	0.823241	1.296243	0.081101	0.129111	0.163731	0.276842	0.066614	0.067200	0.308697	0.302817	0.080460	0.085776	0.234858	0.110708	0.078310	0.205372	0.859437	0.823711	0.676093	0.352068	0.051039	0.118537	0.075054	0.110143	0.443201	0.615273	0.117350	0.138864	0.601382	0.617335	0.082141	0.150415	0.197252	0.152299	0.124445	0.389771	0.395937	0.481745
75	0.181395	0.169605	0.746691	1.116206	0.076260	0.126682	0.132849	0.176788	0.073549	0.074785	0.317827	0.328681	0.078646	0.095654	0.227536	0.107295	0.075315	0.205309	0.926614	0.846477	0.700222	0.364372	0.130260	0.134612	0.076089	0.108878	0.431754	0.604437	0.087271	0.126669	0.550517	0.516839	0.069311	0.151164	0.115838	0.114427	0.129679	0.390225	0.454772	0.496692
76	0.176467	0.172423	0.724522	0.993263	0.076698	0.120366	0.169109	0.170000	0.074874	0.076558	0.325066	0.334531	0.078121	0.104211	0.219603	0.102373	0.087811	0.209858	0.934954	0.853216	0.699579	0.365017	0.134701	0.142318	0.189459	0.123912	0.377257	0.586412	0.030338	0.089896	0.548771	0.355358	0.060471	0.148123	0.112979	0.092953	0.130117	0.390232	0.452980	0.501157
77	0.173436	0.175492	0.720806	0.979995	0.076783	0.103352	0.188625	0.194066	0.078282	0.077010	0.381017	0.380496	0.100336	0.139987	0.153277	0.087159	0.106988	0.224303	0.934171	0.853699	0.689719	0.370497	0.154604	0.147315	0.349578	0.214104	0.260520	0.472109	0.021885	0.084386	0.549098	0.278615	0.057631	0.160146	0.109701	0.090691	0.138939	0.393866	0.527718	0.522555
78	0.147961	0.156998	0.639234	0.832365	0.073149	0.089382	0.193147	0.194917	0.077276	0.072953	0.417950	0.439431	0.157016	0.144681	0.113476	0.093682	0.118952	0.233012	0.941825	0.854372	0.644418	0.370048	0.187216	0.170156	0.398774	0.280999	0.161879	0.312357	0.022663	0.083642	0.524541	0.285742	0.054595	0.165065	0.109448	0.082212	0.146688	0.398806	0.585424	0.539237
79	0.103640	0.118829	0.558920	0.557618	0.064679	0.072519	0.243909	0.188961	0.076918	0.072502	0.473281	0.488695	0.196158	0.179358	0.108624	0.109131	0.122905	0.239033	0.946034	0.811794	0.615275	0.339511	0.193183	0.189656	0.479616	0.288203	0.148218	0.282814	0.020402	0.083185	0.389652	0.229339	0.071212	0.268965	0.116536	0.065592	0.153536	0.403153	0.586734	0.556852
80	0.075272	0.109942	0.522872	0.328633	0.051802	0.048278	0.267562	0.193692	0.074299	0.072892	0.465172	0.480476	0.219614	0.203950	0.125149	0.112467	0.122287	0.226999	0.878632	0.672895	0.504789	0.283121	0.244789	0.212835	0.506476	0.308671	0.152288	0.331198	0.022226	0.080695	0.363907	0.203894	0.079778	0.328802	0.108289	0.048091	0.154980	0.397812	0.585021	0.566973
81	0.072777	0.103215	0.505850	0.272571	0.040267	0.045912	0.268689	0.189988	0.067426	0.074018	0.434521	0.459132	0.220570	0.205032	0.128070	0.109426	0.121505	0.214201	0.759532	0.573107	0.308726	0.210235	0.249874	0.297337	0.544173	0.337739	0.165000	0.334869	0.034493	0.078246	0.357034	0.203123	0.079755	0.329425	0.089865	0.092818	0.152704	0.369896	0.585681	0.566890
82	0.060398	0.085000	0.428844	0.247239	0.066167	0.083628	0.272582	0.189345	0.063722	0.074467	0.433287	0.460318	0.219820	0.201885	0.128575	0.120218	0.117840	0.211996	0.698227	0.558995	0.179310	0.160060	0.237553	0.344178	0.547844	0.349095	0.167040	0.350753	0.043847	0.063211	0.314994	0.189035	0.079979	0.329264	0.105604	0.198543	0.152675	0.355746	0.595421	0.566837
83	0.047966	0.071638	0.398330	0.165637	0.091349	0.109264	0.300077	0.199256	0.065100	0.082053	0.436466	0.459245	0.218836	0.192391	0.164231	0.127855	0.115918	0.211573	0.682682	0.539152	0.167211	0.156991	0.225802	0.353125	0.549041	0.351656	0.185734	0.363266	0.045275	0.051288	0.262271	0.163013	0.079328	0.328970	0.097625	0.225604	0.134626	0.227274	0.591896	0.563351
84	0.033116	0.064544	0.393073	0.159549	0.093234	0.112165	0.330006	0.219446	0.057509	0.076114	0.441109	0.445063	0.218280	0.188005	0.169338	0.138675	0.116206	0.197044	0.597401	0.460009	0.163501	0.156185	0.222860	0.349521	0.560629	0.354473	0.187890	0.369662	0.045898	0.047712	0.225154	0.152217	0.077165	0.325766	0.095643	0.230875	0.108765	0.114887	0.557394	0.489528
85	0.030264	0.062278	0.282463	0.175665	0.093192	0.119347	0.314970	0.205772	0.053915	0.074187	0.435336	0.440259	0.211123	0.165570	0.191740	0.239387	0.108267	0.163339	0.467593	0.327010	0.162152	0.148080	0.183215	0.350555	0.546692	0.348824	0.184829	0.369938	0.054147	0.057030	0.195288	0.241961	0.073345	0.325020	0.104420	0.232851	0.095518	0.113816	0.460388	0.361936
86	0.016737	0.034572	0.189255	0.163194	0.103824	0.145352	0.381099	0.228699	0.053759	0.083902	0.420978	0.437745	0.186591	0.159437	0.199227	0.288116	0.108381	0.159683	0.303255	0.200080	0.188354	0.152081	0.184917	0.343975	0.477708	0.314051	0.182965	0.366654	0.075968	0.077101	0.227935	0.366098	0.084670	0.326332	0.114345	0.256248	0.092037	0.114067	0.432836	0.353090
87	0.038913	0.027079	0.184763	0.156886	0.111523	0.164237	0.420458	0.300253	0.043708	0.082633	0.381243	0.394848	0.122709	0.147638	0.253562	0.308106	0.099607	0.155413	0.273841	0.147717	0.217604	0.227615	0.130556	0.338483	0.410294	0.257455	0.182055	0.363246	0.084108	0.082373	0.220854	0.375082	0.104160	0.322769	0.137296	0.285017	0.090087	0.113068	0.399240	0.315232
88	0.098305	0.046231	0.188817	0.157207	0.114344	0.174953	0.398095	0.323576	0.042558	0.082280	0.331902	0.333568	0.101451	0.114492	0.317021	0.352482	0.079488	0.127118	0.276753	0.144667	0.324466	0.292153	0.083134	0.288723	0.336722	0.242198	0.176853	0.316266	0.091695	0.088205	0.191784	0.381458	0.102402	0.243976	0.166439	0.301803	0.075986	0.100535	0.251613	0.251070
89	0.109148	0.052122	0.191797	0.163621	0.115655	0.176739	0.393623	0.323417	0.042601	0.082453	0.238190	0.264681	0.120845	0.143714	0.320865	0.407987	0.060205	0.096448	0.248963	0.134398	0.357148	0.304599	0.080627	0.195344	0.273715	0.222401	0.162577	0.208280	0.092952	0.090134	0.222413	0.397005	0.104042	0.172020	0.164173	0.315804	0.066940	0.089487	0.153611	0.191300
90	0.151946	0.058781	0.192762	0.181078	0.115110	0.171960	0.391009	0.326430	0.043464	0.081289	0.176243	0.209870	0.122938	0.149542	0.324316	0.430003	0.051687	0.077279	0.177434	0.102321	0.480936	0.333774	0.063293	0.165924	0.179937	0.170247	0.136561	0.191413	0.097409	0.095325	0.259123	0.477810	0.107626	0.232930	0.164239	0.315418	0.050768	0.070865	0.154606	0.120429
91	0.170771	0.090420	0.185454	0.175939	0.086842	0.154301	0.375313	0.330846	0.042912	0.077513	0.165617	0.190776	0.123013	0.149671	0.309624	0.429011	0.049727	0.066535	0.172364	0.068259	0.499609	0.349847	0.057452	0.220025	0.153923	0.124255	0.129425	0.165511	0.113244	0.111244	0.263294	0.545884	0.108788	0.258548	0.152287	0.264308	0.048994	0.067431	0.147790	0.095477
92	0.179539	0.098725	0.187123	0.175609	0.083690	0.152125	0.351363	0.311462	0.050174	0.074404	0.166795	0.190782	0.123299	0.149898	0.302089	0.431507	0.049575	0.065612	0.156361	0.042179	0.507359	0.365770	0.104158	0.321747	0.150991	0.125198	0.104580	0.124383	0.127841	0.120919	0.261016	0.578115	0.115403	0.259262	0.150871	0.238739	0.045143	0.067520	0.138468	0.104217
93	0.179531	0.098187	0.185746	0.185239	0.085179	0.152373	0.329963	0.304766	0.047893	0.069604	0.160520	0.193250	0.120891	0.147280	0.293811	0.400390	0.048757	0.065430	0.121895	0.036300	0.506664	0.386232	0.163677	0.322192	0.108731	0.135102	0.079758	0.086042	0.131822	0.122352	0.270465	0.589338	0.122308	0.339017	0.149358	0.233352	0.040661	0.067387	0.090592	0.111076
94	0.179738	0.097147	0.164419	0.183288	0.147465	0.144407	0.302974	0.291524	0.046546	0.073781	0.156888	0.217086	0.115237	0.142626	0.273876	0.347097	0.046120	0.061990	0.107609	0.036304	0.499832	0.384476	0.217505	0.360394	0.071124	0.141647	0.076520	0.052703	0.131460	0.124093	0.268296	0.584682	0.133291	0.455546	0.142879	0.233221	0.041617	0.067061	0.087024	0.114193
95	0.179784	0.097227	0.146525	0.180044	0.181694	0.112168	0.149399	0.217499	0.043431	0.072796	0.144911	0.226848	0.115519	0.142829	0.250636	0.335426	0.039198	0.063346	0.103364	0.035713	0.452088	0.311588	0.261294	0.421313	0.052029	0.138522	0.071131	0.042111	0.126355	0.124438	0.278243	0.567103	0.128414	0.466256	0.136274	0.211153	0.040333	0.065226	0.078055	0.114796
96	0.179387	0.097499	0.155388	0.181425	0.186986	0.110443	0.073660	0.134430	0.038365	0.059210	0.130112	0.208408	0.092334	0.121485	0.123661	0.297916	0.033929	0.063135	0.095020	0.036015	0.403155	0.293069	0.271860	0.467573	0.037663	0.125126	0.069173	0.039477	0.117396	0.120196	0.277671	0.535337	0.112456	0.463613	0.114155	0.171856	0.041551	0.066485	0.075277	0.113894
97	0.171647	0.097969	0.155447	0.184850	0.244999	0.119899	0.096651	0.124310	0.038510	0.058817	0.123047	0.215451	0.061198	0.077709	0.066183	0.217148	0.030340	0.059277	0.086229	0.039052	0.221718	0.241548	0.273989	0.483528	0.039355	0.150728	0.046905	0.025280	0.111083	0.116948	0.305315	0.524433	0.101205	0.462911	0.051851	0.141447	0.045392	0.071162	0.072120	0.112313
98	0.146175	0.091683	0.176533	0.185667	0.245661	0.124156	0.143368	0.177823	0.039539	0.059176	0.116232	0.219278	0.043986	0.054493	0.050947	0.134529	0.024792	0.052403	0.072473	0.057035	0.217323	0.223380	0.274941	0.474525	0.046091	0.176482	0.019092	0.040242	0.107224	0.113826	0.330305	0.520871	0.093491	0.473874	0.027548	0.106703	0.045587	0.075106	0.068496	0.104667
99	0.143248	0.095914	0.199955	0.201110	0.248402	0.124097	0.146316	0.235186	0.039428	0.059018	0.119810	0.221196	0.043214	0.053670	0.048587	0.119841	0.022911	0.050941	0.059850	0.087754	0.321765	0.200717	0.269422	0.420304	0.047956	0.192116	0.052713	0.129837	0.105920	0.114489	0.303778	0.489191	0.091635	0.450536	0.024094	0.073286	0.043193	0.063950	0.066340	0.079863
100	0.087470	0.089774	0.238274	0.226623	0.253058	0.123910	0.188583	0.271896	0.040516	0.058816	0.124043	0.221427	0.041992	0.053338	0.036377	0.102386	0.022594	0.049234	0.048963	0.093415	0.343718	0.167436	0.248049	0.393596	0.054847	0.231211	0.077634	0.150074	0.099355	0.105178	0.285733	0.401533	0.091137	0.435802	0.064965	0.067813	0.128828	0.069560	0.057398	0.072441
101	0.042224	0.057543	0.245624	0.232589	0.271647	0.129915	0.221629	0.277501	0.039796	0.060450	0.124614	0.221411	0.042009	0.055057	0.045228	0.091790	0.023483	0.070009	0.044185	0.099292	0.432423	0.159505	0.299143	0.405119	0.055948	0.264950	0.085801	0.153301	0.070812	0.082656	0.284575	0.323819	0.085200	0.443654	0.176626	0.079395	0.209721	0.087292	0.051699	0.072008
