	218_C_T2_sh_ND_01.c3d	218_C_T2_sh_ND_01.c3d	218_C_T2_sh_ND_01.c3d	218_C_T2_sh_ND_01.c3d	218_C_T2_sh_ND_01.c3d	218_C_T2_sh_ND_01.c3d	218_C_T2_sh_ND_01.c3d	218_C_T2_sh_ND_01.c3d	218_C_T2_sh_ND_03.c3d	218_C_T2_sh_ND_03.c3d	218_C_T2_sh_ND_03.c3d	218_C_T2_sh_ND_03.c3d	218_C_T2_sh_ND_03.c3d	218_C_T2_sh_ND_03.c3d	218_C_T2_sh_ND_03.c3d	218_C_T2_sh_ND_03.c3d	218_C_T2_sh_ND_04.c3d	218_C_T2_sh_ND_04.c3d	218_C_T2_sh_ND_04.c3d	218_C_T2_sh_ND_04.c3d	218_C_T2_sh_ND_04.c3d	218_C_T2_sh_ND_04.c3d	218_C_T2_sh_ND_04.c3d	218_C_T2_sh_ND_04.c3d	218_C_T2_sh_ND_05.c3d	218_C_T2_sh_ND_05.c3d	218_C_T2_sh_ND_05.c3d	218_C_T2_sh_ND_05.c3d	218_C_T2_sh_ND_05.c3d	218_C_T2_sh_ND_05.c3d	218_C_T2_sh_ND_05.c3d	218_C_T2_sh_ND_05.c3d	218_C_T2_sh_ND_06.c3d	218_C_T2_sh_ND_06.c3d	218_C_T2_sh_ND_06.c3d	218_C_T2_sh_ND_06.c3d	218_C_T2_sh_ND_06.c3d	218_C_T2_sh_ND_06.c3d	218_C_T2_sh_ND_06.c3d	218_C_T2_sh_ND_06.c3d	218_C_T2_sh_ND_07.c3d	218_C_T2_sh_ND_07.c3d	218_C_T2_sh_ND_07.c3d	218_C_T2_sh_ND_07.c3d	218_C_T2_sh_ND_07.c3d	218_C_T2_sh_ND_07.c3d	218_C_T2_sh_ND_07.c3d	218_C_T2_sh_ND_07.c3d	218_C_T2_sh_ND_08.c3d	218_C_T2_sh_ND_08.c3d	218_C_T2_sh_ND_08.c3d	218_C_T2_sh_ND_08.c3d	218_C_T2_sh_ND_08.c3d	218_C_T2_sh_ND_08.c3d	218_C_T2_sh_ND_08.c3d	218_C_T2_sh_ND_08.c3d	218_C_T2_sh_ND_09.c3d	218_C_T2_sh_ND_09.c3d	218_C_T2_sh_ND_09.c3d	218_C_T2_sh_ND_09.c3d	218_C_T2_sh_ND_09.c3d	218_C_T2_sh_ND_09.c3d	218_C_T2_sh_ND_09.c3d	218_C_T2_sh_ND_09.c3d	218_C_T2_sh_ND_10.c3d	218_C_T2_sh_ND_10.c3d	218_C_T2_sh_ND_10.c3d	218_C_T2_sh_ND_10.c3d	218_C_T2_sh_ND_10.c3d	218_C_T2_sh_ND_10.c3d	218_C_T2_sh_ND_10.c3d	218_C_T2_sh_ND_10.c3d
	Biceps femoris_lat	Semitendinosus_lat	Vastus lateralis_lat	Vastus medialis_lat	Biceps femoris_med	Semitendinosus_med	Vastus lateralis_med	Vastus medialis_med	Biceps femoris_lat	Semitendinosus_lat	Vastus lateralis_lat	Vastus medialis_lat	Biceps femoris_med	Semitendinosus_med	Vastus lateralis_med	Vastus medialis_med	Biceps femoris_lat	Semitendinosus_lat	Vastus lateralis_lat	Vastus medialis_lat	Biceps femoris_med	Semitendinosus_med	Vastus lateralis_med	Vastus medialis_med	Biceps femoris_lat	Semitendinosus_lat	Vastus lateralis_lat	Vastus medialis_lat	Biceps femoris_med	Semitendinosus_med	Vastus lateralis_med	Vastus medialis_med	Biceps femoris_lat	Semitendinosus_lat	Vastus lateralis_lat	Vastus medialis_lat	Biceps femoris_med	Semitendinosus_med	Vastus lateralis_med	Vastus medialis_med	Biceps femoris_lat	Semitendinosus_lat	Vastus lateralis_lat	Vastus medialis_lat	Biceps femoris_med	Semitendinosus_med	Vastus lateralis_med	Vastus medialis_med	Biceps femoris_lat	Semitendinosus_lat	Vastus lateralis_lat	Vastus medialis_lat	Biceps femoris_med	Semitendinosus_med	Vastus lateralis_med	Vastus medialis_med	Biceps femoris_lat	Semitendinosus_lat	Vastus lateralis_lat	Vastus medialis_lat	Biceps femoris_med	Semitendinosus_med	Vastus lateralis_med	Vastus medialis_med	Biceps femoris_lat	Semitendinosus_lat	Vastus lateralis_lat	Vastus medialis_lat	Biceps femoris_med	Semitendinosus_med	Vastus lateralis_med	Vastus medialis_med
	P2D	P2D	P2D	P2D	P2D	P2D	P2D	P2D	P2D	P2D	P2D	P2D	P2D	P2D	P2D	P2D	P2D	P2D	P2D	P2D	P2D	P2D	P2D	P2D	P2D	P2D	P2D	P2D	P2D	P2D	P2D	P2D	P2D	P2D	P2D	P2D	P2D	P2D	P2D	P2D	P2D	P2D	P2D	P2D	P2D	P2D	P2D	P2D	P2D	P2D	P2D	P2D	P2D	P2D	P2D	P2D	P2D	P2D	P2D	P2D	P2D	P2D	P2D	P2D	P2D	P2D	P2D	P2D	P2D	P2D	P2D	P2D
	EMG_lat	EMG_lat	EMG_lat	EMG_lat	EMG_med	EMG_med	EMG_med	EMG_med	EMG_lat	EMG_lat	EMG_lat	EMG_lat	EMG_med	EMG_med	EMG_med	EMG_med	EMG_lat	EMG_lat	EMG_lat	EMG_lat	EMG_med	EMG_med	EMG_med	EMG_med	EMG_lat	EMG_lat	EMG_lat	EMG_lat	EMG_med	EMG_med	EMG_med	EMG_med	EMG_lat	EMG_lat	EMG_lat	EMG_lat	EMG_med	EMG_med	EMG_med	EMG_med	EMG_lat	EMG_lat	EMG_lat	EMG_lat	EMG_med	EMG_med	EMG_med	EMG_med	EMG_lat	EMG_lat	EMG_lat	EMG_lat	EMG_med	EMG_med	EMG_med	EMG_med	EMG_lat	EMG_lat	EMG_lat	EMG_lat	EMG_med	EMG_med	EMG_med	EMG_med	EMG_lat	EMG_lat	EMG_lat	EMG_lat	EMG_med	EMG_med	EMG_med	EMG_med
ITEM	Y	Y	Y	Y	Y	Y	Y	Y	Y	Y	Y	Y	Y	Y	Y	Y	Y	Y	Y	Y	Y	Y	Y	Y	Y	Y	Y	Y	Y	Y	Y	Y	Y	Y	Y	Y	Y	Y	Y	Y	Y	Y	Y	Y	Y	Y	Y	Y	Y	Y	Y	Y	Y	Y	Y	Y	Y	Y	Y	Y	Y	Y	Y	Y	Y	Y	Y	Y	Y	Y	Y	Y
1	0.864838	0.053132	0.661076	0.141416	0.678125	0.121083	0.622999	0.130639	0.590376	0.139659	0.840555	0.238955	0.208414	0.061584	0.808097	0.291500	0.157485	0.035768	0.438320	0.296230	0.143630	0.076765	0.443282	0.281720	0.386579	0.088754	0.912957	0.439175	0.399480	0.099586	0.294881	0.336543	0.223050	0.103343	0.659691	0.201359	0.076172	0.098182	0.240334	0.214803	0.319697	0.098898	0.881645	0.254023	0.211095	0.052040	0.288951	0.263407	0.326829	0.029383	0.590135	0.270233	0.098301	0.088179	0.283473	0.439668	0.192866	0.037655	0.308491	0.310202	0.202253	0.125947	0.311625	0.241113	0.161845	0.019834	0.500120	0.219443	0.095455	0.030438	0.622083	0.272321
2	0.903534	0.055856	0.663559	0.144391	0.675396	0.132785	0.614627	0.159079	0.604995	0.136662	0.845428	0.223536	0.207774	0.061518	0.822295	0.290398	0.160479	0.032570	0.474879	0.245012	0.160524	0.074305	0.448412	0.276096	0.376528	0.089447	0.939440	0.431760	0.299960	0.088237	0.286973	0.363513	0.247425	0.102381	0.650055	0.187763	0.073835	0.116679	0.219900	0.245346	0.324540	0.096835	0.879103	0.254076	0.189840	0.052237	0.290374	0.206478	0.252255	0.051959	0.535097	0.266496	0.117563	0.088660	0.298888	0.445239	0.195760	0.044343	0.262761	0.315919	0.175237	0.122758	0.309443	0.196400	0.189768	0.019533	0.518422	0.178316	0.101515	0.030917	0.670171	0.281186
3	0.990184	0.056141	0.629529	0.142927	0.662499	0.138596	0.562735	0.174600	0.598660	0.136339	0.843977	0.220630	0.197649	0.073733	0.820411	0.305201	0.160584	0.034761	0.481744	0.241705	0.158932	0.066274	0.446717	0.277810	0.323218	0.090810	0.974276	0.392583	0.251072	0.080583	0.292371	0.369498	0.248625	0.090998	0.635541	0.188311	0.074813	0.126655	0.291621	0.249633	0.310953	0.098951	0.878995	0.178876	0.178721	0.066037	0.282550	0.250916	0.287832	0.079165	0.355261	0.266179	0.116115	0.097915	0.301793	0.504388	0.200637	0.043934	0.228776	0.315238	0.167092	0.122478	0.425184	0.196379	0.198102	0.019616	0.527545	0.175665	0.115482	0.037584	0.753691	0.315558
4	1.007124	0.058864	0.600664	0.131141	0.641426	0.145144	0.431251	0.178320	0.581060	0.135629	0.834542	0.220274	0.191431	0.078040	0.776444	0.297533	0.233544	0.040261	0.437212	0.195239	0.155881	0.066954	0.442038	0.301976	0.267698	0.092851	0.970102	0.369560	0.246429	0.078313	0.291530	0.382153	0.252409	0.083024	0.626997	0.199088	0.084018	0.136005	0.368457	0.269076	0.307461	0.099856	0.814056	0.142720	0.130057	0.072097	0.309248	0.273151	0.286948	0.079187	0.268163	0.268051	0.102898	0.119221	0.287772	0.568489	0.202800	0.042647	0.281578	0.283125	0.151360	0.119603	0.603952	0.228529	0.197376	0.020579	0.505530	0.189519	0.122829	0.041007	0.785518	0.358195
5	1.010576	0.064410	0.562566	0.116422	0.605478	0.159311	0.375060	0.181246	0.576541	0.122248	0.820308	0.215326	0.194089	0.070891	0.723884	0.279720	0.303172	0.046155	0.415108	0.127984	0.161849	0.059177	0.443095	0.305012	0.196221	0.093227	0.965712	0.360203	0.228178	0.076359	0.392103	0.520735	0.301856	0.079952	0.627728	0.208329	0.177711	0.133904	0.479901	0.272534	0.310738	0.094297	0.723823	0.158207	0.114711	0.087641	0.355551	0.322059	0.296185	0.078179	0.261453	0.259685	0.118328	0.131158	0.275318	0.550153	0.208215	0.040788	0.358361	0.233892	0.105360	0.104378	0.634033	0.231799	0.195917	0.023523	0.499671	0.191597	0.128610	0.041440	0.782839	0.390185
6	1.012632	0.058343	0.560260	0.146548	0.423124	0.167263	0.368481	0.184145	0.572305	0.107385	0.749534	0.165240	0.192950	0.068937	0.670181	0.236231	0.350040	0.062986	0.268109	0.111153	0.177280	0.055385	0.453909	0.298584	0.189589	0.089677	0.962745	0.354106	0.199897	0.078986	0.498180	0.518936	0.374131	0.085845	0.645859	0.207478	0.267618	0.128747	0.476109	0.271858	0.299937	0.094954	0.736775	0.157140	0.105961	0.088159	0.361261	0.309007	0.314138	0.079116	0.252803	0.201134	0.125577	0.130827	0.299999	0.560476	0.210934	0.042861	0.360678	0.219409	0.118502	0.099660	0.696379	0.219945	0.229133	0.021656	0.467378	0.191078	0.135134	0.041165	0.753315	0.393509
7	0.986317	0.057890	0.561553	0.189453	0.380253	0.170702	0.371877	0.181531	0.506299	0.099185	0.631871	0.108529	0.175223	0.071186	0.658559	0.222168	0.366102	0.071638	0.264745	0.116423	0.193107	0.058114	0.415015	0.275094	0.205719	0.083991	0.912605	0.395063	0.151144	0.075359	0.530969	0.615803	0.396537	0.084179	0.642989	0.178671	0.280144	0.129651	0.473330	0.302040	0.239749	0.088311	0.653407	0.152956	0.107286	0.085829	0.364385	0.303975	0.323521	0.079766	0.205004	0.124304	0.124701	0.116806	0.288192	0.623617	0.180163	0.040834	0.364315	0.216275	0.135747	0.094654	0.716497	0.213266	0.258329	0.024957	0.411026	0.187598	0.151251	0.041472	0.717314	0.396130
8	0.880942	0.058479	0.464272	0.231775	0.380933	0.171691	0.384041	0.184087	0.445668	0.087671	0.561258	0.098123	0.175737	0.073887	0.657973	0.233224	0.377534	0.072777	0.236709	0.147820	0.203309	0.059578	0.403141	0.285108	0.249445	0.084036	0.869817	0.429299	0.121357	0.068478	0.514278	0.698767	0.398468	0.078124	0.579910	0.164604	0.308286	0.138280	0.467807	0.304559	0.166397	0.065755	0.503567	0.159197	0.105743	0.082282	0.366910	0.304925	0.329150	0.084598	0.150991	0.115614	0.219763	0.104997	0.213151	0.621058	0.180648	0.039563	0.368292	0.194753	0.125434	0.064907	0.718501	0.226436	0.281374	0.027215	0.377972	0.186274	0.160805	0.041924	0.733574	0.428197
9	0.606458	0.060551	0.383702	0.232077	0.359502	0.172605	0.387785	0.189988	0.429960	0.075312	0.552487	0.096660	0.173161	0.080645	0.625445	0.239961	0.377507	0.070014	0.208701	0.346189	0.204161	0.063453	0.481471	0.266274	0.284461	0.087379	0.803692	0.436459	0.109222	0.063956	0.576849	0.717758	0.395540	0.071696	0.489819	0.158777	0.305759	0.126630	0.474118	0.309256	0.134833	0.062854	0.454515	0.165307	0.094971	0.080685	0.410574	0.299401	0.373957	0.101032	0.143497	0.137548	0.253882	0.104130	0.231427	0.637703	0.182073	0.039592	0.366759	0.206000	0.125542	0.057664	0.757558	0.228016	0.296342	0.029472	0.362262	0.149143	0.169653	0.043770	0.741940	0.414950
10	0.562978	0.067181	0.342207	0.242652	0.314813	0.172927	0.393940	0.199093	0.383596	0.077903	0.531445	0.102990	0.170770	0.092871	0.540090	0.300428	0.382278	0.069811	0.262966	0.496551	0.244782	0.066609	0.549071	0.231770	0.275598	0.088308	0.754200	0.445273	0.103267	0.058302	0.739266	0.687775	0.392767	0.066817	0.436750	0.195843	0.305341	0.111373	0.470674	0.264155	0.134761	0.066674	0.450250	0.166378	0.096464	0.080809	0.429250	0.301563	0.364097	0.101203	0.137329	0.199118	0.286065	0.099353	0.307937	0.610082	0.181815	0.040225	0.364187	0.222649	0.126237	0.047438	0.799723	0.218932	0.299681	0.030567	0.374811	0.159224	0.177194	0.044113	0.728908	0.384660
11	0.353746	0.086960	0.435951	0.244624	0.247615	0.171669	0.391037	0.201978	0.318264	0.073308	0.447412	0.119169	0.180887	0.101537	0.443351	0.326552	0.370024	0.074463	0.288943	0.510441	0.251255	0.065635	0.570438	0.219169	0.257034	0.088963	0.727826	0.423341	0.104240	0.065799	0.790369	0.699966	0.401077	0.064435	0.470491	0.208951	0.305015	0.100197	0.438471	0.273608	0.131539	0.064727	0.434752	0.167916	0.108192	0.074941	0.485707	0.278136	0.353972	0.101209	0.134763	0.337120	0.376647	0.077319	0.333782	0.526876	0.181489	0.040881	0.365824	0.225522	0.215721	0.049805	0.842551	0.220302	0.295259	0.030600	0.451274	0.236589	0.167203	0.051001	0.684930	0.374229
12	0.225365	0.088845	0.463652	0.244435	0.212634	0.175446	0.350402	0.209796	0.247160	0.070467	0.340362	0.125851	0.245423	0.109851	0.357014	0.324928	0.343324	0.078849	0.434824	0.733886	0.240202	0.055457	0.524782	0.208727	0.270386	0.083040	0.728378	0.405446	0.141767	0.067530	0.791656	0.745352	0.403592	0.061023	0.539824	0.243890	0.306155	0.121169	0.396732	0.270398	0.130136	0.061600	0.402269	0.174020	0.154842	0.068976	0.472760	0.258732	0.355744	0.101529	0.171551	0.425941	0.398432	0.063260	0.354608	0.512947	0.173364	0.034137	0.371248	0.251767	0.276532	0.065549	0.854172	0.219663	0.290540	0.035754	0.515177	0.281179	0.165869	0.076476	0.630023	0.378650
13	0.188381	0.086942	0.464817	0.263681	0.183925	0.181409	0.332399	0.227053	0.159996	0.069035	0.253322	0.127377	0.355026	0.106637	0.370935	0.321947	0.311084	0.093360	0.439922	0.826574	0.238666	0.049014	0.534119	0.223703	0.294517	0.066897	0.750182	0.389266	0.343829	0.079621	0.783589	0.726585	0.388903	0.055761	0.536238	0.265413	0.334885	0.155293	0.262191	0.282053	0.124112	0.060734	0.392111	0.168174	0.147975	0.051708	0.422273	0.192192	0.377838	0.091522	0.219329	0.430812	0.397200	0.065954	0.414233	0.445474	0.183289	0.030068	0.356288	0.291962	0.281849	0.078594	0.725331	0.200991	0.288411	0.045995	0.512287	0.292483	0.172795	0.090154	0.600190	0.377179
14	0.199475	0.084888	0.497969	0.322351	0.152724	0.183295	0.374589	0.225037	0.122751	0.069703	0.206648	0.128048	0.365206	0.100673	0.383373	0.295462	0.326021	0.142547	0.448146	0.831109	0.242389	0.049211	0.609837	0.222524	0.313432	0.057401	0.771139	0.386087	0.390428	0.121488	0.699694	0.663996	0.383288	0.055723	0.470084	0.276930	0.303158	0.176488	0.248940	0.270924	0.120901	0.060394	0.384334	0.144895	0.142909	0.051678	0.455012	0.240406	0.354838	0.071895	0.243014	0.446949	0.398339	0.067447	0.454967	0.317932	0.202351	0.034332	0.349146	0.286747	0.301650	0.081560	0.680072	0.195423	0.274415	0.051261	0.521221	0.289358	0.173614	0.090380	0.598129	0.377363
15	0.202461	0.085377	0.607758	0.317715	0.105697	0.169818	0.427707	0.201104	0.123073	0.070291	0.203160	0.130758	0.367270	0.096704	0.379330	0.293568	0.320153	0.156787	0.446696	0.807723	0.246201	0.053981	0.666138	0.221479	0.326420	0.060018	0.776657	0.457190	0.406570	0.164292	0.640977	0.640578	0.370207	0.052331	0.460783	0.347843	0.309148	0.175779	0.262577	0.240727	0.127959	0.065223	0.270556	0.128503	0.142402	0.090586	0.476271	0.253344	0.356452	0.071357	0.248159	0.474844	0.369136	0.067662	0.457718	0.313986	0.205519	0.043411	0.294631	0.307491	0.305643	0.083034	0.618103	0.214153	0.259197	0.054180	0.605415	0.319774	0.175715	0.090431	0.586946	0.379400
16	0.202612	0.082476	0.632833	0.291035	0.090397	0.153810	0.476731	0.299197	0.125326	0.076120	0.196668	0.135659	0.382146	0.096596	0.381798	0.298775	0.336221	0.170966	0.393347	0.742006	0.250109	0.056425	0.657041	0.227449	0.329937	0.061151	0.751700	0.506773	0.438000	0.182081	0.623065	0.521445	0.308009	0.046091	0.445912	0.423302	0.284022	0.172677	0.255036	0.241468	0.168707	0.074977	0.294778	0.185666	0.139231	0.101001	0.479066	0.383842	0.347995	0.076201	0.249962	0.526336	0.337430	0.066741	0.449767	0.257247	0.202374	0.049136	0.230138	0.347841	0.309479	0.082205	0.557644	0.217152	0.259668	0.057078	0.681265	0.374849	0.174935	0.090360	0.541959	0.378904
17	0.222746	0.084100	0.595212	0.306681	0.091650	0.144758	0.530197	0.450906	0.102208	0.091063	0.191551	0.204366	0.405207	0.098486	0.381598	0.295147	0.320332	0.187416	0.458391	0.707024	0.265787	0.057418	0.645142	0.244509	0.329356	0.062889	0.735856	0.522897	0.452102	0.196736	0.617649	0.455322	0.243114	0.035471	0.422452	0.467315	0.354747	0.174439	0.229835	0.263524	0.174898	0.079608	0.370785	0.241365	0.139150	0.101182	0.514180	0.561663	0.337085	0.095676	0.252140	0.553840	0.324373	0.067508	0.393092	0.191211	0.199907	0.060195	0.257951	0.374444	0.306523	0.079395	0.550051	0.250350	0.262211	0.057887	0.694850	0.414330	0.168974	0.088252	0.427312	0.359697
18	0.301344	0.078650	0.579751	0.338453	0.092548	0.130181	0.554490	0.497975	0.088211	0.111346	0.251168	0.226390	0.426819	0.112194	0.377743	0.295823	0.265641	0.190492	0.383679	0.641127	0.299040	0.063956	0.627513	0.239843	0.325286	0.062673	0.755878	0.519399	0.461546	0.197553	0.463742	0.427678	0.209615	0.029846	0.468029	0.482544	0.433619	0.174318	0.247770	0.268061	0.176390	0.082751	0.407765	0.247913	0.146007	0.101628	0.550911	0.590835	0.342630	0.120817	0.243336	0.562941	0.267107	0.061486	0.354848	0.232375	0.190809	0.074257	0.286812	0.377879	0.316802	0.083129	0.485458	0.267105	0.245477	0.057136	0.684554	0.419571	0.161092	0.086301	0.309216	0.324514
19	0.363940	0.060752	0.527562	0.339057	0.092206	0.119620	0.558250	0.503347	0.083392	0.129578	0.352573	0.234847	0.430378	0.126062	0.391863	0.306734	0.254484	0.190020	0.316071	0.352589	0.326110	0.066986	0.579103	0.226976	0.306837	0.061080	0.817715	0.484739	0.462532	0.197481	0.224149	0.419339	0.208701	0.028704	0.514009	0.481390	0.569014	0.177537	0.346547	0.253097	0.177441	0.084702	0.484890	0.295696	0.191903	0.100695	0.522824	0.591284	0.343809	0.129525	0.244491	0.564221	0.203651	0.049334	0.340060	0.226223	0.177912	0.078563	0.303210	0.374879	0.335205	0.091886	0.418752	0.267916	0.203636	0.056758	0.730078	0.419186	0.157332	0.085704	0.311060	0.289627
20	0.375684	0.045621	0.487173	0.340231	0.091009	0.114273	0.588098	0.504569	0.085637	0.132352	0.393649	0.260535	0.445111	0.128868	0.393699	0.332106	0.257614	0.159346	0.458105	0.272289	0.293405	0.091402	0.582070	0.224752	0.262157	0.056834	0.828635	0.473725	0.466168	0.201998	0.187851	0.366000	0.205801	0.027412	0.565690	0.474433	0.577757	0.160940	0.358768	0.239387	0.201861	0.079365	0.502330	0.320146	0.185675	0.101255	0.515602	0.616967	0.293320	0.122694	0.250572	0.558931	0.215534	0.044456	0.253258	0.232223	0.168536	0.081578	0.314959	0.366647	0.306176	0.092078	0.329380	0.274121	0.163887	0.055417	0.778904	0.417786	0.154473	0.086607	0.333226	0.277854
21	0.377975	0.066449	0.498651	0.355825	0.078384	0.112123	0.593524	0.517356	0.099038	0.131832	0.396313	0.270705	0.480268	0.121242	0.342952	0.286996	0.257000	0.131617	0.473844	0.269952	0.274059	0.105954	0.577170	0.217041	0.236925	0.066838	0.811041	0.492125	0.437772	0.207418	0.246579	0.258472	0.195707	0.025969	0.578593	0.478484	0.560852	0.124329	0.339243	0.217447	0.220087	0.077433	0.548432	0.329119	0.190119	0.100714	0.557056	0.673498	0.295928	0.124845	0.259064	0.535849	0.217866	0.053451	0.123799	0.226381	0.206251	0.107120	0.346198	0.357473	0.244101	0.102907	0.199876	0.272974	0.132835	0.056472	0.803260	0.417215	0.147842	0.089008	0.340744	0.268806
22	0.390972	0.105732	0.485996	0.340126	0.087413	0.110287	0.610788	0.552140	0.109722	0.129061	0.393288	0.308668	0.474065	0.114315	0.332958	0.246632	0.269178	0.127348	0.476417	0.243419	0.277088	0.106331	0.581879	0.233303	0.240907	0.085566	0.796708	0.463368	0.351416	0.207924	0.263380	0.224599	0.175265	0.024959	0.539243	0.512070	0.549206	0.081959	0.346832	0.217599	0.249507	0.079621	0.590563	0.334284	0.246500	0.098883	0.536552	0.669802	0.293050	0.124989	0.259907	0.455248	0.207852	0.054654	0.158988	0.216750	0.232464	0.124017	0.345544	0.346886	0.258406	0.122159	0.177120	0.269116	0.100689	0.057591	0.806412	0.415622	0.170931	0.092172	0.293509	0.218431
23	0.397643	0.111877	0.355611	0.309366	0.195899	0.101633	0.660780	0.598682	0.112949	0.126023	0.423716	0.361879	0.445799	0.116280	0.335528	0.250014	0.269907	0.093737	0.428210	0.162956	0.282996	0.104974	0.584777	0.220306	0.230740	0.090606	0.818464	0.445945	0.374440	0.196797	0.271123	0.217608	0.103121	0.021104	0.466963	0.500370	0.550944	0.084610	0.341494	0.217983	0.324759	0.077483	0.619006	0.334236	0.252449	0.072333	0.512513	0.660671	0.269458	0.124880	0.237696	0.377656	0.192809	0.056108	0.172336	0.245941	0.224825	0.135918	0.350116	0.303908	0.244232	0.122800	0.166623	0.260261	0.121638	0.067499	0.785516	0.395588	0.203767	0.097365	0.264870	0.204033
24	0.406938	0.127233	0.217841	0.302189	0.336071	0.090802	0.698467	0.634065	0.141918	0.128420	0.481395	0.369374	0.381021	0.140146	0.298875	0.253573	0.304734	0.099523	0.414376	0.145266	0.299246	0.109787	0.511073	0.198419	0.205143	0.094540	0.819418	0.430248	0.374711	0.201377	0.275092	0.218724	0.123800	0.022813	0.449775	0.498169	0.551354	0.077499	0.337345	0.199178	0.432606	0.069831	0.627572	0.323179	0.274911	0.058131	0.555098	0.632945	0.249418	0.124247	0.191387	0.374586	0.181528	0.059140	0.260561	0.315196	0.212182	0.157452	0.376320	0.269024	0.233580	0.120782	0.175722	0.257863	0.131837	0.081689	0.728311	0.351905	0.227308	0.105797	0.268351	0.228956
25	0.449700	0.128422	0.169759	0.310850	0.353541	0.078247	0.719887	0.635752	0.230382	0.134616	0.481453	0.370348	0.391073	0.153865	0.316602	0.250021	0.361857	0.093258	0.427658	0.155944	0.355925	0.133005	0.441804	0.226709	0.171217	0.103898	0.794399	0.424362	0.471175	0.215172	0.284415	0.197886	0.128230	0.025239	0.448335	0.483902	0.521525	0.067790	0.337484	0.145054	0.460108	0.072019	0.589224	0.267357	0.317337	0.086641	0.541505	0.463224	0.229667	0.123986	0.162746	0.361180	0.147090	0.056323	0.337015	0.287311	0.207143	0.157843	0.378175	0.267061	0.213448	0.121014	0.178420	0.274549	0.136384	0.103429	0.717335	0.334174	0.236854	0.112103	0.259494	0.242419
26	0.574294	0.137789	0.270834	0.363643	0.408200	0.060283	0.716497	0.629479	0.275189	0.140449	0.484425	0.369875	0.431327	0.159444	0.318041	0.250492	0.409248	0.091871	0.387733	0.129491	0.483102	0.144020	0.455869	0.225503	0.136845	0.104372	0.721552	0.406007	0.517014	0.217377	0.293720	0.175074	0.127172	0.027507	0.439418	0.422783	0.470971	0.065407	0.327552	0.084889	0.505902	0.070174	0.561941	0.243758	0.338293	0.099767	0.443348	0.403041	0.224652	0.126151	0.160705	0.360413	0.170081	0.055881	0.347190	0.350070	0.224468	0.157102	0.427275	0.225566	0.225084	0.120729	0.185560	0.245993	0.129207	0.110701	0.712933	0.330605	0.234914	0.104416	0.276336	0.236863
27	0.608974	0.141323	0.450220	0.378152	0.555722	0.042209	0.695613	0.630131	0.278549	0.150574	0.489314	0.369404	0.464906	0.160200	0.306347	0.312708	0.399477	0.091571	0.303985	0.149224	0.557137	0.144027	0.469500	0.204851	0.114530	0.104613	0.646828	0.315397	0.524307	0.217787	0.296009	0.237031	0.121815	0.026913	0.438831	0.349538	0.305749	0.055316	0.230330	0.086903	0.507160	0.060017	0.488167	0.221437	0.322666	0.101206	0.431767	0.394200	0.221781	0.139433	0.226163	0.321611	0.180258	0.055615	0.379173	0.357192	0.241026	0.155111	0.536508	0.158020	0.318272	0.119679	0.194915	0.200532	0.144276	0.117179	0.652119	0.314532	0.227730	0.087840	0.303384	0.235131
28	0.666925	0.142105	0.480330	0.380067	0.629511	0.037163	0.658585	0.630148	0.274834	0.156171	0.504161	0.372519	0.465994	0.160129	0.299647	0.392353	0.387941	0.087160	0.320151	0.155832	0.560950	0.149322	0.463582	0.192184	0.109700	0.102770	0.684520	0.248279	0.524665	0.222450	0.305803	0.263713	0.111367	0.027158	0.436687	0.301138	0.269286	0.055576	0.189581	0.104485	0.502462	0.068303	0.472568	0.209058	0.299408	0.098353	0.411601	0.380963	0.214286	0.146264	0.259874	0.278647	0.178624	0.044502	0.421510	0.361524	0.247161	0.149000	0.601220	0.100252	0.305212	0.111617	0.198310	0.201397	0.152997	0.116893	0.547233	0.260934	0.227888	0.087144	0.315411	0.241092
29	0.734708	0.141058	0.465107	0.383426	0.647605	0.041152	0.616557	0.594860	0.273857	0.150991	0.515454	0.351837	0.446992	0.151227	0.301632	0.394357	0.378404	0.102991	0.351002	0.174142	0.591555	0.163016	0.453194	0.202701	0.105157	0.101106	0.711498	0.221808	0.548012	0.228861	0.260529	0.277468	0.107685	0.028525	0.364532	0.287341	0.250915	0.056917	0.180152	0.108370	0.496915	0.070904	0.456080	0.228224	0.313644	0.101275	0.361892	0.255440	0.188306	0.132171	0.265494	0.267775	0.179855	0.039533	0.429862	0.362169	0.267085	0.144975	0.611338	0.104444	0.326373	0.110936	0.228472	0.207284	0.154137	0.115088	0.485568	0.143363	0.237852	0.090249	0.316032	0.243305
30	0.766104	0.114100	0.485120	0.384242	0.649343	0.046446	0.565751	0.485224	0.274949	0.137445	0.504908	0.353947	0.443712	0.138940	0.284463	0.378525	0.333228	0.121191	0.349607	0.220648	0.622670	0.172831	0.361312	0.226110	0.106366	0.103057	0.687439	0.221146	0.778969	0.230391	0.250153	0.279494	0.117586	0.030164	0.300881	0.292552	0.225752	0.057829	0.126332	0.111275	0.499618	0.095293	0.435344	0.240658	0.340176	0.104552	0.288527	0.191743	0.166172	0.120719	0.282722	0.282645	0.192180	0.037812	0.421633	0.356114	0.295937	0.147357	0.610441	0.112397	0.340906	0.098628	0.257320	0.266402	0.158342	0.115420	0.484350	0.096825	0.263738	0.091846	0.326189	0.250090
31	0.756652	0.106662	0.554157	0.375361	0.676810	0.067561	0.533026	0.426920	0.276994	0.128668	0.441222	0.341826	0.426300	0.134650	0.275723	0.354235	0.312869	0.124405	0.355762	0.296054	0.641126	0.178159	0.354429	0.282016	0.106675	0.103617	0.596944	0.214573	0.851318	0.216641	0.234945	0.332423	0.131613	0.030316	0.161800	0.288977	0.210480	0.050882	0.131635	0.152934	0.493248	0.107271	0.409985	0.322348	0.497483	0.105450	0.298022	0.200771	0.156139	0.115383	0.314923	0.287690	0.211109	0.035075	0.387152	0.309138	0.354908	0.148009	0.597360	0.105245	0.336076	0.056903	0.367334	0.279036	0.160791	0.123339	0.448833	0.097283	0.280650	0.092135	0.354076	0.264072
32	0.753026	0.112896	0.588147	0.378754	0.747966	0.089483	0.528308	0.415401	0.290299	0.128355	0.408043	0.328349	0.394382	0.138734	0.273786	0.344831	0.233476	0.127024	0.327481	0.315292	0.644038	0.181454	0.393456	0.293940	0.103024	0.103524	0.532157	0.168245	0.898430	0.196095	0.292364	0.378964	0.154976	0.032079	0.111500	0.248207	0.225871	0.054116	0.164992	0.228199	0.359646	0.107999	0.379650	0.373205	0.516855	0.099538	0.221273	0.247895	0.155924	0.114576	0.328657	0.301488	0.208717	0.035463	0.313117	0.307046	0.349424	0.131896	0.582957	0.108948	0.331219	0.033259	0.411173	0.274897	0.166888	0.144693	0.337070	0.095328	0.294310	0.095465	0.382369	0.258783
33	0.744039	0.113949	0.626240	0.377546	0.881257	0.095432	0.501668	0.420539	0.312777	0.127612	0.407334	0.320363	0.415783	0.142359	0.259497	0.345453	0.167479	0.126871	0.293755	0.312337	0.641170	0.181766	0.378158	0.294199	0.092259	0.092245	0.524587	0.122680	0.926951	0.159136	0.487409	0.407107	0.197083	0.031227	0.106694	0.164720	0.230180	0.054592	0.267863	0.233810	0.347053	0.104897	0.382953	0.380279	0.516390	0.078255	0.261266	0.236745	0.165673	0.118238	0.326306	0.313594	0.207592	0.033525	0.305472	0.289167	0.372963	0.118588	0.590041	0.128993	0.349228	0.037706	0.404816	0.315679	0.166284	0.156667	0.257103	0.098309	0.303371	0.101566	0.379520	0.248163
34	0.677979	0.107834	0.611484	0.370189	0.947553	0.097723	0.492213	0.414431	0.335406	0.130687	0.406949	0.272442	0.465992	0.136514	0.246735	0.357735	0.216601	0.129809	0.287901	0.301078	0.632984	0.178436	0.374247	0.308015	0.098269	0.075331	0.506562	0.155195	0.902565	0.125497	0.553901	0.542526	0.325532	0.035895	0.099006	0.151901	0.208311	0.048946	0.328415	0.247937	0.270204	0.108101	0.397196	0.501745	0.561933	0.057648	0.332084	0.240401	0.175510	0.121364	0.336115	0.313280	0.248509	0.033179	0.271678	0.310628	0.410248	0.100328	0.594324	0.141714	0.367795	0.042654	0.427770	0.395060	0.167194	0.159868	0.244609	0.096856	0.303758	0.111805	0.369676	0.244359
35	0.536406	0.095998	0.497723	0.355105	0.953186	0.099202	0.474313	0.376280	0.369411	0.132422	0.337637	0.205159	0.517947	0.113528	0.227473	0.377993	0.300475	0.132429	0.216027	0.304656	0.601775	0.160804	0.364961	0.325227	0.131945	0.071600	0.478788	0.155282	0.893625	0.119387	0.576227	0.529463	0.338804	0.040774	0.088047	0.141744	0.206716	0.047318	0.344727	0.272318	0.247995	0.109879	0.398244	0.620239	0.619249	0.058648	0.348104	0.252545	0.167521	0.122037	0.348036	0.312084	0.368509	0.035100	0.209919	0.325856	0.418707	0.084176	0.586891	0.146136	0.365411	0.048770	0.481780	0.403267	0.157764	0.158547	0.257956	0.119911	0.308435	0.122808	0.359569	0.261095
36	0.491604	0.097603	0.478402	0.425391	0.944367	0.099665	0.399040	0.293758	0.459890	0.123311	0.282547	0.210047	0.508291	0.099442	0.173320	0.390305	0.432649	0.109039	0.307723	0.401922	0.502770	0.149396	0.340679	0.346407	0.152045	0.060172	0.498028	0.155024	0.892823	0.117856	0.589207	0.534789	0.377813	0.049337	0.087018	0.145161	0.211529	0.047380	0.347098	0.325232	0.246521	0.107019	0.400452	0.674632	0.645437	0.061889	0.355922	0.249223	0.187875	0.121419	0.347435	0.303950	0.395297	0.037898	0.170073	0.408318	0.411745	0.088351	0.581077	0.153518	0.322119	0.088065	0.567548	0.451100	0.151376	0.153855	0.258962	0.185396	0.319307	0.132686	0.345910	0.269003
37	0.370785	0.097068	0.525791	0.550202	0.920008	0.099403	0.310301	0.213897	0.707087	0.115280	0.321195	0.225283	0.517865	0.106323	0.167570	0.396453	0.428745	0.080354	0.557780	0.507318	0.398914	0.148418	0.322530	0.352094	0.164564	0.050756	0.499809	0.161682	0.891188	0.103895	0.647673	0.567187	0.406888	0.053636	0.086082	0.149694	0.234385	0.047136	0.353252	0.359660	0.243957	0.106508	0.423561	0.686928	0.641750	0.069446	0.396669	0.283329	0.190034	0.120413	0.346691	0.254512	0.436562	0.038415	0.217553	0.430601	0.399660	0.085691	0.521896	0.157347	0.364003	0.126135	0.570471	0.500923	0.147276	0.141234	0.258659	0.214139	0.319831	0.137378	0.334247	0.263392
38	0.250593	0.097676	0.543599	0.556626	0.926134	0.099314	0.261974	0.243574	0.727265	0.108114	0.421595	0.274194	0.559957	0.134511	0.163724	0.341726	0.482584	0.070469	0.554577	0.518446	0.372932	0.140346	0.316315	0.397040	0.164339	0.049074	0.500099	0.169712	0.862497	0.111322	0.717505	0.575213	0.410930	0.077002	0.069544	0.150876	0.285448	0.056771	0.414365	0.360970	0.241405	0.094947	0.487325	0.687778	0.630182	0.084335	0.483220	0.283491	0.199621	0.101770	0.307615	0.203177	0.447441	0.035883	0.212277	0.409285	0.401567	0.099558	0.423266	0.178934	0.433780	0.154043	0.566607	0.521463	0.159878	0.127497	0.256773	0.217224	0.311076	0.135519	0.328514	0.244667
39	0.214933	0.094432	0.544836	0.550735	0.915791	0.099253	0.245178	0.268724	0.767246	0.095493	0.492773	0.291376	0.577052	0.160425	0.168505	0.250538	0.601641	0.077123	0.568268	0.591432	0.304519	0.125022	0.304749	0.430108	0.183853	0.054294	0.455014	0.168287	0.611021	0.178301	0.767645	0.584570	0.413240	0.092936	0.053985	0.152569	0.272753	0.059360	0.481696	0.348536	0.225775	0.071071	0.481032	0.666813	0.551781	0.095387	0.508837	0.274884	0.214638	0.070331	0.287148	0.199016	0.445552	0.052778	0.212923	0.404174	0.418045	0.108904	0.346028	0.183800	0.564907	0.173728	0.542376	0.490995	0.165929	0.120087	0.254275	0.217427	0.303579	0.129977	0.334584	0.225137
40	0.203628	0.070206	0.513934	0.548568	0.841045	0.100371	0.249569	0.271491	0.836912	0.082767	0.501206	0.275721	0.585631	0.183487	0.176742	0.247741	0.637119	0.076022	0.636151	0.645756	0.234405	0.095364	0.306560	0.453454	0.246764	0.077184	0.366756	0.174304	0.604711	0.199631	0.770849	0.531937	0.411538	0.103844	0.059209	0.151127	0.260440	0.053882	0.476416	0.307541	0.239785	0.069450	0.477710	0.677108	0.528683	0.106583	0.515425	0.225678	0.228404	0.059109	0.292525	0.207973	0.437664	0.058002	0.227991	0.378143	0.409314	0.112970	0.312844	0.176979	0.573234	0.177809	0.501569	0.501766	0.149120	0.116329	0.252190	0.226901	0.302473	0.124712	0.356921	0.233247
41	0.183759	0.048290	0.478953	0.594794	0.785661	0.104183	0.253874	0.270592	0.880540	0.078802	0.483077	0.260064	0.586207	0.201513	0.187764	0.249988	0.620211	0.107887	0.645004	0.651008	0.175911	0.065762	0.276581	0.422912	0.292334	0.086633	0.329461	0.201909	0.533228	0.200322	0.722995	0.527629	0.408556	0.106921	0.057902	0.158539	0.262715	0.064542	0.476655	0.317073	0.439230	0.074716	0.480431	0.784172	0.596685	0.119525	0.485302	0.217292	0.229032	0.061500	0.269725	0.281035	0.412690	0.064866	0.229835	0.323738	0.386746	0.111130	0.310175	0.171950	0.604157	0.177916	0.437050	0.517831	0.144854	0.116545	0.220114	0.242026	0.301387	0.124014	0.363776	0.309346
42	0.176261	0.047666	0.628446	0.725147	0.775821	0.112125	0.240602	0.269475	0.900551	0.073506	0.476734	0.266362	0.583140	0.217202	0.199735	0.281151	0.547142	0.180064	0.644675	0.625330	0.159040	0.055318	0.206916	0.434678	0.302041	0.084308	0.327530	0.209718	0.498874	0.201982	0.612777	0.462259	0.403639	0.107058	0.066592	0.175030	0.265400	0.113687	0.511733	0.323189	0.506104	0.066288	0.574019	0.794842	0.551836	0.122635	0.425021	0.206341	0.228913	0.062328	0.232379	0.409048	0.291461	0.083765	0.226381	0.311325	0.326367	0.104966	0.324582	0.175032	0.618861	0.183226	0.439458	0.506614	0.192753	0.120791	0.188628	0.251547	0.304789	0.123538	0.353689	0.373350
43	0.180647	0.066272	0.697980	0.741087	0.791341	0.123501	0.227094	0.267965	0.909187	0.064977	0.550690	0.278378	0.577735	0.229329	0.267847	0.336772	0.517957	0.198869	0.469283	0.530791	0.166444	0.055268	0.179663	0.481866	0.303664	0.084104	0.328147	0.264358	0.480401	0.205922	0.595322	0.348114	0.394201	0.107833	0.068925	0.180840	0.260680	0.137617	0.541441	0.300323	0.538151	0.062169	0.674037	0.711257	0.480556	0.126501	0.413288	0.175768	0.238148	0.061849	0.234582	0.444750	0.263937	0.090904	0.215360	0.196791	0.315227	0.104433	0.374106	0.213006	0.604712	0.217140	0.417624	0.420515	0.393465	0.124766	0.186972	0.256476	0.315306	0.123692	0.349952	0.407636
44	0.154230	0.073882	0.686728	0.726902	0.787030	0.130630	0.221433	0.267555	0.908103	0.066315	0.611610	0.280454	0.577148	0.237770	0.392349	0.362815	0.522629	0.197768	0.346857	0.407740	0.193117	0.060300	0.181659	0.472117	0.303673	0.082248	0.335403	0.297690	0.505019	0.210446	0.580753	0.335174	0.396018	0.124215	0.074800	0.222049	0.255869	0.139083	0.543298	0.251339	0.614235	0.064140	0.750518	0.651093	0.448473	0.137234	0.400926	0.155238	0.252310	0.062432	0.251697	0.445526	0.179454	0.104426	0.147996	0.071188	0.272014	0.104332	0.384506	0.213323	0.605016	0.253082	0.375311	0.398452	0.649756	0.113973	0.209368	0.266061	0.355384	0.125472	0.350419	0.410978
45	0.124447	0.084739	0.646884	0.678894	0.733192	0.142170	0.224525	0.265981	0.901085	0.080283	0.649245	0.277657	0.582607	0.247063	0.439142	0.353197	0.417373	0.203221	0.341701	0.375121	0.246108	0.067074	0.181069	0.443185	0.303635	0.081764	0.350630	0.327200	0.528954	0.220723	0.537799	0.282169	0.357880	0.152433	0.097042	0.234714	0.243268	0.139987	0.539427	0.169951	0.683105	0.063680	0.759722	0.629103	0.449817	0.141599	0.389913	0.069040	0.265290	0.068034	0.242603	0.473657	0.124852	0.120149	0.152965	0.065022	0.236021	0.100613	0.371431	0.209851	0.594880	0.252284	0.189857	0.371274	0.652210	0.098617	0.360105	0.271730	0.715663	0.130087	0.367296	0.406347
46	0.124561	0.085800	0.683280	0.674607	0.577390	0.177548	0.239640	0.256934	0.896319	0.103975	0.665841	0.355130	0.665993	0.253659	0.439954	0.363403	0.369749	0.209401	0.238788	0.169853	0.340621	0.073581	0.216336	0.427982	0.297600	0.082767	0.405182	0.343611	0.524816	0.236154	0.451528	0.186894	0.414031	0.185709	0.148179	0.248027	0.177777	0.148093	0.504920	0.168449	0.693224	0.072695	0.737088	0.670871	0.560090	0.197426	0.263485	0.043176	0.265780	0.074944	0.225287	0.560926	0.101937	0.117798	0.225677	0.105348	0.235383	0.090914	0.361237	0.208886	0.565091	0.235927	0.110577	0.282946	0.666576	0.089093	0.469808	0.285430	0.793001	0.131426	0.346234	0.404606
47	0.130865	0.091509	0.648460	0.710175	0.443165	0.202386	0.290311	0.244147	0.887435	0.155241	0.682555	0.455550	0.843450	0.256008	0.445904	0.369722	0.775146	0.207667	0.067514	0.084925	0.607236	0.077480	0.235496	0.426546	0.292813	0.083393	0.527138	0.347161	0.498159	0.221840	0.309362	0.161539	0.380882	0.189099	0.342707	0.244767	0.212413	0.162733	0.423005	0.169422	0.686042	0.092536	0.767018	0.682573	0.741262	0.278194	0.155089	0.059216	0.246600	0.075844	0.230582	0.649563	0.106968	0.170025	0.225735	0.304385	0.240141	0.089218	0.351817	0.201527	0.527112	0.219200	0.093350	0.223046	0.692074	0.094063	0.489654	0.344783	0.790773	0.130294	0.339125	0.405255
48	0.145568	0.100992	0.645196	0.726753	0.423343	0.211756	0.330996	0.248509	0.827419	0.455028	0.740756	0.530208	0.824248	0.251569	0.475057	0.379843	0.801656	0.169491	0.054083	0.086704	0.852005	0.077463	0.234991	0.405027	0.504192	0.083056	0.708194	0.389499	0.455654	0.233787	0.224053	0.161153	0.359810	0.188537	0.468036	0.271856	0.203264	0.169163	0.426576	0.188296	0.680903	0.094661	0.788804	0.659889	0.723837	0.287491	0.098000	0.067154	0.252589	0.073638	0.283170	0.714775	0.140129	0.212054	0.301898	0.329743	0.252184	0.093485	0.342973	0.200312	0.376151	0.207564	0.092220	0.227473	0.773252	0.113399	0.494458	0.396417	0.831925	0.122940	0.350320	0.404147
49	0.154544	0.110995	0.632242	0.717757	0.416837	0.214345	0.335711	0.287598	0.616110	0.981222	0.747960	0.572715	0.792994	0.238681	0.512402	0.390020	0.817981	0.117207	0.074687	0.094294	0.850376	0.070420	0.247201	0.385494	0.701646	0.092441	0.757489	0.434590	0.441008	0.267700	0.258098	0.187371	0.358620	0.180112	0.507079	0.280612	0.181320	0.175952	0.397221	0.234420	0.648039	0.095417	0.788971	0.550572	0.653876	0.287112	0.188885	0.114042	0.259820	0.073063	0.338242	0.726478	0.183507	0.222159	0.309111	0.382082	0.234082	0.084659	0.311458	0.184849	0.356513	0.201225	0.088968	0.262065	0.928941	0.148829	0.496744	0.390040	0.919531	0.111182	0.375868	0.395114
50	0.123227	0.113304	0.539597	0.565946	0.395293	0.214435	0.358592	0.301546	0.611901	0.999443	0.701763	0.558577	0.816792	0.221117	0.537195	0.543775	0.872897	0.184379	0.119970	0.116989	0.868297	0.063976	0.278421	0.348481	0.707801	0.105836	0.764820	0.443208	0.382495	0.277304	0.335543	0.192347	0.362197	0.173338	0.509092	0.346810	0.176361	0.154746	0.316576	0.330929	0.503403	0.098759	0.746293	0.422526	0.649141	0.284907	0.200413	0.157187	0.258620	0.073749	0.353194	0.729573	0.186611	0.220363	0.320101	0.466353	0.231157	0.088005	0.308690	0.188427	0.323084	0.201317	0.084881	0.232025	0.966728	0.156407	0.497340	0.387102	0.993923	0.099551	0.378392	0.408571
51	0.123979	0.105707	0.364470	0.470395	0.389648	0.215050	0.397998	0.268170	0.543377	1.040394	0.682354	0.634892	0.886106	0.202484	0.532769	0.730772	0.918105	0.252801	0.218449	0.142443	0.903867	0.060894	0.279319	0.347370	0.705595	0.120084	0.806980	0.449681	0.400207	0.280019	0.395085	0.179369	0.376723	0.168096	0.534895	0.463154	0.195508	0.133630	0.248372	0.330346	0.490975	0.109955	0.653275	0.389217	0.652940	0.282486	0.222444	0.176366	0.259245	0.073870	0.350124	0.724826	0.186465	0.217166	0.327488	0.496544	0.222551	0.086467	0.343722	0.188625	0.314086	0.201132	0.192203	0.245818	0.966708	0.156906	0.498316	0.405493	1.026486	0.095528	0.434366	0.419149
52	0.156810	0.099588	0.346456	0.464212	0.409226	0.218204	0.464373	0.241354	0.438040	1.057363	0.679275	0.760304	0.933914	0.185463	0.527460	0.760966	0.904564	0.254505	0.295870	0.172786	0.946842	0.060615	0.271867	0.313110	0.686182	0.126741	0.893761	0.446961	0.390232	0.274570	0.402079	0.186088	0.411261	0.172462	0.599216	0.481814	0.239207	0.141358	0.277264	0.329810	0.424650	0.111879	0.553021	0.372614	0.653207	0.278147	0.238752	0.223994	0.273674	0.072027	0.351675	0.692190	0.176087	0.208713	0.343776	0.518032	0.217882	0.083761	0.389752	0.260239	0.329315	0.173126	0.246275	0.246289	0.965925	0.158157	0.516096	0.486883	1.035242	0.094329	0.491571	0.421407
53	0.473725	0.118895	0.346205	0.409996	0.427424	0.224441	0.594552	0.263016	0.391818	1.061327	0.706700	0.846929	0.966617	0.163590	0.522172	0.763384	0.840430	0.252885	0.297207	0.185499	0.992734	0.066203	0.263824	0.234438	0.689506	0.127931	0.985175	0.443900	0.349999	0.272859	0.545718	0.194472	0.485059	0.182009	0.630021	0.478310	0.262328	0.141772	0.282421	0.425143	0.289695	0.112891	0.484224	0.348386	0.642356	0.272352	0.243143	0.244060	0.294263	0.072193	0.344421	0.632231	0.177926	0.208206	0.324445	0.520920	0.219356	0.085289	0.408316	0.276881	0.361350	0.105864	0.264576	0.277921	0.967140	0.160230	0.602497	0.530962	1.037413	0.094991	0.513226	0.476617
54	1.142496	0.225857	0.268010	0.319713	0.424160	0.230746	0.665112	0.292864	0.401902	1.062494	0.719996	0.875139	0.976449	0.754300	0.500608	0.816282	0.515887	0.254673	0.310926	0.178797	1.008601	0.122136	0.264280	0.227053	0.714822	0.129144	1.059479	0.452897	0.355812	0.268337	0.590182	0.229867	0.780532	0.185157	0.649548	0.491034	0.258548	0.134189	0.301335	0.462978	0.380765	0.110842	0.460559	0.220015	0.629312	0.253659	0.248981	0.258244	0.343589	0.069778	0.324529	0.616140	0.176897	0.175241	0.307760	0.513745	0.222180	0.097555	0.419083	0.256926	0.376302	0.070370	0.324024	0.279966	0.968194	0.164343	0.746580	0.550659	1.038803	0.096477	0.509445	0.504500
55	1.177833	0.314338	0.175048	0.233257	0.413166	0.231791	0.666709	0.292320	0.458344	1.062976	0.668883	0.883481	0.966268	0.872294	0.398620	0.894289	0.479706	0.260495	0.312751	0.177380	1.012904	0.130848	0.261056	0.227171	0.730723	0.132765	1.073122	0.423217	0.373744	0.272395	0.589195	0.242388	0.830876	0.172810	0.667086	0.549933	0.259762	0.122825	0.299565	0.464151	0.496853	0.099099	0.287646	0.099544	0.308961	0.126477	0.257733	0.287793	0.390178	0.062379	0.330948	0.648451	0.190384	0.128856	0.241304	0.559746	0.235171	0.124810	0.415309	0.260198	0.378908	0.067617	0.399537	0.283650	0.956409	0.167462	0.827521	0.570426	1.038915	0.096735	0.494568	0.480299
56	1.216060	0.329472	0.119062	0.147881	0.389581	0.227919	0.668942	0.297448	0.648027	1.062880	0.629205	0.884753	0.944241	1.573102	0.352206	0.924597	0.406292	0.250270	0.296125	0.174087	0.993054	0.129343	0.233424	0.227697	0.731807	0.135680	1.081310	0.415049	0.352041	0.260013	0.591783	0.248342	0.819752	0.143563	0.670367	0.607222	0.268321	0.114918	0.332363	0.460252	0.529635	0.092105	0.153278	0.130483	0.348255	0.091635	0.264889	0.295770	0.378439	0.048397	0.397705	0.644691	0.196353	0.109608	0.234690	0.541222	0.279886	0.149041	0.414271	0.265264	0.361702	0.070876	0.433630	0.290915	0.784692	0.169305	0.864979	0.615467	1.041792	0.101613	0.488913	0.436186
57	1.471523	0.345042	0.117945	0.142858	0.365104	0.219855	0.672098	0.315759	1.171101	1.061582	0.594002	0.883809	0.862761	3.769224	0.363255	0.918659	0.221915	0.181607	0.291683	0.163692	0.868631	0.133834	0.207644	0.222229	0.732791	0.140792	1.089753	0.389582	0.351349	0.203168	0.601308	0.232160	0.823646	0.104469	0.651566	0.604205	0.267538	0.101847	0.380252	0.436612	0.564107	0.086881	0.108794	0.227706	0.352833	0.073985	0.226699	0.307713	0.406976	0.034867	0.470614	0.574133	0.197356	0.104636	0.217116	0.454559	0.307985	0.154172	0.416997	0.301046	0.331933	0.059900	0.435263	0.287966	0.754024	0.165135	0.852491	0.654177	1.049218	0.111193	0.519504	0.410357
58	1.529557	0.350040	0.115740	0.132068	0.349618	0.208996	0.705508	0.342208	1.176504	1.058099	0.586287	0.851013	0.714872	4.719511	0.356728	0.910510	0.133351	0.153922	0.168968	0.122763	0.611867	0.133680	0.214260	0.200764	0.734301	0.150900	1.073334	0.374699	0.331156	0.179940	0.572616	0.224249	0.876431	0.101206	0.584665	0.603797	0.266738	0.096411	0.365392	0.352931	0.576454	0.092227	0.150995	0.286310	0.346492	0.087381	0.197459	0.321042	0.455769	0.032749	0.498755	0.476217	0.192915	0.105815	0.204815	0.428793	0.305433	0.161229	0.424939	0.331942	0.318169	0.052104	0.438501	0.235425	0.750562	0.164087	0.786849	0.661137	1.047385	0.115313	0.547063	0.404165
59	1.559957	0.360166	0.113281	0.099396	0.342009	0.184994	0.710909	0.400524	1.182081	1.050580	0.557381	0.827965	0.742465	5.050174	0.315690	0.901280	0.116815	0.204543	0.153454	0.088833	0.609794	0.133877	0.241049	0.161290	0.731197	0.158744	0.994661	0.374044	0.290937	0.171090	0.515036	0.221395	0.945379	0.103211	0.507782	0.620447	0.254247	0.093737	0.361469	0.352546	0.575111	0.113163	0.269557	0.334942	0.339950	0.103180	0.197806	0.330823	0.492172	0.035190	0.483110	0.381058	0.187538	0.107202	0.168184	0.407885	0.293484	0.181660	0.433006	0.337994	0.302721	0.050837	0.437402	0.206116	0.725499	0.160650	0.752858	0.644024	0.910750	0.113078	0.532106	0.401435
60	1.560803	0.364751	0.110653	0.087995	0.340779	0.160567	0.690206	0.447849	1.197585	0.814229	0.475325	0.800661	0.739205	5.360996	0.249793	0.899872	0.087977	0.213393	0.147986	0.065096	0.584700	0.133787	0.353623	0.169483	0.505366	0.164371	0.877028	0.318356	0.248278	0.167690	0.475186	0.212590	0.984313	0.104184	0.488878	0.654128	0.205547	0.089189	0.345421	0.351073	0.575478	0.139561	0.300766	0.342954	0.354498	0.108407	0.189780	0.310373	0.505200	0.035872	0.446464	0.362296	0.188765	0.105422	0.147622	0.400366	0.295373	0.209187	0.441349	0.335418	0.264540	0.046761	0.414896	0.179535	0.691858	0.155581	0.769401	0.620483	0.758186	0.111435	0.515907	0.400527
61	1.547216	0.362210	0.107135	0.090941	0.341758	0.152441	0.703344	0.445304	1.229895	0.423145	0.442723	0.776186	0.686050	5.559166	0.191886	0.811082	0.094058	0.207211	0.111197	0.062680	0.530483	0.133777	0.388511	0.166047	0.364230	0.161409	0.860868	0.263187	0.246920	0.172481	0.421854	0.183143	0.987347	0.105267	0.488707	0.618814	0.167882	0.106527	0.350425	0.255341	0.579793	0.152868	0.350175	0.344476	0.476547	0.119209	0.186915	0.282228	0.502090	0.034475	0.445937	0.368568	0.190923	0.105187	0.127037	0.338948	0.288325	0.212581	0.442667	0.334993	0.252771	0.042672	0.371810	0.177763	0.480756	0.130310	0.795095	0.638976	0.761603	0.112010	0.517002	0.399371
62	1.133058	0.322043	0.084720	0.095003	0.346361	0.155001	0.785454	0.441581	1.270533	0.343389	0.415998	0.768951	0.590352	5.686174	0.191941	0.650371	0.135222	0.208634	0.112348	0.057324	0.457450	0.136096	0.389556	0.168015	0.347171	0.152334	0.853700	0.254687	0.246480	0.170927	0.212034	0.175820	0.985281	0.111420	0.439045	0.547167	0.173186	0.110069	0.335440	0.146729	0.549084	0.154049	0.353283	0.351863	0.477801	0.119967	0.173065	0.275704	0.495707	0.035059	0.461208	0.396079	0.174464	0.092272	0.109588	0.221163	0.288323	0.211679	0.404055	0.323549	0.209023	0.042714	0.377843	0.117210	0.252219	0.104386	0.851404	0.655157	0.739962	0.118630	0.515439	0.399431
63	1.044770	0.236147	0.065892	0.096464	0.352403	0.158519	0.868261	0.463071	1.320911	0.218605	0.378242	0.686518	0.528875	5.766981	0.197780	0.618686	0.141190	0.233558	0.112820	0.091278	0.353111	0.134726	0.408755	0.160705	0.342312	0.142878	0.798894	0.254624	0.203871	0.143633	0.166683	0.120302	0.984211	0.113521	0.361743	0.538461	0.139477	0.126604	0.335184	0.145277	0.339917	0.149227	0.354265	0.366112	0.438339	0.119609	0.156002	0.252578	0.486564	0.033354	0.461335	0.400329	0.132470	0.074805	0.081592	0.254997	0.290945	0.215988	0.431687	0.264136	0.191030	0.043163	0.336596	0.102688	0.231581	0.104414	0.956156	0.651888	0.656651	0.127808	0.486574	0.401226
64	1.032134	0.201345	0.177912	0.166763	0.382923	0.157757	0.901324	0.508589	1.355075	0.143721	0.370791	0.547599	0.476920	5.807541	0.208508	0.598075	0.170805	0.234820	0.172570	0.315935	0.303970	0.102092	0.435056	0.166946	0.340676	0.154751	0.699259	0.253685	0.182755	0.109022	0.157808	0.102311	0.933866	0.101982	0.320530	0.542110	0.126619	0.124890	0.292769	0.140797	0.318913	0.148278	0.354217	0.362744	0.393986	0.113305	0.139762	0.326220	0.471286	0.032109	0.464866	0.388809	0.134614	0.085021	0.103010	0.269068	0.290460	0.215254	0.428184	0.248822	0.258736	0.062639	0.263164	0.077359	0.233162	0.103511	1.029311	0.621649	0.582977	0.131359	0.475922	0.396620
65	0.651022	0.184055	0.248792	0.174850	0.550084	0.155205	0.888636	0.555971	1.351769	0.120037	0.302045	0.422551	0.452984	5.774810	0.186941	0.489084	0.214640	0.195113	0.244373	0.428157	0.265916	0.161933	0.477865	0.194510	0.318110	0.181767	0.573452	0.234593	0.183328	0.101145	0.090482	0.094079	0.668847	0.101639	0.290148	0.519881	0.189536	0.132307	0.214274	0.117060	0.243127	0.148546	0.369860	0.340655	0.398007	0.106292	0.153776	0.422256	0.426141	0.033174	0.464746	0.365579	0.143943	0.087780	0.121708	0.283547	0.287146	0.209875	0.379653	0.243124	0.313680	0.094659	0.171231	0.043064	0.239516	0.101391	1.008723	0.572704	0.612521	0.132974	0.449131	0.377331
66	0.407368	0.183636	0.290559	0.189217	0.563851	0.147563	0.813826	0.570184	1.337079	0.115242	0.226622	0.364125	0.450155	5.767700	0.185151	0.317604	0.230382	0.156194	0.269149	0.470880	0.322048	0.168080	0.503581	0.189359	0.262290	0.192020	0.459731	0.209301	0.203693	0.097184	0.063767	0.071441	0.655540	0.099928	0.259051	0.416826	0.211553	0.134661	0.203835	0.118895	0.192797	0.148067	0.431756	0.258773	0.405248	0.095835	0.149922	0.412296	0.373225	0.041062	0.453641	0.294989	0.148031	0.085484	0.141430	0.327672	0.265130	0.200686	0.382255	0.240157	0.313768	0.100339	0.169949	0.035065	0.232231	0.097069	0.928457	0.544455	0.590811	0.133788	0.372915	0.374925
67	0.231519	0.160782	0.294951	0.207110	0.563497	0.134892	0.748819	0.561157	1.306723	0.132214	0.192105	0.342674	0.428331	5.598750	0.178474	0.227782	0.230826	0.154993	0.283179	0.590016	0.397426	0.162499	0.516591	0.206863	0.262003	0.191067	0.457535	0.202571	0.238037	0.131754	0.058273	0.059079	0.630433	0.113965	0.248684	0.374283	0.212683	0.133985	0.163565	0.140090	0.166805	0.132416	0.399398	0.229274	0.406874	0.077556	0.137442	0.415073	0.370981	0.091745	0.401646	0.258554	0.144785	0.085567	0.142777	0.346373	0.210934	0.189222	0.389783	0.229633	0.317714	0.113622	0.168036	0.027396	0.242898	0.088026	0.842985	0.534589	0.590683	0.135600	0.332071	0.322386
68	0.189810	0.153215	0.429535	0.370002	0.584168	0.127981	0.747326	0.565291	1.152407	0.171196	0.170651	0.340432	0.399846	4.418952	0.159934	0.287264	0.207548	0.150176	0.367744	0.723056	0.408800	0.175579	0.544789	0.210773	0.295256	0.189004	0.425049	0.175302	0.237154	0.135275	0.054793	0.058450	0.611377	0.147072	0.220118	0.375189	0.227633	0.130839	0.122826	0.141593	0.215767	0.101878	0.355836	0.177971	0.405744	0.070141	0.154075	0.498674	0.329559	0.124123	0.322671	0.252205	0.144177	0.090495	0.137239	0.335520	0.285336	0.188152	0.395525	0.173070	0.333944	0.128647	0.167994	0.021029	0.372368	0.069930	0.782100	0.501649	0.612710	0.134299	0.308632	0.268757
69	0.292015	0.174412	0.453411	0.412437	0.613421	0.136678	0.746153	0.564957	0.748175	0.224081	0.166165	0.338960	0.355448	3.443515	0.310838	0.356923	0.224195	0.112603	0.388883	0.745181	0.448820	0.196498	0.536019	0.222904	0.342572	0.184324	0.388223	0.173509	0.221533	0.130647	0.043991	0.084441	0.541313	0.152492	0.172343	0.360749	0.245336	0.111653	0.076317	0.157940	0.217607	0.076460	0.326380	0.178492	0.225859	0.043253	0.293876	0.513292	0.265386	0.125428	0.308854	0.262236	0.135389	0.092282	0.131842	0.305648	0.508550	0.179195	0.403463	0.132393	0.389894	0.139170	0.168907	0.015867	0.373120	0.063532	0.765768	0.441480	0.651371	0.137669	0.289323	0.273656
70	0.436368	0.189498	0.513222	0.412165	0.641757	0.143187	0.746187	0.559850	0.749447	0.257572	0.146338	0.313233	0.264316	2.917153	0.450587	0.359875	0.329623	0.114292	0.403356	0.710603	0.486611	0.197245	0.502798	0.206458	0.487215	0.176460	0.377205	0.196436	0.193225	0.122093	0.076605	0.232455	0.427820	0.156095	0.187027	0.293643	0.251474	0.107533	0.074062	0.169661	0.224471	0.113583	0.347081	0.164111	0.198440	0.040404	0.296897	0.556169	0.188087	0.147671	0.317740	0.260463	0.115359	0.084228	0.131684	0.265264	0.592565	0.147816	0.420507	0.324465	0.404366	0.139667	0.175636	0.011874	0.406215	0.071794	0.761332	0.423578	0.699119	0.146401	0.284842	0.268438
71	0.704291	0.183394	0.538281	0.424669	0.666950	0.137891	0.716132	0.556225	0.727671	0.365677	0.119419	0.228748	0.210626	2.307136	0.464421	0.364815	0.350514	0.124377	0.340365	0.657384	0.515512	0.197957	0.500016	0.205526	0.536002	0.171584	0.368969	0.211727	0.178706	0.119671	0.075408	0.302825	0.372342	0.164182	0.184772	0.219748	0.254086	0.090584	0.118170	0.258043	0.312643	0.138750	0.344617	0.131748	0.206655	0.030959	0.310117	0.573133	0.279786	0.155473	0.337742	0.254535	0.089805	0.074232	0.116987	0.246960	0.595818	0.108224	0.410014	0.413754	0.409809	0.139649	0.230150	0.008990	0.432466	0.073959	0.761122	0.484156	0.697801	0.139801	0.248086	0.246776
72	0.720364	0.173031	0.545457	0.415276	0.682244	0.128866	0.707568	0.521382	0.686674	0.365698	0.129977	0.174930	0.257598	1.788190	0.471612	0.380501	0.363941	0.139732	0.321815	0.589977	0.526393	0.199746	0.503859	0.226927	0.561745	0.166141	0.350939	0.270545	0.190424	0.117104	0.110738	0.303529	0.456152	0.170605	0.176050	0.201150	0.250492	0.092477	0.148898	0.327402	0.518754	0.163910	0.344580	0.131515	0.198082	0.030478	0.311999	0.616201	0.330204	0.155550	0.312640	0.238992	0.078748	0.074400	0.110657	0.235704	0.677518	0.102073	0.412097	0.413714	0.418848	0.140906	0.247212	0.007396	0.438947	0.073018	0.747670	0.514504	0.682693	0.132581	0.148309	0.227565
73	0.733275	0.155276	0.540618	0.411541	0.687225	0.122375	0.724245	0.480062	0.616514	0.362601	0.160192	0.155092	0.303418	1.345035	0.471170	0.466871	0.389889	0.154103	0.304858	0.581202	0.526912	0.200275	0.493736	0.337352	0.589336	0.163448	0.316460	0.312938	0.199219	0.115515	0.134355	0.315595	0.457115	0.168155	0.175084	0.204933	0.210360	0.082603	0.177512	0.343746	0.596855	0.169354	0.341992	0.135933	0.163194	0.032923	0.309278	0.551564	0.335604	0.155591	0.298074	0.187281	0.076842	0.074801	0.075291	0.157203	0.696812	0.100460	0.405834	0.414272	0.387431	0.137962	0.246024	0.085207	0.437076	0.065750	0.759849	0.525190	0.673167	0.144056	0.128082	0.224828
74	0.763368	0.153099	0.539336	0.465257	0.691916	0.115880	0.710155	0.475208	0.515720	0.360062	0.164589	0.150105	0.289588	0.967173	0.472891	0.539809	0.392074	0.157935	0.288049	0.373621	0.518760	0.194337	0.488085	0.400668	0.603628	0.162872	0.306831	0.317104	0.195492	0.117911	0.156536	0.408107	0.442706	0.167260	0.171060	0.192994	0.179140	0.076963	0.198462	0.345074	0.597244	0.192323	0.273485	0.120905	0.143882	0.032611	0.324920	0.529422	0.345173	0.156489	0.316478	0.174558	0.076549	0.092056	0.069093	0.088173	0.707467	0.101976	0.340062	0.421799	0.334997	0.120159	0.277715	0.117321	0.437465	0.068713	0.806460	0.538256	0.667226	0.184853	0.132415	0.229967
75	0.797468	0.160104	0.579272	0.464003	0.693368	0.118525	0.632574	0.460415	0.373612	0.363116	0.160312	0.139657	0.284264	0.732906	0.472152	0.544388	0.388963	0.159218	0.294225	0.221853	0.522562	0.140033	0.478840	0.412748	0.609226	0.153159	0.297147	0.368844	0.147699	0.119162	0.192802	0.503716	0.458937	0.166812	0.198037	0.181534	0.178459	0.075508	0.257330	0.419175	0.769538	0.229681	0.215589	0.142142	0.155220	0.037219	0.329484	0.525389	0.356391	0.158069	0.316537	0.184383	0.073681	0.093930	0.097850	0.172847	0.726138	0.120186	0.369077	0.454144	0.334273	0.110716	0.287027	0.138210	0.439682	0.091645	0.735718	0.537707	0.662842	0.204536	0.130294	0.234482
76	0.811740	0.162197	0.558636	0.392013	0.685047	0.151134	0.521653	0.423368	0.264214	0.366199	0.154888	0.104693	0.322529	0.641954	0.481512	0.546721	0.366839	0.154968	0.260061	0.199891	0.531596	0.133393	0.453946	0.410785	0.607496	0.139548	0.272788	0.401591	0.124449	0.099717	0.194850	0.520169	0.500056	0.166926	0.238693	0.177582	0.187582	0.077151	0.357506	0.462046	0.783906	0.233347	0.223616	0.210351	0.156954	0.040734	0.328231	0.448735	0.357597	0.159046	0.317171	0.250284	0.072168	0.101979	0.101398	0.215224	0.731682	0.116960	0.464179	0.461838	0.332817	0.101714	0.333681	0.140956	0.440963	0.118167	0.599774	0.555093	0.656141	0.202411	0.117675	0.235157
77	0.785674	0.142238	0.539649	0.338601	0.655058	0.186382	0.469446	0.364554	0.393025	0.366178	0.147923	0.100816	0.349479	0.612339	0.540558	0.542570	0.247908	0.136539	0.311882	0.222364	0.535155	0.136232	0.439881	0.401753	0.607022	0.132433	0.241947	0.472907	0.123325	0.114164	0.210902	0.523519	0.524688	0.172578	0.255256	0.173951	0.187947	0.082729	0.357934	0.459135	0.777328	0.232991	0.249235	0.365237	0.156992	0.040493	0.213415	0.420868	0.370476	0.159389	0.327567	0.265220	0.076092	0.102540	0.165533	0.225172	0.728015	0.105317	0.485175	0.517474	0.329965	0.082613	0.364494	0.144595	0.454589	0.139200	0.566231	0.657941	0.645005	0.196689	0.114167	0.236929
78	0.721392	0.110376	0.510357	0.462519	0.502747	0.203042	0.450391	0.285872	0.491586	0.363851	0.147358	0.101144	0.358261	0.582817	0.588391	0.540170	0.230703	0.134180	0.346785	0.232234	0.538496	0.124364	0.403060	0.391238	0.604700	0.152057	0.292046	0.489506	0.159819	0.118315	0.214594	0.510171	0.529128	0.163716	0.279723	0.253356	0.175795	0.083813	0.374816	0.459845	0.778972	0.220333	0.210684	0.469526	0.153424	0.039005	0.200487	0.381074	0.374996	0.139901	0.333602	0.351949	0.081827	0.105801	0.181599	0.289677	0.720215	0.103693	0.493278	0.517180	0.250286	0.054172	0.386211	0.181633	0.467751	0.147541	0.577512	0.757886	0.612202	0.197143	0.128532	0.227951
79	0.507135	0.107068	0.551723	0.462283	0.469861	0.203274	0.443222	0.224844	0.497425	0.355054	0.185903	0.119699	0.360412	0.605611	0.612720	0.498965	0.143090	0.119165	0.360776	0.240721	0.504169	0.092337	0.386328	0.381793	0.592226	0.157524	0.303763	0.490663	0.186275	0.123159	0.214092	0.445495	0.507197	0.154682	0.285853	0.302700	0.152483	0.063566	0.428447	0.438710	0.771773	0.205252	0.247463	0.477113	0.137616	0.037592	0.193074	0.349281	0.372801	0.117445	0.324286	0.468190	0.078433	0.102785	0.204975	0.338149	0.677010	0.105509	0.488148	0.518876	0.232469	0.053649	0.388051	0.215542	0.460753	0.145311	0.581572	0.781892	0.477693	0.200940	0.134480	0.250476
80	0.390247	0.102596	0.578524	0.470699	0.498269	0.203332	0.445858	0.207801	0.520322	0.337947	0.286689	0.166696	0.360919	0.642875	0.563962	0.455552	0.116126	0.107753	0.388619	0.231525	0.471110	0.096509	0.317772	0.383125	0.575732	0.158345	0.428128	0.497811	0.183750	0.123168	0.209134	0.437675	0.508734	0.177491	0.304401	0.308132	0.145308	0.053302	0.445526	0.377908	0.666455	0.186659	0.257065	0.542430	0.127571	0.034663	0.252434	0.275143	0.367724	0.123384	0.290828	0.473341	0.088931	0.101892	0.270638	0.340142	0.485034	0.103491	0.483275	0.517724	0.216373	0.053573	0.366471	0.239250	0.381511	0.144905	0.580842	0.777677	0.443904	0.197404	0.141816	0.262049
81	0.377612	0.100612	0.586622	0.505778	0.484192	0.202123	0.452647	0.194165	0.513132	0.309064	0.333106	0.172981	0.360593	0.663532	0.463794	0.452017	0.124079	0.106908	0.351932	0.235740	0.454010	0.096827	0.267865	0.412459	0.543082	0.157806	0.499556	0.506469	0.177021	0.121823	0.193928	0.442958	0.507812	0.179680	0.329731	0.312075	0.146047	0.053167	0.448013	0.369974	0.559167	0.177178	0.279526	0.576413	0.123909	0.034268	0.298890	0.255032	0.366868	0.105856	0.258215	0.475151	0.086642	0.092694	0.353919	0.340276	0.458393	0.107555	0.477843	0.382676	0.176594	0.049271	0.337645	0.269927	0.319262	0.144936	0.579862	0.796802	0.438171	0.194845	0.190353	0.261320
82	0.321791	0.090915	0.572109	0.545846	0.441545	0.193036	0.456409	0.186070	0.508343	0.302445	0.335201	0.188098	0.371700	0.655211	0.476745	0.441364	0.129676	0.097404	0.332585	0.279082	0.451218	0.090432	0.264450	0.434029	0.385710	0.156789	0.511218	0.518531	0.170083	0.125016	0.195130	0.419080	0.498796	0.172468	0.334611	0.306143	0.145931	0.052237	0.456547	0.374694	0.557964	0.166818	0.281185	0.633033	0.110914	0.035524	0.324054	0.266031	0.273213	0.106774	0.257116	0.480159	0.097721	0.118400	0.356706	0.333724	0.428188	0.114641	0.499689	0.381879	0.170883	0.047229	0.338322	0.268376	0.299545	0.143556	0.607123	0.803294	0.406619	0.194675	0.268402	0.262380
83	0.229804	0.061984	0.562219	0.617724	0.390652	0.186160	0.453199	0.182857	0.520668	0.215309	0.336316	0.190458	0.380891	0.649777	0.490969	0.427019	0.123693	0.066367	0.326115	0.321354	0.445903	0.087210	0.290433	0.391058	0.351994	0.155048	0.511706	0.526169	0.169251	0.123945	0.159728	0.314800	0.462980	0.170802	0.336098	0.301034	0.145410	0.050174	0.447246	0.319260	0.448495	0.123036	0.306188	0.702001	0.090928	0.037937	0.329743	0.280406	0.216945	0.111102	0.300144	0.478432	0.097585	0.125801	0.365150	0.316560	0.314885	0.119241	0.505566	0.480442	0.157900	0.036086	0.329701	0.257018	0.251532	0.143367	0.643078	0.778370	0.355713	0.194114	0.282106	0.241870
84	0.152586	0.041895	0.591513	0.627737	0.341406	0.186306	0.453857	0.185185	0.536496	0.262323	0.329152	0.283758	0.345546	0.632416	0.501692	0.328171	0.105635	0.066362	0.264075	0.310089	0.444988	0.084503	0.327151	0.341704	0.294117	0.155089	0.520210	0.499159	0.166594	0.106687	0.159379	0.192026	0.498775	0.174746	0.375266	0.337806	0.120327	0.041695	0.359690	0.244363	0.235555	0.093417	0.313914	0.714821	0.081220	0.037740	0.418123	0.294449	0.213415	0.110999	0.300298	0.481171	0.094411	0.122787	0.350015	0.327872	0.292350	0.124198	0.503034	0.523698	0.157064	0.035394	0.319096	0.254291	0.228908	0.147085	0.648737	0.749766	0.278991	0.187126	0.282890	0.229710
85	0.149042	0.040762	0.576435	0.743370	0.311337	0.185938	0.445331	0.238471	0.556676	0.300583	0.346015	0.357580	0.333816	0.606764	0.502084	0.186782	0.143540	0.089050	0.248598	0.296680	0.428875	0.079442	0.301485	0.312357	0.232550	0.154350	0.600961	0.483984	0.169901	0.100930	0.161667	0.191839	0.490377	0.177292	0.457585	0.467223	0.071557	0.025837	0.362043	0.251007	0.235724	0.099848	0.285142	0.687490	0.093342	0.037014	0.437098	0.301971	0.201266	0.109684	0.295404	0.481605	0.086579	0.117475	0.379690	0.283256	0.255768	0.115318	0.501374	0.513862	0.151452	0.033651	0.289813	0.256426	0.228158	0.149570	0.653804	0.792226	0.241017	0.184494	0.290056	0.232062
86	0.139592	0.043435	0.573653	0.792068	0.306576	0.184574	0.426288	0.247134	0.564464	0.317935	0.511383	0.370216	0.327575	0.567182	0.497106	0.171025	0.257044	0.117312	0.225774	0.273408	0.360934	0.073313	0.299704	0.315894	0.196648	0.156932	0.703153	0.488334	0.164520	0.092164	0.154948	0.184911	0.477022	0.182744	0.483386	0.467169	0.054437	0.017069	0.358704	0.241601	0.227800	0.102812	0.276314	0.597028	0.104447	0.039300	0.439632	0.302910	0.182018	0.107669	0.291606	0.477461	0.082968	0.115889	0.413008	0.214472	0.203376	0.100240	0.432726	0.498718	0.151823	0.033127	0.221658	0.262629	0.235449	0.152981	0.542369	0.782982	0.241868	0.184592	0.297804	0.233877
87	0.140035	0.047247	0.517513	0.787969	0.310936	0.185668	0.397779	0.243977	0.561728	0.314227	0.569881	0.369599	0.308631	0.524733	0.484688	0.151162	0.286474	0.126141	0.170964	0.253480	0.246622	0.084698	0.335002	0.318400	0.178850	0.162576	0.717509	0.493371	0.129188	0.082091	0.151456	0.180463	0.429153	0.180625	0.473373	0.465622	0.052045	0.012769	0.293980	0.244411	0.285548	0.107179	0.220695	0.580823	0.134756	0.039508	0.440134	0.315547	0.181265	0.107085	0.328865	0.459088	0.067281	0.118128	0.401905	0.245227	0.191755	0.098245	0.346720	0.495669	0.143374	0.033358	0.196693	0.254415	0.231844	0.151334	0.499697	0.779895	0.252120	0.179578	0.293097	0.232491
88	0.140333	0.072027	0.450410	0.792964	0.309204	0.181812	0.387268	0.236364	0.552896	0.312489	0.574723	0.377689	0.295932	0.476086	0.418013	0.127081	0.402604	0.151541	0.171946	0.237647	0.226607	0.133950	0.354644	0.377407	0.161306	0.157390	0.715096	0.469444	0.126329	0.080104	0.171947	0.243717	0.423983	0.175452	0.462185	0.469706	0.048159	0.012670	0.252874	0.234581	0.316484	0.108714	0.213014	0.563730	0.145376	0.039608	0.416355	0.297280	0.159664	0.103667	0.328365	0.453479	0.072765	0.122790	0.379987	0.309320	0.219558	0.100506	0.325021	0.572537	0.127228	0.034565	0.187856	0.218894	0.229177	0.138679	0.534061	0.775129	0.267186	0.146358	0.289844	0.231766
89	0.160765	0.084429	0.431796	0.769725	0.311981	0.157132	0.357103	0.247027	0.453221	0.316048	0.575922	0.381359	0.297058	0.430838	0.345587	0.102275	0.405984	0.153536	0.172366	0.181507	0.226143	0.134867	0.357415	0.462859	0.117967	0.136052	0.703151	0.427786	0.130121	0.079452	0.175833	0.243222	0.410510	0.168554	0.454691	0.425593	0.063397	0.016640	0.228806	0.249665	0.315898	0.116839	0.177770	0.553143	0.155447	0.041105	0.390319	0.241152	0.148734	0.099576	0.315519	0.383451	0.058688	0.091394	0.382351	0.298856	0.214346	0.100329	0.332245	0.734122	0.124301	0.040434	0.164269	0.195994	0.210156	0.118439	0.550635	0.725289	0.270212	0.117880	0.314037	0.231626
90	0.199815	0.091475	0.450598	0.769036	0.313753	0.113886	0.279613	0.263027	0.416620	0.326029	0.582093	0.382699	0.337291	0.380422	0.297296	0.095071	0.407168	0.156424	0.164848	0.174142	0.211133	0.130355	0.374086	0.466802	0.094962	0.117895	0.676564	0.434602	0.127647	0.083415	0.195373	0.251878	0.392733	0.153421	0.447864	0.497996	0.081242	0.016389	0.228422	0.324995	0.305529	0.112092	0.242705	0.531724	0.173083	0.047953	0.360246	0.222525	0.145584	0.097806	0.315940	0.229868	0.055648	0.066160	0.451891	0.311850	0.215319	0.105244	0.348226	0.793203	0.160171	0.050995	0.164337	0.151446	0.157809	0.103443	0.553520	0.580534	0.273204	0.117685	0.334989	0.237571
91	0.210320	0.095877	0.451224	0.712449	0.311326	0.073982	0.222126	0.265353	0.403964	0.338326	0.568655	0.378695	0.407393	0.326134	0.265383	0.103422	0.408162	0.149978	0.168459	0.172286	0.176021	0.129546	0.405111	0.494323	0.104879	0.117902	0.660091	0.447009	0.129415	0.078741	0.209298	0.239557	0.379643	0.128204	0.436939	0.547759	0.100652	0.016197	0.222755	0.303732	0.291483	0.106856	0.335656	0.431403	0.183021	0.044966	0.352023	0.224799	0.151122	0.094691	0.315219	0.197904	0.058654	0.062737	0.480003	0.313474	0.223496	0.112381	0.326968	0.800541	0.177856	0.056114	0.158978	0.134604	0.145744	0.100519	0.553410	0.518506	0.280883	0.121368	0.336131	0.237249
92	0.197389	0.124267	0.356934	0.741321	0.274536	0.071276	0.232991	0.292735	0.380383	0.349459	0.534931	0.361181	0.412160	0.307790	0.264655	0.112853	0.393355	0.129069	0.161445	0.228729	0.124067	0.130807	0.422687	0.537450	0.133266	0.122095	0.587716	0.437694	0.136570	0.076012	0.206359	0.233039	0.413208	0.131876	0.421453	0.555894	0.101133	0.017248	0.227195	0.307585	0.288777	0.104073	0.348247	0.344491	0.186595	0.039191	0.281212	0.207498	0.161903	0.087249	0.312731	0.183110	0.060163	0.061412	0.453692	0.318039	0.219770	0.113797	0.371038	0.799384	0.189896	0.059803	0.130638	0.123673	0.139607	0.100489	0.569633	0.508166	0.290071	0.135114	0.333177	0.238027
93	0.184280	0.149406	0.307148	0.680694	0.208929	0.082538	0.237640	0.363560	0.414961	0.356764	0.518482	0.360149	0.409289	0.328077	0.215530	0.171561	0.346272	0.116882	0.152390	0.262173	0.107577	0.137148	0.402552	0.588323	0.137544	0.122336	0.598294	0.443659	0.159611	0.078587	0.212293	0.235427	0.424744	0.135323	0.421420	0.573341	0.101891	0.016673	0.242048	0.318352	0.272291	0.098077	0.351914	0.347034	0.178339	0.040120	0.247471	0.207928	0.159704	0.079014	0.289079	0.171191	0.060346	0.060025	0.424553	0.316572	0.202119	0.109120	0.435303	0.817482	0.193389	0.060364	0.106571	0.106623	0.131707	0.101036	0.571213	0.481738	0.281136	0.124131	0.329933	0.227227
94	0.184000	0.163077	0.308362	0.523969	0.184411	0.096354	0.231027	0.396505	0.446514	0.347522	0.518200	0.352743	0.397659	0.325477	0.187606	0.192981	0.311053	0.097257	0.266769	0.267221	0.105459	0.139637	0.355919	0.604509	0.132776	0.122527	0.627498	0.523547	0.200848	0.122075	0.207268	0.231431	0.386956	0.130449	0.426687	0.618548	0.117842	0.017628	0.234511	0.310182	0.277270	0.092482	0.411756	0.341019	0.178178	0.039210	0.235850	0.207973	0.159229	0.081345	0.242555	0.177499	0.060258	0.051694	0.420450	0.289456	0.185245	0.101059	0.459666	0.868239	0.193623	0.066326	0.090850	0.096443	0.119126	0.100649	0.558868	0.472819	0.278771	0.122346	0.329601	0.214619
95	0.185867	0.162673	0.334934	0.645282	0.184786	0.102086	0.224725	0.406384	0.435551	0.320570	0.516729	0.350742	0.422259	0.324093	0.200830	0.187568	0.180145	0.063399	0.281543	0.305286	0.106144	0.139642	0.362936	0.610849	0.131215	0.123048	0.648886	0.655306	0.203247	0.130401	0.238405	0.234177	0.404393	0.136662	0.380189	0.613407	0.127800	0.021120	0.220482	0.296700	0.285987	0.090117	0.499056	0.353806	0.187445	0.041552	0.241703	0.231474	0.160609	0.095713	0.224499	0.169120	0.055580	0.026651	0.365180	0.228712	0.186280	0.096994	0.458843	0.906168	0.202300	0.071413	0.086370	0.102503	0.106154	0.097206	0.499142	0.527920	0.289869	0.121888	0.312443	0.214918
96	0.192115	0.152107	0.369534	0.721923	0.195910	0.108710	0.239843	0.407145	0.411872	0.286393	0.516876	0.270883	0.462275	0.316512	0.197003	0.187777	0.181894	0.062672	0.351426	0.304691	0.106686	0.141750	0.375402	0.613216	0.138346	0.126641	0.650590	0.788278	0.197740	0.145497	0.243308	0.210850	0.403737	0.128390	0.272417	0.628396	0.134549	0.024426	0.225555	0.296895	0.174249	0.075647	0.518311	0.423495	0.210065	0.052148	0.246462	0.219750	0.171504	0.104272	0.206004	0.167454	0.051618	0.018117	0.354406	0.217225	0.208815	0.101216	0.456429	0.930062	0.202398	0.072458	0.065507	0.171112	0.114735	0.090154	0.483600	0.590706	0.299078	0.120192	0.252907	0.220764
97	0.182133	0.144986	0.415380	0.753448	0.202079	0.112246	0.240736	0.394452	0.386487	0.250419	0.476951	0.186127	0.505308	0.293448	0.200561	0.201783	0.188750	0.070295	0.465479	0.322585	0.107149	0.134266	0.355967	0.612676	0.140812	0.127996	0.559056	0.830943	0.193999	0.163252	0.289059	0.172232	0.404058	0.120952	0.211922	0.805103	0.132429	0.023481	0.251566	0.326417	0.235062	0.065985	0.517386	0.533720	0.221371	0.057338	0.307361	0.270752	0.172470	0.104354	0.208933	0.160702	0.043111	0.014857	0.264737	0.175010	0.246815	0.110252	0.477459	0.932597	0.203839	0.072792	0.054228	0.200901	0.129967	0.087527	0.488513	0.626334	0.301751	0.119648	0.218115	0.222015
98	0.141560	0.139115	0.414408	0.738927	0.197472	0.113887	0.235792	0.360844	0.390332	0.235144	0.281990	0.178217	0.514434	0.263888	0.199743	0.239559	0.178280	0.072066	0.474988	0.334024	0.110833	0.107235	0.339547	0.582217	0.144020	0.127517	0.502850	0.818373	0.202459	0.183826	0.358303	0.182160	0.404464	0.127926	0.247297	0.943964	0.124418	0.024765	0.223879	0.274046	0.249200	0.074476	0.512561	0.545434	0.363473	0.074142	0.346639	0.281475	0.176695	0.104609	0.140705	0.112648	0.042378	0.014819	0.195219	0.121004	0.249352	0.113102	0.538079	0.917451	0.189079	0.069060	0.055979	0.207958	0.120726	0.088699	0.500924	0.644718	0.289792	0.118083	0.234355	0.222397
99	0.099391	0.137939	0.417534	0.693447	0.186593	0.114500	0.214878	0.353283	0.406623	0.232753	0.197364	0.175755	0.505555	0.257356	0.234536	0.248356	0.184226	0.079464	0.476721	0.349415	0.137354	0.134311	0.336722	0.521656	0.161107	0.123079	0.544053	0.815333	0.211652	0.188694	0.363472	0.246892	0.474895	0.163694	0.287084	0.958182	0.106581	0.026658	0.197596	0.265630	0.260534	0.086778	0.456745	0.548764	0.363384	0.078170	0.347660	0.366081	0.206559	0.117514	0.098181	0.099738	0.045592	0.015800	0.204706	0.100613	0.285705	0.123305	0.611389	0.866282	0.163165	0.063359	0.063279	0.224108	0.118790	0.093885	0.574102	0.644266	0.266172	0.117959	0.235518	0.215389
100	0.097528	0.119253	0.411075	0.657906	0.159818	0.111519	0.213354	0.362832	0.411083	0.231940	0.190861	0.163151	0.500421	0.252947	0.294361	0.250247	0.248281	0.086931	0.452390	0.355842	0.143654	0.139125	0.317649	0.523347	0.181101	0.115795	0.583568	0.863809	0.211905	0.187896	0.350039	0.241621	0.488958	0.174656	0.295761	0.980318	0.104991	0.030473	0.195550	0.275898	0.267428	0.089820	0.482463	0.665148	0.366334	0.079459	0.375424	0.380897	0.215798	0.127217	0.121372	0.181625	0.044171	0.015208	0.205004	0.141434	0.286408	0.120861	0.602987	0.924809	0.137933	0.057843	0.090617	0.240994	0.127784	0.097035	0.590011	0.645970	0.265846	0.117905	0.227388	0.217980
101	0.093597	0.083531	0.411093	0.635364	0.141372	0.106754	0.198699	0.373845	0.387950	0.224751	0.186330	0.230003	0.475528	0.235318	0.313346	0.250355	0.264065	0.088885	0.414846	0.363298	0.155859	0.141798	0.275742	0.482449	0.185431	0.107259	0.613938	0.946973	0.206125	0.185554	0.348595	0.243037	0.501950	0.179833	0.297278	1.160830	0.122075	0.059210	0.175819	0.290221	0.263278	0.088025	0.481815	0.716878	0.364229	0.079988	0.380036	0.403430	0.217212	0.125643	0.166014	0.221729	0.049775	0.015799	0.171228	0.187976	0.284699	0.114853	0.608530	1.005540	0.131744	0.056400	0.109918	0.279052	0.128165	0.093675	0.552978	0.696992	0.263615	0.119600	0.235880	0.224631
