	218_C_T1_sh_ND_01.c3d	218_C_T1_sh_ND_01.c3d	218_C_T1_sh_ND_01.c3d	218_C_T1_sh_ND_01.c3d	218_C_T1_sh_ND_01.c3d	218_C_T1_sh_ND_01.c3d	218_C_T1_sh_ND_01.c3d	218_C_T1_sh_ND_01.c3d	218_C_T1_sh_ND_02.c3d	218_C_T1_sh_ND_02.c3d	218_C_T1_sh_ND_02.c3d	218_C_T1_sh_ND_02.c3d	218_C_T1_sh_ND_02.c3d	218_C_T1_sh_ND_02.c3d	218_C_T1_sh_ND_02.c3d	218_C_T1_sh_ND_02.c3d	218_C_T1_sh_ND_03.c3d	218_C_T1_sh_ND_03.c3d	218_C_T1_sh_ND_03.c3d	218_C_T1_sh_ND_03.c3d	218_C_T1_sh_ND_03.c3d	218_C_T1_sh_ND_03.c3d	218_C_T1_sh_ND_03.c3d	218_C_T1_sh_ND_03.c3d	218_C_T1_sh_ND_04.c3d	218_C_T1_sh_ND_04.c3d	218_C_T1_sh_ND_04.c3d	218_C_T1_sh_ND_04.c3d	218_C_T1_sh_ND_04.c3d	218_C_T1_sh_ND_04.c3d	218_C_T1_sh_ND_04.c3d	218_C_T1_sh_ND_04.c3d	218_C_T1_sh_ND_06.c3d	218_C_T1_sh_ND_06.c3d	218_C_T1_sh_ND_06.c3d	218_C_T1_sh_ND_06.c3d	218_C_T1_sh_ND_06.c3d	218_C_T1_sh_ND_06.c3d	218_C_T1_sh_ND_06.c3d	218_C_T1_sh_ND_06.c3d	218_C_T1_sh_ND_07.c3d	218_C_T1_sh_ND_07.c3d	218_C_T1_sh_ND_07.c3d	218_C_T1_sh_ND_07.c3d	218_C_T1_sh_ND_07.c3d	218_C_T1_sh_ND_07.c3d	218_C_T1_sh_ND_07.c3d	218_C_T1_sh_ND_07.c3d	218_C_T1_sh_ND_08.c3d	218_C_T1_sh_ND_08.c3d	218_C_T1_sh_ND_08.c3d	218_C_T1_sh_ND_08.c3d	218_C_T1_sh_ND_08.c3d	218_C_T1_sh_ND_08.c3d	218_C_T1_sh_ND_08.c3d	218_C_T1_sh_ND_08.c3d	218_C_T1_sh_ND_10.c3d	218_C_T1_sh_ND_10.c3d	218_C_T1_sh_ND_10.c3d	218_C_T1_sh_ND_10.c3d	218_C_T1_sh_ND_10.c3d	218_C_T1_sh_ND_10.c3d	218_C_T1_sh_ND_10.c3d	218_C_T1_sh_ND_10.c3d
	Biceps femoris_lat	Semitendinosus_lat	Vastus lateralis_lat	Vastus medialis_lat	Biceps femoris_med	Semitendinosus_med	Vastus lateralis_med	Vastus medialis_med	Biceps femoris_lat	Semitendinosus_lat	Vastus lateralis_lat	Vastus medialis_lat	Biceps femoris_med	Semitendinosus_med	Vastus lateralis_med	Vastus medialis_med	Biceps femoris_lat	Semitendinosus_lat	Vastus lateralis_lat	Vastus medialis_lat	Biceps femoris_med	Semitendinosus_med	Vastus lateralis_med	Vastus medialis_med	Biceps femoris_lat	Semitendinosus_lat	Vastus lateralis_lat	Vastus medialis_lat	Biceps femoris_med	Semitendinosus_med	Vastus lateralis_med	Vastus medialis_med	Biceps femoris_lat	Semitendinosus_lat	Vastus lateralis_lat	Vastus medialis_lat	Biceps femoris_med	Semitendinosus_med	Vastus lateralis_med	Vastus medialis_med	Biceps femoris_lat	Semitendinosus_lat	Vastus lateralis_lat	Vastus medialis_lat	Biceps femoris_med	Semitendinosus_med	Vastus lateralis_med	Vastus medialis_med	Biceps femoris_lat	Semitendinosus_lat	Vastus lateralis_lat	Vastus medialis_lat	Biceps femoris_med	Semitendinosus_med	Vastus lateralis_med	Vastus medialis_med	Biceps femoris_lat	Semitendinosus_lat	Vastus lateralis_lat	Vastus medialis_lat	Biceps femoris_med	Semitendinosus_med	Vastus lateralis_med	Vastus medialis_med
	P2D	P2D	P2D	P2D	P2D	P2D	P2D	P2D	P2D	P2D	P2D	P2D	P2D	P2D	P2D	P2D	P2D	P2D	P2D	P2D	P2D	P2D	P2D	P2D	P2D	P2D	P2D	P2D	P2D	P2D	P2D	P2D	P2D	P2D	P2D	P2D	P2D	P2D	P2D	P2D	P2D	P2D	P2D	P2D	P2D	P2D	P2D	P2D	P2D	P2D	P2D	P2D	P2D	P2D	P2D	P2D	P2D	P2D	P2D	P2D	P2D	P2D	P2D	P2D
	EMG_lat	EMG_lat	EMG_lat	EMG_lat	EMG_med	EMG_med	EMG_med	EMG_med	EMG_lat	EMG_lat	EMG_lat	EMG_lat	EMG_med	EMG_med	EMG_med	EMG_med	EMG_lat	EMG_lat	EMG_lat	EMG_lat	EMG_med	EMG_med	EMG_med	EMG_med	EMG_lat	EMG_lat	EMG_lat	EMG_lat	EMG_med	EMG_med	EMG_med	EMG_med	EMG_lat	EMG_lat	EMG_lat	EMG_lat	EMG_med	EMG_med	EMG_med	EMG_med	EMG_lat	EMG_lat	EMG_lat	EMG_lat	EMG_med	EMG_med	EMG_med	EMG_med	EMG_lat	EMG_lat	EMG_lat	EMG_lat	EMG_med	EMG_med	EMG_med	EMG_med	EMG_lat	EMG_lat	EMG_lat	EMG_lat	EMG_med	EMG_med	EMG_med	EMG_med
ITEM	Y	Y	Y	Y	Y	Y	Y	Y	Y	Y	Y	Y	Y	Y	Y	Y	Y	Y	Y	Y	Y	Y	Y	Y	Y	Y	Y	Y	Y	Y	Y	Y	Y	Y	Y	Y	Y	Y	Y	Y	Y	Y	Y	Y	Y	Y	Y	Y	Y	Y	Y	Y	Y	Y	Y	Y	Y	Y	Y	Y	Y	Y	Y	Y
1	0.557262	0.778940	0.407869	0.259675	0.262760	0.425832	0.327532	0.090556	0.300299	0.436998	0.551580	0.423666	0.197109	0.212240	0.208931	0.118232	0.123091	0.214699	0.449673	0.097814	0.265242	0.304814	0.398113	0.135465	0.252302	0.190184	0.622569	0.316947	0.119313	0.096742	0.300116	0.082015	0.320210	0.327160	0.381346	0.246949	0.086332	0.089651	0.257063	0.134940	0.318290	0.377473	0.366308	0.111444	0.190389	0.169847	0.323167	0.105260	0.239110	0.167166	0.275308	0.153344	0.552370	0.358562	0.554135	0.261593	0.203568	0.301833	0.283754	0.183537	0.105492	0.207588	0.206719	0.148954
2	0.556302	0.774123	0.411255	0.254153	0.205905	0.382212	0.345225	0.087434	0.288119	0.426005	0.575187	0.453612	0.193936	0.210512	0.208553	0.122218	0.160428	0.241734	0.434492	0.084303	0.215985	0.311271	0.328459	0.135018	0.280299	0.222894	0.667148	0.332423	0.105822	0.101572	0.311033	0.095884	0.280802	0.312023	0.355982	0.246987	0.082761	0.090980	0.257405	0.133389	0.319393	0.376951	0.361366	0.128633	0.181956	0.163879	0.355159	0.114324	0.231924	0.165712	0.313110	0.177911	0.557215	0.362302	0.516209	0.226427	0.218370	0.320200	0.283252	0.183380	0.117648	0.203792	0.202542	0.168328
3	0.545913	0.777109	0.416540	0.253736	0.195224	0.377462	0.334675	0.074437	0.288533	0.362211	0.580009	0.451326	0.164624	0.177101	0.210852	0.127196	0.167975	0.242296	0.425785	0.080842	0.155838	0.296597	0.339600	0.139756	0.283432	0.246344	0.654147	0.332032	0.070065	0.105303	0.317559	0.103537	0.282980	0.300425	0.377461	0.236392	0.077005	0.085625	0.277958	0.126882	0.320755	0.383006	0.351163	0.142648	0.177034	0.161819	0.361070	0.116533	0.195217	0.164760	0.363165	0.173808	0.550751	0.356821	0.459364	0.206781	0.245125	0.334070	0.279897	0.179478	0.129941	0.190969	0.213319	0.199630
4	0.542198	0.793585	0.408093	0.229342	0.173779	0.380940	0.336144	0.074892	0.283052	0.262995	0.590037	0.441889	0.114036	0.116620	0.223431	0.130689	0.160663	0.246822	0.423864	0.114724	0.144232	0.298343	0.451221	0.140911	0.285076	0.270035	0.578453	0.331507	0.080516	0.106986	0.302008	0.108971	0.281442	0.293608	0.428130	0.163694	0.076387	0.082577	0.316392	0.131588	0.320778	0.386806	0.359663	0.148722	0.160775	0.147812	0.415699	0.138349	0.184021	0.169186	0.366197	0.177185	0.529410	0.334196	0.467575	0.206809	0.247387	0.330120	0.276533	0.167851	0.135832	0.200419	0.212395	0.204705
5	0.563827	0.799111	0.400055	0.214649	0.178618	0.391669	0.339867	0.080740	0.270561	0.217335	0.631547	0.448284	0.090442	0.087296	0.208092	0.132935	0.165903	0.259414	0.360851	0.228899	0.145353	0.304541	0.501417	0.135857	0.287213	0.273301	0.566100	0.329550	0.078028	0.120226	0.301210	0.212245	0.278641	0.278935	0.394432	0.114010	0.080739	0.077956	0.324273	0.188828	0.315206	0.389981	0.356657	0.147940	0.137572	0.127035	0.663821	0.140821	0.151914	0.178223	0.367883	0.227542	0.491974	0.307533	0.498720	0.205067	0.266924	0.317437	0.275913	0.146091	0.171898	0.222048	0.237221	0.193022
6	0.429063	0.649696	0.337722	0.210342	0.183833	0.383308	0.349097	0.085649	0.268148	0.216568	0.636964	0.455761	0.083988	0.077167	0.202107	0.131039	0.210567	0.295604	0.238838	0.275337	0.143011	0.307353	0.497960	0.135231	0.281534	0.285828	0.569093	0.308562	0.075273	0.147492	0.293045	0.274154	0.246189	0.209981	0.326561	0.114681	0.081794	0.079568	0.345651	0.186242	0.302736	0.386283	0.331156	0.149303	0.134943	0.117684	0.666979	0.150068	0.139865	0.179653	0.368450	0.276377	0.463183	0.294044	0.456220	0.178861	0.311585	0.319426	0.272511	0.133309	0.192015	0.220655	0.292502	0.195426
7	0.349395	0.549930	0.307823	0.180058	0.190928	0.381693	0.343163	0.141790	0.263732	0.198533	0.590841	0.449394	0.083656	0.098803	0.207724	0.139561	0.248580	0.304254	0.183757	0.278339	0.146153	0.308903	0.492847	0.169182	0.282765	0.300756	0.535065	0.330381	0.075260	0.199436	0.389207	0.297431	0.229258	0.194306	0.356262	0.118612	0.085111	0.079834	0.341264	0.179995	0.288738	0.382954	0.361562	0.149123	0.223036	0.181276	0.669644	0.167941	0.138785	0.175688	0.487439	0.281839	0.266953	0.207277	0.374314	0.165426	0.340618	0.323814	0.267335	0.131848	0.217709	0.224418	0.344101	0.220630
8	0.357416	0.535496	0.288683	0.146084	0.195915	0.325939	0.325743	0.150020	0.265728	0.164891	0.589897	0.441264	0.118738	0.221112	0.297154	0.145648	0.238250	0.291381	0.243323	0.306311	0.149491	0.302601	0.485975	0.178873	0.263421	0.294838	0.452008	0.372134	0.092323	0.207764	0.452069	0.300308	0.244015	0.184277	0.418045	0.122027	0.113000	0.088456	0.326633	0.177558	0.317914	0.389122	0.490923	0.147915	0.252269	0.228870	0.664056	0.211563	0.134747	0.170932	0.536156	0.316308	0.225141	0.175855	0.326361	0.173895	0.340538	0.317796	0.260132	0.129182	0.218742	0.223035	0.356182	0.237385
9	0.313618	0.426362	0.270947	0.174408	0.208922	0.302716	0.264017	0.159794	0.243368	0.158520	0.612063	0.425326	0.137895	0.244481	0.324441	0.149271	0.239056	0.295402	0.311500	0.318536	0.153593	0.295592	0.466417	0.182556	0.204546	0.295157	0.419901	0.365173	0.162029	0.247345	0.485075	0.333451	0.203997	0.284881	0.427236	0.125491	0.192727	0.181715	0.359280	0.175839	0.330906	0.346778	0.536304	0.152350	0.274366	0.240453	0.652667	0.222926	0.131168	0.168551	0.545177	0.345888	0.284826	0.215584	0.419385	0.178141	0.341895	0.313302	0.204804	0.123131	0.225883	0.223280	0.362093	0.230201
10	0.288466	0.357167	0.270306	0.172991	0.208454	0.296307	0.286079	0.167224	0.222219	0.158347	0.613586	0.414295	0.191752	0.295239	0.344788	0.148455	0.244801	0.279358	0.322459	0.333654	0.165692	0.305138	0.440826	0.206657	0.206457	0.353303	0.333657	0.313338	0.181846	0.305879	0.484943	0.360100	0.205873	0.306012	0.425790	0.136645	0.219275	0.243866	0.387266	0.163243	0.292219	0.317553	0.558626	0.160807	0.331278	0.309186	0.680859	0.227659	0.107579	0.154460	0.546167	0.358271	0.292148	0.216442	0.479669	0.181275	0.315226	0.258722	0.190095	0.106970	0.230354	0.199887	0.381377	0.232221
11	0.286449	0.337997	0.270068	0.177524	0.209436	0.316658	0.314948	0.175289	0.199769	0.149634	0.545842	0.413440	0.268940	0.369061	0.367194	0.157656	0.261156	0.257119	0.345573	0.362446	0.152648	0.247239	0.480460	0.235200	0.176067	0.423710	0.212018	0.301738	0.256410	0.450184	0.532375	0.372912	0.236172	0.299438	0.425898	0.192636	0.236418	0.255043	0.386648	0.157408	0.325965	0.373708	0.571792	0.163971	0.349459	0.340194	0.675997	0.226448	0.107001	0.152517	0.562604	0.358353	0.302279	0.227506	0.485108	0.172894	0.296887	0.232021	0.196787	0.118943	0.228050	0.199320	0.382395	0.234133
12	0.292672	0.346266	0.320357	0.248709	0.226884	0.304510	0.330546	0.178075	0.142506	0.144616	0.509256	0.441594	0.275260	0.384946	0.367701	0.155550	0.235991	0.224290	0.332630	0.367406	0.117343	0.173285	0.489351	0.244602	0.166004	0.409265	0.210038	0.306644	0.274135	0.510231	0.552641	0.381671	0.218205	0.309386	0.382306	0.259241	0.296571	0.323514	0.390734	0.154762	0.425821	0.381690	0.560538	0.171113	0.351745	0.346572	0.675306	0.222359	0.102942	0.151241	0.547949	0.391568	0.335205	0.241551	0.481757	0.193660	0.294758	0.237076	0.254049	0.128902	0.221047	0.204713	0.372141	0.218592
13	0.291832	0.326813	0.485523	0.316844	0.199960	0.264653	0.331845	0.201723	0.144700	0.133169	0.504603	0.454157	0.319919	0.425134	0.378370	0.153390	0.232098	0.219756	0.327491	0.371908	0.117181	0.161122	0.479245	0.242469	0.228620	0.417906	0.236312	0.331468	0.276108	0.514650	0.540861	0.348501	0.213423	0.304547	0.344960	0.265315	0.314605	0.350489	0.420645	0.166878	0.435604	0.367254	0.555904	0.194892	0.352368	0.349368	0.514264	0.212067	0.105545	0.146713	0.511662	0.458037	0.371372	0.288937	0.482992	0.205091	0.293479	0.241967	0.372984	0.128001	0.236398	0.235308	0.369993	0.194910
14	0.289653	0.294781	0.632412	0.358928	0.226821	0.341620	0.375466	0.217969	0.145532	0.109960	0.494113	0.453244	0.383852	0.495688	0.447464	0.156889	0.234432	0.223348	0.334940	0.372030	0.116457	0.152056	0.383310	0.236568	0.264060	0.441979	0.287104	0.338034	0.278066	0.512880	0.537348	0.295233	0.218451	0.305825	0.357993	0.271474	0.321763	0.362950	0.405225	0.186281	0.441985	0.392078	0.587433	0.198244	0.350885	0.363942	0.319939	0.243882	0.112034	0.142438	0.557154	0.495424	0.381295	0.305001	0.472018	0.210998	0.291284	0.242788	0.429994	0.140858	0.236732	0.220914	0.359382	0.245546
15	0.228283	0.273820	0.761028	0.367708	0.255851	0.429657	0.464419	0.197540	0.149864	0.099582	0.485783	0.472627	0.409603	0.525549	0.508615	0.153762	0.227228	0.204520	0.372922	0.328767	0.114092	0.137768	0.316212	0.261477	0.417012	0.445313	0.341216	0.355975	0.278105	0.511648	0.459347	0.265607	0.213046	0.308511	0.359664	0.289035	0.324902	0.368541	0.386631	0.180296	0.442979	0.408755	0.668033	0.210568	0.341975	0.369939	0.314201	0.328069	0.115549	0.120634	0.591316	0.486127	0.381741	0.306607	0.436195	0.199066	0.279806	0.243875	0.452169	0.161864	0.213959	0.210385	0.329115	0.352649
16	0.233075	0.320681	0.784374	0.435860	0.253009	0.435784	0.529622	0.270891	0.166154	0.138130	0.494086	0.516258	0.421367	0.536772	0.514706	0.153583	0.175616	0.141621	0.393815	0.307657	0.120691	0.133836	0.310728	0.319241	0.434445	0.441663	0.350718	0.406092	0.279159	0.578527	0.373474	0.262131	0.199596	0.316623	0.277013	0.290308	0.326218	0.368723	0.370324	0.129028	0.443310	0.404487	0.734383	0.209071	0.296612	0.386942	0.309945	0.331442	0.122963	0.115009	0.591185	0.464543	0.381724	0.306847	0.435249	0.202667	0.260194	0.244079	0.464377	0.173038	0.192478	0.232900	0.279889	0.374056
17	0.219842	0.330085	0.865678	0.588448	0.233746	0.421903	0.528524	0.308059	0.182221	0.167480	0.538396	0.525193	0.428565	0.541837	0.509570	0.167948	0.137547	0.121210	0.392740	0.344625	0.119290	0.134847	0.316108	0.368822	0.444376	0.472449	0.409852	0.431478	0.252568	0.583835	0.313227	0.238356	0.194027	0.263050	0.293957	0.291960	0.328249	0.369939	0.367693	0.153827	0.442710	0.403916	0.739468	0.213731	0.316513	0.394345	0.308090	0.320904	0.138995	0.115214	0.471180	0.461054	0.382827	0.306539	0.432854	0.246117	0.262606	0.245588	0.468050	0.204881	0.213012	0.272643	0.228632	0.377746
18	0.181326	0.297580	0.997811	0.720893	0.239865	0.422861	0.515101	0.317994	0.197404	0.199976	0.517993	0.522374	0.428672	0.531292	0.460102	0.223418	0.137239	0.119990	0.351002	0.369928	0.148178	0.162738	0.306992	0.395670	0.454353	0.500270	0.568354	0.410238	0.238032	0.571672	0.299323	0.213693	0.191440	0.188302	0.327269	0.288436	0.326269	0.373873	0.376743	0.243645	0.442621	0.406601	0.727860	0.233183	0.265326	0.367594	0.227105	0.338648	0.154364	0.118111	0.427112	0.485516	0.372380	0.291338	0.425850	0.244288	0.246552	0.236747	0.508977	0.227367	0.239416	0.295929	0.245515	0.419454
19	0.192604	0.313453	1.116336	0.759189	0.243594	0.406887	0.529332	0.359578	0.201568	0.213297	0.461708	0.523424	0.424391	0.529504	0.459576	0.290852	0.138900	0.113755	0.311920	0.376729	0.155135	0.169870	0.296521	0.394397	0.452005	0.470210	0.603784	0.407004	0.172750	0.548784	0.189571	0.247071	0.109620	0.170466	0.332165	0.293249	0.308096	0.366175	0.376549	0.289480	0.439978	0.407253	0.737011	0.258553	0.234615	0.364657	0.138950	0.348726	0.157753	0.149559	0.438127	0.559539	0.311825	0.251991	0.364652	0.246673	0.186866	0.229412	0.550984	0.237914	0.237534	0.299251	0.238588	0.432035
20	0.230286	0.351859	1.169393	0.764848	0.238033	0.400683	0.520727	0.380675	0.209135	0.225114	0.442046	0.542660	0.422171	0.543819	0.474812	0.333559	0.135036	0.116984	0.367731	0.361492	0.147606	0.143447	0.305350	0.391205	0.447377	0.393238	0.610251	0.401051	0.131776	0.534728	0.081288	0.264309	0.114355	0.155159	0.320135	0.337336	0.268656	0.319191	0.331565	0.297581	0.427716	0.410003	0.680566	0.291882	0.223734	0.352545	0.149151	0.348514	0.154674	0.192948	0.449743	0.595282	0.302506	0.249295	0.281161	0.246071	0.165918	0.237689	0.565247	0.241747	0.244303	0.332312	0.213522	0.430487
21	0.238612	0.368675	1.187662	0.759322	0.234756	0.421606	0.519636	0.370576	0.208289	0.226066	0.440407	0.580242	0.437138	0.616852	0.460558	0.336330	0.109490	0.106773	0.397772	0.337110	0.141761	0.137695	0.246840	0.377993	0.441979	0.385243	0.613622	0.398653	0.131456	0.529476	0.079047	0.291629	0.137013	0.188777	0.392525	0.384066	0.267413	0.305677	0.322768	0.300278	0.394562	0.421072	0.634891	0.301845	0.225389	0.352193	0.149935	0.349094	0.189742	0.199647	0.419764	0.595033	0.296030	0.245420	0.271347	0.240122	0.164341	0.241901	0.566856	0.242286	0.242783	0.341988	0.205446	0.427308
22	0.223010	0.365274	1.150401	0.752593	0.202036	0.407720	0.469339	0.360844	0.208423	0.229906	0.418792	0.604961	0.440036	0.611249	0.459826	0.374665	0.108117	0.107831	0.421911	0.336070	0.139789	0.138928	0.239599	0.371321	0.413095	0.387752	0.604765	0.386401	0.134225	0.524627	0.089025	0.303276	0.195910	0.281812	0.440897	0.386822	0.251059	0.286314	0.296679	0.325854	0.374827	0.440629	0.612272	0.295429	0.238841	0.343587	0.151587	0.343799	0.285613	0.277023	0.417102	0.569093	0.269687	0.256208	0.314324	0.230868	0.159131	0.239320	0.558130	0.247896	0.233769	0.327721	0.218973	0.424518
23	0.218749	0.364212	1.085062	0.815069	0.154594	0.313378	0.360365	0.355854	0.218223	0.241292	0.434570	0.604606	0.409305	0.592351	0.468176	0.473871	0.107543	0.107747	0.421414	0.328930	0.170600	0.185661	0.239908	0.366803	0.394306	0.372809	0.581595	0.399853	0.156238	0.515600	0.136940	0.416637	0.205578	0.336812	0.423563	0.386511	0.185856	0.210962	0.240338	0.359027	0.370251	0.432824	0.597609	0.299680	0.234253	0.332893	0.147180	0.303364	0.327839	0.330264	0.403869	0.557693	0.207881	0.206707	0.351765	0.276991	0.153076	0.242274	0.536419	0.277894	0.219845	0.313891	0.246512	0.425425
24	0.219896	0.352166	1.000656	0.848024	0.142176	0.276087	0.283022	0.301041	0.215060	0.241490	0.454728	0.607749	0.346994	0.534800	0.440691	0.536788	0.097686	0.092472	0.413607	0.306547	0.187600	0.243762	0.239866	0.377055	0.230436	0.371296	0.550814	0.405356	0.148423	0.431794	0.168295	0.527656	0.205312	0.332878	0.423217	0.392599	0.164852	0.192863	0.195846	0.379339	0.216218	0.354405	0.588893	0.314730	0.221805	0.314970	0.150581	0.247451	0.329429	0.330488	0.326676	0.562252	0.198291	0.182149	0.373878	0.297774	0.152390	0.247787	0.544810	0.398807	0.211753	0.310606	0.255414	0.368927
25	0.218796	0.321546	0.949487	0.846087	0.138574	0.276748	0.279654	0.273057	0.204210	0.241941	0.471776	0.601821	0.314636	0.504177	0.390069	0.554969	0.097520	0.102360	0.371290	0.296934	0.187204	0.276624	0.247473	0.371348	0.192183	0.370769	0.593208	0.363112	0.181637	0.425012	0.183897	0.542825	0.209563	0.333317	0.405827	0.395678	0.160870	0.239142	0.205085	0.387803	0.158273	0.327783	0.588430	0.319265	0.205307	0.306907	0.161271	0.243146	0.361691	0.351137	0.283652	0.568267	0.204704	0.185484	0.395087	0.298538	0.152492	0.247601	0.515152	0.483828	0.211335	0.300527	0.249055	0.288499
26	0.220600	0.280287	0.958886	0.798142	0.146900	0.275343	0.255222	0.261088	0.200351	0.259846	0.476695	0.581505	0.298187	0.491236	0.398194	0.558665	0.093033	0.111954	0.355045	0.285471	0.192232	0.283844	0.261276	0.325334	0.185905	0.337542	0.575312	0.279325	0.189890	0.406180	0.238147	0.530884	0.216184	0.341945	0.377868	0.396141	0.159388	0.246321	0.211256	0.388991	0.131489	0.299369	0.566996	0.316900	0.175176	0.312782	0.150213	0.221172	0.388466	0.385216	0.294744	0.571279	0.215024	0.222030	0.396228	0.305513	0.152716	0.241652	0.436733	0.503051	0.199442	0.283893	0.294046	0.277213
27	0.222343	0.295955	0.864363	0.682479	0.142032	0.274683	0.193335	0.198839	0.198564	0.288080	0.479596	0.563573	0.287372	0.484453	0.400984	0.552377	0.091789	0.133307	0.355396	0.224117	0.192746	0.287919	0.273560	0.246575	0.174373	0.287435	0.418288	0.308091	0.192347	0.398601	0.256827	0.505488	0.215571	0.345764	0.394041	0.392870	0.154767	0.295531	0.209731	0.389365	0.131442	0.256795	0.496471	0.306192	0.155269	0.278758	0.128053	0.178647	0.391413	0.401006	0.321663	0.569488	0.215257	0.253513	0.399309	0.294144	0.147711	0.223025	0.393146	0.499639	0.134467	0.254676	0.316810	0.218688
28	0.223987	0.315251	0.698765	0.577152	0.109040	0.269983	0.193197	0.166884	0.201993	0.290830	0.501015	0.533501	0.273597	0.460846	0.396183	0.533473	0.093336	0.157178	0.354751	0.144569	0.174638	0.355677	0.281375	0.180201	0.167266	0.310064	0.335627	0.351929	0.186752	0.311468	0.270180	0.522741	0.204632	0.345640	0.390687	0.341921	0.152372	0.333642	0.186588	0.368865	0.124797	0.257598	0.375030	0.302845	0.136960	0.275569	0.118650	0.183861	0.386907	0.401945	0.315272	0.518441	0.199965	0.254592	0.399153	0.305796	0.170277	0.205262	0.371445	0.518080	0.110499	0.247404	0.295458	0.133856
29	0.177661	0.271893	0.517764	0.545060	0.112094	0.231043	0.188913	0.173024	0.194478	0.297070	0.518371	0.486407	0.272418	0.456249	0.367170	0.505711	0.088635	0.156212	0.335569	0.203254	0.174600	0.461369	0.256857	0.177815	0.181519	0.318598	0.344306	0.358434	0.183216	0.309462	0.304468	0.661173	0.201904	0.340445	0.359824	0.254843	0.152354	0.363208	0.177201	0.314942	0.127733	0.267378	0.299001	0.316375	0.145112	0.294375	0.156576	0.224801	0.389225	0.394375	0.267006	0.457675	0.193860	0.247777	0.365346	0.302838	0.211636	0.216613	0.363538	0.551119	0.090192	0.230963	0.317499	0.136107
30	0.136036	0.228934	0.422551	0.542824	0.106291	0.166287	0.200626	0.335672	0.178277	0.304555	0.495354	0.472944	0.246302	0.417419	0.319985	0.482812	0.061033	0.152808	0.281671	0.307204	0.179139	0.486320	0.268394	0.183128	0.201388	0.325860	0.343698	0.368640	0.195892	0.310794	0.386737	0.777288	0.153180	0.286075	0.234003	0.514336	0.146805	0.364781	0.183863	0.288981	0.134631	0.266572	0.302554	0.324699	0.156948	0.326612	0.227292	0.255328	0.389529	0.377140	0.229025	0.508049	0.213705	0.250531	0.365597	0.295615	0.219068	0.229860	0.372842	0.555958	0.068494	0.187190	0.339016	0.138316
31	0.124988	0.210816	0.392909	0.537324	0.105364	0.177916	0.288178	0.643029	0.161219	0.293768	0.477433	0.521467	0.106396	0.198590	0.309646	0.477689	0.068923	0.173409	0.234253	0.369858	0.180788	0.487157	0.275156	0.180462	0.198823	0.291377	0.392238	0.391544	0.340370	0.390214	0.481789	0.739251	0.152794	0.199670	0.259140	0.644415	0.139035	0.359941	0.185658	0.287748	0.144222	0.263987	0.282571	0.338375	0.157928	0.328759	0.242721	0.249250	0.376804	0.430742	0.264849	0.568857	0.208370	0.263566	0.395506	0.296536	0.203512	0.224339	0.334926	0.552895	0.066792	0.186049	0.330516	0.160726
32	0.124896	0.203448	0.396117	0.472294	0.126085	0.176285	0.295878	0.806832	0.178745	0.284543	0.474656	0.564928	0.063221	0.193871	0.312943	0.443838	0.102204	0.210229	0.276122	0.389776	0.177195	0.486275	0.290455	0.207274	0.193613	0.268600	0.468519	0.416588	0.380122	0.423200	0.492505	0.704449	0.287212	0.335278	0.415518	0.655842	0.112877	0.350598	0.180253	0.282239	0.171981	0.257112	0.271526	0.333259	0.156724	0.313682	0.406287	0.342717	0.317987	0.448600	0.327378	0.565154	0.179686	0.239517	0.367376	0.292786	0.192519	0.211116	0.276849	0.551027	0.055962	0.222888	0.320446	0.156075
33	0.137749	0.207729	0.392767	0.317371	0.204526	0.206206	0.373355	0.824267	0.189524	0.275389	0.475218	0.553788	0.063400	0.212599	0.290787	0.340702	0.150603	0.254450	0.333005	0.396861	0.161078	0.473258	0.418159	0.215690	0.222226	0.330014	0.506346	0.437316	0.367209	0.424611	0.509348	0.766309	0.365434	0.413052	0.468044	0.674782	0.102166	0.351935	0.180393	0.245263	0.176500	0.230931	0.291640	0.322723	0.162345	0.286298	0.520815	0.393783	0.303655	0.427834	0.417252	0.540854	0.177372	0.229527	0.342862	0.252819	0.192590	0.198773	0.265052	0.550283	0.092508	0.324200	0.311256	0.142245
34	0.146115	0.227936	0.354997	0.247031	0.255926	0.215904	0.424272	0.833300	0.188736	0.271683	0.486982	0.507477	0.077432	0.223721	0.250653	0.288846	0.179669	0.285364	0.336871	0.398853	0.143479	0.445230	0.496205	0.199698	0.250259	0.375891	0.549394	0.417257	0.424879	0.413066	0.543114	0.795279	0.364450	0.405647	0.468500	0.780767	0.104591	0.366077	0.171380	0.197067	0.182749	0.191833	0.320952	0.322695	0.151251	0.243052	0.549808	0.432872	0.300033	0.427324	0.480182	0.557290	0.163214	0.228146	0.373511	0.246777	0.201222	0.192841	0.264089	0.549601	0.096097	0.328218	0.307693	0.138824
35	0.170182	0.274538	0.312586	0.246553	0.261130	0.229258	0.577126	0.950799	0.189109	0.270085	0.536422	0.450074	0.087434	0.260169	0.288444	0.458486	0.183181	0.294455	0.340501	0.411288	0.143629	0.425429	0.493865	0.213416	0.235612	0.365691	0.544861	0.417324	0.479843	0.362507	0.564395	0.796537	0.414746	0.419820	0.504287	0.886544	0.111034	0.421494	0.142459	0.239882	0.183875	0.148083	0.326715	0.318776	0.207726	0.242196	0.599339	0.439966	0.267672	0.416905	0.477393	0.559007	0.151330	0.230198	0.417280	0.267632	0.218555	0.188193	0.275507	0.545108	0.097962	0.327590	0.292035	0.143316
36	0.172885	0.292025	0.243519	0.202060	0.279463	0.253690	0.649333	1.126546	0.179980	0.261449	0.564637	0.457737	0.092010	0.268350	0.500688	0.576700	0.194359	0.292013	0.373990	0.444912	0.138656	0.423139	0.490864	0.255676	0.225957	0.360384	0.568056	0.385405	0.477520	0.365283	0.560751	0.782001	0.503290	0.447919	0.622156	0.933125	0.098715	0.401288	0.130174	0.374832	0.183273	0.135398	0.323409	0.313545	0.220071	0.215560	0.615081	0.490047	0.243549	0.409044	0.554152	0.557089	0.139753	0.199567	0.418367	0.268018	0.219738	0.180276	0.288587	0.519740	0.103131	0.311103	0.300664	0.199886
37	0.171195	0.265284	0.216890	0.190338	0.324203	0.278891	0.658365	1.239853	0.162580	0.252646	0.559134	0.488720	0.111063	0.264856	0.589632	0.606687	0.233928	0.294684	0.379205	0.459187	0.136702	0.419673	0.498625	0.270160	0.223560	0.329058	0.600773	0.344235	0.477492	0.452718	0.546632	0.671349	0.534054	0.451195	0.669577	0.934506	0.117177	0.410550	0.127616	0.507818	0.182572	0.133992	0.326429	0.319079	0.223994	0.214249	0.639913	0.565266	0.236027	0.403147	0.652328	0.559365	0.151332	0.156211	0.439302	0.232793	0.219976	0.174824	0.259636	0.411642	0.128332	0.300864	0.352716	0.210067
38	0.165865	0.271455	0.370771	0.227687	0.355012	0.255573	0.656954	1.230255	0.159349	0.260137	0.550961	0.512002	0.200845	0.279446	0.597155	0.643627	0.240787	0.287439	0.379920	0.453852	0.135028	0.362247	0.576743	0.274129	0.219664	0.311226	0.625459	0.338388	0.477109	0.470528	0.508930	0.504197	0.544277	0.472434	0.678349	0.870160	0.120386	0.376213	0.132290	0.594887	0.183638	0.142097	0.336536	0.319180	0.219688	0.151379	0.671181	0.601854	0.237281	0.401363	0.744379	0.572575	0.152112	0.141653	0.474184	0.231336	0.221379	0.174536	0.264276	0.341041	0.145078	0.302717	0.369503	0.244260
39	0.164762	0.305797	0.472192	0.284348	0.377120	0.276360	0.629734	1.100953	0.167310	0.274093	0.544264	0.521761	0.221730	0.276772	0.608714	0.643782	0.250434	0.295694	0.413063	0.422017	0.134885	0.230273	0.634895	0.285240	0.203364	0.304284	0.719303	0.330811	0.393860	0.417139	0.437162	0.485424	0.540306	0.479197	0.678359	0.734823	0.148625	0.353270	0.167665	0.635651	0.205018	0.178901	0.365228	0.316427	0.240388	0.230732	0.719048	0.634240	0.236605	0.396045	0.773212	0.572721	0.155849	0.162616	0.545066	0.253778	0.223097	0.177350	0.288989	0.331425	0.160623	0.315720	0.350140	0.336307
40	0.194828	0.311433	0.487213	0.342092	0.370912	0.277148	0.617808	0.990429	0.183638	0.274461	0.544048	0.524497	0.222689	0.269715	0.629078	0.679777	0.251548	0.293802	0.506119	0.354144	0.126856	0.201580	0.636167	0.273064	0.199678	0.302090	0.742785	0.341338	0.335447	0.372995	0.417544	0.434997	0.507517	0.435703	0.629768	0.685205	0.221721	0.363594	0.409956	0.661161	0.235965	0.218833	0.362313	0.317931	0.263910	0.266460	0.758951	0.630824	0.234001	0.395341	0.774255	0.527597	0.156488	0.199733	0.598165	0.267350	0.220485	0.176308	0.293465	0.329664	0.177047	0.336261	0.349597	0.371538
41	0.228822	0.313802	0.496439	0.352300	0.335069	0.366769	0.571626	0.982760	0.197483	0.306169	0.530936	0.524086	0.220686	0.266218	0.671389	0.723473	0.248462	0.279143	0.559858	0.317706	0.129160	0.214645	0.627838	0.284361	0.202378	0.299448	0.700961	0.404926	0.353806	0.375210	0.414616	0.263060	0.429893	0.309892	0.560145	0.679630	0.253926	0.379286	0.646694	0.663648	0.241014	0.212234	0.387747	0.307387	0.265974	0.281635	0.653833	0.555604	0.219024	0.295202	0.759616	0.489781	0.164753	0.188008	0.593555	0.282829	0.191496	0.157421	0.319250	0.277228	0.208645	0.353247	0.418247	0.371129
42	0.237156	0.327822	0.581728	0.373907	0.289596	0.419036	0.529035	0.984648	0.200579	0.311333	0.508327	0.519275	0.222403	0.258474	0.673696	0.793515	0.235033	0.250962	0.548117	0.306789	0.128614	0.214110	0.627101	0.294237	0.171123	0.218506	0.675429	0.484050	0.312809	0.439290	0.454178	0.130216	0.415626	0.285974	0.566935	0.599897	0.260364	0.398480	0.691357	0.693890	0.237544	0.197019	0.436251	0.294383	0.268448	0.352788	0.624493	0.531724	0.227625	0.228919	0.733689	0.489801	0.166044	0.183193	0.601780	0.288077	0.147438	0.130581	0.321860	0.209985	0.227538	0.296731	0.469716	0.391025
43	0.251754	0.350459	0.822616	0.493914	0.320782	0.572444	0.347437	0.874960	0.199490	0.290678	0.550306	0.514465	0.224264	0.226562	0.673742	0.863917	0.207329	0.211477	0.528202	0.391836	0.113602	0.212850	0.555012	0.292325	0.148860	0.134680	0.594833	0.523230	0.201644	0.772245	0.461203	0.124311	0.409168	0.279147	0.546627	0.421592	0.261771	0.443879	0.690979	0.791371	0.236523	0.195871	0.522443	0.290055	0.255340	0.375078	0.577612	0.513178	0.234938	0.238900	0.681937	0.460301	0.174839	0.197679	0.627813	0.321861	0.129283	0.132034	0.314054	0.245609	0.220540	0.233283	0.488811	0.479850
44	0.243584	0.337231	0.885053	0.627971	0.339240	0.709306	0.176000	0.630223	0.199281	0.270831	0.577859	0.491915	0.221588	0.210240	0.665022	0.897521	0.189678	0.170322	0.529867	0.506371	0.109697	0.215724	0.486763	0.291329	0.198515	0.160074	0.581899	0.522576	0.217814	0.785196	0.456420	0.125669	0.282865	0.206433	0.440948	0.221794	0.261751	0.447603	0.692648	0.895315	0.218711	0.196018	0.628395	0.332476	0.219987	0.384167	0.560584	0.498518	0.234137	0.242091	0.656787	0.407548	0.172723	0.198508	0.599302	0.331232	0.133647	0.133284	0.449874	0.358623	0.219984	0.236343	0.511435	0.516662
45	0.232583	0.300135	0.873719	0.739101	0.308807	0.721556	0.154840	0.356137	0.191849	0.269466	0.570226	0.420767	0.242941	0.192806	0.637710	0.849577	0.193728	0.153262	0.526914	0.550876	0.114298	0.215997	0.481417	0.271695	0.200263	0.181225	0.562038	0.534491	0.218352	0.760520	0.456916	0.184495	0.181848	0.196814	0.323944	0.158795	0.271584	0.432828	0.735824	0.958322	0.205113	0.196280	0.690240	0.371616	0.218859	0.385292	0.557853	0.421606	0.213878	0.227294	0.648668	0.400415	0.176679	0.191452	0.551929	0.315315	0.133487	0.134898	0.621742	0.434348	0.235657	0.247747	0.509757	0.510571
46	0.264166	0.314609	0.869898	0.768291	0.296362	0.769980	0.146765	0.255536	0.171250	0.266887	0.586655	0.391521	0.308481	0.265015	0.479681	0.777856	0.173936	0.144012	0.510102	0.541664	0.107901	0.214324	0.477925	0.246270	0.200101	0.181024	0.561230	0.563599	0.216557	0.760977	0.465364	0.202592	0.113603	0.170449	0.280391	0.161812	0.302359	0.409132	0.852277	0.949277	0.199761	0.199805	0.686014	0.381111	0.218791	0.440385	0.528492	0.304271	0.197497	0.195048	0.567312	0.413635	0.174494	0.187397	0.559645	0.308206	0.132564	0.143549	0.699696	0.455944	0.238797	0.254159	0.474548	0.503492
47	0.288331	0.324720	0.874006	0.760304	0.287040	0.885802	0.114791	0.255489	0.176357	0.271394	0.613280	0.384785	0.351101	0.327425	0.366987	0.755263	0.122510	0.125854	0.507306	0.535920	0.106890	0.219831	0.463645	0.236902	0.200276	0.177281	0.556765	0.580644	0.222414	0.760589	0.470845	0.233886	0.094944	0.125970	0.269051	0.149108	0.362026	0.543889	0.912773	0.901663	0.194836	0.211466	0.682880	0.396459	0.202232	0.465640	0.461391	0.186957	0.195559	0.189893	0.426664	0.440425	0.162332	0.189335	0.570943	0.306962	0.117284	0.154605	0.704093	0.481713	0.222217	0.253724	0.470390	0.500757
48	0.301222	0.272300	0.807051	0.749657	0.293780	0.929906	0.151348	0.267277	0.175601	0.273708	0.618562	0.385483	0.321478	0.329793	0.358670	0.729806	0.107820	0.114551	0.505194	0.547077	0.102690	0.206513	0.359619	0.237497	0.216912	0.187323	0.465730	0.579715	0.307527	0.776174	0.460424	0.254792	0.108607	0.156360	0.259199	0.149593	0.383028	0.624694	0.924388	0.831978	0.192604	0.225043	0.685363	0.469289	0.165965	0.438116	0.332884	0.098821	0.196634	0.190653	0.259951	0.575109	0.161998	0.196340	0.545932	0.290330	0.089067	0.184354	0.701714	0.527437	0.219959	0.246784	0.505690	0.468110
49	0.299810	0.263411	0.784207	0.740455	0.296970	0.903392	0.257811	0.382614	0.170990	0.283759	0.587005	0.362344	0.305587	0.324546	0.361409	0.739316	0.090738	0.117739	0.470008	0.592043	0.093740	0.181861	0.242585	0.293645	0.230590	0.195114	0.400849	0.556553	0.320399	0.777164	0.489431	0.277041	0.106609	0.158748	0.254283	0.163297	0.381002	0.629733	0.923998	0.783241	0.193540	0.233977	0.688634	0.535491	0.159872	0.439908	0.264498	0.104723	0.215471	0.235422	0.202650	0.702740	0.149781	0.205652	0.479393	0.302735	0.091855	0.214306	0.715779	0.533142	0.208070	0.219490	0.507675	0.429775
50	0.270016	0.264144	0.790074	0.776240	0.348476	1.022424	0.271018	0.412433	0.168664	0.309978	0.554255	0.320786	0.312111	0.341780	0.362380	0.723004	0.091410	0.140448	0.357779	0.647902	0.086251	0.146930	0.221211	0.421066	0.229426	0.196941	0.394099	0.481171	0.298538	0.743917	0.404116	0.280163	0.098087	0.165847	0.215826	0.174101	0.367282	0.619594	0.913433	0.752638	0.215565	0.232298	0.727957	0.564066	0.293544	0.424299	0.314127	0.230850	0.233567	0.259302	0.196010	0.734871	0.117477	0.182448	0.423637	0.378851	0.093094	0.225761	0.739576	0.541343	0.191350	0.172421	0.503292	0.435385
51	0.263954	0.264098	0.778225	0.793644	0.428647	1.132269	0.308825	0.432305	0.168422	0.318400	0.537102	0.312658	0.340707	0.378876	0.313486	0.702687	0.105813	0.152615	0.324267	0.702589	0.083724	0.124897	0.228027	0.547248	0.227352	0.196849	0.409151	0.354604	0.326049	0.414942	0.361410	0.282562	0.101593	0.181360	0.192933	0.172188	0.328105	0.600323	0.797695	0.742019	0.222852	0.220900	0.841909	0.571983	0.419159	0.428525	0.319869	0.334149	0.249865	0.280206	0.193525	0.740990	0.114290	0.167118	0.401267	0.457887	0.089054	0.237096	0.779666	0.563980	0.150398	0.131259	0.446082	0.449961
52	0.269824	0.238936	0.671765	0.757251	0.462422	1.143189	0.410785	0.457269	0.164872	0.309689	0.563483	0.322039	0.364555	0.405268	0.321476	0.631887	0.148808	0.239417	0.343684	0.705142	0.175829	0.143074	0.250720	0.600449	0.204333	0.169956	0.432641	0.301345	0.344396	0.398653	0.401277	0.282257	0.114220	0.184624	0.150834	0.163317	0.314616	0.591314	0.641846	0.737382	0.204897	0.218308	0.905975	0.574698	0.460558	0.445345	0.362044	0.450039	0.255564	0.302306	0.183556	0.751222	0.186195	0.181347	0.409858	0.518730	0.085739	0.255306	0.795280	0.619913	0.126476	0.122597	0.457769	0.411786
53	0.278368	0.217619	0.404805	0.681149	0.456532	1.138280	0.499539	0.522468	0.150816	0.297149	0.632415	0.324685	0.376607	0.409821	0.425195	0.525699	0.154600	0.250130	0.344839	0.652221	0.270107	0.180774	0.335985	0.603264	0.153573	0.143384	0.436152	0.319192	0.357343	0.396547	0.459670	0.270217	0.167420	0.185891	0.106618	0.145546	0.309651	0.580035	0.628698	0.695121	0.199831	0.237952	0.921076	0.573744	0.736261	0.633426	0.363951	0.475919	0.243040	0.303889	0.204317	0.806881	0.226318	0.164561	0.462670	0.500058	0.088399	0.259443	0.795059	0.698454	0.127575	0.122241	0.476791	0.312817
54	0.276445	0.213115	0.366569	0.544348	0.445586	1.111556	0.514188	0.541544	0.132798	0.323078	0.673933	0.323384	0.376351	0.419523	0.516702	0.443942	0.153425	0.251559	0.375789	0.580159	0.296545	0.186586	0.390910	0.657753	0.147724	0.119159	0.432101	0.304422	0.359611	0.374556	0.449999	0.283053	0.192950	0.170983	0.106700	0.296999	0.308699	0.569349	0.628464	0.558290	0.199643	0.253211	0.905304	0.573867	0.899119	0.763623	0.466947	0.498511	0.244212	0.303090	0.266372	0.877523	0.245076	0.204078	0.483834	0.507233	0.104805	0.279582	0.787278	0.787060	0.122310	0.121467	0.485213	0.293100
55	0.268604	0.209035	0.386420	0.431352	0.443296	1.023163	0.550830	0.560072	0.134378	0.369331	0.719395	0.333951	0.362696	0.417471	0.541162	0.386206	0.144081	0.253510	0.374463	0.537498	0.300069	0.193656	0.393204	0.745726	0.161810	0.115954	0.402630	0.247153	0.367815	0.412035	0.411526	0.265393	0.290656	0.233938	0.098453	0.378372	0.303909	0.565067	0.620582	0.391240	0.201344	0.254537	0.868062	0.566737	0.915316	0.732234	0.493585	0.598810	0.256939	0.317341	0.293749	0.929901	0.258622	0.325977	0.498238	0.544080	0.125642	0.313336	0.824406	0.828663	0.092650	0.121157	0.479781	0.280808
56	0.228697	0.173543	0.384595	0.428246	0.463471	0.999024	0.553198	0.569566	0.132662	0.366984	0.704874	0.321986	0.309530	0.374455	0.546212	0.369719	0.143829	0.253817	0.369822	0.524349	0.359432	0.259340	0.400856	0.800100	0.162841	0.115732	0.369064	0.196525	0.304093	0.388956	0.414495	0.252458	0.312703	0.259523	0.145309	0.380091	0.300977	0.552999	0.534280	0.245033	0.206879	0.266487	0.798799	0.537878	0.935508	0.765347	0.532704	0.689812	0.262804	0.324302	0.302451	0.947737	0.296277	0.333698	0.503396	0.582526	0.152719	0.337245	0.820374	0.815671	0.094598	0.164300	0.459429	0.294998
57	0.204990	0.157770	0.342632	0.431889	0.481463	1.004282	0.515239	0.489572	0.135549	0.369435	0.648345	0.314899	0.254014	0.320003	0.538549	0.368806	0.147554	0.265159	0.376033	0.523966	0.436037	0.326856	0.408964	0.813577	0.133283	0.098181	0.316462	0.203863	0.270100	0.376306	0.364709	0.264230	0.369280	0.274895	0.198110	0.374817	0.266500	0.502672	0.313851	0.191944	0.213800	0.280304	0.718116	0.495354	0.952205	0.818709	0.544824	0.729287	0.270094	0.338290	0.370410	0.937590	0.316035	0.367353	0.501656	0.601624	0.191073	0.394691	0.735786	0.769164	0.087338	0.184658	0.414422	0.362168
58	0.192181	0.157886	0.341807	0.448881	0.461136	0.875329	0.517809	0.442500	0.140813	0.369868	0.632515	0.311294	0.238299	0.296349	0.542774	0.358403	0.161929	0.285995	0.380694	0.507938	0.544259	0.368276	0.414964	0.814367	0.117756	0.084122	0.287719	0.210571	0.281800	0.407803	0.359158	0.271933	0.369701	0.272123	0.338082	0.366266	0.188786	0.335287	0.158262	0.196745	0.230707	0.302988	0.686675	0.492952	0.953867	0.834131	0.537781	0.728779	0.281004	0.366427	0.409565	0.826346	0.365443	0.453110	0.520745	0.606524	0.222886	0.460828	0.610277	0.736384	0.087296	0.188666	0.379451	0.444153
59	0.192983	0.155767	0.323043	0.437099	0.363705	0.621530	0.499405	0.411683	0.148999	0.390225	0.629589	0.317896	0.237338	0.293628	0.548247	0.339738	0.173154	0.305583	0.377683	0.441743	0.588139	0.378408	0.417416	0.791720	0.117301	0.078267	0.283273	0.231221	0.244787	0.395527	0.322308	0.266038	0.396994	0.281399	0.362644	0.367823	0.166388	0.183494	0.135120	0.215142	0.228494	0.301083	0.685472	0.533639	0.915051	0.815691	0.514727	0.684095	0.277673	0.385621	0.428728	0.703829	0.420485	0.454508	0.526119	0.591655	0.224405	0.478441	0.552320	0.729755	0.153776	0.314847	0.409978	0.484472
60	0.196291	0.153815	0.319908	0.381475	0.286825	0.437436	0.419148	0.379556	0.180645	0.432388	0.608468	0.344253	0.238031	0.278498	0.545096	0.328660	0.177323	0.318686	0.371130	0.343885	0.594117	0.456832	0.421807	0.732227	0.118497	0.080902	0.255212	0.243150	0.225969	0.433040	0.315570	0.317805	0.409864	0.286638	0.382088	0.374724	0.186529	0.200923	0.144307	0.214996	0.227268	0.291741	0.717338	0.535554	0.881012	0.805170	0.511532	0.633037	0.268064	0.387709	0.436131	0.652733	0.440076	0.466152	0.511490	0.546148	0.225267	0.486280	0.569295	0.716217	0.237650	0.505660	0.396824	0.496098
61	0.179824	0.154726	0.290118	0.374473	0.280901	0.424617	0.305947	0.289150	0.187095	0.465765	0.595360	0.353890	0.206314	0.239879	0.550901	0.359768	0.189534	0.371991	0.320118	0.213751	0.595575	0.457985	0.422121	0.636462	0.119863	0.086861	0.209534	0.213920	0.203701	0.412036	0.212566	0.332665	0.424669	0.298247	0.489050	0.394270	0.201870	0.227873	0.139579	0.210717	0.230496	0.315257	0.814373	0.473227	0.807358	0.750412	0.491487	0.571873	0.236037	0.387313	0.435827	0.641172	0.470364	0.470068	0.531313	0.480069	0.238589	0.557880	0.581682	0.700016	0.264725	0.575617	0.372387	0.487268
62	0.130861	0.156373	0.242820	0.364043	0.278942	0.402618	0.283098	0.256394	0.197400	0.503154	0.604171	0.354746	0.172327	0.194096	0.552463	0.436679	0.169087	0.330171	0.273678	0.186233	0.635167	0.507051	0.394300	0.569962	0.123216	0.086952	0.225380	0.243012	0.205868	0.434258	0.203216	0.310748	0.401620	0.312278	0.523341	0.401835	0.205492	0.250623	0.129774	0.209354	0.229828	0.321077	0.878868	0.410725	0.449782	0.520772	0.443150	0.566343	0.205787	0.371119	0.428532	0.621502	0.523921	0.486207	0.520341	0.417691	0.239896	0.553959	0.579754	0.704776	0.270179	0.587136	0.365915	0.482593
63	0.096672	0.174987	0.200257	0.350580	0.266863	0.396651	0.222434	0.213233	0.200305	0.503409	0.615199	0.354502	0.202897	0.220221	0.479124	0.472855	0.164183	0.324668	0.262471	0.176112	0.744536	0.569291	0.316223	0.563371	0.134021	0.082500	0.231416	0.437256	0.204816	0.409261	0.213594	0.303994	0.354687	0.300107	0.525941	0.344472	0.218739	0.269148	0.133225	0.214166	0.211987	0.327586	0.892785	0.384381	0.373682	0.468005	0.330934	0.518486	0.209767	0.378265	0.400152	0.538276	0.600288	0.511186	0.420221	0.430638	0.240361	0.559718	0.550007	0.697832	0.273933	0.590217	0.330071	0.485216
64	0.094060	0.241285	0.219123	0.350049	0.227645	0.364260	0.205885	0.172741	0.199365	0.492066	0.636540	0.333973	0.278794	0.275873	0.373114	0.460080	0.169230	0.348083	0.228911	0.152394	0.736544	0.565854	0.230566	0.502158	0.149863	0.083009	0.211555	0.472072	0.208819	0.430940	0.288683	0.322534	0.341975	0.332220	0.524366	0.385787	0.232853	0.237104	0.186072	0.205516	0.189989	0.318451	0.835450	0.399138	0.339497	0.458956	0.314697	0.386711	0.206896	0.377328	0.353422	0.410677	0.619172	0.508923	0.380588	0.400944	0.242710	0.550307	0.515599	0.674446	0.273037	0.585506	0.339104	0.495292
65	0.090248	0.243856	0.226614	0.336936	0.182351	0.316476	0.214538	0.242188	0.208993	0.501122	0.633950	0.289618	0.310591	0.325927	0.343448	0.469505	0.171119	0.353824	0.220984	0.177259	0.734897	0.564430	0.224159	0.356996	0.166481	0.094858	0.175089	0.471030	0.213227	0.438577	0.333391	0.315468	0.294652	0.349900	0.529417	0.408905	0.233215	0.220343	0.228080	0.217670	0.173874	0.302341	0.799194	0.459685	0.264130	0.344879	0.239380	0.238504	0.208843	0.353206	0.337322	0.295742	0.621482	0.450714	0.362393	0.348448	0.249259	0.543134	0.494776	0.620094	0.276091	0.582563	0.337157	0.493057
66	0.126581	0.381937	0.238814	0.333182	0.148280	0.255335	0.195040	0.449773	0.233841	0.518575	0.591321	0.279125	0.332539	0.351543	0.424641	0.588400	0.173923	0.363272	0.225811	0.197119	0.714197	0.536383	0.213549	0.187543	0.403087	0.349845	0.181830	0.471792	0.189078	0.442390	0.383002	0.305167	0.268927	0.353168	0.485282	0.411200	0.238067	0.246383	0.284637	0.229990	0.169363	0.289103	0.792348	0.535598	0.189880	0.238210	0.238130	0.162830	0.221292	0.351486	0.316728	0.280553	0.606153	0.445023	0.344005	0.282100	0.247976	0.542216	0.494727	0.523971	0.273915	0.570514	0.337213	0.471122
67	0.127969	0.398372	0.234519	0.326072	0.145909	0.218508	0.221773	0.537193	0.239260	0.509354	0.527112	0.309385	0.366053	0.384613	0.439370	0.665708	0.171720	0.358590	0.213017	0.197301	0.672761	0.495918	0.194974	0.169823	0.487276	0.406313	0.207853	0.482445	0.181688	0.455012	0.393926	0.304165	0.266329	0.354913	0.482372	0.416163	0.218837	0.273331	0.322664	0.233814	0.179536	0.295141	0.797651	0.586290	0.140760	0.228203	0.242357	0.156057	0.209465	0.348398	0.241286	0.325747	0.595731	0.419074	0.312755	0.256218	0.237837	0.521301	0.484375	0.385202	0.276719	0.570796	0.338072	0.408309
68	0.128008	0.394198	0.232876	0.282488	0.178993	0.204142	0.243174	0.638285	0.232024	0.442494	0.476218	0.327014	0.402616	0.407511	0.437305	0.676021	0.156551	0.334135	0.215156	0.192837	0.588723	0.470829	0.179806	0.331556	0.503616	0.420242	0.297455	0.491197	0.157880	0.395791	0.398485	0.257075	0.222830	0.334565	0.456972	0.413572	0.251331	0.279412	0.344230	0.237182	0.201101	0.313964	0.810280	0.612257	0.111852	0.219616	0.286163	0.151112	0.204331	0.324610	0.242058	0.382809	0.571776	0.321511	0.299549	0.252682	0.233832	0.508262	0.415933	0.302949	0.273196	0.569317	0.393387	0.312705
69	0.129995	0.393312	0.220165	0.211929	0.230120	0.223444	0.334116	0.649623	0.234554	0.433070	0.423716	0.319736	0.410412	0.413471	0.418154	0.672292	0.167033	0.351421	0.199630	0.194875	0.540565	0.465096	0.155176	0.446009	0.535467	0.442423	0.304859	0.528856	0.141693	0.367887	0.407980	0.209193	0.252235	0.327100	0.413714	0.406726	0.283259	0.290544	0.344608	0.218028	0.220757	0.324262	0.826346	0.618325	0.111954	0.213419	0.261380	0.141989	0.511778	0.394228	0.270131	0.397813	0.541934	0.316350	0.292996	0.251315	0.208648	0.481206	0.402989	0.299854	0.225550	0.456648	0.365528	0.285646
70	0.255100	0.442761	0.246197	0.168250	0.226016	0.226050	0.378698	0.704137	0.253986	0.443588	0.411431	0.315757	0.410573	0.417099	0.392737	0.670605	0.165514	0.359951	0.175319	0.192638	0.534845	0.388361	0.110590	0.492825	0.588256	0.481716	0.316312	0.573845	0.140323	0.340128	0.408705	0.203972	0.301313	0.327149	0.282486	0.374047	0.294695	0.308286	0.362172	0.206878	0.224224	0.327043	0.833153	0.611389	0.127639	0.211472	0.266468	0.229936	0.572055	0.440006	0.266787	0.400711	0.533250	0.312266	0.286203	0.239479	0.168247	0.426438	0.387262	0.310752	0.153654	0.240816	0.371909	0.303691
71	0.514804	0.547578	0.308969	0.169048	0.225923	0.187726	0.412016	0.814958	0.260757	0.446198	0.410563	0.331434	0.405989	0.407902	0.359340	0.632257	0.141349	0.303847	0.150239	0.188320	0.540739	0.389182	0.152894	0.498154	0.602435	0.508960	0.301218	0.573579	0.113528	0.331173	0.407581	0.198300	0.345662	0.326470	0.293101	0.363403	0.289066	0.308165	0.419993	0.216772	0.226125	0.325619	0.831973	0.585135	0.142457	0.206671	0.298955	0.285103	0.575047	0.423144	0.311206	0.420634	0.503591	0.306882	0.252727	0.230605	0.137146	0.365160	0.379146	0.312523	0.170517	0.207324	0.353180	0.332335
72	0.635229	0.585270	0.332458	0.180646	0.248187	0.192576	0.423494	0.911253	0.263574	0.443583	0.406530	0.421071	0.400826	0.406297	0.374361	0.577809	0.153857	0.301409	0.148420	0.219814	0.487694	0.347893	0.166282	0.533159	0.602575	0.516292	0.295426	0.439714	0.107168	0.300020	0.368345	0.161915	0.378938	0.346430	0.313596	0.353496	0.280404	0.297174	0.434237	0.222934	0.226149	0.325946	0.821674	0.548477	0.135406	0.192953	0.320443	0.281949	0.576837	0.418856	0.360662	0.444028	0.430453	0.275238	0.258921	0.237630	0.144142	0.355093	0.391864	0.344348	0.165751	0.180088	0.332667	0.353531
73	0.743474	0.627772	0.331163	0.183308	0.271115	0.205831	0.465301	0.928919	0.238903	0.406392	0.419863	0.578642	0.376526	0.391650	0.382609	0.569321	0.156037	0.302577	0.142704	0.264492	0.194192	0.236642	0.167840	0.585554	0.618038	0.523851	0.290961	0.396296	0.077304	0.289730	0.311415	0.108504	0.460087	0.365097	0.304539	0.333397	0.270977	0.279234	0.433588	0.213979	0.226094	0.311638	0.745453	0.521315	0.155129	0.207519	0.564171	0.311703	0.575932	0.426269	0.403835	0.471744	0.278697	0.224056	0.252582	0.211954	0.145007	0.304434	0.363959	0.420714	0.163973	0.181678	0.298344	0.353553
74	1.024035	0.759365	0.344329	0.174495	0.292210	0.214686	0.469046	0.860340	0.220811	0.365712	0.414236	0.726149	0.323569	0.343500	0.382318	0.595258	0.150458	0.269109	0.154761	0.268902	0.219967	0.245228	0.165137	0.627062	0.639997	0.541227	0.289519	0.418380	0.084043	0.257449	0.261031	0.087527	0.552833	0.433372	0.305717	0.328076	0.256046	0.277160	0.430358	0.201596	0.221961	0.316883	0.639239	0.515341	0.170839	0.179558	0.797504	0.322926	0.586910	0.475751	0.415894	0.496042	0.210604	0.196594	0.247274	0.213142	0.122262	0.149934	0.332280	0.496793	0.159495	0.178447	0.293754	0.350129
75	1.037934	0.747865	0.365168	0.158777	0.285160	0.214887	0.460252	0.811942	0.212173	0.310850	0.367250	0.815893	0.298004	0.295319	0.384080	0.591640	0.161999	0.264593	0.212073	0.248438	0.290416	0.277795	0.184851	0.651165	0.536788	0.432308	0.286896	0.438405	0.116466	0.333896	0.243185	0.187330	0.595672	0.464617	0.376870	0.348549	0.247285	0.299905	0.408040	0.213755	0.214336	0.323366	0.513093	0.516797	0.168783	0.178125	0.823739	0.347015	0.597446	0.522921	0.421483	0.492059	0.179955	0.168871	0.265391	0.236169	0.124651	0.140541	0.296703	0.526721	0.158668	0.172982	0.292745	0.349354
76	1.037398	0.692293	0.368091	0.165391	0.263317	0.202555	0.446193	0.737793	0.236626	0.281495	0.332160	0.844460	0.284729	0.275133	0.318683	0.474792	0.184923	0.263490	0.212081	0.255462	0.302180	0.300719	0.250416	0.659838	0.447863	0.366447	0.284926	0.441003	0.120048	0.359024	0.234324	0.238111	0.592235	0.469925	0.426376	0.359900	0.246762	0.297559	0.389564	0.213341	0.210351	0.318636	0.335390	0.512041	0.200252	0.284015	0.819074	0.438522	0.601794	0.528886	0.421015	0.457021	0.176011	0.167360	0.295261	0.254962	0.124503	0.113119	0.267954	0.534888	0.158263	0.166686	0.298725	0.344940
77	1.037449	0.695709	0.375843	0.201219	0.219921	0.151778	0.378956	0.734582	0.315483	0.334067	0.299107	0.847009	0.261631	0.241271	0.348387	0.366311	0.190268	0.262446	0.289982	0.294766	0.304768	0.308819	0.254239	0.647382	0.435734	0.359258	0.202093	0.436351	0.184007	0.544084	0.221614	0.241618	0.580321	0.484647	0.438171	0.367122	0.241399	0.300242	0.351722	0.200919	0.210103	0.305514	0.331513	0.494131	0.245270	0.373514	0.876810	0.560113	0.603710	0.524797	0.414275	0.401286	0.182057	0.167552	0.309659	0.243698	0.140045	0.135874	0.230425	0.533611	0.154326	0.151086	0.269977	0.346690
78	1.041194	0.697950	0.384164	0.242496	0.220354	0.147645	0.340516	0.702512	0.368774	0.378602	0.292834	0.857508	0.207832	0.201438	0.387863	0.396426	0.211503	0.273034	0.324876	0.299966	0.307501	0.302029	0.269603	0.584048	0.404918	0.345491	0.204663	0.384350	0.188843	0.546141	0.244315	0.266913	0.550317	0.484134	0.446531	0.373593	0.241398	0.314946	0.320363	0.183476	0.210378	0.294817	0.330797	0.462891	0.257515	0.382486	0.951832	0.621930	0.586861	0.513752	0.372963	0.348237	0.180925	0.169296	0.332478	0.232696	0.161158	0.160825	0.281796	0.529544	0.154482	0.148585	0.206245	0.324685
79	1.041550	0.693733	0.378652	0.251077	0.217518	0.156199	0.328268	0.612953	0.364088	0.358035	0.289663	0.905030	0.212070	0.198974	0.409178	0.560510	0.209367	0.226300	0.354765	0.296249	0.316740	0.300435	0.277087	0.506455	0.328995	0.286877	0.208245	0.315072	0.188557	0.547496	0.249197	0.309491	0.512515	0.469590	0.447019	0.390204	0.173683	0.333440	0.304954	0.171584	0.208027	0.289154	0.312851	0.431866	0.261160	0.384072	0.976893	0.590049	0.316364	0.412382	0.336395	0.345279	0.150022	0.141032	0.339674	0.234456	0.167418	0.167201	0.324442	0.552660	0.151984	0.145185	0.173068	0.273404
80	0.993410	0.641110	0.352271	0.271276	0.185423	0.129216	0.310613	0.533969	0.354773	0.339845	0.274223	0.964787	0.216438	0.194206	0.407857	0.673021	0.208937	0.185797	0.364724	0.299201	0.319114	0.295444	0.279815	0.460567	0.304734	0.230760	0.208919	0.286461	0.191404	0.554647	0.348475	0.317374	0.504978	0.459109	0.434218	0.333829	0.135998	0.331966	0.300229	0.171925	0.188579	0.272119	0.289712	0.396097	0.251104	0.380134	0.966607	0.582721	0.255535	0.386801	0.331655	0.339382	0.118859	0.074364	0.343962	0.235292	0.177735	0.170469	0.320645	0.583687	0.132450	0.123004	0.188951	0.240509
81	0.884528	0.557667	0.309596	0.272582	0.146650	0.094492	0.232278	0.507196	0.357549	0.338397	0.281594	1.004718	0.231145	0.204235	0.433253	0.694729	0.201356	0.178953	0.365050	0.309634	0.308363	0.290610	0.259521	0.461245	0.306215	0.217790	0.217309	0.299040	0.196283	0.564170	0.445616	0.324611	0.434451	0.384658	0.476779	0.327510	0.103818	0.312869	0.244221	0.170723	0.174541	0.259151	0.234375	0.376541	0.248842	0.374560	0.936820	0.577160	0.247639	0.388018	0.286487	0.305943	0.124736	0.071658	0.338153	0.229056	0.178498	0.167820	0.325284	0.615880	0.098672	0.101731	0.205804	0.210514
82	0.837381	0.550344	0.305999	0.270097	0.095899	0.075017	0.273759	0.495649	0.366009	0.333537	0.274730	1.031007	0.245720	0.208274	0.559497	0.692326	0.193525	0.177932	0.361483	0.293719	0.294664	0.262515	0.255613	0.447879	0.267454	0.207642	0.222516	0.303050	0.197349	0.564567	0.453954	0.325352	0.332150	0.316004	0.494780	0.422795	0.104614	0.297657	0.132181	0.175857	0.164360	0.248615	0.169056	0.375177	0.227344	0.359214	0.743160	0.580669	0.247260	0.385692	0.222596	0.266603	0.116741	0.064983	0.348203	0.205814	0.182232	0.168328	0.318957	0.642464	0.092849	0.102626	0.176688	0.197478
83	0.538360	0.344252	0.315386	0.278920	0.096347	0.083093	0.308082	0.492242	0.366263	0.322233	0.283799	1.045866	0.249774	0.203398	0.735203	0.692428	0.193871	0.179344	0.361398	0.255434	0.292592	0.219318	0.262537	0.414506	0.190355	0.165209	0.226107	0.274965	0.182693	0.503081	0.484255	0.321933	0.286354	0.197435	0.443946	0.475040	0.108063	0.293652	0.125385	0.184332	0.159082	0.236997	0.162265	0.375605	0.234745	0.358701	0.609181	0.599590	0.242665	0.353613	0.158953	0.206607	0.111797	0.066032	0.363697	0.191538	0.187389	0.167827	0.330573	0.660777	0.089896	0.099663	0.180805	0.354965
84	0.226168	0.198312	0.282675	0.279812	0.107320	0.086170	0.310882	0.524167	0.371102	0.326418	0.301690	1.048509	0.248797	0.205141	0.803367	0.688114	0.210082	0.226349	0.377422	0.245243	0.271978	0.211951	0.269003	0.377849	0.198637	0.185873	0.241325	0.247973	0.202142	0.514700	0.484207	0.305455	0.398751	0.233557	0.345900	0.476066	0.109740	0.297844	0.172644	0.184908	0.156020	0.235784	0.194559	0.396327	0.234730	0.335716	0.604761	0.583124	0.215097	0.284437	0.165472	0.139224	0.114080	0.089524	0.362560	0.186963	0.189601	0.161614	0.330491	0.667822	0.103623	0.109518	0.184018	0.439824
85	0.240209	0.215548	0.250331	0.278541	0.126665	0.137293	0.329660	0.596587	0.371514	0.329167	0.319003	1.032140	0.245021	0.191124	0.801471	0.678847	0.203961	0.240396	0.363981	0.243189	0.221794	0.180131	0.279698	0.343332	0.233968	0.213649	0.257980	0.269902	0.198435	0.369212	0.467186	0.309429	0.485717	0.338755	0.333402	0.473360	0.111669	0.298197	0.198083	0.215261	0.155679	0.234855	0.190182	0.417655	0.208865	0.238914	0.566428	0.497632	0.156101	0.197631	0.246512	0.176627	0.114553	0.105347	0.351324	0.156842	0.186562	0.155842	0.358936	0.636122	0.120086	0.124681	0.227676	0.449518
86	0.250372	0.220390	0.246205	0.262425	0.129327	0.139353	0.378782	0.639904	0.373221	0.329269	0.326583	0.972197	0.231089	0.167719	0.805025	0.677456	0.182669	0.231442	0.355529	0.213661	0.200079	0.145170	0.228753	0.323462	0.231566	0.204244	0.257373	0.275017	0.209521	0.340799	0.454673	0.299246	0.586724	0.380182	0.325629	0.468068	0.109055	0.293391	0.209067	0.310177	0.149755	0.211637	0.211241	0.416003	0.159494	0.134821	0.409078	0.365760	0.130124	0.181523	0.290566	0.272546	0.122356	0.105054	0.325102	0.107237	0.182560	0.154783	0.387659	0.570665	0.144200	0.164379	0.235931	0.450405
87	0.285338	0.238060	0.229788	0.236186	0.130871	0.249860	0.342532	0.615107	0.373390	0.327661	0.304731	0.862315	0.206648	0.157163	0.816425	0.675797	0.177707	0.233954	0.295459	0.165332	0.189246	0.121888	0.226133	0.331714	0.220893	0.184893	0.262497	0.284599	0.225716	0.320964	0.450237	0.313598	0.630808	0.401677	0.322132	0.452611	0.109616	0.293816	0.207930	0.392830	0.148378	0.180685	0.225387	0.414765	0.142658	0.131644	0.256017	0.307481	0.167048	0.229800	0.290830	0.339061	0.125635	0.105020	0.303528	0.088134	0.181398	0.151189	0.390195	0.500207	0.175365	0.210838	0.245518	0.463294
88	0.288593	0.263662	0.216811	0.226539	0.138235	0.294446	0.344325	0.546097	0.373417	0.327739	0.303132	0.749356	0.198139	0.163883	0.815841	0.677542	0.158111	0.259705	0.261026	0.159281	0.209293	0.145540	0.266547	0.330234	0.244881	0.188354	0.246646	0.284227	0.222951	0.305345	0.413858	0.537177	0.630303	0.416355	0.359669	0.470624	0.118758	0.269516	0.215236	0.427761	0.149563	0.177564	0.231392	0.442687	0.142676	0.141814	0.185661	0.303825	0.210166	0.269966	0.313824	0.346533	0.112204	0.100930	0.235852	0.113101	0.179327	0.158103	0.389556	0.473243	0.191493	0.219620	0.278910	0.485064
89	0.266462	0.258055	0.214474	0.207428	0.144410	0.299460	0.357455	0.543938	0.368924	0.325405	0.302930	0.692768	0.176406	0.155903	0.809682	0.595170	0.139649	0.245484	0.219659	0.159039	0.225518	0.171315	0.348606	0.322347	0.379983	0.209698	0.238827	0.305385	0.222660	0.300434	0.298779	0.611737	0.629249	0.417099	0.333713	0.522807	0.140459	0.240047	0.243947	0.429070	0.150476	0.175253	0.241821	0.488605	0.157100	0.157925	0.181221	0.303264	0.226431	0.280634	0.388074	0.361371	0.106589	0.100841	0.212344	0.158031	0.177181	0.185048	0.390283	0.459436	0.226997	0.242512	0.279775	0.484212
90	0.257488	0.294151	0.211189	0.176607	0.182893	0.314567	0.317537	0.587399	0.330336	0.290814	0.301525	0.679747	0.157700	0.148538	0.824141	0.450588	0.165255	0.313043	0.209494	0.153240	0.227237	0.172322	0.371214	0.332694	0.471499	0.220778	0.231739	0.312829	0.324688	0.367319	0.343979	0.620249	0.630537	0.414064	0.270833	0.500559	0.140086	0.245130	0.461032	0.434977	0.154453	0.188619	0.265108	0.520436	0.161329	0.157720	0.164290	0.274335	0.227658	0.269911	0.450741	0.418783	0.113268	0.101940	0.207597	0.205639	0.151828	0.192977	0.383604	0.455878	0.227248	0.247019	0.284657	0.481539
91	0.256327	0.305655	0.192449	0.180160	0.187336	0.334321	0.302066	0.601821	0.253246	0.210263	0.289765	0.677561	0.136382	0.144595	0.820824	0.410608	0.187406	0.425951	0.215303	0.184092	0.224947	0.174854	0.391262	0.397116	0.583566	0.261462	0.232766	0.313453	0.552559	0.469959	0.330132	0.660855	0.616514	0.410422	0.253034	0.445734	0.140768	0.245735	0.560809	0.451576	0.177884	0.229527	0.286341	0.526526	0.157103	0.159830	0.102873	0.217017	0.240144	0.275971	0.455334	0.430553	0.114439	0.106331	0.211079	0.218628	0.128006	0.177343	0.337878	0.442078	0.228156	0.240986	0.281424	0.479108
92	0.250301	0.298921	0.183826	0.187921	0.181538	0.350097	0.360519	0.571454	0.214829	0.190950	0.267771	0.632523	0.106913	0.140194	0.733352	0.407812	0.187427	0.434902	0.217492	0.235753	0.238431	0.176632	0.392254	0.402741	0.719838	0.315036	0.239744	0.312415	0.555711	0.455128	0.322714	0.733627	0.536057	0.387808	0.256922	0.407403	0.158387	0.246013	0.571550	0.463000	0.197793	0.255718	0.304628	0.537120	0.138130	0.140594	0.082073	0.155727	0.267438	0.296275	0.465087	0.431031	0.145840	0.138572	0.181165	0.220930	0.123953	0.177242	0.309835	0.405110	0.233947	0.242503	0.324730	0.457279
93	0.256156	0.315836	0.102891	0.182655	0.175935	0.335130	0.350139	0.482267	0.215275	0.270757	0.257236	0.528468	0.115639	0.167518	0.553722	0.376450	0.186232	0.430303	0.218721	0.255604	0.252408	0.185260	0.404159	0.364809	0.717033	0.333193	0.230074	0.300319	0.573469	0.464411	0.323732	0.770590	0.469715	0.358708	0.308032	0.421483	0.153197	0.246901	0.572419	0.483549	0.202415	0.257328	0.310111	0.556322	0.150857	0.157702	0.090963	0.132683	0.273771	0.290014	0.500077	0.438520	0.159948	0.152157	0.169291	0.232048	0.120512	0.227473	0.312055	0.357812	0.245158	0.243721	0.406572	0.329006
94	0.255368	0.321482	0.091675	0.182640	0.181964	0.334123	0.307857	0.387429	0.218613	0.348847	0.256836	0.403385	0.302694	0.328402	0.462122	0.338149	0.167307	0.407005	0.179288	0.264320	0.257855	0.196119	0.412319	0.336788	0.705280	0.333622	0.198037	0.253935	0.577660	0.470633	0.322908	0.770650	0.382807	0.211424	0.385923	0.456567	0.154224	0.254780	0.568793	0.504902	0.200960	0.277561	0.313949	0.565303	0.151648	0.217707	0.100965	0.120314	0.274954	0.287169	0.508138	0.447258	0.159094	0.142076	0.175755	0.233334	0.117237	0.237308	0.320944	0.285995	0.243138	0.244839	0.406861	0.292565
95	0.232376	0.311573	0.098438	0.182774	0.200525	0.258957	0.352402	0.363631	0.209343	0.363748	0.247547	0.289188	0.491057	0.505677	0.465543	0.330836	0.161205	0.400288	0.185808	0.264747	0.240290	0.190931	0.419935	0.331811	0.703957	0.345803	0.173672	0.220537	0.571798	0.472899	0.320823	0.760038	0.130974	0.170249	0.386105	0.481235	0.156493	0.253035	0.597429	0.510559	0.210147	0.350846	0.325658	0.566441	0.166313	0.236019	0.090545	0.120692	0.277349	0.286909	0.467572	0.427269	0.163820	0.130509	0.191793	0.234917	0.114408	0.244348	0.312185	0.202571	0.263060	0.255926	0.439308	0.318511
96	0.219521	0.367167	0.092277	0.178709	0.242594	0.225847	0.405644	0.361819	0.200468	0.415366	0.245696	0.191941	0.566178	0.539416	0.442797	0.330792	0.160416	0.397160	0.195988	0.262796	0.225202	0.184738	0.457790	0.332225	0.705056	0.422881	0.154548	0.206663	0.574892	0.475553	0.294697	0.623634	0.165485	0.169448	0.369008	0.474313	0.166213	0.259296	0.638496	0.484008	0.216678	0.408032	0.316190	0.554518	0.197007	0.270361	0.094449	0.113437	0.271733	0.273269	0.452770	0.413079	0.157895	0.135337	0.213869	0.251542	0.108457	0.264999	0.304188	0.121215	0.264876	0.228056	0.460121	0.344059
97	0.180837	0.386878	0.090896	0.146635	0.243063	0.228811	0.405068	0.302243	0.177071	0.433167	0.216706	0.141936	0.583765	0.617917	0.383032	0.324516	0.158295	0.392357	0.183567	0.261548	0.229106	0.188010	0.503299	0.324788	0.696247	0.430584	0.153717	0.210862	0.574199	0.471686	0.280783	0.532521	0.203916	0.167780	0.350656	0.436603	0.170529	0.267428	0.652386	0.414386	0.218411	0.416000	0.319168	0.529632	0.208635	0.294114	0.191789	0.224493	0.243057	0.226760	0.452714	0.398766	0.168422	0.141618	0.217548	0.299895	0.097794	0.299585	0.288783	0.087294	0.289711	0.222909	0.468241	0.326275
98	0.169986	0.421486	0.092444	0.135581	0.213451	0.210650	0.414616	0.194487	0.159806	0.427225	0.197417	0.133212	0.774401	0.717115	0.335025	0.258406	0.151550	0.369146	0.186869	0.265741	0.216283	0.170881	0.520480	0.318314	0.633806	0.424238	0.154033	0.177890	0.542815	0.423738	0.229291	0.516124	0.220703	0.196157	0.463061	0.405196	0.175295	0.306118	0.652457	0.334276	0.238386	0.482570	0.314303	0.527218	0.201286	0.295513	0.216597	0.410862	0.211980	0.196710	0.429104	0.401117	0.221729	0.174428	0.219263	0.336537	0.088751	0.300715	0.223063	0.076159	0.281431	0.214841	0.471790	0.304509
99	0.182956	0.520145	0.101134	0.151064	0.216963	0.184762	0.495890	0.230870	0.155887	0.450401	0.161334	0.135642	0.861789	0.725104	0.316410	0.126424	0.153887	0.368909	0.187979	0.281286	0.187978	0.135154	0.483394	0.337356	0.557167	0.417350	0.152462	0.128786	0.292987	0.291998	0.245558	0.467914	0.221760	0.204332	0.489547	0.373996	0.166606	0.312812	0.650813	0.307326	0.251789	0.528098	0.297812	0.531274	0.246969	0.351152	0.221369	0.472403	0.194722	0.179375	0.358634	0.374265	0.301763	0.229063	0.232810	0.335660	0.088795	0.301841	0.182761	0.078996	0.297496	0.207228	0.468551	0.299269
100	0.186643	0.572847	0.101666	0.159784	0.323793	0.276746	0.514794	0.283048	0.176030	0.485552	0.146049	0.135303	0.911978	0.736490	0.284995	0.088108	0.113929	0.272920	0.188217	0.297483	0.185160	0.133283	0.500281	0.371104	0.467937	0.397706	0.142558	0.141636	0.264603	0.281240	0.214788	0.322082	0.222348	0.207788	0.482560	0.363508	0.151107	0.293441	0.617252	0.306135	0.251093	0.531106	0.295400	0.524380	0.373838	0.468412	0.226907	0.479271	0.191415	0.187310	0.288294	0.313714	0.315294	0.238528	0.243422	0.309511	0.088713	0.305949	0.179492	0.086284	0.310753	0.215773	0.458344	0.304949
101	0.184210	0.583228	0.098982	0.150499	0.420826	0.360162	0.520676	0.286740	0.186060	0.486300	0.145246	0.121211	0.932763	0.742272	0.251157	0.089166	0.082723	0.163636	0.183106	0.266878	0.183791	0.129649	0.520388	0.300606	0.120560	0.345919	0.125548	0.189406	0.215998	0.201958	0.213319	0.187613	0.222313	0.206776	0.468338	0.393695	0.150564	0.275069	0.460146	0.291165	0.250814	0.537972	0.284049	0.482569	0.411059	0.495182	0.418275	0.561685	0.166238	0.164223	0.284124	0.304442	0.338699	0.245314	0.255544	0.303116	0.088768	0.299012	0.179579	0.097947	0.313572	0.213955	0.459434	0.307785
