	219_C_T1_sh_ND_01.c3d	219_C_T1_sh_ND_01.c3d	219_C_T1_sh_ND_01.c3d	219_C_T1_sh_ND_01.c3d	219_C_T1_sh_ND_01.c3d	219_C_T1_sh_ND_01.c3d	219_C_T1_sh_ND_01.c3d	219_C_T1_sh_ND_01.c3d	219_C_T1_sh_ND_02.c3d	219_C_T1_sh_ND_02.c3d	219_C_T1_sh_ND_02.c3d	219_C_T1_sh_ND_02.c3d	219_C_T1_sh_ND_02.c3d	219_C_T1_sh_ND_02.c3d	219_C_T1_sh_ND_02.c3d	219_C_T1_sh_ND_02.c3d	219_C_T1_sh_ND_04.c3d	219_C_T1_sh_ND_04.c3d	219_C_T1_sh_ND_04.c3d	219_C_T1_sh_ND_04.c3d	219_C_T1_sh_ND_04.c3d	219_C_T1_sh_ND_04.c3d	219_C_T1_sh_ND_04.c3d	219_C_T1_sh_ND_04.c3d	219_C_T1_sh_ND_05.c3d	219_C_T1_sh_ND_05.c3d	219_C_T1_sh_ND_05.c3d	219_C_T1_sh_ND_05.c3d	219_C_T1_sh_ND_05.c3d	219_C_T1_sh_ND_05.c3d	219_C_T1_sh_ND_05.c3d	219_C_T1_sh_ND_05.c3d	219_C_T1_sh_ND_06.c3d	219_C_T1_sh_ND_06.c3d	219_C_T1_sh_ND_06.c3d	219_C_T1_sh_ND_06.c3d	219_C_T1_sh_ND_06.c3d	219_C_T1_sh_ND_06.c3d	219_C_T1_sh_ND_06.c3d	219_C_T1_sh_ND_06.c3d	219_C_T1_sh_ND_07.c3d	219_C_T1_sh_ND_07.c3d	219_C_T1_sh_ND_07.c3d	219_C_T1_sh_ND_07.c3d	219_C_T1_sh_ND_07.c3d	219_C_T1_sh_ND_07.c3d	219_C_T1_sh_ND_07.c3d	219_C_T1_sh_ND_07.c3d	219_C_T1_sh_ND_08.c3d	219_C_T1_sh_ND_08.c3d	219_C_T1_sh_ND_08.c3d	219_C_T1_sh_ND_08.c3d	219_C_T1_sh_ND_08.c3d	219_C_T1_sh_ND_08.c3d	219_C_T1_sh_ND_08.c3d	219_C_T1_sh_ND_08.c3d	219_C_T1_sh_ND_09.c3d	219_C_T1_sh_ND_09.c3d	219_C_T1_sh_ND_09.c3d	219_C_T1_sh_ND_09.c3d	219_C_T1_sh_ND_09.c3d	219_C_T1_sh_ND_09.c3d	219_C_T1_sh_ND_09.c3d	219_C_T1_sh_ND_09.c3d	219_C_T1_sh_ND_10.c3d	219_C_T1_sh_ND_10.c3d	219_C_T1_sh_ND_10.c3d	219_C_T1_sh_ND_10.c3d	219_C_T1_sh_ND_10.c3d	219_C_T1_sh_ND_10.c3d	219_C_T1_sh_ND_10.c3d	219_C_T1_sh_ND_10.c3d
	Biceps femoris_lat	Semitendinosus_lat	Vastus lateralis_lat	Vastus medialis_lat	Biceps femoris_med	Semitendinosus_med	Vastus lateralis_med	Vastus medialis_med	Biceps femoris_lat	Semitendinosus_lat	Vastus lateralis_lat	Vastus medialis_lat	Biceps femoris_med	Semitendinosus_med	Vastus lateralis_med	Vastus medialis_med	Biceps femoris_lat	Semitendinosus_lat	Vastus lateralis_lat	Vastus medialis_lat	Biceps femoris_med	Semitendinosus_med	Vastus lateralis_med	Vastus medialis_med	Biceps femoris_lat	Semitendinosus_lat	Vastus lateralis_lat	Vastus medialis_lat	Biceps femoris_med	Semitendinosus_med	Vastus lateralis_med	Vastus medialis_med	Biceps femoris_lat	Semitendinosus_lat	Vastus lateralis_lat	Vastus medialis_lat	Biceps femoris_med	Semitendinosus_med	Vastus lateralis_med	Vastus medialis_med	Biceps femoris_lat	Semitendinosus_lat	Vastus lateralis_lat	Vastus medialis_lat	Biceps femoris_med	Semitendinosus_med	Vastus lateralis_med	Vastus medialis_med	Biceps femoris_lat	Semitendinosus_lat	Vastus lateralis_lat	Vastus medialis_lat	Biceps femoris_med	Semitendinosus_med	Vastus lateralis_med	Vastus medialis_med	Biceps femoris_lat	Semitendinosus_lat	Vastus lateralis_lat	Vastus medialis_lat	Biceps femoris_med	Semitendinosus_med	Vastus lateralis_med	Vastus medialis_med	Biceps femoris_lat	Semitendinosus_lat	Vastus lateralis_lat	Vastus medialis_lat	Biceps femoris_med	Semitendinosus_med	Vastus lateralis_med	Vastus medialis_med
	P2D	P2D	P2D	P2D	P2D	P2D	P2D	P2D	P2D	P2D	P2D	P2D	P2D	P2D	P2D	P2D	P2D	P2D	P2D	P2D	P2D	P2D	P2D	P2D	P2D	P2D	P2D	P2D	P2D	P2D	P2D	P2D	P2D	P2D	P2D	P2D	P2D	P2D	P2D	P2D	P2D	P2D	P2D	P2D	P2D	P2D	P2D	P2D	P2D	P2D	P2D	P2D	P2D	P2D	P2D	P2D	P2D	P2D	P2D	P2D	P2D	P2D	P2D	P2D	P2D	P2D	P2D	P2D	P2D	P2D	P2D	P2D
	EMG_lat	EMG_lat	EMG_lat	EMG_lat	EMG_med	EMG_med	EMG_med	EMG_med	EMG_lat	EMG_lat	EMG_lat	EMG_lat	EMG_med	EMG_med	EMG_med	EMG_med	EMG_lat	EMG_lat	EMG_lat	EMG_lat	EMG_med	EMG_med	EMG_med	EMG_med	EMG_lat	EMG_lat	EMG_lat	EMG_lat	EMG_med	EMG_med	EMG_med	EMG_med	EMG_lat	EMG_lat	EMG_lat	EMG_lat	EMG_med	EMG_med	EMG_med	EMG_med	EMG_lat	EMG_lat	EMG_lat	EMG_lat	EMG_med	EMG_med	EMG_med	EMG_med	EMG_lat	EMG_lat	EMG_lat	EMG_lat	EMG_med	EMG_med	EMG_med	EMG_med	EMG_lat	EMG_lat	EMG_lat	EMG_lat	EMG_med	EMG_med	EMG_med	EMG_med	EMG_lat	EMG_lat	EMG_lat	EMG_lat	EMG_med	EMG_med	EMG_med	EMG_med
ITEM	Y	Y	Y	Y	Y	Y	Y	Y	Y	Y	Y	Y	Y	Y	Y	Y	Y	Y	Y	Y	Y	Y	Y	Y	Y	Y	Y	Y	Y	Y	Y	Y	Y	Y	Y	Y	Y	Y	Y	Y	Y	Y	Y	Y	Y	Y	Y	Y	Y	Y	Y	Y	Y	Y	Y	Y	Y	Y	Y	Y	Y	Y	Y	Y	Y	Y	Y	Y	Y	Y	Y	Y
1	0.720308	1.052056	0.204282	0.073998	0.244305	0.477723	0.273259	0.117042	0.913364	0.538645	0.200363	0.169008	0.262405	0.542427	0.544089	0.341259	0.806810	0.875637	0.577554	0.174689	0.305925	0.310796	0.592778	0.254253	0.670390	1.139928	0.252982	0.099386	0.550260	0.638489	0.142333	0.074639	0.617833	0.274368	0.480766	0.189879	0.167012	0.303695	0.837962	0.241473	0.256322	0.190636	0.354837	0.144641	0.190107	0.283793	0.494013	0.299151	0.640023	0.899184	0.379153	0.193170	0.220012	0.125060	0.313857	0.150711	0.180503	0.205570	0.396590	0.189384	0.551211	0.250226	0.612999	0.327602	0.335285	0.378650	0.296832	0.108721	0.363757	0.269953	0.301328	0.179484
2	0.726966	1.026894	0.222172	0.070650	0.229907	0.437903	0.272135	0.111978	0.900209	0.490617	0.201559	0.196724	0.237337	0.553022	0.551869	0.360054	0.769043	0.670395	0.586769	0.179328	0.313562	0.320698	0.616859	0.255558	0.639385	1.043838	0.278307	0.105227	0.606546	0.638038	0.155353	0.074663	0.544697	0.274786	0.485390	0.189423	0.159973	0.303139	0.767846	0.256485	0.379226	0.191651	0.342209	0.166860	0.191990	0.262515	0.495438	0.230300	0.636356	0.893180	0.370527	0.195086	0.253900	0.128934	0.303720	0.150484	0.164188	0.235322	0.392874	0.118694	0.483461	0.194821	0.618213	0.320750	0.334776	0.439028	0.293143	0.106479	0.323345	0.239916	0.313400	0.183649
3	0.643041	1.060398	0.231360	0.062877	0.178420	0.378309	0.273817	0.128332	0.892685	0.489532	0.231561	0.199428	0.243317	0.568255	0.553471	0.365987	0.752057	0.541669	0.578719	0.178228	0.271781	0.327635	0.598681	0.253185	0.615029	0.981390	0.284872	0.116191	0.609684	0.635400	0.158664	0.080639	0.521990	0.304525	0.478079	0.171419	0.142083	0.309218	0.756676	0.269877	0.525717	0.201651	0.316397	0.188365	0.236319	0.296799	0.489751	0.228992	0.621954	0.858599	0.365689	0.178677	0.286610	0.099839	0.321384	0.154103	0.171391	0.255301	0.396512	0.099998	0.320625	0.167664	0.498699	0.296600	0.320538	0.459263	0.296270	0.110630	0.292932	0.232603	0.339403	0.168425
4	0.507914	0.975332	0.262548	0.065902	0.174796	0.357232	0.401025	0.143977	0.895482	0.568589	0.266429	0.199863	0.265022	0.599308	0.537190	0.363243	0.667635	0.507413	0.577638	0.178239	0.242467	0.317440	0.526399	0.217225	0.592431	0.940763	0.298615	0.107865	0.614067	0.582460	0.154568	0.083415	0.528001	0.321482	0.440892	0.153807	0.138869	0.310893	0.557435	0.270920	0.555828	0.199546	0.291732	0.185103	0.238074	0.301540	0.419680	0.223414	0.615919	0.837234	0.366630	0.153286	0.291172	0.102399	0.313783	0.178914	0.242670	0.401290	0.393647	0.097505	0.185428	0.158326	0.447027	0.293317	0.306866	0.454513	0.334923	0.116877	0.219657	0.207517	0.413602	0.169466
5	0.428715	0.934559	0.263394	0.066957	0.175182	0.345744	0.437284	0.148007	0.895803	0.600537	0.269074	0.204070	0.279920	0.616899	0.566916	0.342155	0.591053	0.506638	0.576628	0.178916	0.237122	0.329362	0.516449	0.213386	0.591227	0.913482	0.299061	0.113127	0.596252	0.543757	0.153712	0.085305	0.527571	0.306685	0.367857	0.149197	0.131923	0.306036	0.516757	0.256358	0.632065	0.197163	0.273541	0.183221	0.213278	0.292477	0.412480	0.205719	0.611790	0.829673	0.363193	0.162357	0.326289	0.103860	0.278295	0.197926	0.281909	0.545801	0.391528	0.103720	0.171997	0.177898	0.480761	0.296987	0.305890	0.455260	0.346396	0.117454	0.216038	0.198565	0.422442	0.172624
6	0.457609	0.953114	0.256183	0.082408	0.198349	0.349162	0.443039	0.171201	0.891824	0.601965	0.289946	0.211971	0.301058	0.650047	0.574837	0.355571	0.586922	0.484389	0.574657	0.172555	0.175853	0.258093	0.451213	0.193646	0.583026	0.910651	0.306385	0.133032	0.557017	0.524067	0.176945	0.098868	0.523541	0.292003	0.362401	0.148484	0.165203	0.323946	0.527228	0.257069	0.672048	0.192839	0.280083	0.190572	0.176496	0.239398	0.223804	0.206191	0.597582	0.794323	0.368492	0.182057	0.347432	0.102911	0.279113	0.193873	0.291640	0.581263	0.359650	0.106724	0.172074	0.188268	0.479503	0.296829	0.300279	0.421379	0.342540	0.124598	0.223147	0.189399	0.417429	0.184788
7	0.531317	1.007956	0.256104	0.080912	0.219604	0.348590	0.494305	0.210149	0.801874	0.597732	0.328330	0.228206	0.302766	0.662908	0.567783	0.357704	0.482519	0.417327	0.574534	0.161677	0.172672	0.264842	0.418019	0.204122	0.578235	0.875355	0.310187	0.133774	0.559474	0.433522	0.178517	0.101275	0.503720	0.295844	0.307931	0.139550	0.189091	0.342841	0.522410	0.247402	0.667269	0.182351	0.243021	0.205598	0.172937	0.198198	0.207307	0.203222	0.587405	0.751997	0.366286	0.186132	0.339544	0.103442	0.284630	0.183958	0.342343	0.658535	0.328429	0.149623	0.176793	0.179185	0.479317	0.232367	0.295222	0.400907	0.288463	0.124700	0.209896	0.175134	0.419506	0.196338
8	0.580762	1.120105	0.252620	0.161569	0.204648	0.335450	0.488779	0.212950	0.719615	0.571153	0.345719	0.242803	0.304325	0.657614	0.563661	0.338329	0.437150	0.329576	0.578135	0.160429	0.177004	0.291334	0.293054	0.226529	0.477449	0.598052	0.311238	0.133230	0.577943	0.248593	0.186135	0.132521	0.444850	0.316301	0.225492	0.141594	0.183243	0.286598	0.531464	0.232476	0.677626	0.180693	0.242929	0.206571	0.175506	0.192628	0.230100	0.195793	0.566766	0.709372	0.364310	0.186609	0.342050	0.103656	0.273086	0.190425	0.347325	0.701667	0.333937	0.168373	0.180825	0.176404	0.473406	0.186218	0.328803	0.400439	0.267020	0.126671	0.209435	0.164227	0.423238	0.196556
9	0.582733	1.115635	0.279293	0.234280	0.203414	0.333189	0.500257	0.214753	0.678255	0.501825	0.345478	0.250361	0.287755	0.579452	0.543326	0.296250	0.442082	0.320769	0.549373	0.190273	0.173305	0.277864	0.277893	0.193749	0.304929	0.305505	0.315859	0.140938	0.593499	0.130152	0.191285	0.153687	0.405666	0.299735	0.194439	0.156414	0.179682	0.268199	0.461885	0.231704	0.697008	0.192571	0.252844	0.205054	0.182054	0.199752	0.215396	0.195117	0.560038	0.693842	0.357781	0.186324	0.343422	0.103723	0.250558	0.194610	0.350943	0.740882	0.341857	0.187812	0.181596	0.174011	0.474911	0.207523	0.353988	0.394927	0.283607	0.129464	0.211394	0.144181	0.433287	0.193071
10	0.576791	1.060377	0.319030	0.245530	0.200179	0.302930	0.512734	0.214975	0.623388	0.440610	0.346253	0.248981	0.264605	0.460268	0.475817	0.278856	0.448447	0.317898	0.431556	0.205106	0.173576	0.256280	0.229743	0.192645	0.301928	0.300144	0.318349	0.152741	0.594175	0.128337	0.198851	0.156514	0.376969	0.281708	0.189763	0.154833	0.174373	0.261228	0.359279	0.230703	0.702923	0.206284	0.236095	0.207158	0.179176	0.195524	0.221418	0.195875	0.536383	0.677337	0.295218	0.184986	0.343085	0.102865	0.241298	0.191787	0.347572	0.749116	0.292078	0.194506	0.182066	0.174428	0.535372	0.199882	0.354202	0.402962	0.288211	0.130026	0.222397	0.136992	0.429325	0.178754
11	0.578285	1.012178	0.333085	0.255005	0.202542	0.286777	0.516558	0.221859	0.410969	0.462573	0.330852	0.249455	0.268613	0.458072	0.396629	0.304331	0.428838	0.278290	0.415338	0.199360	0.150439	0.241293	0.158023	0.179083	0.305108	0.299820	0.318913	0.151266	0.572086	0.117102	0.192413	0.157810	0.303901	0.262809	0.179239	0.154519	0.186448	0.261149	0.333528	0.220999	0.710284	0.223103	0.220781	0.201639	0.180470	0.196262	0.216296	0.192312	0.336261	0.485088	0.266955	0.185426	0.343005	0.101969	0.224929	0.186861	0.337721	0.754083	0.283884	0.187267	0.182234	0.171143	0.519132	0.182011	0.353127	0.395194	0.284343	0.141724	0.193485	0.130752	0.430211	0.170090
12	0.573490	1.037281	0.325877	0.254980	0.211643	0.295415	0.571613	0.221935	0.302582	0.498460	0.306839	0.252711	0.264321	0.456275	0.363023	0.309527	0.396625	0.251825	0.358893	0.195514	0.201018	0.226710	0.151774	0.170538	0.336585	0.318060	0.323316	0.152699	0.497863	0.103047	0.193917	0.184061	0.272001	0.258524	0.175969	0.156779	0.201121	0.262596	0.326477	0.206402	0.713519	0.215210	0.212004	0.205252	0.138350	0.154349	0.211403	0.129974	0.180357	0.318476	0.262632	0.186547	0.333077	0.089357	0.223293	0.187041	0.335795	0.758134	0.291559	0.193765	0.172256	0.157590	0.524254	0.198756	0.346462	0.372565	0.286935	0.151815	0.162962	0.106321	0.424868	0.172218
13	0.608042	1.096220	0.327048	0.261225	0.234855	0.311330	0.619462	0.225820	0.263846	0.502520	0.307881	0.231726	0.246049	0.437101	0.364569	0.298205	0.418532	0.252686	0.293166	0.198584	0.201051	0.194512	0.136902	0.181110	0.379096	0.334887	0.298343	0.147351	0.426212	0.104003	0.201573	0.219701	0.259772	0.254598	0.196108	0.157276	0.194343	0.240825	0.258945	0.201587	0.722656	0.193427	0.212811	0.210417	0.101039	0.121438	0.205801	0.128381	0.192867	0.317094	0.244909	0.171439	0.279107	0.077565	0.216129	0.187031	0.332621	0.765035	0.268792	0.199592	0.177994	0.140608	0.512642	0.208185	0.342919	0.363756	0.287127	0.134599	0.163327	0.116909	0.377277	0.155168
14	0.619123	1.109898	0.320019	0.268386	0.233008	0.286949	0.631579	0.232962	0.258123	0.501969	0.326363	0.214117	0.243147	0.432128	0.319785	0.290978	0.415262	0.215681	0.274399	0.205510	0.258103	0.199762	0.135652	0.189706	0.367757	0.348330	0.202038	0.148698	0.443606	0.119870	0.205192	0.227565	0.247725	0.215562	0.229691	0.156571	0.194738	0.215054	0.244027	0.188769	0.700968	0.180741	0.207247	0.204022	0.111114	0.106084	0.193140	0.165192	0.188801	0.330467	0.217924	0.153784	0.227753	0.081402	0.207710	0.183039	0.332019	0.758961	0.256883	0.202467	0.180161	0.130966	0.494896	0.212643	0.317550	0.331026	0.287163	0.131440	0.160219	0.140173	0.364889	0.148043
15	0.626556	1.125654	0.296120	0.271173	0.223480	0.254322	0.646680	0.236985	0.259247	0.458918	0.323344	0.213748	0.230704	0.381260	0.300663	0.301587	0.444161	0.151920	0.274933	0.197846	0.358671	0.191884	0.179025	0.170332	0.354912	0.351891	0.186098	0.149063	0.445809	0.143775	0.228444	0.227021	0.217473	0.185730	0.221863	0.140766	0.183320	0.205760	0.228426	0.179685	0.596129	0.165226	0.194984	0.176832	0.120751	0.106547	0.194779	0.159934	0.215092	0.334157	0.215740	0.146614	0.215810	0.074456	0.242782	0.156115	0.330035	0.751100	0.256272	0.211449	0.179985	0.130752	0.500339	0.209250	0.261039	0.242309	0.293277	0.156588	0.157515	0.170609	0.321319	0.148266
16	0.615221	1.114680	0.293268	0.282785	0.221611	0.247476	0.624257	0.239657	0.262210	0.369860	0.313664	0.231284	0.221098	0.352546	0.288539	0.309279	0.488552	0.142826	0.263218	0.229280	0.372710	0.140382	0.199193	0.140005	0.350194	0.354342	0.168798	0.144809	0.448970	0.162971	0.270841	0.226385	0.218121	0.187893	0.230450	0.136674	0.141551	0.149894	0.193789	0.178157	0.556969	0.180155	0.223895	0.177714	0.132904	0.157296	0.278937	0.149835	0.254397	0.352379	0.196609	0.143918	0.150856	0.055966	0.266759	0.134127	0.283732	0.689303	0.258317	0.217221	0.149869	0.108902	0.466316	0.214341	0.251028	0.193190	0.281172	0.164073	0.156632	0.179688	0.217189	0.148054
17	0.567111	1.038600	0.305381	0.289358	0.227200	0.252412	0.575563	0.245179	0.298833	0.423025	0.314327	0.233093	0.181236	0.278345	0.221999	0.295235	0.484791	0.140667	0.268742	0.323347	0.369211	0.139615	0.186450	0.143409	0.349705	0.357211	0.152195	0.147202	0.450339	0.178471	0.277515	0.231033	0.218908	0.188542	0.272240	0.133042	0.131015	0.120903	0.197236	0.144453	0.539005	0.225818	0.230406	0.177507	0.155983	0.262755	0.321265	0.166926	0.287627	0.363825	0.197695	0.141121	0.096579	0.050739	0.263829	0.132490	0.240528	0.582627	0.259294	0.216186	0.129537	0.073591	0.474105	0.210909	0.250957	0.160740	0.227601	0.161524	0.153815	0.181683	0.168356	0.140971
18	0.491393	0.936108	0.327187	0.292643	0.225971	0.252790	0.609808	0.250306	0.290158	0.497349	0.300456	0.223683	0.168112	0.220410	0.230375	0.283953	0.456988	0.141656	0.269499	0.360196	0.402045	0.185454	0.186510	0.172378	0.348629	0.357377	0.174639	0.150243	0.399685	0.189375	0.278994	0.232860	0.208793	0.188708	0.278815	0.136124	0.131391	0.118042	0.144633	0.125499	0.443243	0.266253	0.233668	0.173753	0.152880	0.284740	0.358593	0.186217	0.293006	0.363301	0.194308	0.126430	0.090061	0.045423	0.257044	0.126893	0.232867	0.545987	0.259556	0.215863	0.129367	0.073994	0.476407	0.213843	0.249957	0.152606	0.230955	0.167176	0.145847	0.187625	0.169799	0.136830
19	0.419043	0.795702	0.328781	0.252673	0.194983	0.225311	0.592603	0.226337	0.292457	0.503887	0.259995	0.203007	0.167551	0.198764	0.234024	0.283227	0.456618	0.144641	0.289883	0.361243	0.445551	0.216875	0.189147	0.182118	0.351011	0.357525	0.169411	0.139500	0.322792	0.190785	0.267486	0.216869	0.203474	0.160262	0.278553	0.140805	0.128673	0.118289	0.138833	0.120810	0.425877	0.269388	0.244590	0.161812	0.149655	0.289575	0.430040	0.190628	0.275669	0.345504	0.181623	0.152402	0.077563	0.048226	0.229548	0.110023	0.137304	0.470915	0.257208	0.189151	0.125000	0.072843	0.489138	0.214127	0.256837	0.169168	0.251183	0.171027	0.144292	0.208147	0.169217	0.122476
20	0.386432	0.759131	0.281004	0.194781	0.193300	0.189389	0.585699	0.231973	0.298660	0.508520	0.241461	0.176816	0.161361	0.199824	0.251079	0.272190	0.437594	0.139415	0.291343	0.367659	0.454152	0.226677	0.215855	0.183050	0.353299	0.355980	0.170464	0.140586	0.276914	0.183913	0.271266	0.207292	0.230248	0.186480	0.289046	0.134712	0.124541	0.109553	0.149230	0.113700	0.425092	0.268485	0.246687	0.146202	0.143102	0.293208	0.462396	0.190458	0.260719	0.305753	0.180350	0.193472	0.066910	0.054742	0.219113	0.089169	0.115339	0.437303	0.249126	0.171333	0.123231	0.073440	0.491405	0.192574	0.262827	0.197753	0.242371	0.172437	0.145801	0.217265	0.150367	0.134107
21	0.390418	0.755497	0.243385	0.185537	0.204936	0.188206	0.586239	0.234203	0.307127	0.518659	0.239691	0.166365	0.164467	0.249257	0.259801	0.263670	0.437799	0.137674	0.292702	0.396664	0.466188	0.227205	0.265351	0.175677	0.316060	0.320116	0.168101	0.140715	0.258239	0.178263	0.267884	0.209739	0.267018	0.232897	0.293847	0.136179	0.138708	0.096856	0.160138	0.111549	0.390860	0.257295	0.220136	0.145525	0.150038	0.335883	0.468187	0.191948	0.289638	0.278321	0.179926	0.206199	0.062848	0.057231	0.217328	0.085036	0.109511	0.361340	0.192936	0.163139	0.122358	0.070493	0.416445	0.179770	0.211940	0.225085	0.233156	0.172457	0.139151	0.230207	0.118375	0.150155
22	0.387141	0.749796	0.255139	0.177972	0.204627	0.190857	0.570047	0.233746	0.311383	0.534283	0.249295	0.165754	0.170630	0.341871	0.260473	0.241135	0.414104	0.166041	0.288181	0.443628	0.455099	0.233425	0.282355	0.157878	0.277090	0.261526	0.162637	0.124529	0.257594	0.178222	0.278517	0.211065	0.257749	0.239072	0.292927	0.160373	0.132642	0.085724	0.156428	0.085532	0.370454	0.271286	0.215350	0.169865	0.150775	0.341222	0.468094	0.198395	0.317723	0.297454	0.183037	0.225312	0.066014	0.057197	0.218866	0.066114	0.127717	0.335595	0.159088	0.197992	0.122154	0.068882	0.396440	0.177979	0.177468	0.250647	0.255147	0.172548	0.137676	0.256096	0.114496	0.157535
23	0.356907	0.664153	0.339282	0.216443	0.199474	0.196866	0.559911	0.225341	0.286793	0.502215	0.262121	0.163223	0.160808	0.416737	0.259848	0.216294	0.470596	0.234031	0.297121	0.461940	0.381419	0.337729	0.264559	0.149325	0.273345	0.232113	0.157123	0.125646	0.257660	0.177833	0.278517	0.187289	0.249575	0.238153	0.296832	0.191483	0.151264	0.077560	0.161153	0.076421	0.367894	0.375544	0.217712	0.189044	0.155379	0.362509	0.468459	0.176837	0.323664	0.299502	0.190557	0.236798	0.068127	0.057089	0.254722	0.069172	0.192178	0.344456	0.163991	0.234334	0.121405	0.067924	0.360740	0.158172	0.166877	0.268990	0.281664	0.172719	0.147557	0.271532	0.090215	0.154004
24	0.255203	0.541585	0.379944	0.218588	0.198324	0.244193	0.531496	0.220239	0.280296	0.471479	0.264531	0.130246	0.158074	0.439085	0.267341	0.211578	0.489668	0.295874	0.319080	0.471135	0.380066	0.486112	0.231704	0.148060	0.294201	0.247382	0.157785	0.138784	0.246048	0.176730	0.270864	0.145194	0.259374	0.237354	0.277195	0.211536	0.153062	0.072115	0.157030	0.078724	0.385368	0.490084	0.245547	0.204307	0.158099	0.394797	0.469183	0.157903	0.323216	0.296279	0.190723	0.270131	0.068269	0.060078	0.260410	0.072418	0.239793	0.362349	0.209884	0.284883	0.083418	0.055234	0.301500	0.129973	0.189749	0.326220	0.276339	0.161187	0.172965	0.366733	0.089760	0.165471
25	0.256726	0.534900	0.388392	0.213223	0.170107	0.284251	0.462538	0.240169	0.282095	0.471253	0.261093	0.119012	0.167845	0.436445	0.295163	0.196293	0.492196	0.315419	0.335891	0.475155	0.435000	0.485493	0.231334	0.145458	0.249501	0.237677	0.151902	0.140119	0.199443	0.165045	0.271032	0.129850	0.270018	0.242842	0.244953	0.217514	0.193620	0.086132	0.165864	0.082430	0.357430	0.537333	0.263334	0.210070	0.160529	0.400149	0.449900	0.165625	0.320312	0.279047	0.185472	0.325048	0.060088	0.094722	0.247404	0.073862	0.244097	0.348369	0.217694	0.299492	0.080649	0.047272	0.254230	0.106006	0.207339	0.419424	0.294613	0.158587	0.213586	0.406221	0.085115	0.169884
26	0.241881	0.501170	0.396158	0.210080	0.150339	0.293648	0.484680	0.301491	0.292637	0.493513	0.255019	0.170699	0.174213	0.440014	0.314116	0.185716	0.484040	0.340803	0.339033	0.476583	0.421844	0.468843	0.245673	0.114414	0.230806	0.228323	0.141894	0.143009	0.118775	0.145129	0.248187	0.130043	0.278587	0.261306	0.238644	0.213508	0.204646	0.082619	0.165576	0.080670	0.328198	0.538272	0.281452	0.220819	0.152609	0.420781	0.368402	0.162472	0.309380	0.221667	0.216143	0.334704	0.056710	0.135565	0.216709	0.072279	0.243919	0.345633	0.301595	0.312427	0.088758	0.050651	0.229292	0.099682	0.209235	0.450422	0.319030	0.164572	0.241875	0.508425	0.083627	0.163134
27	0.248022	0.522437	0.408166	0.194249	0.159479	0.326135	0.493840	0.305439	0.303758	0.513842	0.376851	0.283309	0.151922	0.440159	0.330453	0.174616	0.452849	0.348352	0.321928	0.473365	0.370934	0.453230	0.242560	0.123550	0.252554	0.211147	0.139927	0.142059	0.078442	0.124495	0.197733	0.134300	0.275688	0.258692	0.220920	0.211799	0.211850	0.085949	0.144878	0.068777	0.324096	0.567087	0.309331	0.222623	0.201536	0.451291	0.355208	0.153031	0.306069	0.209846	0.311166	0.342293	0.065118	0.153141	0.199861	0.065625	0.246337	0.348039	0.334194	0.330317	0.094490	0.056488	0.226220	0.080274	0.274689	0.493152	0.330721	0.154306	0.254571	0.577935	0.079576	0.160340
28	0.248324	0.523179	0.397614	0.189044	0.168647	0.343071	0.479360	0.303671	0.280031	0.490060	0.416205	0.343552	0.142489	0.449603	0.352022	0.169653	0.455545	0.350723	0.352704	0.508725	0.331473	0.449157	0.237734	0.149921	0.260492	0.216102	0.193892	0.167011	0.068247	0.096394	0.166589	0.113361	0.277986	0.262361	0.178220	0.216464	0.213224	0.198504	0.162195	0.146260	0.297231	0.588787	0.291695	0.231851	0.226136	0.469463	0.352829	0.225336	0.282264	0.208017	0.329114	0.349150	0.084103	0.212566	0.208301	0.057650	0.246629	0.349508	0.339279	0.330166	0.091502	0.056311	0.183942	0.078496	0.289141	0.521438	0.346499	0.128012	0.254641	0.576901	0.077071	0.159451
29	0.246657	0.507399	0.382067	0.255222	0.164749	0.342880	0.466276	0.295674	0.225620	0.419820	0.424219	0.349913	0.136648	0.454040	0.356616	0.171076	0.418610	0.372802	0.358701	0.607699	0.312565	0.450469	0.323772	0.228062	0.276234	0.214087	0.215015	0.306195	0.068257	0.073850	0.160176	0.107312	0.288673	0.279376	0.169387	0.228057	0.236135	0.240360	0.194397	0.176188	0.252696	0.628056	0.304900	0.240022	0.225275	0.466809	0.426066	0.233607	0.244844	0.205881	0.330884	0.371650	0.085100	0.217560	0.211220	0.057247	0.249644	0.349259	0.389304	0.374722	0.081552	0.051626	0.185771	0.076079	0.291471	0.524752	0.351974	0.118265	0.248896	0.575715	0.076737	0.153373
30	0.252589	0.503381	0.392682	0.310925	0.155037	0.339882	0.426800	0.292965	0.200227	0.333975	0.467891	0.363323	0.138573	0.453793	0.354445	0.179015	0.379127	0.400395	0.355695	0.645518	0.301383	0.449394	0.376189	0.283670	0.295487	0.223115	0.218950	0.401784	0.064725	0.073371	0.152434	0.108608	0.289969	0.293269	0.169283	0.224709	0.229331	0.241003	0.222045	0.175011	0.242770	0.615967	0.285431	0.270269	0.224830	0.448705	0.411930	0.258875	0.217638	0.197216	0.331366	0.373787	0.090717	0.216663	0.207312	0.056086	0.249300	0.335506	0.401931	0.484410	0.077018	0.047390	0.152401	0.065319	0.291848	0.536596	0.353383	0.120210	0.245364	0.572777	0.070352	0.140598
31	0.253876	0.508412	0.395498	0.346750	0.151413	0.338785	0.344823	0.286205	0.200872	0.331656	0.479485	0.396027	0.141727	0.458299	0.355585	0.179777	0.380830	0.422936	0.354234	0.616098	0.298639	0.405301	0.444905	0.304479	0.355976	0.236350	0.201271	0.401691	0.059235	0.076874	0.163549	0.099947	0.249088	0.270572	0.157562	0.222205	0.229501	0.246908	0.265015	0.183768	0.241350	0.611392	0.278563	0.311135	0.227192	0.432047	0.420537	0.265567	0.226858	0.234536	0.335567	0.371392	0.094353	0.225094	0.206375	0.056677	0.254183	0.314480	0.406664	0.576501	0.076428	0.049775	0.118844	0.065722	0.293085	0.559559	0.341501	0.102417	0.241818	0.566480	0.056903	0.138970
32	0.249319	0.510318	0.400479	0.361429	0.155602	0.339319	0.325865	0.271782	0.202494	0.340261	0.481534	0.449025	0.149707	0.469351	0.349178	0.179642	0.380438	0.425696	0.361795	0.599888	0.276902	0.147214	0.474774	0.411380	0.363635	0.244709	0.210862	0.419772	0.046770	0.079771	0.159787	0.079997	0.211022	0.236779	0.160136	0.221258	0.218356	0.253629	0.289348	0.191858	0.228958	0.614053	0.270201	0.328598	0.226639	0.426301	0.458468	0.281616	0.232475	0.255032	0.364146	0.348080	0.100862	0.257777	0.209162	0.058063	0.248478	0.265664	0.412333	0.623416	0.076744	0.074985	0.117767	0.066615	0.291008	0.603340	0.361710	0.094104	0.240888	0.569599	0.063319	0.122942
33	0.250955	0.510892	0.375424	0.430702	0.136695	0.343990	0.311787	0.267662	0.190714	0.325708	0.481176	0.465572	0.146969	0.452819	0.342125	0.152994	0.378703	0.424815	0.346224	0.604036	0.189851	0.154343	0.481045	0.473149	0.359405	0.247489	0.229597	0.467694	0.049120	0.081518	0.133210	0.088852	0.215293	0.254994	0.184407	0.209905	0.212453	0.258420	0.296897	0.199473	0.225206	0.622031	0.271320	0.331522	0.224570	0.404169	0.463919	0.297394	0.224367	0.254602	0.435785	0.330030	0.099851	0.270456	0.209064	0.056286	0.247116	0.232370	0.414798	0.638698	0.076607	0.131187	0.120224	0.065315	0.298672	0.610726	0.377324	0.139244	0.237704	0.565215	0.064132	0.099993
34	0.250639	0.502121	0.302782	0.454191	0.159107	0.423038	0.338633	0.267721	0.183734	0.299933	0.475376	0.465861	0.138272	0.365912	0.350402	0.164838	0.378191	0.422849	0.370492	0.610803	0.157230	0.160968	0.480447	0.484697	0.358699	0.249358	0.235883	0.514885	0.053459	0.086127	0.131016	0.110587	0.211902	0.258959	0.180323	0.187637	0.185258	0.258173	0.364863	0.211191	0.215957	0.623171	0.270497	0.325557	0.219508	0.402769	0.463746	0.299688	0.177531	0.252138	0.483728	0.323934	0.112907	0.280598	0.160657	0.060531	0.243686	0.229304	0.413815	0.629139	0.075549	0.144553	0.125475	0.068531	0.298286	0.599939	0.421673	0.151977	0.223738	0.550653	0.065172	0.087892
35	0.192002	0.394659	0.245095	0.490565	0.159527	0.426081	0.371062	0.278415	0.181241	0.298309	0.502742	0.467144	0.144602	0.300277	0.356600	0.172372	0.360507	0.422185	0.409637	0.596829	0.158416	0.149218	0.480837	0.479452	0.361823	0.258986	0.243288	0.553303	0.059514	0.093625	0.118127	0.110315	0.198690	0.300830	0.173208	0.165407	0.172576	0.258308	0.408097	0.210712	0.203192	0.585832	0.270763	0.304593	0.220104	0.375630	0.504259	0.297969	0.123515	0.224171	0.495718	0.309414	0.118946	0.286120	0.146165	0.063096	0.201004	0.190580	0.412220	0.616758	0.081160	0.144850	0.156514	0.068897	0.298897	0.586904	0.406492	0.160988	0.216114	0.542066	0.086844	0.085604
36	0.138899	0.243561	0.250339	0.527548	0.161318	0.419226	0.373765	0.280415	0.177040	0.299254	0.509955	0.468475	0.145386	0.294903	0.337232	0.176770	0.311731	0.409060	0.427443	0.563964	0.157187	0.139793	0.473353	0.471023	0.358615	0.254020	0.245162	0.566925	0.062799	0.099675	0.110577	0.133574	0.183451	0.297929	0.187368	0.159199	0.157554	0.258932	0.419080	0.209322	0.151494	0.491523	0.255961	0.293728	0.210542	0.329865	0.602485	0.297821	0.118246	0.222331	0.494710	0.303793	0.121665	0.275308	0.137773	0.073174	0.132090	0.112912	0.382352	0.593727	0.089348	0.145366	0.159873	0.065171	0.297735	0.569427	0.393414	0.183401	0.183337	0.479406	0.191516	0.043473
37	0.135912	0.222516	0.239787	0.545582	0.162920	0.383426	0.388151	0.278008	0.171483	0.285579	0.514102	0.469487	0.148691	0.341836	0.294571	0.171483	0.204167	0.367780	0.413015	0.548084	0.157846	0.135111	0.415056	0.443935	0.341536	0.235953	0.246278	0.569526	0.062247	0.104705	0.119846	0.148091	0.171843	0.282947	0.194001	0.221019	0.158888	0.238492	0.421056	0.193080	0.124100	0.399241	0.229582	0.280050	0.165903	0.289011	0.604617	0.262298	0.117748	0.223499	0.494652	0.257267	0.124485	0.261330	0.227122	0.082932	0.119258	0.101844	0.375033	0.582213	0.087511	0.145058	0.165518	0.075020	0.294821	0.532363	0.391879	0.187307	0.140569	0.438468	0.349336	0.081296
38	0.133098	0.147008	0.234310	0.547033	0.163247	0.355292	0.368090	0.228309	0.144639	0.248149	0.511515	0.442246	0.150258	0.346129	0.315638	0.182153	0.162742	0.321580	0.391154	0.544009	0.158280	0.132590	0.355052	0.404859	0.333675	0.216362	0.250031	0.569139	0.062070	0.121489	0.130439	0.145248	0.181658	0.284200	0.206662	0.339636	0.139572	0.146271	0.417511	0.155507	0.118301	0.393139	0.224856	0.273806	0.170705	0.304402	0.493723	0.217109	0.119996	0.230959	0.501997	0.196379	0.118386	0.257620	0.329508	0.083466	0.118562	0.114380	0.315171	0.577908	0.082175	0.147646	0.195983	0.075528	0.286950	0.460038	0.369343	0.226371	0.088507	0.272354	0.394532	0.235405
39	0.133788	0.150015	0.249569	0.545017	0.158524	0.348874	0.296285	0.192339	0.125647	0.250604	0.403596	0.379050	0.210761	0.430495	0.357238	0.294345	0.221456	0.303395	0.379248	0.559586	0.156227	0.123076	0.312276	0.432858	0.310716	0.203248	0.255571	0.571974	0.061400	0.121820	0.145975	0.144290	0.200140	0.291145	0.212329	0.380137	0.077269	0.156099	0.385842	0.160907	0.125310	0.364889	0.181107	0.269318	0.172932	0.303071	0.499937	0.220145	0.124108	0.237734	0.464663	0.198282	0.107708	0.223911	0.329891	0.081820	0.112779	0.115262	0.271564	0.579971	0.083266	0.150335	0.222967	0.075913	0.279478	0.449327	0.360035	0.278965	0.064483	0.127071	0.426183	0.367342
40	0.135103	0.265089	0.248531	0.528955	0.162611	0.390182	0.296601	0.201702	0.128524	0.285272	0.382917	0.343004	0.230359	0.458281	0.356976	0.344497	0.240776	0.270950	0.370903	0.596951	0.165072	0.113843	0.268337	0.438273	0.299131	0.209937	0.255553	0.595878	0.080908	0.122490	0.155416	0.151921	0.183008	0.273722	0.274579	0.372785	0.072772	0.167243	0.386798	0.160829	0.122549	0.345721	0.183202	0.261159	0.167920	0.300853	0.519167	0.215191	0.127816	0.236191	0.415894	0.196927	0.111117	0.228557	0.357429	0.083281	0.117245	0.124752	0.326419	0.669225	0.083225	0.151474	0.232377	0.080344	0.198566	0.379876	0.382964	0.332856	0.068300	0.118846	0.443532	0.414694
41	0.127402	0.293963	0.226381	0.504765	0.182865	0.509432	0.286651	0.196003	0.128395	0.278854	0.365652	0.387672	0.234715	0.466274	0.348781	0.341631	0.264825	0.264922	0.406550	0.614689	0.147522	0.092233	0.436892	0.366381	0.294416	0.228283	0.224306	0.675409	0.121625	0.144091	0.156165	0.158802	0.161425	0.242393	0.347089	0.367498	0.071897	0.163670	0.358543	0.148425	0.106866	0.257703	0.190547	0.250910	0.165833	0.301324	0.519733	0.216320	0.128445	0.221159	0.405838	0.176373	0.107106	0.230951	0.392655	0.088457	0.119033	0.117214	0.450833	0.791344	0.084200	0.164575	0.243033	0.103652	0.190976	0.391467	0.379924	0.451858	0.068641	0.119327	0.469677	0.417850
42	0.109626	0.282151	0.222030	0.530365	0.187830	0.581079	0.285672	0.177465	0.128139	0.277817	0.313818	0.385989	0.233576	0.468293	0.381831	0.341694	0.262156	0.262873	0.382043	0.571320	0.121765	0.073168	0.464762	0.357546	0.288494	0.241832	0.272969	0.655510	0.126342	0.154509	0.131388	0.183499	0.161452	0.234843	0.394527	0.375199	0.071649	0.156665	0.436852	0.170303	0.105585	0.246948	0.207328	0.257501	0.159035	0.294317	0.517246	0.190074	0.130883	0.201261	0.404522	0.146487	0.105218	0.222411	0.395137	0.094929	0.123305	0.129336	0.490374	0.784797	0.093408	0.193942	0.245981	0.138408	0.189008	0.399580	0.376153	0.476607	0.071179	0.124141	0.488866	0.430760
43	0.106077	0.281372	0.399504	0.629888	0.207435	0.599020	0.285796	0.171709	0.113159	0.272755	0.303715	0.347393	0.235013	0.466757	0.404547	0.351849	0.248880	0.220644	0.384133	0.461726	0.246314	0.116829	0.533567	0.358502	0.253422	0.244060	0.286538	0.629100	0.134004	0.175569	0.180949	0.190282	0.164055	0.237769	0.393794	0.437324	0.071026	0.167876	0.522739	0.181960	0.130662	0.248081	0.251089	0.303518	0.153278	0.279986	0.514443	0.180417	0.131514	0.194125	0.403542	0.174619	0.099109	0.184247	0.398491	0.094034	0.120654	0.138354	0.491093	0.721374	0.102332	0.205337	0.274917	0.139361	0.188707	0.381921	0.412680	0.496278	0.080148	0.146572	0.542674	0.469710
44	0.105737	0.290506	0.690685	0.692848	0.236395	0.623638	0.285573	0.206481	0.101622	0.280471	0.300002	0.315473	0.230925	0.417213	0.441926	0.355488	0.242843	0.186733	0.422933	0.394168	0.302670	0.132005	0.566194	0.378069	0.180986	0.243659	0.304820	0.647646	0.174745	0.287252	0.211496	0.189333	0.162273	0.230166	0.450956	0.524711	0.083322	0.177637	0.491716	0.217509	0.145009	0.248082	0.393376	0.428536	0.152830	0.303468	0.511518	0.172747	0.131955	0.169939	0.398659	0.197024	0.103091	0.182263	0.398507	0.102915	0.121526	0.138667	0.522091	0.692006	0.102865	0.182489	0.303099	0.140772	0.231952	0.332980	0.451765	0.547560	0.081326	0.136276	0.593289	0.501268
45	0.112598	0.292263	0.704406	0.688555	0.277317	0.662807	0.284631	0.309803	0.108186	0.309730	0.312507	0.378791	0.232291	0.420947	0.489354	0.360009	0.239809	0.185795	0.467187	0.383151	0.332117	0.152362	0.578025	0.387643	0.170480	0.238682	0.291700	0.629521	0.205864	0.368240	0.216793	0.177362	0.176729	0.241260	0.520992	0.565467	0.084622	0.185355	0.486510	0.245093	0.186326	0.233347	0.407957	0.518510	0.125113	0.316047	0.366725	0.171673	0.158001	0.190584	0.356246	0.203724	0.095657	0.191812	0.398778	0.122570	0.117474	0.143275	0.613283	0.716622	0.105288	0.164506	0.306534	0.139307	0.226033	0.245618	0.434914	0.593636	0.087105	0.139774	0.607758	0.522233
46	0.115232	0.294616	0.748170	0.685785	0.306855	0.739255	0.320366	0.355274	0.134393	0.359338	0.336153	0.431634	0.231042	0.445712	0.486530	0.359808	0.240046	0.200585	0.489667	0.383608	0.363820	0.178258	0.599225	0.419625	0.188144	0.241887	0.286259	0.594258	0.229864	0.404088	0.232790	0.185672	0.192637	0.217927	0.566024	0.580671	0.089338	0.182351	0.497020	0.256072	0.193994	0.215683	0.463704	0.618382	0.108961	0.282919	0.339745	0.173808	0.167728	0.199838	0.268648	0.202515	0.113743	0.202673	0.400705	0.161529	0.113075	0.147660	0.676503	0.760246	0.104872	0.167046	0.300734	0.134050	0.203936	0.234729	0.429450	0.643926	0.149461	0.200757	0.612480	0.538075
47	0.126391	0.301209	0.821487	0.770423	0.301425	0.752008	0.376289	0.372733	0.137535	0.366677	0.287288	0.432893	0.225433	0.475744	0.494594	0.362242	0.241913	0.211902	0.486407	0.371186	0.374856	0.179112	0.586898	0.400178	0.198928	0.237717	0.281960	0.560049	0.248764	0.458929	0.234078	0.207136	0.200359	0.241971	0.567527	0.582557	0.085216	0.177151	0.498451	0.268673	0.198607	0.219595	0.488548	0.631309	0.092267	0.350109	0.307308	0.173885	0.167132	0.200389	0.184299	0.200303	0.114285	0.207190	0.401967	0.174559	0.125562	0.161094	0.684915	0.778345	0.091560	0.166857	0.303438	0.134689	0.225271	0.255657	0.385411	0.655862	0.210931	0.291129	0.615746	0.550972
48	0.136011	0.316684	0.902696	0.868308	0.301576	0.752653	0.405862	0.368424	0.145186	0.376927	0.282844	0.431730	0.215776	0.454134	0.512167	0.407740	0.245325	0.219365	0.470372	0.355248	0.375732	0.179034	0.582447	0.309898	0.194450	0.226675	0.302241	0.551735	0.250150	0.459433	0.251683	0.226988	0.207668	0.251058	0.567020	0.559688	0.110872	0.169987	0.498059	0.268455	0.199728	0.229315	0.510685	0.631922	0.116039	0.391848	0.303345	0.177716	0.174032	0.213643	0.176717	0.199825	0.121689	0.202464	0.349741	0.172516	0.159743	0.219010	0.684045	0.784288	0.082501	0.166518	0.322374	0.133311	0.246535	0.275182	0.403691	0.671337	0.229366	0.342323	0.587517	0.551547
49	0.148301	0.342186	0.919739	0.904399	0.298912	0.746283	0.401926	0.372415	0.147120	0.376780	0.265742	0.431180	0.214786	0.452272	0.523491	0.419845	0.247097	0.220115	0.424128	0.341501	0.408589	0.191662	0.478070	0.299446	0.187997	0.224411	0.308643	0.546223	0.250504	0.455373	0.279389	0.250559	0.201141	0.254207	0.561837	0.498938	0.147229	0.162387	0.510337	0.267268	0.237861	0.255893	0.569653	0.631646	0.162941	0.432997	0.276523	0.164729	0.179458	0.231409	0.178726	0.199892	0.133373	0.194192	0.251386	0.172451	0.172169	0.252189	0.683490	0.786037	0.076677	0.164859	0.310450	0.132568	0.249781	0.283741	0.458445	0.688871	0.229283	0.360123	0.506851	0.542919
50	0.148545	0.341077	0.925009	0.908483	0.301257	0.744811	0.395223	0.378735	0.147813	0.368141	0.235526	0.433747	0.228030	0.470163	0.526106	0.388835	0.244662	0.220786	0.421125	0.337557	0.476151	0.217119	0.433971	0.299041	0.204717	0.240487	0.313104	0.556364	0.250501	0.455594	0.274673	0.259868	0.177688	0.242416	0.555556	0.468277	0.150638	0.152087	0.561354	0.280704	0.322314	0.291630	0.593989	0.640238	0.168480	0.434807	0.220504	0.149294	0.183387	0.230164	0.178251	0.198604	0.150377	0.180490	0.249341	0.171719	0.175969	0.248317	0.682314	0.784683	0.075175	0.161556	0.294855	0.133568	0.234955	0.281863	0.496546	0.689815	0.226886	0.368352	0.489834	0.481501
51	0.146509	0.271641	0.926830	0.900922	0.304170	0.745503	0.407343	0.392604	0.146331	0.339429	0.231630	0.434880	0.185915	0.413697	0.512794	0.323523	0.242772	0.224663	0.432408	0.320734	0.468875	0.216576	0.376907	0.297173	0.256005	0.267505	0.384977	0.610485	0.244648	0.455815	0.272835	0.254198	0.181975	0.255946	0.532007	0.467387	0.158374	0.166320	0.538515	0.317205	0.368453	0.320791	0.649857	0.714486	0.170757	0.435849	0.180389	0.135882	0.180475	0.220441	0.159690	0.194972	0.152937	0.177675	0.246136	0.195601	0.176389	0.244818	0.681924	0.774367	0.075806	0.160624	0.274528	0.127962	0.233753	0.277942	0.504861	0.679851	0.252106	0.424788	0.465828	0.395985
52	0.156562	0.249427	0.925925	0.896722	0.301027	0.730558	0.411635	0.440490	0.142234	0.316847	0.248423	0.414735	0.174314	0.413108	0.504921	0.326191	0.231972	0.233922	0.436744	0.308929	0.474305	0.228418	0.328929	0.295316	0.306549	0.289573	0.470029	0.652290	0.229062	0.465216	0.295839	0.251481	0.189423	0.270670	0.503150	0.473783	0.172803	0.204669	0.446902	0.320071	0.401893	0.340076	0.658393	0.865008	0.182790	0.470990	0.199812	0.146672	0.197352	0.280725	0.171213	0.178459	0.205724	0.203689	0.266134	0.225333	0.173054	0.237954	0.659564	0.706762	0.089446	0.160029	0.260533	0.122453	0.233049	0.274361	0.499824	0.669680	0.315979	0.616773	0.448282	0.376754
53	0.190281	0.374562	0.924718	0.866645	0.317611	0.693696	0.412973	0.477289	0.139630	0.316487	0.236704	0.371733	0.173959	0.416523	0.498005	0.335966	0.172150	0.236783	0.434955	0.274424	0.540703	0.219873	0.322870	0.287004	0.327883	0.291770	0.483557	0.631820	0.226654	0.466264	0.472777	0.239235	0.193288	0.274392	0.477536	0.485191	0.171421	0.217319	0.394014	0.316678	0.430436	0.326073	0.652052	0.997024	0.216972	0.535423	0.207895	0.161536	0.199896	0.295921	0.185231	0.181015	0.264004	0.236028	0.266978	0.224509	0.170727	0.256240	0.552736	0.539884	0.093176	0.150805	0.259211	0.075401	0.240571	0.277108	0.466329	0.648312	0.329137	0.690443	0.438062	0.378094
54	0.225464	0.551137	0.852895	0.789044	0.347435	0.692011	0.420063	0.503479	0.133997	0.313934	0.226045	0.364471	0.173852	0.415493	0.461774	0.339738	0.133643	0.240250	0.456983	0.334199	0.680060	0.193369	0.261196	0.242150	0.322307	0.273669	0.473481	0.540181	0.220898	0.458265	0.617335	0.238008	0.189188	0.279284	0.476278	0.438212	0.194906	0.218527	0.396054	0.327117	0.435058	0.291962	0.648127	1.064282	0.241833	0.516066	0.209681	0.160401	0.200114	0.312673	0.180126	0.189071	0.279701	0.251134	0.263425	0.233081	0.176872	0.295263	0.498847	0.443962	0.086310	0.118066	0.249182	0.133751	0.247044	0.223572	0.472491	0.607113	0.328168	0.695753	0.408368	0.358249
55	0.236624	0.612243	0.648034	0.696775	0.350666	0.699111	0.431665	0.515870	0.133897	0.307573	0.225875	0.359448	0.165610	0.416226	0.452527	0.325025	0.091169	0.241633	0.433607	0.451870	0.852095	0.247282	0.252591	0.222966	0.318420	0.260840	0.448128	0.511940	0.196308	0.414409	0.621213	0.234100	0.187118	0.267089	0.424242	0.365431	0.197888	0.232116	0.381817	0.349645	0.430779	0.289322	0.645050	1.070919	0.245667	0.522345	0.216535	0.156243	0.198430	0.309788	0.199153	0.178446	0.280463	0.242577	0.292214	0.370679	0.186626	0.302254	0.500297	0.436407	0.123734	0.186828	0.474671	0.270449	0.248719	0.214787	0.473054	0.620688	0.329126	0.703130	0.333635	0.303284
56	0.255233	0.629777	0.631216	0.678596	0.326506	0.666914	0.459884	0.513213	0.130756	0.278771	0.223839	0.336619	0.163748	0.413493	0.385706	0.321974	0.072653	0.240653	0.429217	0.461677	0.930887	0.315745	0.257718	0.192635	0.313922	0.243415	0.438269	0.497356	0.195234	0.354428	0.700855	0.233463	0.176283	0.256684	0.343920	0.367186	0.196739	0.242872	0.363342	0.346436	0.428842	0.290222	0.582485	1.027080	0.244683	0.494082	0.225101	0.152249	0.194728	0.307868	0.204944	0.145092	0.280294	0.224795	0.381224	0.428708	0.184211	0.315056	0.471311	0.419089	0.151761	0.239033	0.661520	0.288844	0.245019	0.214165	0.441932	0.599085	0.330824	0.707085	0.252570	0.251123
57	0.348082	0.770380	0.575329	0.650107	0.317620	0.675573	0.475359	0.469846	0.125605	0.257733	0.189396	0.299876	0.160175	0.402074	0.353991	0.307422	0.075883	0.238379	0.414928	0.472615	1.147563	0.326611	0.280594	0.179228	0.311806	0.238068	0.431827	0.513916	0.239718	0.361329	0.758459	0.226228	0.181078	0.255619	0.286499	0.361081	0.196367	0.243604	0.371684	0.341035	0.417385	0.289547	0.546396	0.979702	0.244964	0.494360	0.224259	0.151001	0.233411	0.352696	0.246777	0.122794	0.273354	0.210609	0.394366	0.421296	0.208192	0.369539	0.412954	0.352640	0.150667	0.239855	0.676540	0.299854	0.195842	0.213757	0.424328	0.581945	0.326602	0.705993	0.233955	0.219258
58	0.386823	0.935421	0.454699	0.506836	0.295681	0.628304	0.465094	0.422631	0.115220	0.228065	0.168901	0.281584	0.162920	0.348578	0.352334	0.317852	0.079113	0.212862	0.372202	0.530340	1.154087	0.328482	0.275556	0.153309	0.308254	0.234572	0.460959	0.559646	0.301302	0.305584	0.788114	0.191771	0.184899	0.248318	0.310469	0.359660	0.161888	0.239435	0.371442	0.344449	0.407817	0.289573	0.520014	0.920770	0.226362	0.598279	0.190893	0.131176	0.271236	0.453484	0.293905	0.170023	0.271114	0.205183	0.432736	0.425525	0.257493	0.471097	0.311328	0.234609	0.150316	0.239048	0.744387	0.324264	0.194855	0.201947	0.417047	0.553173	0.295453	0.687283	0.279300	0.214283
59	0.392993	0.938869	0.259260	0.283976	0.287984	0.558274	0.394181	0.395071	0.111904	0.219713	0.329350	0.300210	0.172084	0.336329	0.358186	0.319713	0.078891	0.174719	0.310370	0.592602	1.204734	0.338372	0.256429	0.148965	0.296801	0.231507	0.489467	0.577681	0.339264	0.305438	0.782383	0.171835	0.177751	0.236450	0.309850	0.389216	0.171781	0.242900	0.304840	0.347564	0.404955	0.287692	0.475166	0.893290	0.237512	0.630117	0.169992	0.172908	0.272099	0.471442	0.337985	0.199221	0.268561	0.205899	0.547629	0.471722	0.260694	0.502701	0.304096	0.156077	0.167349	0.244742	0.838051	0.349471	0.191091	0.185120	0.414827	0.499210	0.261315	0.660149	0.291985	0.195193
60	0.390176	0.933469	0.174743	0.139887	0.287160	0.551317	0.323325	0.391019	0.102387	0.200818	0.449885	0.308208	0.182203	0.324207	0.370210	0.289177	0.081181	0.155431	0.304011	0.614746	1.195230	0.320237	0.224127	0.087272	0.289962	0.233366	0.490925	0.571296	0.344755	0.304462	0.771523	0.196708	0.177121	0.230887	0.350119	0.425614	0.173303	0.242491	0.252314	0.323808	0.404256	0.283492	0.466775	0.897418	0.255904	0.646039	0.178185	0.189688	0.272104	0.470739	0.354849	0.199958	0.270194	0.209948	0.593177	0.523763	0.241912	0.480964	0.331981	0.122682	0.169963	0.244166	0.864715	0.364501	0.186483	0.158670	0.449686	0.491444	0.253430	0.660215	0.291813	0.195043
61	0.408729	0.939040	0.255332	0.240048	0.334272	0.593380	0.313797	0.396216	0.099911	0.196544	0.459916	0.349362	0.151547	0.266875	0.378090	0.288824	0.090558	0.147797	0.323952	0.618298	1.179960	0.323242	0.211972	0.082127	0.292339	0.237604	0.475729	0.552162	0.450215	0.344431	0.770669	0.199850	0.183946	0.230486	0.378448	0.434124	0.182113	0.221113	0.229569	0.284806	0.401252	0.270311	0.406266	0.905505	0.265187	0.642374	0.162039	0.204972	0.266938	0.462620	0.355421	0.211688	0.264103	0.212756	0.600032	0.547801	0.231815	0.471229	0.357455	0.112462	0.171176	0.244392	0.871234	0.370418	0.167795	0.131740	0.426541	0.458192	0.276430	0.692457	0.294605	0.198438
62	0.422566	0.946318	0.432319	0.460419	0.417794	0.680798	0.321727	0.390859	0.098696	0.196146	0.496104	0.372098	0.113056	0.199529	0.310974	0.276756	0.093704	0.145579	0.326851	0.617981	1.111861	0.343082	0.195941	0.068775	0.294118	0.234173	0.474395	0.560944	0.551442	0.419087	0.769803	0.199814	0.177005	0.212130	0.373718	0.432219	0.184784	0.191521	0.205873	0.283480	0.352455	0.236033	0.342924	0.915069	0.249746	0.593914	0.149839	0.223632	0.271113	0.461305	0.362972	0.239909	0.261797	0.207351	0.585099	0.550834	0.229038	0.470802	0.388927	0.211596	0.172430	0.244852	0.871330	0.371953	0.165256	0.120505	0.413374	0.437504	0.301098	0.707028	0.291040	0.206275
63	0.429539	0.952086	0.664988	0.726019	0.432615	0.718813	0.315876	0.387125	0.100807	0.202728	0.494410	0.427734	0.108803	0.158848	0.332789	0.268677	0.108773	0.151045	0.340381	0.618924	1.024219	0.325564	0.163357	0.047543	0.271333	0.207066	0.469401	0.560531	0.577468	0.435479	0.764083	0.198714	0.166375	0.193067	0.374019	0.424679	0.181971	0.201758	0.173705	0.243420	0.284193	0.196140	0.264430	0.903447	0.223884	0.563475	0.184771	0.249322	0.297640	0.470735	0.366259	0.272074	0.223285	0.184146	0.557413	0.544788	0.230740	0.474940	0.455197	0.237368	0.169065	0.242807	0.874948	0.371115	0.161167	0.121426	0.381498	0.445728	0.270722	0.651065	0.278780	0.208981
64	0.423980	0.914687	0.683711	0.753133	0.434624	0.723822	0.325767	0.340221	0.101264	0.219457	0.488800	0.469080	0.100409	0.138007	0.336597	0.259738	0.108238	0.146343	0.363560	0.622445	0.994314	0.251045	0.149324	0.045114	0.215015	0.168197	0.396260	0.503340	0.595118	0.453997	0.669688	0.192182	0.161819	0.197196	0.371539	0.400563	0.172917	0.233404	0.156882	0.206794	0.228717	0.160457	0.316149	0.840401	0.211201	0.555757	0.230358	0.254670	0.302606	0.468538	0.362009	0.285152	0.155599	0.147545	0.560178	0.544407	0.235170	0.481101	0.465725	0.356612	0.162148	0.228633	0.876644	0.371192	0.164179	0.121573	0.373940	0.436514	0.207718	0.472105	0.276553	0.186879
65	0.405983	0.819324	0.685408	0.755544	0.425079	0.710680	0.325140	0.285498	0.115532	0.228596	0.498770	0.478382	0.097607	0.223419	0.336460	0.255342	0.107115	0.137949	0.384575	0.623311	0.707617	0.237842	0.099825	0.033836	0.146059	0.126730	0.354339	0.454830	0.597380	0.456634	0.534637	0.189793	0.156057	0.178739	0.366603	0.391468	0.232553	0.321087	0.157990	0.166967	0.213939	0.172991	0.458886	0.719760	0.220192	0.587943	0.224014	0.260269	0.291668	0.433264	0.363689	0.285933	0.128469	0.121558	0.585575	0.539790	0.244556	0.473279	0.487498	0.430721	0.162467	0.224399	0.884029	0.374895	0.164669	0.120317	0.376265	0.419925	0.223639	0.408851	0.273802	0.176998
66	0.401955	0.776092	0.701627	0.820746	0.395668	0.654646	0.321379	0.228948	0.145176	0.232184	0.500141	0.482932	0.098385	0.340532	0.337796	0.252541	0.109853	0.124314	0.424964	0.633022	0.689097	0.250641	0.064477	0.031596	0.104498	0.101827	0.350049	0.440607	0.598883	0.460312	0.525619	0.193848	0.148948	0.177420	0.358235	0.354075	0.264634	0.381149	0.148791	0.159671	0.183229	0.204114	0.500933	0.625149	0.223942	0.579685	0.363758	0.320895	0.306091	0.425418	0.417903	0.295152	0.129192	0.117051	0.586689	0.475843	0.240050	0.452668	0.529790	0.435881	0.144394	0.193171	0.880401	0.356906	0.147656	0.105382	0.383245	0.397915	0.226965	0.395079	0.270428	0.175905
67	0.401134	0.761043	0.746293	0.937837	0.379280	0.591715	0.316726	0.184180	0.155225	0.247720	0.500433	0.517807	0.101539	0.344825	0.330848	0.252603	0.118548	0.122993	0.570699	0.663383	0.542991	0.258476	0.037955	0.028024	0.107362	0.096971	0.354877	0.489521	0.593682	0.479151	0.410181	0.198589	0.148034	0.180195	0.369402	0.285666	0.286132	0.389769	0.123153	0.152182	0.212344	0.234781	0.503908	0.674085	0.251139	0.503767	0.655225	0.647899	0.308992	0.421192	0.451794	0.301986	0.145380	0.125139	0.615982	0.482936	0.226914	0.443165	0.553683	0.485262	0.112047	0.098126	0.763762	0.396952	0.139735	0.093938	0.383597	0.361849	0.223888	0.377707	0.274935	0.182875
68	0.340105	0.623374	0.759134	0.974261	0.378709	0.590341	0.281806	0.177608	0.156386	0.256921	0.500746	0.528150	0.101543	0.342984	0.330475	0.252343	0.148245	0.134245	0.712564	0.648250	0.524498	0.285805	0.081449	0.098634	0.104896	0.095633	0.421902	0.652901	0.568322	0.456678	0.304475	0.200908	0.120883	0.169691	0.355597	0.272002	0.278649	0.406162	0.117439	0.128310	0.207755	0.240627	0.670455	0.743296	0.246929	0.379930	0.702066	0.699396	0.307394	0.420942	0.443259	0.300934	0.152339	0.132879	0.616018	0.495105	0.226998	0.436931	0.640120	0.533681	0.119539	0.106997	0.742203	0.430636	0.168239	0.090613	0.378337	0.344806	0.241280	0.396519	0.272640	0.192101
69	0.317128	0.363044	0.761177	0.974892	0.374342	0.583972	0.245012	0.176655	0.145277	0.229904	0.502657	0.510938	0.097705	0.345508	0.331027	0.245703	0.186173	0.159219	0.769754	0.633291	0.521377	0.321479	0.090374	0.171346	0.120888	0.110264	0.526041	0.704413	0.531828	0.455712	0.328387	0.212623	0.120283	0.239625	0.350273	0.270210	0.277468	0.473204	0.088174	0.130019	0.207453	0.239922	0.769760	0.749790	0.239550	0.365193	0.713891	0.730281	0.302174	0.415384	0.438923	0.301953	0.151265	0.142827	0.613316	0.486010	0.224395	0.400918	0.629001	0.563658	0.122055	0.112421	0.714369	0.421871	0.199212	0.093088	0.352671	0.338321	0.253561	0.427266	0.266212	0.172378
70	0.311784	0.354089	0.770529	0.982766	0.352855	0.522516	0.233069	0.176534	0.135142	0.209045	0.493528	0.496114	0.096547	0.359035	0.316398	0.207492	0.207850	0.175985	0.776096	0.642623	0.649569	0.458878	0.111077	0.179087	0.179933	0.133675	0.554829	0.680152	0.517116	0.455282	0.372315	0.199507	0.129196	0.289242	0.357610	0.235414	0.373180	0.512667	0.092892	0.120543	0.207721	0.239743	0.796253	0.797262	0.257433	0.371121	0.781905	0.836190	0.254831	0.333473	0.411900	0.300675	0.157342	0.144572	0.514113	0.444903	0.180262	0.291497	0.614240	0.593061	0.105975	0.102244	0.576911	0.433707	0.287296	0.113227	0.345256	0.283979	0.254232	0.428274	0.199613	0.139990
71	0.307012	0.346899	0.772316	0.992821	0.341223	0.491386	0.234121	0.175965	0.147907	0.209927	0.383237	0.503978	0.073094	0.369156	0.290918	0.172552	0.208643	0.177585	0.812819	0.631840	0.638868	0.480737	0.115336	0.229233	0.189720	0.146076	0.528952	0.674084	0.515456	0.456753	0.374633	0.143260	0.126015	0.295523	0.316321	0.220896	0.398463	0.510068	0.094840	0.118529	0.210577	0.240720	0.816642	0.816528	0.343633	0.615948	0.933817	0.924135	0.219103	0.184285	0.404101	0.270055	0.147060	0.140301	0.466515	0.388816	0.179224	0.226896	0.609649	0.599606	0.100417	0.103590	0.518220	0.479179	0.329269	0.121443	0.335912	0.242592	0.253246	0.419213	0.163625	0.139333
72	0.279990	0.327171	0.750206	0.978552	0.345998	0.502051	0.232912	0.172684	0.153058	0.210944	0.299192	0.581856	0.061148	0.376445	0.232687	0.159066	0.210522	0.178234	0.858025	0.585198	0.762917	0.504687	0.117635	0.249705	0.189054	0.145270	0.556696	0.694087	0.421091	0.426357	0.414560	0.127730	0.119913	0.295844	0.291767	0.250570	0.396971	0.504084	0.116584	0.097033	0.223942	0.248146	0.963113	0.819908	0.372079	0.716716	0.972140	0.931459	0.229103	0.169700	0.465223	0.264412	0.142271	0.139148	0.464899	0.359542	0.188620	0.241354	0.602268	0.599333	0.124116	0.115346	0.530290	0.494078	0.354483	0.129499	0.329380	0.235448	0.248980	0.386965	0.162293	0.143156
73	0.259562	0.296457	0.716296	0.894415	0.362699	0.549667	0.230456	0.163445	0.167518	0.217787	0.395338	0.630270	0.064890	0.376343	0.254916	0.187671	0.222413	0.180711	0.871656	0.523544	0.759329	0.505475	0.205128	0.264081	0.205853	0.145338	0.609471	0.714000	0.283113	0.354022	0.479177	0.141176	0.120929	0.297623	0.298880	0.267181	0.394114	0.491157	0.214594	0.103425	0.234505	0.266669	1.231799	0.844000	0.403137	0.806915	0.964887	0.928913	0.231710	0.171818	0.502018	0.280558	0.140638	0.137196	0.465637	0.347724	0.194719	0.249607	0.590180	0.600641	0.149703	0.126859	0.569275	0.495496	0.368983	0.138319	0.295955	0.303478	0.214491	0.307734	0.178014	0.138179
74	0.240498	0.263758	0.551861	0.721556	0.279638	0.475037	0.227338	0.135977	0.197464	0.227199	0.510665	0.750845	0.120308	0.380742	0.348102	0.275258	0.220544	0.180355	0.875404	0.503638	0.747058	0.489278	0.279483	0.265381	0.230815	0.143857	0.632102	0.715715	0.220764	0.310603	0.514462	0.157344	0.139180	0.320526	0.269004	0.314135	0.376010	0.459170	0.232535	0.103112	0.240759	0.278846	1.288136	0.878614	0.408801	0.818283	0.984070	0.946993	0.237974	0.175124	0.499817	0.276746	0.136608	0.128704	0.465792	0.341719	0.208588	0.300413	0.575038	0.573713	0.147816	0.131784	0.581857	0.496421	0.391617	0.145172	0.344880	0.437079	0.187521	0.280071	0.176764	0.124450
75	0.227042	0.238519	0.534326	0.709575	0.222188	0.386653	0.178412	0.127715	0.235238	0.225815	0.546047	0.739231	0.196400	0.414746	0.338542	0.313366	0.214333	0.176153	0.903038	0.500118	0.747333	0.467991	0.311705	0.303197	0.259544	0.144213	0.633772	0.701602	0.180936	0.277329	0.512138	0.171256	0.150824	0.329193	0.256945	0.319978	0.357122	0.370722	0.304218	0.103220	0.239284	0.276785	1.288867	0.892405	0.418862	0.828159	1.015226	0.983062	0.227731	0.156423	0.492485	0.257908	0.129483	0.116602	0.460149	0.351475	0.213174	0.310524	0.519146	0.564642	0.149846	0.132915	0.583249	0.497111	0.404646	0.155453	0.309892	0.538948	0.177934	0.272070	0.207841	0.116641
76	0.227217	0.238971	0.537288	0.721304	0.214231	0.397106	0.152620	0.114687	0.239601	0.209523	0.550770	0.739802	0.215348	0.410619	0.375740	0.319423	0.209549	0.171233	0.923517	0.502719	0.744256	0.456196	0.367269	0.303359	0.267337	0.143738	0.646212	0.685332	0.175050	0.269891	0.507131	0.169764	0.167980	0.344526	0.261147	0.328049	0.349814	0.364755	0.314122	0.115360	0.242379	0.277099	1.276752	0.871257	0.410532	0.827900	0.884220	0.878312	0.208245	0.149344	0.491822	0.250898	0.129707	0.114418	0.426500	0.355853	0.212695	0.332052	0.509438	0.506314	0.153271	0.132628	0.578462	0.491105	0.431154	0.187550	0.358587	0.632688	0.172606	0.272444	0.231991	0.125674
77	0.225866	0.233030	0.543294	0.648192	0.204752	0.514003	0.177480	0.104658	0.232254	0.203964	0.587894	0.825801	0.225104	0.333584	0.405420	0.339742	0.247359	0.171510	0.925839	0.531693	0.741299	0.439727	0.377885	0.270532	0.325004	0.149465	0.656449	0.680192	0.163330	0.231470	0.503068	0.164249	0.176328	0.350753	0.253608	0.326290	0.364592	0.355594	0.319868	0.112749	0.275332	0.280618	1.233468	0.841133	0.392770	0.815228	0.792271	0.740343	0.203822	0.161887	0.493542	0.314258	0.122615	0.113074	0.398879	0.321304	0.205416	0.372211	0.491771	0.435919	0.150760	0.131837	0.493723	0.462855	0.451357	0.224813	0.438651	0.644884	0.136602	0.278787	0.235871	0.130101
78	0.195978	0.231630	0.588137	0.463259	0.220951	0.541164	0.202969	0.119211	0.261570	0.249049	0.627300	0.912362	0.239879	0.406723	0.432041	0.341277	0.267290	0.179630	0.931088	0.582836	0.611270	0.263639	0.385443	0.286814	0.333044	0.149422	0.639145	0.684874	0.150419	0.187308	0.503827	0.158072	0.170828	0.345088	0.225510	0.346548	0.367353	0.280665	0.332149	0.126824	0.307175	0.298171	1.206521	0.810892	0.399396	0.816545	0.799854	0.734798	0.200300	0.177086	0.484663	0.358850	0.093547	0.099075	0.258756	0.221274	0.201750	0.365692	0.444167	0.431260	0.148602	0.127493	0.391994	0.400015	0.453748	0.230650	0.512489	0.660316	0.133903	0.280307	0.233935	0.137061
79	0.160261	0.211501	0.609080	0.389881	0.234025	0.552430	0.201964	0.119427	0.347350	0.316821	0.661111	0.966033	0.246672	0.513322	0.432973	0.362917	0.277810	0.186641	0.922000	0.619038	0.574458	0.205091	0.386541	0.275625	0.331953	0.147654	0.638926	0.681567	0.142025	0.156755	0.497677	0.156353	0.166875	0.330366	0.233719	0.342370	0.327830	0.155057	0.331349	0.146238	0.288548	0.280688	1.200813	0.742597	0.384939	0.812369	0.774437	0.650560	0.176879	0.164774	0.424629	0.344394	0.103537	0.093701	0.244672	0.191987	0.202315	0.365725	0.423287	0.379934	0.138330	0.108669	0.369048	0.354322	0.454436	0.231107	0.509913	0.730208	0.130213	0.274043	0.264892	0.129744
80	0.111848	0.184185	0.605606	0.392242	0.235025	0.556127	0.208005	0.117166	0.428336	0.383045	0.696360	0.987734	0.262067	0.538992	0.433274	0.370723	0.279081	0.185933	0.897862	0.616785	0.214383	0.140273	0.390718	0.254211	0.331194	0.148770	0.630073	0.606838	0.143067	0.140676	0.433794	0.144637	0.158606	0.268736	0.199570	0.348978	0.253597	0.101857	0.330391	0.147312	0.281513	0.263221	1.153255	0.640828	0.327087	0.731629	0.617158	0.478045	0.175228	0.163374	0.412502	0.345219	0.163209	0.129679	0.167360	0.191947	0.205947	0.364944	0.283814	0.312437	0.134151	0.099829	0.360245	0.339558	0.463970	0.241845	0.617716	0.833723	0.087155	0.213363	0.265534	0.126149
81	0.109358	0.207045	0.597584	0.392529	0.241911	0.557487	0.288297	0.142128	0.450970	0.407285	0.708191	0.986859	0.267983	0.555963	0.438972	0.456276	0.285171	0.191417	0.817958	0.573411	0.260008	0.159768	0.365495	0.242431	0.331413	0.147811	0.576520	0.431194	0.108613	0.137655	0.397594	0.143016	0.149615	0.221614	0.229384	0.341917	0.218295	0.097070	0.391327	0.149035	0.279441	0.258303	1.068242	0.611612	0.246158	0.509933	0.460227	0.388683	0.174792	0.174198	0.424706	0.347424	0.358546	0.264905	0.164937	0.176493	0.207124	0.361689	0.410364	0.288646	0.131217	0.101576	0.353100	0.309030	0.455319	0.256741	0.721669	0.926204	0.065484	0.176334	0.267646	0.149310
82	0.127652	0.226334	0.595171	0.366522	0.251348	0.557204	0.312215	0.154742	0.456133	0.413410	0.703893	0.985518	0.268955	0.547962	0.455328	0.608971	0.270331	0.181308	0.710825	0.496198	0.263675	0.159157	0.301689	0.239758	0.320094	0.141428	0.493993	0.379776	0.103254	0.138361	0.397549	0.138061	0.153202	0.224639	0.317618	0.308471	0.217716	0.092553	0.410408	0.145699	0.283145	0.260885	1.025509	0.581604	0.209847	0.398565	0.444914	0.387587	0.166796	0.176883	0.510303	0.347054	0.440511	0.297729	0.157218	0.165624	0.260377	0.432436	0.469608	0.239474	0.129819	0.100190	0.345930	0.201469	0.447857	0.266776	0.751483	0.967068	0.074362	0.168129	0.301730	0.163796
83	0.128462	0.226975	0.597555	0.335115	0.252840	0.562341	0.313563	0.157232	0.451851	0.412649	0.700647	0.969188	0.295795	0.547119	0.485981	0.690300	0.256937	0.171838	0.661066	0.426687	0.368972	0.176532	0.276495	0.203978	0.293529	0.118651	0.481878	0.356758	0.112743	0.136193	0.362066	0.138715	0.151618	0.229143	0.319109	0.272715	0.215914	0.092387	0.402983	0.149349	0.301366	0.271171	1.024282	0.532113	0.177779	0.310925	0.436918	0.373838	0.157641	0.175847	0.601241	0.342981	0.441932	0.300481	0.122932	0.154871	0.276616	0.446077	0.476883	0.236694	0.110711	0.101257	0.307738	0.113974	0.395148	0.263537	0.763394	0.970864	0.074662	0.148145	0.319374	0.168171
84	0.131684	0.232745	0.566371	0.328795	0.256223	0.593750	0.313242	0.179766	0.450871	0.412199	0.688189	0.924585	0.326882	0.560507	0.563394	0.723067	0.251368	0.157376	0.656958	0.425547	0.379231	0.174063	0.187556	0.181807	0.291807	0.111304	0.468432	0.303258	0.112269	0.131283	0.270115	0.133103	0.149606	0.223740	0.313140	0.257930	0.193747	0.067258	0.372498	0.154861	0.299909	0.274966	0.949094	0.529514	0.132481	0.163174	0.333112	0.266600	0.150298	0.168669	0.595345	0.350824	0.583194	0.412184	0.103582	0.147279	0.277503	0.446334	0.509840	0.263723	0.062384	0.092072	0.226425	0.087594	0.376461	0.264583	0.777730	0.979132	0.097093	0.136949	0.318368	0.167249
85	0.140275	0.243870	0.582970	0.279431	0.233584	0.584085	0.313233	0.189893	0.445785	0.409502	0.610099	0.861599	0.330327	0.561952	0.526243	0.717762	0.253033	0.159231	0.616242	0.423628	0.405189	0.179985	0.180037	0.175153	0.288543	0.113755	0.402424	0.223634	0.111294	0.129831	0.181833	0.114350	0.143352	0.187112	0.352564	0.218809	0.176207	0.048187	0.363917	0.208941	0.289906	0.265344	0.642635	0.502656	0.124177	0.123545	0.264608	0.222325	0.140037	0.166859	0.526226	0.422432	0.829045	0.483959	0.087442	0.209582	0.274953	0.434497	0.597191	0.268317	0.056290	0.080346	0.171173	0.080009	0.343855	0.257174	0.788254	0.981085	0.112094	0.136617	0.310732	0.174804
86	0.193298	0.268905	0.589714	0.262566	0.196060	0.547892	0.312687	0.191060	0.433154	0.406068	0.496928	0.761115	0.299339	0.550905	0.504848	0.686033	0.286445	0.176039	0.584195	0.418420	0.428841	0.181440	0.167489	0.147837	0.272321	0.109822	0.335830	0.169552	0.099351	0.131173	0.171725	0.100720	0.154437	0.160780	0.392251	0.219470	0.133452	0.055765	0.403505	0.261318	0.282512	0.256102	0.204970	0.422955	0.117913	0.107403	0.254078	0.222285	0.136519	0.167189	0.579127	0.533064	0.838917	0.495923	0.088623	0.313106	0.274540	0.406874	0.643639	0.271255	0.054970	0.078621	0.134566	0.070162	0.307935	0.245877	0.776681	0.950142	0.114543	0.136090	0.314245	0.180264
87	0.202671	0.273133	0.620643	0.224843	0.201363	0.564515	0.312659	0.191448	0.417495	0.405040	0.481348	0.752019	0.266225	0.529916	0.478760	0.676369	0.316159	0.185368	0.569541	0.421798	0.515424	0.175321	0.205862	0.115441	0.253420	0.100220	0.352124	0.208345	0.092102	0.143990	0.168783	0.112292	0.138715	0.125556	0.395814	0.208126	0.102926	0.072892	0.406342	0.279357	0.288021	0.266327	0.188563	0.367399	0.073629	0.122093	0.240061	0.210493	0.152110	0.247127	0.617850	0.571252	0.844800	0.500266	0.115323	0.329244	0.289665	0.418288	0.647930	0.274802	0.029420	0.080230	0.132850	0.069202	0.300079	0.244498	0.773590	0.897077	0.114983	0.132991	0.288819	0.196166
88	0.212272	0.283547	0.639402	0.238502	0.245950	0.611393	0.314309	0.191124	0.416054	0.406972	0.467605	0.722040	0.264501	0.531868	0.487467	0.669683	0.318759	0.183550	0.542029	0.421251	0.591914	0.173319	0.204108	0.117166	0.236523	0.096246	0.363236	0.249290	0.088616	0.157710	0.165568	0.123748	0.131983	0.107544	0.413292	0.228908	0.087823	0.087292	0.404317	0.263299	0.293184	0.274695	0.384588	0.434302	0.087717	0.130609	0.174607	0.186449	0.194636	0.340608	0.623192	0.580028	0.847039	0.501035	0.115691	0.336156	0.312720	0.425575	0.682799	0.273704	0.029597	0.082021	0.131027	0.066416	0.278439	0.234197	0.784329	0.827849	0.116639	0.125693	0.266821	0.244361
89	0.228381	0.278540	0.586131	0.272536	0.288945	0.613643	0.299636	0.186376	0.415502	0.414740	0.401859	0.613125	0.248709	0.493173	0.464498	0.670644	0.320364	0.184895	0.481064	0.428629	0.572153	0.159673	0.231212	0.119288	0.227247	0.097028	0.317621	0.266592	0.091893	0.158025	0.220453	0.133331	0.132481	0.109114	0.415129	0.196328	0.091927	0.108666	0.403392	0.263352	0.280305	0.281177	0.454264	0.503353	0.112979	0.209423	0.161257	0.184573	0.204541	0.372996	0.629685	0.577731	0.847117	0.501464	0.112555	0.359324	0.318698	0.410720	0.703232	0.274268	0.036487	0.085621	0.127933	0.045820	0.225380	0.200798	0.747434	0.771735	0.116045	0.093385	0.268067	0.247890
90	0.242939	0.266360	0.576360	0.286776	0.286052	0.572184	0.271452	0.168570	0.389119	0.399053	0.339270	0.467281	0.241466	0.358153	0.459191	0.668555	0.317869	0.189919	0.449061	0.445761	0.576448	0.158947	0.240225	0.141818	0.203781	0.106886	0.355099	0.292809	0.095433	0.167259	0.289784	0.160796	0.132771	0.109426	0.407279	0.212359	0.152857	0.130042	0.387226	0.266791	0.259523	0.273425	0.453271	0.556489	0.130642	0.260933	0.159926	0.182469	0.226465	0.405494	0.718069	0.644997	0.844359	0.502060	0.105756	0.375941	0.319105	0.414988	0.720165	0.276630	0.040745	0.091157	0.120576	0.034888	0.229955	0.168423	0.708482	0.767152	0.115970	0.079672	0.295285	0.252085
91	0.239296	0.250267	0.602042	0.316204	0.287046	0.607645	0.260887	0.168496	0.351086	0.364163	0.271346	0.332124	0.235486	0.300450	0.460583	0.664686	0.298464	0.185376	0.428683	0.420282	0.512667	0.147987	0.238995	0.154082	0.225534	0.123269	0.545095	0.354928	0.095703	0.179125	0.291170	0.158964	0.125971	0.107879	0.417108	0.219163	0.174138	0.134851	0.293255	0.268995	0.291120	0.275908	0.452803	0.557215	0.132114	0.264846	0.145164	0.172032	0.224720	0.404933	0.768956	0.688338	0.835953	0.494579	0.105162	0.381252	0.320370	0.414039	0.733260	0.278060	0.047929	0.094288	0.085313	0.075732	0.231482	0.169772	0.661991	0.743261	0.115836	0.080996	0.302640	0.273242
92	0.230925	0.213456	0.667998	0.366576	0.294831	0.626517	0.259391	0.162811	0.283283	0.314457	0.187051	0.278460	0.214412	0.231283	0.460599	0.646627	0.284543	0.178177	0.390578	0.342428	0.506620	0.155442	0.244485	0.157347	0.276610	0.139314	0.563616	0.357526	0.093054	0.179580	0.323050	0.173892	0.128200	0.104301	0.401716	0.250574	0.255783	0.135574	0.270905	0.270657	0.307590	0.271583	0.456013	0.573366	0.131629	0.265782	0.117702	0.156898	0.225320	0.409513	0.768561	0.698518	0.775682	0.440552	0.106308	0.383494	0.327742	0.418186	0.727599	0.272072	0.055369	0.092686	0.098876	0.103848	0.229633	0.168705	0.657000	0.666973	0.115081	0.105620	0.307096	0.289150
93	0.230959	0.196449	0.681533	0.372054	0.314445	0.679540	0.210249	0.154896	0.282331	0.306114	0.145712	0.269670	0.213793	0.208581	0.445870	0.537568	0.295643	0.173169	0.388301	0.278347	0.481680	0.145291	0.231801	0.155199	0.301403	0.143749	0.662094	0.386970	0.099237	0.173177	0.346977	0.203235	0.140450	0.091090	0.365202	0.273829	0.260404	0.138549	0.253209	0.275612	0.309266	0.275494	0.469632	0.599513	0.129787	0.265306	0.110192	0.146509	0.226602	0.418258	0.780178	0.698388	0.748208	0.424346	0.107938	0.384195	0.322840	0.420186	0.714819	0.225081	0.067138	0.089486	0.208154	0.120750	0.208024	0.148097	0.543977	0.558735	0.145781	0.196345	0.302867	0.287088
94	0.234101	0.193822	0.749403	0.408060	0.318044	0.717749	0.106608	0.126769	0.285319	0.305739	0.143644	0.271231	0.199911	0.209391	0.422737	0.386083	0.301198	0.173034	0.386199	0.265449	0.468362	0.143103	0.257685	0.174504	0.362386	0.165154	0.732686	0.425315	0.103746	0.174553	0.353578	0.223746	0.163482	0.098912	0.377071	0.301883	0.268541	0.157371	0.249440	0.259769	0.315997	0.298299	0.485826	0.637334	0.179216	0.321204	0.084708	0.116173	0.227840	0.418691	0.778221	0.698909	0.764769	0.423372	0.113134	0.384764	0.270539	0.340800	0.776845	0.217507	0.082094	0.074955	0.235295	0.122979	0.192565	0.119120	0.462914	0.427767	0.176766	0.313248	0.262363	0.278074
95	0.269920	0.216877	0.852691	0.465506	0.319112	0.732855	0.102035	0.146573	0.295726	0.309410	0.146217	0.266053	0.126815	0.161364	0.347314	0.334236	0.294372	0.162340	0.394943	0.278361	0.368104	0.153488	0.246755	0.195935	0.386261	0.171105	0.761990	0.480633	0.104352	0.174802	0.355282	0.223217	0.168919	0.099301	0.451767	0.302722	0.274711	0.158522	0.166220	0.190961	0.311321	0.317823	0.493900	0.659797	0.207469	0.356867	0.078714	0.107765	0.229806	0.421234	0.775936	0.711991	0.647983	0.309066	0.125032	0.382380	0.242321	0.303177	0.817258	0.276318	0.101090	0.065726	0.246162	0.132863	0.201026	0.114677	0.425560	0.358359	0.182138	0.332170	0.262915	0.301058
96	0.293821	0.227664	0.840376	0.483704	0.324415	0.727890	0.100654	0.221590	0.297456	0.311552	0.144885	0.262933	0.075187	0.142445	0.323802	0.385187	0.294258	0.155091	0.373350	0.292094	0.184798	0.133633	0.259413	0.199517	0.404503	0.171952	0.769695	0.524199	0.107739	0.174777	0.355433	0.253502	0.159180	0.100113	0.476686	0.339057	0.297608	0.149522	0.097612	0.143768	0.333035	0.340173	0.494842	0.657394	0.218940	0.352276	0.078259	0.100432	0.227446	0.420278	0.771617	0.722734	0.304823	0.191396	0.126069	0.346692	0.239734	0.290419	0.801668	0.284882	0.102853	0.076110	0.254118	0.135834	0.230045	0.119545	0.418737	0.372754	0.206544	0.427312	0.282742	0.314447
97	0.267533	0.200935	0.969570	0.542330	0.322567	0.693311	0.114263	0.284706	0.313771	0.330667	0.142297	0.261382	0.070034	0.136701	0.366163	0.464427	0.288067	0.138450	0.363561	0.285394	0.142822	0.121473	0.243479	0.213725	0.408452	0.178341	0.769519	0.535234	0.110538	0.173763	0.364507	0.264874	0.137576	0.101894	0.448663	0.413863	0.304661	0.143819	0.096351	0.125635	0.357604	0.355066	0.495170	0.661678	0.219306	0.345603	0.075136	0.074988	0.225301	0.419887	0.766869	0.715660	0.278566	0.161011	0.121307	0.244685	0.239148	0.288292	0.769248	0.274495	0.104307	0.090965	0.269225	0.137937	0.278967	0.129487	0.398104	0.364882	0.201581	0.431002	0.297129	0.310957
98	0.272463	0.198898	0.985462	0.646939	0.325077	0.692278	0.193170	0.339824	0.323747	0.345818	0.138723	0.260743	0.070778	0.120186	0.365934	0.471001	0.283546	0.138228	0.367847	0.267488	0.186354	0.154643	0.239749	0.201805	0.408318	0.179445	0.763532	0.538505	0.118830	0.163186	0.368972	0.264627	0.161037	0.139111	0.450119	0.480593	0.364263	0.154379	0.118141	0.123646	0.372079	0.365661	0.494019	0.666825	0.206984	0.328849	0.067592	0.041087	0.223332	0.418675	0.754121	0.655157	0.260267	0.147596	0.093085	0.218264	0.229696	0.279130	0.735022	0.272518	0.105594	0.094740	0.273243	0.142153	0.344294	0.136035	0.404257	0.375084	0.202667	0.431930	0.295398	0.311812
99	0.290338	0.201904	0.959219	0.667462	0.318454	0.684602	0.300776	0.348768	0.325406	0.352173	0.190030	0.260097	0.074942	0.110137	0.359038	0.482096	0.287187	0.135810	0.374459	0.273040	0.246158	0.155541	0.242110	0.185322	0.408522	0.177852	0.759117	0.532445	0.127913	0.151061	0.370304	0.267100	0.192116	0.180088	0.492648	0.490219	0.403872	0.186054	0.122600	0.117216	0.505717	0.384109	0.492215	0.659224	0.202620	0.324894	0.089944	0.038213	0.220579	0.415219	0.689877	0.575213	0.261491	0.146549	0.089925	0.204030	0.202474	0.242572	0.792511	0.294591	0.105879	0.093431	0.274129	0.147617	0.385151	0.134716	0.395690	0.376623	0.201407	0.432028	0.294488	0.297168
100	0.322328	0.255154	0.941870	0.664466	0.292363	0.638490	0.314576	0.363540	0.325186	0.350568	0.244555	0.253295	0.070504	0.097389	0.369844	0.507681	0.251181	0.114267	0.397088	0.306029	0.505354	0.172563	0.239345	0.181245	0.414158	0.185529	0.738069	0.515571	0.122371	0.129695	0.342405	0.292561	0.205788	0.194341	0.569118	0.496309	0.398401	0.205421	0.124559	0.107155	0.645569	0.383050	0.443577	0.622316	0.197678	0.307720	0.096445	0.058481	0.189273	0.350330	0.673774	0.549083	0.281352	0.151603	0.085494	0.154377	0.160423	0.187652	0.846101	0.385102	0.105698	0.090642	0.282064	0.157872	0.380996	0.142914	0.354039	0.376787	0.200322	0.431984	0.300388	0.265217
101	0.332642	0.283794	0.943322	0.696486	0.247153	0.565911	0.376245	0.400320	0.322285	0.337691	0.253988	0.246963	0.064776	0.091892	0.374728	0.518270	0.223294	0.107245	0.420301	0.320774	0.594395	0.241550	0.292913	0.193846	0.440876	0.205562	0.733991	0.498120	0.114299	0.092433	0.276911	0.297213	0.212715	0.201464	0.594304	0.492362	0.400586	0.217165	0.128555	0.100204	0.690505	0.374399	0.264650	0.533103	0.198039	0.311046	0.115503	0.075201	0.151789	0.291664	0.668004	0.545540	0.286494	0.148480	0.074449	0.093135	0.134330	0.130113	0.855492	0.405539	0.104012	0.085167	0.330079	0.164617	0.381671	0.169204	0.348222	0.376027	0.200324	0.432291	0.305274	0.263027
