	219_C_T2_sh_ND_01.c3d	219_C_T2_sh_ND_01.c3d	219_C_T2_sh_ND_01.c3d	219_C_T2_sh_ND_01.c3d	219_C_T2_sh_ND_01.c3d	219_C_T2_sh_ND_01.c3d	219_C_T2_sh_ND_01.c3d	219_C_T2_sh_ND_01.c3d	219_C_T2_sh_ND_02.c3d	219_C_T2_sh_ND_02.c3d	219_C_T2_sh_ND_02.c3d	219_C_T2_sh_ND_02.c3d	219_C_T2_sh_ND_02.c3d	219_C_T2_sh_ND_02.c3d	219_C_T2_sh_ND_02.c3d	219_C_T2_sh_ND_02.c3d	219_C_T2_sh_ND_03.c3d	219_C_T2_sh_ND_03.c3d	219_C_T2_sh_ND_03.c3d	219_C_T2_sh_ND_03.c3d	219_C_T2_sh_ND_03.c3d	219_C_T2_sh_ND_03.c3d	219_C_T2_sh_ND_03.c3d	219_C_T2_sh_ND_03.c3d	219_C_T2_sh_ND_04.c3d	219_C_T2_sh_ND_04.c3d	219_C_T2_sh_ND_04.c3d	219_C_T2_sh_ND_04.c3d	219_C_T2_sh_ND_04.c3d	219_C_T2_sh_ND_04.c3d	219_C_T2_sh_ND_04.c3d	219_C_T2_sh_ND_04.c3d	219_C_T2_sh_ND_05.c3d	219_C_T2_sh_ND_05.c3d	219_C_T2_sh_ND_05.c3d	219_C_T2_sh_ND_05.c3d	219_C_T2_sh_ND_05.c3d	219_C_T2_sh_ND_05.c3d	219_C_T2_sh_ND_05.c3d	219_C_T2_sh_ND_05.c3d	219_C_T2_sh_ND_06.c3d	219_C_T2_sh_ND_06.c3d	219_C_T2_sh_ND_06.c3d	219_C_T2_sh_ND_06.c3d	219_C_T2_sh_ND_06.c3d	219_C_T2_sh_ND_06.c3d	219_C_T2_sh_ND_06.c3d	219_C_T2_sh_ND_06.c3d	219_C_T2_sh_ND_07.c3d	219_C_T2_sh_ND_07.c3d	219_C_T2_sh_ND_07.c3d	219_C_T2_sh_ND_07.c3d	219_C_T2_sh_ND_07.c3d	219_C_T2_sh_ND_07.c3d	219_C_T2_sh_ND_07.c3d	219_C_T2_sh_ND_07.c3d	219_C_T2_sh_ND_08.c3d	219_C_T2_sh_ND_08.c3d	219_C_T2_sh_ND_08.c3d	219_C_T2_sh_ND_08.c3d	219_C_T2_sh_ND_08.c3d	219_C_T2_sh_ND_08.c3d	219_C_T2_sh_ND_08.c3d	219_C_T2_sh_ND_08.c3d	219_C_T2_sh_ND_09.c3d	219_C_T2_sh_ND_09.c3d	219_C_T2_sh_ND_09.c3d	219_C_T2_sh_ND_09.c3d	219_C_T2_sh_ND_09.c3d	219_C_T2_sh_ND_09.c3d	219_C_T2_sh_ND_09.c3d	219_C_T2_sh_ND_09.c3d	219_C_T2_sh_ND_10.c3d	219_C_T2_sh_ND_10.c3d	219_C_T2_sh_ND_10.c3d	219_C_T2_sh_ND_10.c3d	219_C_T2_sh_ND_10.c3d	219_C_T2_sh_ND_10.c3d	219_C_T2_sh_ND_10.c3d	219_C_T2_sh_ND_10.c3d
	Biceps femoris_lat	Semitendinosus_lat	Vastus lateralis_lat	Vastus medialis_lat	Biceps femoris_med	Semitendinosus_med	Vastus lateralis_med	Vastus medialis_med	Biceps femoris_lat	Semitendinosus_lat	Vastus lateralis_lat	Vastus medialis_lat	Biceps femoris_med	Semitendinosus_med	Vastus lateralis_med	Vastus medialis_med	Biceps femoris_lat	Semitendinosus_lat	Vastus lateralis_lat	Vastus medialis_lat	Biceps femoris_med	Semitendinosus_med	Vastus lateralis_med	Vastus medialis_med	Biceps femoris_lat	Semitendinosus_lat	Vastus lateralis_lat	Vastus medialis_lat	Biceps femoris_med	Semitendinosus_med	Vastus lateralis_med	Vastus medialis_med	Biceps femoris_lat	Semitendinosus_lat	Vastus lateralis_lat	Vastus medialis_lat	Biceps femoris_med	Semitendinosus_med	Vastus lateralis_med	Vastus medialis_med	Biceps femoris_lat	Semitendinosus_lat	Vastus lateralis_lat	Vastus medialis_lat	Biceps femoris_med	Semitendinosus_med	Vastus lateralis_med	Vastus medialis_med	Biceps femoris_lat	Semitendinosus_lat	Vastus lateralis_lat	Vastus medialis_lat	Biceps femoris_med	Semitendinosus_med	Vastus lateralis_med	Vastus medialis_med	Biceps femoris_lat	Semitendinosus_lat	Vastus lateralis_lat	Vastus medialis_lat	Biceps femoris_med	Semitendinosus_med	Vastus lateralis_med	Vastus medialis_med	Biceps femoris_lat	Semitendinosus_lat	Vastus lateralis_lat	Vastus medialis_lat	Biceps femoris_med	Semitendinosus_med	Vastus lateralis_med	Vastus medialis_med	Biceps femoris_lat	Semitendinosus_lat	Vastus lateralis_lat	Vastus medialis_lat	Biceps femoris_med	Semitendinosus_med	Vastus lateralis_med	Vastus medialis_med
	P2D	P2D	P2D	P2D	P2D	P2D	P2D	P2D	P2D	P2D	P2D	P2D	P2D	P2D	P2D	P2D	P2D	P2D	P2D	P2D	P2D	P2D	P2D	P2D	P2D	P2D	P2D	P2D	P2D	P2D	P2D	P2D	P2D	P2D	P2D	P2D	P2D	P2D	P2D	P2D	P2D	P2D	P2D	P2D	P2D	P2D	P2D	P2D	P2D	P2D	P2D	P2D	P2D	P2D	P2D	P2D	P2D	P2D	P2D	P2D	P2D	P2D	P2D	P2D	P2D	P2D	P2D	P2D	P2D	P2D	P2D	P2D	P2D	P2D	P2D	P2D	P2D	P2D	P2D	P2D
	EMG_lat	EMG_lat	EMG_lat	EMG_lat	EMG_med	EMG_med	EMG_med	EMG_med	EMG_lat	EMG_lat	EMG_lat	EMG_lat	EMG_med	EMG_med	EMG_med	EMG_med	EMG_lat	EMG_lat	EMG_lat	EMG_lat	EMG_med	EMG_med	EMG_med	EMG_med	EMG_lat	EMG_lat	EMG_lat	EMG_lat	EMG_med	EMG_med	EMG_med	EMG_med	EMG_lat	EMG_lat	EMG_lat	EMG_lat	EMG_med	EMG_med	EMG_med	EMG_med	EMG_lat	EMG_lat	EMG_lat	EMG_lat	EMG_med	EMG_med	EMG_med	EMG_med	EMG_lat	EMG_lat	EMG_lat	EMG_lat	EMG_med	EMG_med	EMG_med	EMG_med	EMG_lat	EMG_lat	EMG_lat	EMG_lat	EMG_med	EMG_med	EMG_med	EMG_med	EMG_lat	EMG_lat	EMG_lat	EMG_lat	EMG_med	EMG_med	EMG_med	EMG_med	EMG_lat	EMG_lat	EMG_lat	EMG_lat	EMG_med	EMG_med	EMG_med	EMG_med
ITEM	Y	Y	Y	Y	Y	Y	Y	Y	Y	Y	Y	Y	Y	Y	Y	Y	Y	Y	Y	Y	Y	Y	Y	Y	Y	Y	Y	Y	Y	Y	Y	Y	Y	Y	Y	Y	Y	Y	Y	Y	Y	Y	Y	Y	Y	Y	Y	Y	Y	Y	Y	Y	Y	Y	Y	Y	Y	Y	Y	Y	Y	Y	Y	Y	Y	Y	Y	Y	Y	Y	Y	Y	Y	Y	Y	Y	Y	Y	Y	Y
1	0.500394	0.758534	0.297077	0.243768	0.273665	0.303912	0.401993	0.223690	0.445861	0.822616	0.291510	0.139984	0.517806	0.873757	0.256761	0.269655	0.482244	0.487526	0.339488	0.640796	0.466765	0.351677	0.406297	0.349131	0.531666	0.529561	0.319001	0.410348	0.591288	0.450781	0.208710	0.428106	0.428596	0.523805	0.420653	0.182684	0.206663	0.134417	0.614761	0.256979	0.635427	0.777888	0.368025	0.284167	0.296177	0.445850	0.734650	0.261059	0.403758	0.267943	0.310712	0.242274	0.280376	0.256499	0.350486	0.276658	0.788564	0.540543	0.247688	0.192420	0.343245	0.345989	0.341360	0.226768	0.487357	0.412258	0.228610	0.290211	0.685409	0.315329	0.223928	0.159977	0.599610	0.348667	0.327538	0.447390	0.220599	0.263198	0.393775	0.181017
2	0.524476	0.784908	0.299259	0.239866	0.267044	0.301463	0.389159	0.224979	0.446344	0.821155	0.289718	0.152745	0.480133	0.959167	0.265946	0.285031	0.526148	0.499297	0.388005	0.613043	0.453564	0.344361	0.420258	0.335631	0.559207	0.533978	0.331048	0.334226	0.578158	0.504185	0.210778	0.461464	0.425276	0.518487	0.420794	0.193738	0.201172	0.146033	0.614067	0.258575	0.640734	0.772561	0.377173	0.286635	0.299670	0.450606	0.655555	0.224015	0.516783	0.293961	0.318000	0.263608	0.228343	0.251160	0.377020	0.350175	0.797446	0.567025	0.266473	0.197577	0.328052	0.344889	0.387611	0.251972	0.543013	0.417371	0.238811	0.263541	0.710441	0.327284	0.221608	0.145429	0.602558	0.345857	0.332224	0.451656	0.262906	0.224202	0.484795	0.177636
3	0.619430	0.803862	0.318314	0.241540	0.262622	0.289203	0.357791	0.218379	0.444196	0.824438	0.292062	0.151178	0.472218	0.968373	0.266294	0.354297	0.635675	0.521784	0.530548	0.513136	0.322674	0.300402	0.409843	0.328114	0.564298	0.501367	0.337142	0.330494	0.504501	0.499366	0.231054	0.486128	0.414659	0.484379	0.388042	0.193462	0.176995	0.153129	0.614223	0.300879	0.627670	0.763493	0.384596	0.291147	0.331893	0.469173	0.653232	0.222846	0.555468	0.300778	0.318075	0.268598	0.186005	0.252134	0.369587	0.326842	0.856010	0.663679	0.262520	0.198188	0.271367	0.350652	0.519505	0.254078	0.571627	0.429921	0.288379	0.260041	0.655328	0.282770	0.217246	0.143320	0.667559	0.334406	0.357794	0.456055	0.294123	0.218687	0.528068	0.177779
4	0.767229	0.836512	0.334818	0.245611	0.247202	0.249389	0.327926	0.234337	0.449631	0.831977	0.294439	0.144567	0.479893	0.968409	0.266176	0.380403	0.690851	0.521917	0.538273	0.410409	0.257471	0.253729	0.391711	0.330927	0.551197	0.422524	0.334782	0.336312	0.587102	0.583337	0.237345	0.414959	0.441744	0.477877	0.304792	0.187610	0.148689	0.147202	0.555854	0.457223	0.618773	0.760031	0.358499	0.305558	0.373136	0.529041	0.652068	0.234877	0.563029	0.289115	0.324311	0.271337	0.130340	0.220799	0.470044	0.396850	0.825813	0.665029	0.256630	0.181458	0.214023	0.349810	0.519346	0.297566	0.639652	0.453828	0.321237	0.256637	0.546509	0.256906	0.332658	0.204003	0.753427	0.315526	0.391531	0.471669	0.300228	0.199840	0.536083	0.172822
5	0.939290	0.887103	0.353431	0.245883	0.225278	0.191011	0.316765	0.254633	0.455136	0.821995	0.292623	0.198614	0.481137	0.968428	0.262732	0.397672	0.663565	0.511171	0.564656	0.402951	0.248573	0.190169	0.400596	0.322743	0.535455	0.406923	0.331699	0.332417	0.611866	0.622017	0.230992	0.420636	0.447794	0.464372	0.289295	0.181647	0.134975	0.136868	0.506032	0.461549	0.610241	0.759647	0.296332	0.315735	0.380389	0.571613	0.632230	0.295141	0.564746	0.280281	0.324955	0.285239	0.119614	0.218944	0.480736	0.412644	0.768964	0.657852	0.256416	0.180966	0.230186	0.394063	0.527328	0.304833	0.669143	0.463729	0.424920	0.238618	0.492870	0.257219	0.393316	0.256784	0.769231	0.293731	0.398714	0.472924	0.356261	0.187155	0.604488	0.155886
6	1.098532	0.943354	0.359656	0.217070	0.219155	0.128993	0.326681	0.229939	0.456397	0.779864	0.256014	0.205832	0.465352	0.968141	0.250698	0.433971	0.661497	0.515376	0.610972	0.327282	0.225532	0.176678	0.405967	0.341425	0.566060	0.513626	0.335917	0.330331	0.618707	0.621894	0.296333	0.412384	0.445863	0.334538	0.290463	0.169850	0.143642	0.143550	0.522578	0.495109	0.608115	0.759730	0.278633	0.316681	0.381947	0.589554	0.538573	0.291891	0.562640	0.256792	0.323853	0.284526	0.100057	0.226312	0.429744	0.458685	0.763717	0.656309	0.258258	0.347965	0.225827	0.408588	0.540077	0.312910	0.688261	0.461771	0.462663	0.372318	0.482772	0.242852	0.393966	0.271126	0.765473	0.283302	0.399707	0.471880	0.425426	0.203247	0.609416	0.193914
7	1.200263	0.984303	0.366666	0.170433	0.217418	0.121827	0.348469	0.236690	0.419054	0.649400	0.300294	0.221540	0.461636	0.961634	0.264381	0.435245	0.656442	0.467038	0.627038	0.268378	0.201318	0.184467	0.387262	0.300790	0.620435	0.595815	0.334163	0.329418	0.578606	0.622209	0.315937	0.391086	0.423429	0.268344	0.289635	0.187007	0.154902	0.144258	0.590932	0.504412	0.598854	0.725296	0.278147	0.320807	0.382635	0.596781	0.536583	0.306885	0.565592	0.256904	0.284203	0.278173	0.107324	0.242226	0.416319	0.503162	0.729940	0.648388	0.257689	0.529306	0.221603	0.389275	0.562876	0.367340	0.756136	0.464422	0.481893	0.389133	0.467115	0.234637	0.420889	0.345249	0.733704	0.211856	0.396995	0.446927	0.450324	0.219216	0.595257	0.211385
8	1.203299	0.979321	0.369389	0.183416	0.211822	0.126436	0.375436	0.240229	0.359638	0.549296	0.320462	0.228779	0.422942	0.868059	0.299770	0.437991	0.650901	0.393980	0.632952	0.254873	0.122523	0.192421	0.403770	0.328251	0.658251	0.637215	0.327374	0.336863	0.547527	0.614951	0.339128	0.323361	0.423375	0.256981	0.260605	0.209251	0.179110	0.170950	0.693052	0.527721	0.585941	0.665832	0.294479	0.361920	0.383624	0.596809	0.510442	0.327302	0.596608	0.245719	0.279436	0.255403	0.104135	0.255386	0.442480	0.528155	0.602963	0.638421	0.278615	0.547408	0.238865	0.380341	0.570330	0.429232	0.761157	0.509455	0.486301	0.448496	0.436360	0.248524	0.473303	0.356366	0.735183	0.213170	0.404745	0.414312	0.446090	0.223204	0.593539	0.214576
9	1.309917	1.102579	0.366121	0.301609	0.224630	0.134322	0.345684	0.253005	0.349546	0.569780	0.320803	0.233638	0.380361	0.728874	0.451635	0.446315	0.651062	0.382654	0.635738	0.366231	0.132048	0.198176	0.453779	0.433351	0.674074	0.663565	0.326809	0.341443	0.524955	0.575280	0.335899	0.306321	0.423000	0.266447	0.217679	0.207884	0.183725	0.177539	0.719336	0.646034	0.597382	0.644951	0.334883	0.377822	0.384491	0.595833	0.508896	0.356283	0.621852	0.251813	0.277518	0.253458	0.104828	0.259357	0.452714	0.532043	0.620552	0.638528	0.294002	0.625087	0.241852	0.380383	0.578350	0.434861	0.822495	0.624776	0.491318	0.539324	0.450347	0.253305	0.527023	0.367692	0.732954	0.209015	0.401095	0.413193	0.445441	0.224697	0.561956	0.216490
10	1.536677	1.311432	0.369859	0.394048	0.215602	0.125724	0.340674	0.241576	0.377469	0.609970	0.326344	0.242004	0.380253	0.671039	0.464605	0.484427	0.650908	0.342416	0.633196	0.462721	0.134069	0.203154	0.407734	0.472810	0.653323	0.651330	0.343523	0.340425	0.475605	0.494710	0.342896	0.273361	0.400232	0.281597	0.302688	0.207715	0.198658	0.169942	0.804348	0.683723	0.605192	0.640222	0.300075	0.350239	0.369581	0.574229	0.603324	0.362477	0.611759	0.263548	0.237411	0.235353	0.104707	0.261268	0.435560	0.492691	0.688415	0.637571	0.292005	0.705307	0.225274	0.350797	0.583883	0.434299	0.860410	0.691831	0.484338	0.570323	0.382367	0.256140	0.525193	0.371541	0.724621	0.209932	0.393324	0.395473	0.447440	0.231956	0.531581	0.216033
11	1.661155	1.414580	0.367384	0.398242	0.181299	0.111593	0.341698	0.243700	0.381214	0.527092	0.325684	0.458806	0.355368	0.640101	0.470199	0.494052	0.652894	0.324504	0.640643	0.473065	0.145185	0.164949	0.440855	0.606948	0.668271	0.667710	0.361580	0.345338	0.476931	0.492456	0.337609	0.196477	0.389582	0.270990	0.329642	0.209884	0.237101	0.183748	0.882945	0.687934	0.526966	0.543827	0.276423	0.370228	0.342454	0.523987	0.588779	0.383030	0.591460	0.266227	0.219197	0.208788	0.102437	0.251394	0.425628	0.497774	0.677602	0.634551	0.292921	0.724051	0.219702	0.344167	0.587546	0.442913	0.886509	0.712117	0.563727	0.570216	0.366876	0.253555	0.531635	0.368346	0.712546	0.204117	0.394187	0.380417	0.445655	0.233448	0.535270	0.207475
12	1.694377	1.467728	0.366080	0.430007	0.166596	0.114084	0.323143	0.280205	0.356616	0.466493	0.328064	0.568256	0.285025	0.541170	0.446099	0.498341	0.635344	0.319070	0.641809	0.486728	0.172158	0.151717	0.527618	0.657325	0.728401	0.755398	0.335815	0.330824	0.410536	0.403879	0.335123	0.200750	0.406213	0.262139	0.328967	0.211032	0.238475	0.176681	0.904682	0.687379	0.383246	0.380305	0.276977	0.377458	0.302698	0.418487	0.509463	0.434349	0.588152	0.285220	0.225416	0.201483	0.107313	0.215382	0.385040	0.482669	0.652881	0.623571	0.303050	0.740006	0.194127	0.330244	0.596748	0.435937	0.889316	0.709593	0.692755	0.559893	0.360506	0.248121	0.532345	0.367054	0.701074	0.205841	0.393479	0.366404	0.433591	0.231840	0.519884	0.206604
13	1.706396	1.499665	0.352253	0.457439	0.142984	0.106846	0.288570	0.287280	0.343296	0.481178	0.337806	0.572979	0.245954	0.320000	0.443141	0.503156	0.580316	0.321948	0.637044	0.513674	0.180586	0.158504	0.525428	0.679708	0.735998	0.842570	0.280317	0.251479	0.271184	0.217531	0.332072	0.191736	0.383847	0.238348	0.329679	0.240250	0.239450	0.171430	0.899636	0.640024	0.317487	0.245565	0.296799	0.378218	0.297234	0.412924	0.514480	0.517528	0.597699	0.290483	0.221248	0.205842	0.116340	0.206687	0.271614	0.429503	0.666006	0.578900	0.314380	0.755529	0.175554	0.315659	0.589740	0.416016	0.884739	0.694134	0.793387	0.549276	0.261921	0.193105	0.527272	0.363906	0.675894	0.208726	0.425661	0.348974	0.427342	0.217255	0.523978	0.196965
14	1.715964	1.512935	0.330484	0.460115	0.141556	0.110741	0.284163	0.346081	0.393763	0.544380	0.335925	0.602958	0.255472	0.171549	0.478392	0.474051	0.560427	0.322501	0.634076	0.529101	0.185932	0.161083	0.527936	0.684837	0.765574	0.867424	0.278275	0.224804	0.285374	0.328497	0.269277	0.174355	0.376903	0.234980	0.328789	0.250314	0.239502	0.170401	0.895070	0.544476	0.303548	0.189915	0.327538	0.391343	0.261079	0.401815	0.522810	0.535034	0.603897	0.280816	0.246622	0.224734	0.154336	0.240511	0.282967	0.403243	0.679454	0.495991	0.304621	0.757775	0.177126	0.314275	0.485846	0.403268	0.879437	0.675099	0.805581	0.548545	0.238741	0.165121	0.529159	0.363207	0.592149	0.195547	0.441369	0.329365	0.403209	0.187149	0.460715	0.186036
15	1.707624	1.511956	0.315850	0.457377	0.147722	0.111199	0.285813	0.407295	0.455759	0.549794	0.364259	0.635910	0.230946	0.181240	0.497785	0.437534	0.541683	0.322632	0.633236	0.531736	0.186083	0.160233	0.528281	0.681516	0.781549	0.852692	0.264039	0.228550	0.316644	0.451245	0.235350	0.154984	0.377396	0.230979	0.337862	0.263601	0.238690	0.172440	0.896973	0.531251	0.296735	0.189330	0.336402	0.391668	0.186390	0.328069	0.521917	0.535569	0.592566	0.279755	0.273047	0.239654	0.140391	0.271947	0.292464	0.350584	0.685119	0.457910	0.290685	0.756736	0.174487	0.287170	0.390958	0.398125	0.863629	0.660735	0.804358	0.549336	0.236967	0.158269	0.512134	0.358497	0.557585	0.191318	0.437678	0.328151	0.377116	0.175280	0.402713	0.188770
16	1.706095	1.511132	0.320668	0.460946	0.156655	0.113470	0.283040	0.421254	0.475257	0.546290	0.371953	0.656098	0.213468	0.180598	0.498609	0.435232	0.526310	0.314262	0.624727	0.532505	0.186568	0.161120	0.519522	0.682274	0.771207	0.848125	0.253328	0.208558	0.303084	0.453526	0.182129	0.139549	0.372933	0.235287	0.336188	0.302016	0.220175	0.160395	0.869922	0.525463	0.286619	0.190823	0.327816	0.387405	0.136076	0.233312	0.500470	0.502699	0.497653	0.257977	0.306236	0.225926	0.160697	0.281916	0.270253	0.268922	0.629000	0.324346	0.271982	0.750886	0.166932	0.276654	0.398494	0.364872	0.826185	0.641218	0.802840	0.560899	0.237023	0.154415	0.420900	0.306623	0.557568	0.189854	0.419444	0.269019	0.359189	0.174866	0.395039	0.211095
17	1.696700	1.484867	0.323577	0.471810	0.159455	0.116747	0.287540	0.400469	0.489317	0.538411	0.415311	0.660426	0.208626	0.180178	0.499494	0.393079	0.399362	0.268785	0.485022	0.531182	0.185093	0.157649	0.505200	0.665915	0.771234	0.847514	0.280925	0.199457	0.310864	0.450002	0.151204	0.136282	0.326841	0.217339	0.341631	0.315607	0.212383	0.161515	0.673987	0.532845	0.293805	0.197463	0.391609	0.417188	0.138418	0.177722	0.506840	0.488432	0.434791	0.238037	0.334112	0.222588	0.174060	0.281236	0.217985	0.239221	0.563578	0.194636	0.262859	0.752385	0.136841	0.185439	0.388782	0.351233	0.792164	0.633918	0.783701	0.563808	0.236951	0.141381	0.401543	0.388707	0.557278	0.176189	0.428921	0.213909	0.308526	0.158441	0.296144	0.213313
18	1.660762	1.430078	0.308948	0.475026	0.162188	0.122718	0.276949	0.398529	0.497663	0.539521	0.429580	0.664979	0.208350	0.181609	0.506104	0.384624	0.248631	0.254476	0.400399	0.526858	0.178451	0.143981	0.501184	0.664365	0.770141	0.843763	0.315846	0.194637	0.322943	0.534464	0.132828	0.128932	0.317217	0.220386	0.342760	0.318156	0.212723	0.154742	0.607874	0.503617	0.302766	0.201437	0.434025	0.485768	0.149327	0.142188	0.503200	0.490762	0.416244	0.239874	0.330691	0.226754	0.195557	0.318279	0.248054	0.260195	0.553205	0.213056	0.262502	0.752324	0.134239	0.160394	0.364262	0.344223	0.732184	0.608441	0.773399	0.562594	0.233138	0.194402	0.391316	0.369923	0.534252	0.154107	0.423031	0.301258	0.189660	0.134770	0.274173	0.168620
19	1.583526	1.367174	0.293054	0.472717	0.164122	0.123996	0.247692	0.391964	0.496501	0.535264	0.424138	0.661556	0.208435	0.182303	0.505826	0.391642	0.183934	0.254043	0.380550	0.525980	0.167955	0.132944	0.476069	0.671642	0.759227	0.828595	0.319880	0.215294	0.347117	0.587182	0.101780	0.119336	0.266527	0.236078	0.373887	0.316603	0.228892	0.240708	0.567011	0.332336	0.305376	0.203699	0.439280	0.489714	0.145276	0.140263	0.490548	0.463303	0.407635	0.239824	0.351405	0.205477	0.210507	0.333156	0.246040	0.237007	0.552744	0.215437	0.261214	0.740585	0.126353	0.146576	0.327184	0.252355	0.669860	0.590331	0.734484	0.563342	0.220339	0.287713	0.357572	0.327413	0.407436	0.151788	0.405059	0.386173	0.109067	0.102794	0.276392	0.142691
20	1.487678	1.318682	0.276872	0.473231	0.162376	0.121288	0.190272	0.386393	0.493698	0.535314	0.427389	0.662353	0.207496	0.184150	0.416499	0.393300	0.162735	0.244290	0.283550	0.517420	0.154964	0.116639	0.409575	0.595983	0.707861	0.759836	0.328901	0.217685	0.389286	0.686794	0.085902	0.113403	0.251841	0.238453	0.406086	0.295373	0.210819	0.297135	0.434803	0.284357	0.309671	0.188397	0.443884	0.492464	0.143975	0.139786	0.505472	0.445404	0.407090	0.239244	0.352293	0.230586	0.264755	0.345465	0.246947	0.207071	0.552049	0.221958	0.263413	0.663878	0.092391	0.144082	0.297518	0.168250	0.662572	0.589186	0.707244	0.498063	0.175078	0.306665	0.259448	0.320676	0.248053	0.155444	0.378942	0.385007	0.093898	0.084836	0.276442	0.130513
21	1.373924	1.278691	0.256873	0.481329	0.142242	0.102584	0.176177	0.377279	0.488020	0.531548	0.397145	0.655139	0.201750	0.185169	0.326019	0.328652	0.159020	0.236998	0.206647	0.514301	0.152463	0.111980	0.399759	0.559186	0.635666	0.699615	0.347936	0.218576	0.409864	0.703088	0.064860	0.100286	0.254586	0.239138	0.425732	0.290254	0.208941	0.382587	0.248367	0.280331	0.315820	0.181858	0.443264	0.506375	0.122487	0.126228	0.422576	0.434583	0.402502	0.233152	0.351172	0.325186	0.261495	0.345261	0.242724	0.208519	0.564633	0.241551	0.266239	0.614394	0.079600	0.155446	0.273663	0.174359	0.568371	0.572210	0.695606	0.480750	0.185908	0.411770	0.220520	0.300881	0.199758	0.156301	0.379519	0.385935	0.087250	0.083389	0.280514	0.130297
22	1.265366	1.241382	0.298767	0.480565	0.114998	0.089978	0.168451	0.385228	0.487055	0.525686	0.385938	0.651586	0.183070	0.184289	0.314866	0.316424	0.144740	0.210753	0.197700	0.510413	0.139721	0.110656	0.360240	0.406608	0.579977	0.659058	0.381454	0.221368	0.431085	0.721836	0.062508	0.072096	0.262016	0.225958	0.421336	0.418321	0.210957	0.404058	0.189140	0.281600	0.308094	0.190348	0.434133	0.490691	0.121531	0.121902	0.310592	0.416237	0.364162	0.231930	0.346121	0.351356	0.256420	0.342061	0.219642	0.205473	0.579267	0.257012	0.278804	0.588614	0.069138	0.166396	0.295760	0.170206	0.551988	0.541810	0.699253	0.495171	0.178554	0.423615	0.221117	0.302719	0.206419	0.162773	0.381937	0.385597	0.055708	0.059578	0.274365	0.131837
23	1.243703	1.237412	0.415209	0.488650	0.113802	0.088045	0.174499	0.383509	0.485197	0.490789	0.384904	0.650719	0.172283	0.204028	0.311980	0.262518	0.136137	0.177909	0.182226	0.449287	0.100448	0.090380	0.171970	0.318140	0.581212	0.639728	0.401677	0.217330	0.459248	0.819262	0.071175	0.062582	0.271321	0.220543	0.393898	0.506249	0.210260	0.412659	0.179485	0.284529	0.289384	0.201479	0.414678	0.485607	0.121506	0.115508	0.306097	0.386783	0.300756	0.212298	0.336149	0.353002	0.236939	0.298694	0.213978	0.204551	0.576842	0.272689	0.346462	0.465202	0.079197	0.153492	0.278269	0.146291	0.455984	0.419174	0.687707	0.463222	0.185128	0.433603	0.201399	0.303468	0.208718	0.167168	0.381634	0.391772	0.051747	0.045540	0.251022	0.156155
24	1.174900	1.160198	0.478474	0.454313	0.107123	0.090967	0.183334	0.355203	0.459521	0.438066	0.380015	0.645690	0.141801	0.218597	0.303057	0.186428	0.133113	0.122867	0.207866	0.344444	0.074031	0.077368	0.136285	0.266173	0.622749	0.656286	0.387517	0.216595	0.459983	0.845616	0.117218	0.062651	0.284326	0.257824	0.426527	0.526023	0.210269	0.414375	0.177199	0.281330	0.297023	0.207155	0.420029	0.469577	0.120510	0.117548	0.287413	0.258011	0.290602	0.194139	0.330771	0.359838	0.231455	0.271494	0.195377	0.204438	0.558729	0.276782	0.356169	0.402619	0.076635	0.124218	0.267992	0.139602	0.288667	0.252232	0.685837	0.402893	0.186694	0.434807	0.201511	0.302028	0.202326	0.158915	0.407749	0.401393	0.047799	0.047454	0.242739	0.156111
25	0.865815	0.901596	0.494509	0.356012	0.107568	0.102225	0.169583	0.353015	0.458007	0.446145	0.372864	0.537850	0.097290	0.201791	0.270691	0.157092	0.131893	0.107261	0.439757	0.313879	0.058295	0.075565	0.119395	0.250741	0.590034	0.637268	0.402644	0.209192	0.449229	0.845000	0.131176	0.095458	0.268941	0.278021	0.438287	0.573521	0.213720	0.429633	0.165909	0.276816	0.327118	0.215416	0.419031	0.434475	0.099256	0.091490	0.271957	0.186332	0.297791	0.188364	0.331803	0.364575	0.222399	0.269646	0.197133	0.191479	0.566632	0.278802	0.369484	0.385807	0.096560	0.145112	0.285572	0.120838	0.146453	0.141248	0.643326	0.436895	0.209130	0.453707	0.211295	0.305304	0.203027	0.155069	0.450866	0.437158	0.053550	0.076547	0.234322	0.162784
26	0.528069	0.664574	0.530030	0.348052	0.109378	0.113547	0.157071	0.299643	0.502782	0.453850	0.363611	0.538350	0.103867	0.248697	0.214999	0.155624	0.127869	0.095045	0.588301	0.295601	0.057067	0.079798	0.117114	0.250160	0.542870	0.524821	0.453636	0.207394	0.435632	0.799390	0.174062	0.132166	0.271347	0.274759	0.463768	0.559326	0.213785	0.427765	0.152491	0.168019	0.356754	0.228634	0.422396	0.435027	0.101351	0.101994	0.266754	0.217842	0.283088	0.179399	0.346645	0.367783	0.203226	0.222639	0.146671	0.179174	0.566221	0.263359	0.365716	0.367717	0.101191	0.156979	0.282665	0.118212	0.114392	0.136025	0.527108	0.463203	0.219767	0.460603	0.244207	0.303703	0.202222	0.149818	0.454552	0.488385	0.074919	0.123137	0.206851	0.165843
27	0.345763	0.476133	0.541044	0.311623	0.104138	0.124607	0.150610	0.205191	0.526529	0.408531	0.358293	0.571986	0.103931	0.248988	0.219099	0.142399	0.129747	0.077401	0.600924	0.229653	0.055716	0.077895	0.121207	0.249365	0.519032	0.363062	0.513601	0.198048	0.423987	0.770401	0.332025	0.163300	0.285351	0.281676	0.479364	0.556443	0.209148	0.426090	0.133340	0.125987	0.366163	0.231241	0.401452	0.430254	0.102063	0.103019	0.273760	0.223717	0.219572	0.170966	0.350554	0.367355	0.197060	0.154164	0.087963	0.104367	0.578075	0.266100	0.454345	0.356594	0.129746	0.169800	0.261485	0.110626	0.145788	0.144742	0.315554	0.468010	0.225108	0.467212	0.249041	0.304854	0.205636	0.143509	0.503431	0.487313	0.081660	0.129324	0.188906	0.163473
28	0.285751	0.351083	0.541042	0.270506	0.084931	0.127834	0.152670	0.150294	0.481475	0.314528	0.350976	0.540803	0.117093	0.259826	0.217248	0.143939	0.119916	0.078120	0.619512	0.170551	0.066694	0.085979	0.130068	0.246612	0.459645	0.275386	0.527637	0.304397	0.369093	0.663915	0.462576	0.164782	0.357339	0.302338	0.478621	0.541069	0.190489	0.419846	0.149157	0.113555	0.367771	0.231191	0.381783	0.421415	0.095941	0.099223	0.266973	0.228326	0.205714	0.191678	0.346970	0.362094	0.139099	0.143384	0.081063	0.072711	0.590183	0.282696	0.464556	0.356258	0.186298	0.260353	0.250353	0.111491	0.155583	0.147645	0.234384	0.467496	0.241975	0.489905	0.246492	0.256945	0.198351	0.135087	0.553907	0.513628	0.082430	0.131348	0.188530	0.132451
29	0.228808	0.288538	0.544299	0.274549	0.074177	0.126692	0.150277	0.136793	0.448029	0.319653	0.313090	0.559724	0.126181	0.291993	0.197992	0.144519	0.128238	0.109800	0.663742	0.157056	0.076643	0.098127	0.123986	0.228608	0.439096	0.281747	0.531883	0.378301	0.334209	0.632234	0.487057	0.175508	0.391143	0.306220	0.478718	0.524427	0.166893	0.372904	0.140180	0.107796	0.381404	0.229745	0.372805	0.431184	0.060474	0.091411	0.249902	0.228060	0.246730	0.204761	0.355548	0.352791	0.087017	0.132465	0.089002	0.069352	0.601322	0.285148	0.458417	0.362435	0.260907	0.393166	0.249249	0.116978	0.159285	0.144995	0.231411	0.467247	0.244831	0.491400	0.251749	0.102435	0.176333	0.129226	0.529292	0.533935	0.097634	0.183107	0.169741	0.124739
30	0.216913	0.271859	0.553780	0.283677	0.065105	0.121820	0.150025	0.141192	0.484999	0.337580	0.293606	0.587378	0.131176	0.296488	0.188349	0.128077	0.125194	0.109505	0.751286	0.165693	0.071783	0.103674	0.122872	0.088313	0.452554	0.289714	0.529652	0.379055	0.303059	0.597075	0.578662	0.179727	0.402070	0.308185	0.473784	0.518903	0.160697	0.352139	0.142509	0.098872	0.386523	0.220126	0.372965	0.449720	0.061605	0.094009	0.240919	0.212713	0.270106	0.204058	0.368064	0.361900	0.089466	0.129413	0.151768	0.088957	0.603730	0.290551	0.460485	0.360209	0.272959	0.417603	0.248463	0.117509	0.164572	0.141830	0.232581	0.456994	0.234215	0.446846	0.254293	0.093978	0.176475	0.129823	0.524169	0.535814	0.098210	0.193406	0.141157	0.125999
31	0.215397	0.272323	0.583710	0.294690	0.064155	0.139866	0.143852	0.141395	0.487992	0.335422	0.229026	0.589255	0.139922	0.297255	0.202652	0.115386	0.121066	0.114268	0.805696	0.174229	0.069282	0.105208	0.121233	0.097974	0.454560	0.291906	0.508531	0.387493	0.200835	0.368557	0.625057	0.193075	0.410403	0.299073	0.474605	0.518403	0.103604	0.227477	0.137528	0.082464	0.416192	0.227662	0.286299	0.398829	0.073973	0.105941	0.212722	0.212313	0.273356	0.211345	0.337224	0.359366	0.098672	0.132720	0.195261	0.090223	0.609224	0.284854	0.461731	0.359178	0.282082	0.440395	0.248790	0.117508	0.176495	0.140747	0.233198	0.445432	0.224549	0.398072	0.250730	0.092307	0.182930	0.133814	0.523869	0.535993	0.107024	0.202292	0.136816	0.124871
32	0.220960	0.279474	0.635906	0.288169	0.067315	0.162693	0.143971	0.133174	0.475373	0.328207	0.236538	0.589863	0.141874	0.297516	0.204971	0.146524	0.124971	0.115056	0.818283	0.181935	0.067974	0.102557	0.115695	0.109687	0.455827	0.293217	0.501649	0.388014	0.180716	0.253283	0.625244	0.243059	0.447315	0.289826	0.448660	0.518387	0.120696	0.217582	0.210376	0.108569	0.413070	0.229863	0.254386	0.306690	0.073776	0.110304	0.137863	0.208509	0.328254	0.258715	0.341173	0.355269	0.104442	0.132933	0.461396	0.406872	0.606724	0.283306	0.481297	0.364184	0.282365	0.437894	0.249198	0.110916	0.180952	0.134479	0.234170	0.443484	0.212991	0.349678	0.239908	0.091776	0.195052	0.143744	0.502160	0.536095	0.122923	0.237884	0.136769	0.122989
33	0.231437	0.280844	0.691955	0.280430	0.067362	0.172196	0.151363	0.131294	0.472867	0.332830	0.256678	0.578833	0.138788	0.298946	0.204891	0.161827	0.132058	0.115760	0.827140	0.187380	0.070761	0.110842	0.110089	0.120098	0.451947	0.294140	0.522336	0.380996	0.195014	0.257919	0.624459	0.236813	0.452667	0.282954	0.426603	0.517212	0.193647	0.324099	0.404547	0.161801	0.412084	0.230621	0.240293	0.299184	0.072647	0.118248	0.131018	0.186531	0.377718	0.305342	0.327964	0.353912	0.165220	0.197174	0.559239	0.536672	0.610188	0.284052	0.496031	0.311698	0.282478	0.431739	0.215785	0.093058	0.181740	0.128130	0.253217	0.436713	0.196381	0.274903	0.212319	0.081787	0.212552	0.154547	0.491517	0.531768	0.122668	0.253583	0.130924	0.119099
34	0.238099	0.282156	0.717860	0.280032	0.066907	0.183837	0.147905	0.100005	0.474949	0.345569	0.241245	0.578448	0.138364	0.293942	0.201576	0.170198	0.150779	0.119175	0.833076	0.188602	0.070574	0.110954	0.117900	0.127280	0.456603	0.300866	0.517265	0.380107	0.320123	0.452823	0.615713	0.251331	0.447355	0.276286	0.423914	0.509638	0.202006	0.355804	0.438285	0.186004	0.406902	0.229612	0.245763	0.291483	0.072782	0.118071	0.128769	0.184195	0.401770	0.324095	0.322112	0.353447	0.188603	0.218512	0.569203	0.564327	0.615078	0.277875	0.502016	0.235980	0.282353	0.430468	0.184588	0.092580	0.178420	0.118614	0.238417	0.435541	0.186864	0.281642	0.210327	0.070242	0.227537	0.159737	0.491501	0.467438	0.129707	0.256649	0.126792	0.116770
35	0.248338	0.278833	0.726875	0.282443	0.061470	0.186245	0.134931	0.090690	0.478794	0.349095	0.226322	0.579108	0.139511	0.270189	0.199809	0.178436	0.150419	0.119882	0.834672	0.199772	0.076622	0.110184	0.119021	0.130103	0.482738	0.314364	0.498720	0.386450	0.390011	0.605672	0.577271	0.242168	0.448661	0.276661	0.369280	0.382599	0.203487	0.344586	0.451579	0.233102	0.400808	0.224810	0.264659	0.267884	0.068724	0.107461	0.125524	0.178226	0.405508	0.324895	0.323051	0.291304	0.209733	0.224302	0.735494	0.642526	0.620360	0.268024	0.493348	0.228775	0.284831	0.436955	0.178276	0.089735	0.176498	0.112460	0.206223	0.425085	0.187591	0.295108	0.212210	0.073836	0.224753	0.153108	0.496168	0.410445	0.144596	0.261868	0.129224	0.080892
36	0.251128	0.270164	0.726139	0.289445	0.061369	0.182783	0.123083	0.090116	0.482224	0.356576	0.224936	0.583389	0.149298	0.268575	0.201503	0.178964	0.151210	0.122249	0.841237	0.214053	0.076680	0.106255	0.123954	0.131592	0.515857	0.325690	0.473309	0.383258	0.404359	0.631549	0.451635	0.249482	0.441024	0.261160	0.353549	0.335694	0.213284	0.346771	0.469754	0.375857	0.400175	0.215701	0.275105	0.253710	0.070289	0.113295	0.095646	0.174740	0.405457	0.325845	0.320153	0.242979	0.224592	0.223565	0.897907	0.698256	0.582970	0.245913	0.461188	0.224186	0.299729	0.455390	0.143089	0.081732	0.177210	0.113349	0.202705	0.382108	0.181632	0.305518	0.209383	0.066665	0.228419	0.147313	0.492530	0.403802	0.184944	0.289397	0.116126	0.076089
37	0.251555	0.263034	0.716368	0.306133	0.059447	0.179009	0.119985	0.083478	0.482631	0.362440	0.226040	0.583539	0.140036	0.234166	0.181701	0.180688	0.154998	0.125807	0.842648	0.217500	0.079659	0.105014	0.129738	0.131367	0.515081	0.308808	0.458229	0.383568	0.415539	0.646469	0.430349	0.242080	0.424487	0.220982	0.291772	0.278072	0.214100	0.347020	0.482580	0.415496	0.394227	0.199642	0.266213	0.245846	0.063091	0.108767	0.095017	0.127819	0.405301	0.325295	0.319513	0.250739	0.234208	0.228067	0.909223	0.701736	0.514731	0.230402	0.429164	0.223744	0.308890	0.462704	0.115109	0.071140	0.178549	0.117934	0.193318	0.285347	0.152712	0.283851	0.177807	0.062831	0.231449	0.139800	0.493654	0.403664	0.231086	0.354531	0.086697	0.064142
38	0.251713	0.258872	0.665415	0.297211	0.060794	0.169060	0.117198	0.073382	0.474936	0.360179	0.238139	0.578624	0.134279	0.217672	0.148345	0.178480	0.159796	0.131989	0.852343	0.220990	0.095084	0.155795	0.129901	0.135676	0.462103	0.266656	0.461441	0.384558	0.452996	0.728623	0.320243	0.237044	0.419412	0.207123	0.277167	0.195501	0.229262	0.361053	0.538710	0.420477	0.368211	0.185495	0.274792	0.235900	0.093635	0.159852	0.088127	0.107875	0.406185	0.326121	0.320122	0.241427	0.237285	0.232628	0.907797	0.709427	0.516050	0.235103	0.425287	0.221873	0.306890	0.462367	0.102613	0.064126	0.176927	0.122730	0.197206	0.258197	0.153472	0.284349	0.155905	0.058466	0.225053	0.130104	0.496341	0.404338	0.229176	0.363295	0.162667	0.076017
39	0.256232	0.257928	0.670637	0.277427	0.068065	0.160975	0.128519	0.079010	0.445511	0.346540	0.235584	0.530098	0.127837	0.205294	0.145623	0.177670	0.159197	0.138361	0.816659	0.227093	0.092514	0.170964	0.108516	0.163524	0.432509	0.244492	0.429049	0.384558	0.450398	0.746902	0.242531	0.242686	0.414611	0.205644	0.227242	0.190305	0.253697	0.367077	0.585395	0.544050	0.340194	0.171856	0.277033	0.228551	0.107115	0.175936	0.083234	0.142437	0.399304	0.333387	0.318164	0.225951	0.239192	0.250971	0.895361	0.711920	0.527704	0.246383	0.416406	0.189247	0.294699	0.455252	0.085202	0.061013	0.177830	0.127103	0.202305	0.208084	0.140122	0.256132	0.246363	0.117953	0.211043	0.123662	0.490553	0.406309	0.229678	0.360052	0.240998	0.084954
40	0.265713	0.259325	0.695178	0.275556	0.098976	0.156547	0.121967	0.104089	0.392486	0.301649	0.231518	0.438950	0.124372	0.188440	0.153561	0.184623	0.153033	0.138874	0.698756	0.263070	0.095672	0.164561	0.146309	0.243327	0.433345	0.245419	0.365444	0.385542	0.456485	0.737780	0.228628	0.191680	0.384914	0.183953	0.198270	0.190587	0.265717	0.365889	0.672433	0.672330	0.284745	0.152246	0.266392	0.226711	0.126188	0.191436	0.095446	0.145934	0.398087	0.349224	0.309984	0.221237	0.237473	0.257895	0.882407	0.699000	0.492771	0.236959	0.365166	0.158924	0.260028	0.401449	0.123271	0.060137	0.168001	0.123418	0.203534	0.116353	0.120780	0.223212	0.396338	0.194503	0.202746	0.122801	0.437387	0.415801	0.233585	0.360450	0.243098	0.102725
41	0.274072	0.258372	0.667087	0.286439	0.110759	0.155439	0.138214	0.125518	0.372587	0.255657	0.246672	0.396425	0.126367	0.157133	0.180142	0.258123	0.147403	0.138253	0.668833	0.287670	0.119642	0.162471	0.186678	0.289353	0.433278	0.246515	0.280277	0.384948	0.453134	0.741542	0.250051	0.188226	0.313039	0.140005	0.192577	0.206123	0.274280	0.369878	0.690160	0.744191	0.271010	0.146312	0.263954	0.223474	0.154261	0.210461	0.129449	0.141956	0.402246	0.359402	0.346668	0.220490	0.223041	0.241154	0.734755	0.505775	0.446333	0.212637	0.271306	0.143126	0.205824	0.315603	0.153129	0.049218	0.137401	0.108626	0.225598	0.066825	0.121618	0.224510	0.395550	0.207756	0.205165	0.122933	0.404851	0.348797	0.229581	0.338811	0.252685	0.117839
42	0.269094	0.245222	0.670417	0.299684	0.117786	0.159180	0.160294	0.148867	0.376359	0.242564	0.242155	0.387682	0.141569	0.175508	0.374552	0.303783	0.146955	0.136582	0.662634	0.294179	0.126784	0.168095	0.190170	0.295658	0.422442	0.233244	0.259528	0.283765	0.397766	0.687985	0.248742	0.147753	0.271217	0.122132	0.188169	0.313330	0.262687	0.359337	0.658951	0.754834	0.266016	0.145702	0.284777	0.235663	0.155010	0.211319	0.146004	0.152780	0.388196	0.347129	0.360103	0.215639	0.176984	0.178508	0.746154	0.480089	0.431779	0.210934	0.276234	0.175513	0.197185	0.290753	0.161588	0.047147	0.119938	0.097849	0.240281	0.085955	0.126840	0.225673	0.409994	0.212599	0.206618	0.124253	0.396837	0.306398	0.230632	0.333606	0.279213	0.120682
43	0.255808	0.225413	0.689119	0.304151	0.115664	0.174225	0.187704	0.162051	0.341922	0.220070	0.254449	0.278771	0.169063	0.199612	0.412803	0.292491	0.148138	0.127131	0.628968	0.291464	0.138205	0.173671	0.192087	0.324401	0.396005	0.217557	0.263359	0.200433	0.297339	0.542648	0.231609	0.134475	0.264705	0.123546	0.223157	0.432683	0.218733	0.252520	0.571384	0.745852	0.250697	0.146473	0.345561	0.232354	0.158109	0.210914	0.178307	0.158857	0.355319	0.332160	0.332062	0.212452	0.176258	0.171151	0.747326	0.433940	0.441676	0.223738	0.272489	0.316137	0.189574	0.270667	0.191885	0.064471	0.115265	0.096174	0.241239	0.197721	0.142399	0.230486	0.454964	0.246744	0.208196	0.126369	0.310504	0.290655	0.228340	0.333616	0.288190	0.152428
44	0.244733	0.205750	0.691332	0.293425	0.120862	0.178618	0.319613	0.183482	0.260216	0.198655	0.248673	0.177034	0.174789	0.203423	0.413724	0.281705	0.145073	0.125330	0.539276	0.282365	0.140513	0.171200	0.218698	0.399608	0.384277	0.210240	0.401426	0.189369	0.290080	0.520586	0.258303	0.110137	0.233185	0.121016	0.228884	0.497287	0.214479	0.218722	0.547274	0.740678	0.210810	0.131299	0.371540	0.209501	0.163821	0.214148	0.224674	0.164334	0.347902	0.344935	0.310781	0.182418	0.147159	0.172836	0.525550	0.275842	0.437530	0.207411	0.317971	0.405431	0.189919	0.271316	0.210120	0.124382	0.128190	0.100138	0.314293	0.390361	0.169637	0.253190	0.536132	0.315264	0.197556	0.123048	0.294384	0.269965	0.218963	0.309917	0.292077	0.157858
45	0.229168	0.184531	0.680249	0.289491	0.126760	0.173410	0.465644	0.194441	0.231179	0.190773	0.244612	0.151317	0.178363	0.201582	0.422182	0.285671	0.144894	0.122983	0.424199	0.274725	0.162663	0.193915	0.270140	0.435207	0.386849	0.208708	0.682751	0.150978	0.303331	0.564618	0.377708	0.108976	0.170243	0.119723	0.226193	0.505905	0.207287	0.210033	0.541039	0.721068	0.134757	0.103837	0.453678	0.212194	0.168154	0.219400	0.225177	0.169203	0.356465	0.353708	0.314008	0.178227	0.127008	0.170613	0.440792	0.237429	0.437864	0.195854	0.348826	0.489573	0.190234	0.273067	0.216208	0.148418	0.141029	0.102041	0.413015	0.505883	0.204155	0.302404	0.556450	0.340628	0.201081	0.132574	0.390262	0.346695	0.219623	0.298087	0.292841	0.169045
46	0.214082	0.166748	0.653793	0.279029	0.131403	0.163163	0.495275	0.195138	0.230781	0.169527	0.208184	0.139250	0.178965	0.201551	0.435244	0.278823	0.142508	0.121696	0.391408	0.270743	0.181459	0.206225	0.277197	0.440562	0.385619	0.205267	0.769865	0.140791	0.272128	0.526695	0.381046	0.134880	0.160921	0.121718	0.220720	0.507676	0.204429	0.215335	0.529042	0.663420	0.127759	0.091973	0.612796	0.233773	0.168750	0.219794	0.225226	0.195041	0.333085	0.329571	0.337608	0.171710	0.115831	0.165516	0.447041	0.245473	0.440875	0.189761	0.458789	0.546259	0.191896	0.280075	0.219053	0.152680	0.166579	0.110748	0.481429	0.529187	0.243679	0.389313	0.556342	0.356615	0.241820	0.162344	0.522720	0.393602	0.227220	0.309237	0.300545	0.178154
47	0.192761	0.150577	0.605519	0.285545	0.157336	0.172792	0.518002	0.213859	0.227249	0.160142	0.196610	0.162458	0.185039	0.215892	0.467716	0.286243	0.145567	0.121424	0.371465	0.297420	0.185612	0.211034	0.345405	0.460332	0.384883	0.203280	0.763525	0.135129	0.257259	0.459351	0.353582	0.123426	0.165812	0.123707	0.229060	0.519104	0.204681	0.212797	0.521025	0.649652	0.126243	0.087007	0.629025	0.254369	0.175120	0.223878	0.246054	0.216031	0.262446	0.283005	0.344395	0.195412	0.118737	0.183490	0.499228	0.220000	0.433009	0.187369	0.604577	0.551497	0.196882	0.282491	0.248548	0.171742	0.199015	0.126076	0.478858	0.529975	0.251740	0.413583	0.556485	0.360631	0.282621	0.189940	0.540490	0.400345	0.223673	0.311045	0.311336	0.179774
48	0.176870	0.139986	0.534972	0.316190	0.180213	0.191222	0.609317	0.243868	0.216085	0.141588	0.215673	0.162478	0.250255	0.276271	0.503736	0.304312	0.131422	0.116547	0.363527	0.350865	0.184545	0.210660	0.387824	0.559957	0.374415	0.192210	0.814735	0.153677	0.254423	0.475791	0.367700	0.130203	0.157558	0.122814	0.298049	0.520073	0.177057	0.171481	0.451609	0.660948	0.132448	0.089886	0.634587	0.285355	0.179998	0.222529	0.282537	0.233014	0.241450	0.259452	0.354068	0.305289	0.132267	0.219567	0.503358	0.222436	0.454285	0.194811	0.609443	0.583289	0.181689	0.269763	0.288499	0.204908	0.203816	0.129000	0.474492	0.566845	0.250759	0.404687	0.558520	0.359989	0.294851	0.201734	0.556935	0.411285	0.196090	0.290423	0.317554	0.182040
49	0.166136	0.134082	0.524468	0.342926	0.216203	0.213928	0.644487	0.255732	0.206782	0.132391	0.235156	0.177433	0.267410	0.287827	0.592768	0.347816	0.142321	0.118550	0.382908	0.384213	0.179189	0.176869	0.396602	0.568494	0.336621	0.166220	0.879104	0.151918	0.277235	0.496456	0.353515	0.174038	0.152579	0.123230	0.411511	0.565660	0.142781	0.136514	0.390989	0.541607	0.141283	0.094532	0.636873	0.327528	0.173905	0.198238	0.307677	0.230959	0.313057	0.297205	0.435162	0.394795	0.135927	0.237571	0.516023	0.228531	0.413426	0.187980	0.608189	0.608995	0.163259	0.248988	0.300266	0.233816	0.204058	0.129015	0.517654	0.657335	0.263771	0.405741	0.592335	0.365425	0.283709	0.195352	0.623242	0.412480	0.129451	0.195842	0.320552	0.181892
50	0.149507	0.127248	0.545626	0.350122	0.283345	0.236027	0.662813	0.261911	0.200995	0.110329	0.250326	0.202888	0.267190	0.288980	0.620394	0.366152	0.144491	0.115374	0.375128	0.384279	0.192582	0.193614	0.424326	0.584184	0.283688	0.140506	0.914330	0.236544	0.275019	0.476382	0.379820	0.173804	0.151800	0.124565	0.514932	0.581257	0.117325	0.112140	0.260713	0.387509	0.144282	0.095557	0.636955	0.328703	0.163356	0.176216	0.304660	0.207805	0.381737	0.389895	0.476755	0.449532	0.134642	0.239044	0.508093	0.216951	0.401726	0.201453	0.616581	0.653837	0.163663	0.251866	0.301918	0.237511	0.204165	0.127869	0.575404	0.715268	0.298055	0.427572	0.617804	0.395598	0.282331	0.195208	0.628630	0.417860	0.122081	0.144550	0.299094	0.176946
51	0.147413	0.126789	0.548787	0.344040	0.356314	0.257247	0.667701	0.263614	0.210725	0.097253	0.245724	0.277680	0.270606	0.307445	0.621660	0.363836	0.149754	0.118275	0.369565	0.385845	0.191858	0.196966	0.434265	0.592447	0.252996	0.135325	0.929863	0.301582	0.277546	0.469493	0.382214	0.171592	0.151348	0.128814	0.524408	0.671933	0.097299	0.100623	0.217009	0.246902	0.140702	0.089934	0.634514	0.379857	0.152250	0.160324	0.301594	0.192473	0.429748	0.467824	0.621493	0.604676	0.128429	0.241155	0.466861	0.211725	0.407151	0.213726	0.620160	0.735107	0.168059	0.256127	0.325095	0.281633	0.207964	0.127757	0.616288	0.766171	0.305489	0.443959	0.530005	0.378333	0.289086	0.197512	0.699007	0.441277	0.115060	0.143136	0.232379	0.174341
52	0.156267	0.132042	0.547943	0.326473	0.388315	0.267373	0.669311	0.254849	0.211108	0.098716	0.236881	0.315538	0.274028	0.322049	0.624036	0.347269	0.146987	0.112432	0.358179	0.385225	0.185416	0.201517	0.423969	0.600371	0.255123	0.138029	0.926930	0.341332	0.271622	0.469169	0.375675	0.173023	0.179040	0.152816	0.571140	0.740721	0.084740	0.092020	0.218979	0.209165	0.127881	0.072735	0.625433	0.429766	0.124547	0.134936	0.290019	0.191218	0.443632	0.484059	0.738488	0.743975	0.120464	0.236588	0.400174	0.184712	0.369610	0.204182	0.643075	0.804371	0.154330	0.231357	0.326331	0.311154	0.215514	0.133752	0.644492	0.785846	0.306405	0.473176	0.511139	0.362236	0.286110	0.197713	0.776580	0.468262	0.105870	0.141048	0.228776	0.168353
53	0.158730	0.133160	0.552760	0.320478	0.386168	0.268380	0.665769	0.241602	0.185906	0.088512	0.237731	0.317027	0.269414	0.310965	0.654489	0.282071	0.145424	0.106554	0.301457	0.379637	0.182235	0.195772	0.424066	0.596825	0.212576	0.124299	0.926415	0.348318	0.233054	0.399741	0.261849	0.171966	0.246296	0.195003	0.628608	0.804033	0.083089	0.090590	0.225038	0.208128	0.153634	0.089467	0.652397	0.438824	0.109375	0.117926	0.279366	0.184916	0.449267	0.483091	0.791121	0.781690	0.120629	0.238173	0.331254	0.183582	0.353385	0.225174	0.677147	0.844203	0.154704	0.213125	0.316937	0.313897	0.223674	0.139758	0.668473	0.787158	0.310550	0.477272	0.514754	0.362650	0.281320	0.201724	0.844839	0.470534	0.103482	0.145719	0.214783	0.159994
54	0.153118	0.125359	0.493367	0.338174	0.407864	0.280686	0.660940	0.224360	0.177909	0.088246	0.308913	0.317115	0.254849	0.299570	0.704686	0.279275	0.156693	0.115864	0.257991	0.372540	0.174523	0.191832	0.426347	0.579111	0.199405	0.120085	0.930707	0.367703	0.231281	0.329933	0.260888	0.169393	0.289332	0.226521	0.681119	0.825862	0.087346	0.104803	0.234525	0.204053	0.175795	0.108830	0.749420	0.446348	0.106645	0.114883	0.269712	0.181325	0.453828	0.474334	0.795444	0.800287	0.116287	0.235700	0.347737	0.163574	0.379843	0.257579	0.691134	0.851022	0.152377	0.213636	0.325187	0.321041	0.241062	0.157818	0.675743	0.786847	0.316033	0.476592	0.491956	0.360607	0.280234	0.205260	0.914448	0.468976	0.100177	0.148453	0.178536	0.156163
55	0.137860	0.108576	0.409831	0.359940	0.458511	0.287733	0.656700	0.221336	0.161443	0.089694	0.462874	0.317126	0.239350	0.289506	0.762973	0.277639	0.184651	0.152296	0.260027	0.366088	0.171511	0.188824	0.409774	0.528035	0.202095	0.117155	0.934868	0.417853	0.287209	0.353565	0.252107	0.173526	0.308570	0.238583	0.705459	0.784347	0.091246	0.131112	0.273750	0.207011	0.182665	0.115505	0.802243	0.448238	0.097028	0.107401	0.221879	0.184109	0.452280	0.457028	0.802784	0.893117	0.140027	0.251643	0.291272	0.162587	0.398118	0.268955	0.695464	0.852841	0.160965	0.212901	0.320873	0.322104	0.248549	0.164262	0.675967	0.786864	0.304856	0.470887	0.421513	0.310023	0.298078	0.223338	0.956326	0.469345	0.096077	0.143395	0.160445	0.130149
56	0.116879	0.082557	0.405450	0.361387	0.499063	0.278085	0.607402	0.209047	0.148500	0.104904	0.533753	0.316789	0.242432	0.313816	0.770809	0.278983	0.193171	0.169638	0.359335	0.366688	0.149946	0.163274	0.376558	0.499747	0.209596	0.128156	0.939340	0.498128	0.286834	0.339890	0.232656	0.170564	0.317130	0.242274	0.697025	0.727055	0.080810	0.126266	0.287757	0.208552	0.186612	0.120025	0.801407	0.452809	0.089769	0.092465	0.221715	0.190697	0.451630	0.451228	0.841470	0.994768	0.145371	0.240904	0.250219	0.158110	0.381938	0.259367	0.694579	0.829128	0.163242	0.212234	0.308870	0.306827	0.248459	0.165365	0.670175	0.789787	0.283253	0.448645	0.354207	0.264721	0.330753	0.249548	0.958159	0.471958	0.097735	0.143049	0.153433	0.121886
57	0.111168	0.073837	0.391807	0.352795	0.518099	0.276017	0.503371	0.198563	0.151477	0.133203	0.533671	0.328313	0.248525	0.314472	0.827436	0.276018	0.189975	0.167185	0.428565	0.369315	0.125260	0.146785	0.371958	0.493945	0.254382	0.161635	0.939670	0.569437	0.275620	0.290653	0.344399	0.150536	0.311126	0.235780	0.696294	0.697326	0.092897	0.166360	0.304971	0.188780	0.174091	0.115844	0.805059	0.448963	0.087913	0.085584	0.223607	0.168856	0.468855	0.464626	0.896530	1.078514	0.138666	0.218547	0.242505	0.166905	0.377411	0.252950	0.677435	0.780955	0.171348	0.205385	0.307708	0.301454	0.248426	0.165577	0.694833	0.785329	0.245983	0.384117	0.354735	0.238601	0.342268	0.263275	0.964816	0.468322	0.099206	0.140517	0.149677	0.111627
58	0.131241	0.091363	0.376615	0.341093	0.517170	0.275001	0.462154	0.227019	0.180853	0.166509	0.567813	0.345892	0.256404	0.309182	0.869646	0.270277	0.186054	0.166611	0.455239	0.369356	0.122103	0.142370	0.320379	0.476226	0.291025	0.197701	0.874590	0.605557	0.290191	0.295159	0.320304	0.174040	0.303791	0.228890	0.697391	0.699935	0.092754	0.191404	0.310948	0.139986	0.170921	0.114413	0.794587	0.443957	0.074797	0.071014	0.212682	0.141322	0.490181	0.477011	0.916953	1.138299	0.143559	0.233732	0.238923	0.262131	0.374044	0.253219	0.666071	0.739867	0.257275	0.211926	0.350998	0.297475	0.242697	0.162388	0.718544	0.724608	0.221784	0.316593	0.354567	0.223005	0.350331	0.271133	0.982485	0.470947	0.074262	0.112075	0.133950	0.097704
59	0.133144	0.095773	0.365750	0.338796	0.511970	0.267557	0.450638	0.302748	0.203099	0.176499	0.580457	0.364056	0.218676	0.271900	0.863468	0.260272	0.190381	0.177200	0.464580	0.369512	0.122706	0.142307	0.272859	0.363088	0.296054	0.205083	0.671086	0.626105	0.299353	0.304608	0.311010	0.173260	0.297545	0.224961	0.691048	0.699620	0.093197	0.203141	0.301666	0.132431	0.169676	0.113521	0.733345	0.440090	0.062275	0.062301	0.159424	0.115441	0.493403	0.476683	0.931511	1.148942	0.170794	0.245151	0.256066	0.264320	0.371068	0.252859	0.632201	0.683877	0.310480	0.298523	0.499391	0.285034	0.232667	0.157985	0.690452	0.638684	0.220371	0.303723	0.359330	0.223022	0.347307	0.271308	0.991218	0.485884	0.056886	0.097048	0.116334	0.096649
60	0.127820	0.095058	0.375823	0.354765	0.506393	0.255340	0.350870	0.291066	0.215965	0.182194	0.629554	0.384674	0.154300	0.223534	0.826811	0.213595	0.191313	0.179678	0.464742	0.370835	0.156823	0.155499	0.255784	0.349208	0.301781	0.208150	0.603649	0.633694	0.299301	0.289365	0.307327	0.171274	0.291775	0.223766	0.671287	0.687517	0.087671	0.204403	0.294890	0.132927	0.169538	0.113526	0.615846	0.428033	0.052372	0.096712	0.082421	0.110794	0.500582	0.483122	0.944385	1.149438	0.183998	0.304134	0.282279	0.279764	0.365278	0.251263	0.490881	0.664124	0.358650	0.377523	0.553087	0.259346	0.226285	0.154037	0.635391	0.603232	0.216426	0.303957	0.343230	0.222539	0.347777	0.270931	0.975808	0.451615	0.064857	0.105789	0.110042	0.092350
61	0.127838	0.096174	0.379120	0.371527	0.492700	0.235496	0.307293	0.291221	0.218569	0.179414	0.710555	0.407953	0.144771	0.219898	0.776657	0.146453	0.191770	0.186513	0.467828	0.358072	0.244206	0.146129	0.208238	0.304730	0.299469	0.205523	0.595331	0.633751	0.297755	0.276919	0.294633	0.171221	0.291833	0.223501	0.654394	0.669843	0.090250	0.207463	0.310526	0.136140	0.168647	0.113243	0.626710	0.416287	0.049264	0.122335	0.070873	0.120445	0.506254	0.487530	0.950072	1.148453	0.196004	0.348318	0.270659	0.314251	0.342253	0.240862	0.413550	0.651276	0.383291	0.388833	0.552848	0.245000	0.208279	0.144744	0.630783	0.602491	0.174373	0.281548	0.266983	0.186818	0.341776	0.264359	0.934770	0.379037	0.068814	0.105697	0.102467	0.090572
62	0.137868	0.103904	0.403426	0.360114	0.466317	0.218715	0.268186	0.320774	0.220490	0.176866	0.788084	0.418014	0.141327	0.213477	0.769314	0.135200	0.195503	0.210448	0.500285	0.311581	0.246491	0.145640	0.159639	0.220726	0.300783	0.205488	0.517428	0.628508	0.285895	0.299101	0.286276	0.157028	0.292426	0.224285	0.566632	0.637716	0.095510	0.209223	0.314098	0.139761	0.162795	0.110814	0.628920	0.393093	0.061353	0.139879	0.064296	0.130295	0.505366	0.488811	0.952806	1.132443	0.197991	0.348153	0.267992	0.306613	0.298360	0.235322	0.412565	0.623466	0.382402	0.398042	0.581103	0.241603	0.203910	0.141091	0.669902	0.586797	0.129941	0.254784	0.249217	0.117260	0.304764	0.243228	0.881387	0.349065	0.072316	0.111426	0.112738	0.093220
63	0.146499	0.112927	0.406790	0.346272	0.417117	0.198751	0.303621	0.355076	0.221430	0.176811	0.841469	0.412129	0.125727	0.176369	0.769384	0.140409	0.188995	0.213201	0.504817	0.253613	0.249615	0.138487	0.233394	0.136785	0.301185	0.205317	0.406966	0.623350	0.226958	0.334602	0.283658	0.142747	0.292852	0.222832	0.503498	0.602271	0.100894	0.219306	0.313774	0.142128	0.156671	0.107579	0.618351	0.353848	0.102680	0.187338	0.068177	0.132112	0.469769	0.474937	0.923598	1.099774	0.196124	0.343430	0.239462	0.297111	0.296291	0.232705	0.405796	0.603608	0.395885	0.424553	0.643683	0.178758	0.210419	0.145071	0.676314	0.490410	0.124265	0.233751	0.230865	0.107742	0.269687	0.220464	0.875756	0.342087	0.083790	0.117554	0.115173	0.100245
64	0.150637	0.115783	0.381467	0.331439	0.381164	0.185519	0.373586	0.370740	0.222149	0.177747	0.860748	0.390664	0.155773	0.220859	0.742183	0.138520	0.183625	0.214568	0.500009	0.230551	0.378790	0.186252	0.317422	0.158037	0.301299	0.204867	0.321693	0.590851	0.209133	0.330570	0.275324	0.143524	0.295183	0.219795	0.490170	0.500507	0.097518	0.209644	0.320958	0.144900	0.154412	0.105828	0.611713	0.346418	0.105502	0.192504	0.148429	0.131094	0.433571	0.425967	0.905102	1.079372	0.167766	0.309824	0.229035	0.294612	0.284140	0.217018	0.397489	0.537478	0.468956	0.510629	0.673701	0.165539	0.230720	0.153453	0.623196	0.395912	0.129654	0.179129	0.195450	0.102316	0.253613	0.208222	0.856395	0.328450	0.085496	0.123685	0.254744	0.120901
65	0.151582	0.115503	0.312748	0.333958	0.380135	0.184746	0.400997	0.377439	0.211001	0.174721	0.864769	0.339857	0.194811	0.300738	0.639274	0.115749	0.180489	0.212965	0.501773	0.219354	0.387473	0.207375	0.317863	0.176096	0.297292	0.201008	0.285150	0.566062	0.212812	0.384811	0.115625	0.123390	0.268495	0.197341	0.439566	0.408622	0.094090	0.195315	0.289835	0.130337	0.156067	0.106052	0.609770	0.283417	0.105994	0.196979	0.231824	0.132278	0.406175	0.332754	0.837418	1.020490	0.168808	0.314924	0.227089	0.298825	0.281576	0.209335	0.393343	0.444562	0.531509	0.576422	0.692173	0.188229	0.232437	0.152849	0.581465	0.281159	0.129441	0.182958	0.197030	0.083640	0.251408	0.206799	0.820706	0.327159	0.087560	0.122530	0.351550	0.124820
66	0.148053	0.113144	0.304894	0.336707	0.360959	0.164978	0.421573	0.444147	0.199953	0.173221	0.864603	0.310883	0.200335	0.311752	0.508031	0.123062	0.183672	0.217236	0.505257	0.214705	0.404635	0.214097	0.333622	0.178164	0.293112	0.199880	0.283282	0.550218	0.231771	0.483584	0.084904	0.080106	0.212441	0.159605	0.402641	0.341921	0.094130	0.217991	0.282353	0.146602	0.155677	0.105187	0.612098	0.209233	0.108945	0.195797	0.245806	0.130629	0.408728	0.295676	0.728342	0.913266	0.169988	0.306720	0.224232	0.235843	0.270358	0.193981	0.346912	0.360734	0.537230	0.597157	0.685400	0.173603	0.222506	0.143600	0.568658	0.205298	0.161955	0.221191	0.208467	0.090817	0.243478	0.203805	0.809990	0.315249	0.086171	0.115821	0.357045	0.125394
67	0.140257	0.109097	0.306673	0.332169	0.296752	0.123374	0.494266	0.457826	0.195917	0.175398	0.863970	0.310873	0.201749	0.294509	0.494822	0.122740	0.186780	0.226559	0.505386	0.218647	0.411541	0.216488	0.340227	0.190045	0.292143	0.202656	0.332384	0.557497	0.215036	0.471644	0.089905	0.071875	0.231565	0.158690	0.383615	0.330688	0.078195	0.227395	0.264010	0.154516	0.120572	0.085316	0.575854	0.190974	0.107031	0.194619	0.303073	0.117235	0.412248	0.290494	0.661680	0.857272	0.148433	0.295210	0.197393	0.194628	0.214897	0.145055	0.289556	0.358482	0.534516	0.600686	0.684765	0.165683	0.214895	0.135760	0.561908	0.225786	0.179261	0.260691	0.205236	0.099929	0.234880	0.202165	0.732523	0.272233	0.110010	0.118036	0.385790	0.121326
68	0.136299	0.107273	0.290921	0.330954	0.249242	0.135163	0.535956	0.471150	0.186492	0.178200	0.839932	0.317586	0.196716	0.285109	0.443705	0.125571	0.180780	0.232683	0.496760	0.199221	0.420792	0.219692	0.355643	0.196592	0.283868	0.202813	0.384273	0.550935	0.214111	0.470874	0.123249	0.183518	0.324567	0.212565	0.472582	0.352470	0.079164	0.224861	0.266641	0.153993	0.096080	0.065956	0.451139	0.178001	0.110423	0.195349	0.348352	0.119752	0.406553	0.291162	0.649730	0.850126	0.130356	0.282349	0.172701	0.194077	0.170158	0.125674	0.310237	0.397579	0.534444	0.602077	0.701565	0.172705	0.197041	0.114376	0.567808	0.258756	0.182324	0.251934	0.201045	0.102352	0.237684	0.203389	0.653832	0.238060	0.122797	0.117465	0.430151	0.125249
69	0.136382	0.107584	0.286375	0.313724	0.208969	0.152346	0.554674	0.525427	0.190359	0.184924	0.765546	0.323097	0.178508	0.286152	0.289093	0.135069	0.152296	0.218964	0.495648	0.165135	0.430380	0.221067	0.440233	0.195537	0.292083	0.207684	0.384849	0.513449	0.227003	0.482934	0.322924	0.321279	0.361916	0.248798	0.515898	0.353935	0.085145	0.220707	0.330106	0.191960	0.116091	0.068283	0.384643	0.183188	0.113106	0.195117	0.349522	0.122500	0.412370	0.295236	0.628430	0.772726	0.093074	0.178414	0.116706	0.135423	0.215825	0.161597	0.451778	0.405000	0.530035	0.604003	0.729595	0.199655	0.183828	0.095529	0.618210	0.260232	0.183443	0.246279	0.206664	0.103636	0.245145	0.200799	0.555370	0.240690	0.120918	0.115327	0.441081	0.134643
70	0.136883	0.107371	0.286100	0.282597	0.210959	0.153451	0.565641	0.526533	0.195560	0.183488	0.734872	0.328709	0.179563	0.296334	0.167003	0.136488	0.138737	0.204768	0.450895	0.144147	0.432610	0.221747	0.500402	0.182491	0.295172	0.204698	0.369309	0.436843	0.225412	0.467685	0.331803	0.336111	0.363733	0.251597	0.519156	0.381491	0.115810	0.241263	0.357584	0.194131	0.169084	0.104983	0.364802	0.159878	0.123207	0.197523	0.349317	0.132047	0.430650	0.298633	0.571069	0.637164	0.087299	0.148075	0.112527	0.086917	0.224154	0.179157	0.655329	0.404394	0.484732	0.590655	0.705669	0.203176	0.186037	0.093408	0.692347	0.263573	0.182925	0.222006	0.207290	0.111951	0.244314	0.193122	0.423759	0.237081	0.122208	0.112819	0.441352	0.137547
71	0.136990	0.106821	0.282393	0.270930	0.207387	0.153293	0.566904	0.520794	0.199100	0.172577	0.754305	0.330509	0.181104	0.308389	0.159965	0.140419	0.147068	0.206663	0.359530	0.135650	0.418748	0.211379	0.521403	0.196017	0.249693	0.179077	0.367898	0.345451	0.209726	0.404201	0.338226	0.367856	0.365365	0.256582	0.531558	0.404403	0.127254	0.248809	0.389044	0.224490	0.226021	0.145530	0.565441	0.224799	0.133346	0.186788	0.349528	0.136685	0.441890	0.288217	0.479730	0.480856	0.083021	0.148169	0.066816	0.084671	0.235674	0.186203	0.870769	0.406396	0.451660	0.534331	0.596716	0.211277	0.187015	0.092892	0.696696	0.244022	0.182039	0.222100	0.182898	0.114951	0.211823	0.159347	0.363625	0.236064	0.121039	0.106018	0.438713	0.148683
72	0.134748	0.103685	0.269173	0.260960	0.217787	0.158491	0.553858	0.544044	0.183203	0.157013	0.741140	0.338304	0.180891	0.304083	0.159561	0.143112	0.143806	0.201556	0.335391	0.138489	0.367998	0.188691	0.521092	0.199099	0.190027	0.144538	0.371985	0.283130	0.214366	0.397625	0.376961	0.438427	0.364819	0.259072	0.533097	0.403948	0.120590	0.245874	0.418592	0.267980	0.260633	0.171351	0.722214	0.335213	0.145490	0.172227	0.352349	0.130764	0.417083	0.258912	0.412139	0.292968	0.087321	0.148649	0.114178	0.081829	0.237943	0.188129	0.926993	0.437176	0.407105	0.484223	0.566816	0.210774	0.195176	0.096653	0.657984	0.247924	0.182070	0.222955	0.185566	0.110839	0.182651	0.127664	0.358618	0.268998	0.116839	0.094557	0.437069	0.150919
73	0.115657	0.086561	0.243671	0.258106	0.229665	0.163899	0.576895	0.580117	0.185960	0.161909	0.734914	0.346487	0.186829	0.318525	0.161001	0.212898	0.143916	0.192858	0.439585	0.173937	0.364842	0.185971	0.526815	0.201694	0.174089	0.138336	0.368096	0.239266	0.200818	0.360091	0.407050	0.457533	0.370962	0.265239	0.533060	0.406884	0.118077	0.244167	0.423878	0.270751	0.280033	0.182388	0.729294	0.342862	0.155613	0.164434	0.395323	0.124013	0.409885	0.234077	0.371819	0.241879	0.090590	0.158038	0.197785	0.075575	0.238892	0.189834	0.950402	0.480590	0.397187	0.482607	0.560315	0.207583	0.230439	0.112718	0.658301	0.277928	0.181121	0.219589	0.199707	0.109439	0.183173	0.116193	0.340091	0.410548	0.117610	0.095711	0.438260	0.151078
74	0.103169	0.077408	0.225639	0.255920	0.235439	0.165861	0.746262	0.579193	0.203194	0.174226	0.681561	0.316842	0.192221	0.325839	0.186662	0.230454	0.190953	0.195998	0.468320	0.187645	0.357375	0.183748	0.543078	0.212595	0.170541	0.135574	0.360243	0.229553	0.149711	0.188779	0.409604	0.458796	0.392729	0.278304	0.548061	0.415670	0.117718	0.250030	0.407876	0.273131	0.288357	0.188335	0.727916	0.378835	0.164741	0.115785	0.425120	0.149413	0.432910	0.216691	0.381616	0.295781	0.092083	0.140640	0.202203	0.076406	0.258215	0.199575	1.021812	0.485899	0.404996	0.497675	0.518522	0.205134	0.216957	0.107973	0.658482	0.303945	0.179169	0.212280	0.199007	0.107862	0.209299	0.132380	0.274284	0.623143	0.114832	0.087389	0.435161	0.159464
75	0.103074	0.077975	0.203359	0.234102	0.226763	0.159966	0.782144	0.561950	0.207790	0.179410	0.594428	0.283198	0.188108	0.321146	0.238352	0.243843	0.259357	0.207858	0.503863	0.199541	0.214376	0.132428	0.507515	0.202783	0.172456	0.135297	0.406878	0.233093	0.165765	0.234181	0.412434	0.458670	0.398834	0.281429	0.576974	0.414170	0.120502	0.252403	0.404234	0.273034	0.290964	0.189838	0.717409	0.407649	0.172263	0.113210	0.420824	0.160787	0.427435	0.209351	0.381542	0.325956	0.090380	0.126577	0.217547	0.084990	0.281004	0.210088	1.074221	0.488776	0.379588	0.464660	0.436584	0.202102	0.205141	0.107056	0.663285	0.309150	0.213135	0.306142	0.201130	0.108717	0.240147	0.158787	0.276477	0.645992	0.105764	0.076805	0.434950	0.172474
76	0.102724	0.077915	0.200006	0.198547	0.223682	0.156382	0.751460	0.558324	0.206155	0.179578	0.484449	0.316029	0.138374	0.248320	0.259250	0.271657	0.259084	0.189046	0.501663	0.265162	0.200973	0.094552	0.527433	0.190906	0.179184	0.136866	0.405465	0.234391	0.173807	0.259963	0.411324	0.434839	0.400014	0.281324	0.583661	0.420369	0.123766	0.231988	0.400990	0.263474	0.302745	0.200157	0.712104	0.408098	0.178800	0.107235	0.383797	0.233981	0.449071	0.228233	0.376397	0.413920	0.089177	0.119494	0.226151	0.109071	0.288756	0.214321	1.117975	0.488847	0.268921	0.381152	0.391264	0.184199	0.197513	0.104247	0.682813	0.324128	0.225620	0.396854	0.217410	0.117042	0.266335	0.179829	0.281772	0.668440	0.105151	0.068969	0.384784	0.160303
77	0.090606	0.071159	0.148723	0.193100	0.224610	0.156400	0.742198	0.560612	0.208979	0.181638	0.380733	0.371080	0.107613	0.200086	0.259315	0.305546	0.258375	0.178301	0.474135	0.277339	0.171167	0.088221	0.517438	0.187215	0.214396	0.145589	0.488003	0.235070	0.157470	0.238912	0.303642	0.349780	0.400701	0.281694	0.585744	0.417660	0.121917	0.195085	0.394918	0.260538	0.326594	0.219024	0.717955	0.410637	0.191008	0.110642	0.377927	0.309266	0.550883	0.278541	0.474281	0.628762	0.089477	0.117734	0.227206	0.119455	0.288875	0.218416	1.156116	0.479633	0.151019	0.277984	0.368932	0.183892	0.194106	0.102446	0.689521	0.342196	0.234543	0.449992	0.229639	0.120733	0.274549	0.186714	0.260446	0.705343	0.102695	0.061776	0.283502	0.159373
78	0.070900	0.059404	0.132798	0.175835	0.222401	0.156136	0.738643	0.512463	0.223097	0.192203	0.345356	0.395490	0.124362	0.204470	0.256184	0.305982	0.270113	0.188132	0.487103	0.289147	0.154231	0.084881	0.513562	0.178549	0.224106	0.146647	0.570720	0.232063	0.161634	0.252436	0.292632	0.329126	0.401153	0.282432	0.585981	0.405206	0.114271	0.178970	0.382522	0.243621	0.333753	0.224423	0.735758	0.436910	0.195023	0.116028	0.345469	0.312051	0.608334	0.292688	0.590332	0.688543	0.093009	0.116929	0.232735	0.138223	0.290217	0.222472	1.172738	0.458014	0.143472	0.246747	0.375501	0.189630	0.166973	0.086411	0.695650	0.342432	0.235758	0.481484	0.219751	0.108048	0.272372	0.186579	0.332001	0.752417	0.107598	0.063221	0.277217	0.174011
79	0.060162	0.055038	0.142010	0.149341	0.224243	0.155733	0.708475	0.497477	0.231620	0.201672	0.341806	0.397293	0.137302	0.215183	0.229191	0.304367	0.382513	0.246322	0.503216	0.308773	0.126306	0.074396	0.500339	0.172517	0.224863	0.146704	0.578789	0.224610	0.201931	0.293282	0.283047	0.304852	0.399073	0.277386	0.553807	0.359243	0.105045	0.175638	0.312762	0.229655	0.338072	0.227341	0.779597	0.438891	0.202896	0.124708	0.295242	0.315971	0.603160	0.290223	0.643963	0.687034	0.106529	0.125454	0.232546	0.158695	0.290703	0.223294	1.169265	0.436734	0.146705	0.240727	0.372764	0.194584	0.158605	0.083383	0.708963	0.345586	0.234038	0.478405	0.214108	0.102105	0.274677	0.188402	0.459713	0.794267	0.085969	0.046572	0.244451	0.179129
80	0.054554	0.056806	0.146254	0.121796	0.196373	0.128617	0.680007	0.498984	0.232297	0.205037	0.343536	0.412944	0.174028	0.272944	0.227604	0.300889	0.508709	0.284393	0.506559	0.342781	0.084451	0.067635	0.414720	0.169155	0.229980	0.145501	0.670132	0.210837	0.198933	0.293046	0.239171	0.186432	0.338654	0.245731	0.508316	0.331222	0.068104	0.146620	0.287941	0.228585	0.344869	0.231060	0.836339	0.438513	0.208205	0.132214	0.295106	0.319802	0.609152	0.293212	0.650825	0.694432	0.105063	0.126415	0.247077	0.159192	0.290267	0.223395	1.170881	0.413603	0.147770	0.239584	0.330523	0.173503	0.165352	0.099898	0.703571	0.341496	0.233028	0.483291	0.202420	0.095611	0.292490	0.198293	0.505260	0.812512	0.060484	0.045917	0.218231	0.177027
81	0.084749	0.065082	0.135958	0.091338	0.180363	0.102331	0.667630	0.440297	0.231571	0.203889	0.353667	0.519062	0.187087	0.314160	0.226849	0.298668	0.596083	0.292037	0.513117	0.373765	0.074552	0.064061	0.337059	0.164874	0.255244	0.142308	0.681268	0.184096	0.190972	0.295869	0.185278	0.111851	0.249956	0.187008	0.410294	0.311999	0.072621	0.140535	0.260784	0.191375	0.345869	0.231070	0.856752	0.442623	0.210204	0.132618	0.315576	0.321527	0.615564	0.293790	0.648423	0.732230	0.099281	0.125236	0.189454	0.166761	0.291522	0.220123	1.179039	0.395993	0.138971	0.235606	0.263124	0.149221	0.173439	0.104749	0.684063	0.330956	0.232413	0.485989	0.199166	0.088871	0.310569	0.212710	0.522237	0.816398	0.058838	0.048111	0.220822	0.178749
82	0.098775	0.078726	0.134110	0.117095	0.180824	0.103608	0.661960	0.429348	0.229507	0.200578	0.365039	0.596886	0.194983	0.338284	0.226131	0.298121	0.619312	0.288317	0.533673	0.397119	0.074874	0.059778	0.329319	0.154160	0.270760	0.144740	0.653515	0.160553	0.179849	0.292987	0.185758	0.112228	0.201597	0.150756	0.404349	0.310543	0.107272	0.159138	0.226589	0.149904	0.344388	0.229767	0.850672	0.440109	0.206123	0.131481	0.317374	0.318878	0.617727	0.292391	0.694112	0.823815	0.085605	0.101118	0.163519	0.164757	0.262054	0.191903	1.156322	0.379331	0.138545	0.235083	0.243559	0.147934	0.183464	0.105479	0.672219	0.332319	0.234629	0.489292	0.200534	0.074326	0.324996	0.230054	0.526482	0.816808	0.055776	0.049000	0.229060	0.195602
83	0.098163	0.082675	0.143170	0.165105	0.181098	0.104132	0.663180	0.380721	0.225964	0.192050	0.385097	0.605355	0.196894	0.342689	0.223461	0.296075	0.702345	0.306222	0.534465	0.398463	0.074423	0.059472	0.377744	0.157376	0.260473	0.135156	0.658520	0.150113	0.164879	0.254964	0.199084	0.135349	0.199599	0.144597	0.409491	0.261866	0.113544	0.159872	0.225070	0.179712	0.332648	0.224837	0.892739	0.499550	0.195770	0.127573	0.318278	0.317718	0.614566	0.295528	0.830942	0.885199	0.076237	0.086817	0.173095	0.156931	0.232513	0.165836	1.081309	0.376439	0.139865	0.235405	0.218756	0.141957	0.214026	0.113514	0.632791	0.351699	0.237227	0.489624	0.202659	0.074048	0.332588	0.237973	0.537816	0.816896	0.057986	0.050643	0.253669	0.186874
84	0.103504	0.082426	0.144194	0.180366	0.164539	0.096983	0.656583	0.340367	0.222468	0.185935	0.378299	0.603762	0.195535	0.339832	0.222776	0.291543	0.757243	0.307535	0.533133	0.397506	0.072327	0.062791	0.368397	0.159140	0.253368	0.124536	0.694129	0.169686	0.154459	0.244010	0.217923	0.151733	0.210208	0.141568	0.408524	0.230851	0.114102	0.153230	0.223941	0.181094	0.303271	0.206425	0.893835	0.514926	0.191273	0.127262	0.299556	0.317726	0.668527	0.336435	0.898082	0.902541	0.076888	0.090653	0.154858	0.150298	0.208847	0.148568	0.944651	0.379620	0.138114	0.238599	0.204384	0.139187	0.225635	0.118210	0.541007	0.347381	0.236737	0.491872	0.176494	0.084499	0.328799	0.237494	0.563720	0.816778	0.064802	0.053486	0.258342	0.185359
85	0.105973	0.082121	0.183304	0.186342	0.148972	0.090609	0.636298	0.269538	0.215318	0.177124	0.346721	0.608965	0.187333	0.331459	0.210641	0.233979	0.756888	0.303943	0.535205	0.399216	0.083632	0.118620	0.297253	0.141861	0.250228	0.116979	0.731845	0.171470	0.155562	0.253097	0.227393	0.158880	0.247424	0.158792	0.437454	0.262171	0.127239	0.150013	0.238760	0.185335	0.263055	0.179037	0.736660	0.483552	0.160510	0.115867	0.238889	0.309233	0.698707	0.356425	0.907656	0.910337	0.076301	0.091125	0.152014	0.135455	0.206093	0.146458	0.798598	0.374521	0.123741	0.222134	0.211172	0.136072	0.227162	0.120538	0.499767	0.345466	0.247532	0.510211	0.174908	0.087835	0.323862	0.236512	0.568629	0.822529	0.063288	0.053810	0.260040	0.186959
86	0.118852	0.093993	0.203107	0.194413	0.126524	0.079470	0.427503	0.222940	0.202598	0.167624	0.323776	0.634811	0.184837	0.332317	0.189442	0.226238	0.757813	0.303749	0.533956	0.411372	0.097115	0.178667	0.289591	0.118329	0.293258	0.129741	0.731316	0.174490	0.155460	0.237685	0.255966	0.206893	0.241768	0.156377	0.438475	0.255372	0.131027	0.141293	0.240427	0.190509	0.239478	0.160672	0.621191	0.430643	0.143749	0.105291	0.225069	0.300853	0.699712	0.364115	0.906417	0.911545	0.078761	0.113808	0.154792	0.126637	0.203927	0.144436	0.790316	0.313058	0.099615	0.148566	0.232952	0.138032	0.227098	0.119821	0.500314	0.354919	0.262575	0.532741	0.177396	0.100887	0.324942	0.237321	0.567084	0.824238	0.064172	0.054612	0.257497	0.182417
87	0.155122	0.119483	0.208941	0.197673	0.118907	0.074478	0.291841	0.211687	0.182223	0.155132	0.324276	0.646236	0.193525	0.346275	0.079474	0.207864	0.757119	0.303081	0.464935	0.409745	0.105567	0.207595	0.256166	0.115897	0.315125	0.131338	0.731865	0.174957	0.104270	0.206562	0.257186	0.210724	0.209613	0.137885	0.403134	0.245532	0.134815	0.140732	0.240518	0.190525	0.219352	0.149698	0.631059	0.464553	0.141355	0.106022	0.223547	0.266781	0.700998	0.373466	0.905378	0.900104	0.061702	0.114123	0.161662	0.085125	0.195264	0.140840	0.710457	0.284743	0.089583	0.132015	0.223551	0.140600	0.192306	0.106960	0.472560	0.356798	0.263996	0.506965	0.163803	0.121566	0.320643	0.236165	0.566803	0.811812	0.066344	0.058149	0.255512	0.163882
88	0.157655	0.122337	0.242585	0.221284	0.113110	0.075121	0.284632	0.189020	0.181241	0.142169	0.367147	0.653393	0.191277	0.345155	0.070699	0.143332	0.750656	0.299245	0.406651	0.396650	0.100163	0.223313	0.266411	0.114975	0.344874	0.133423	0.721102	0.173570	0.117978	0.206205	0.282077	0.210803	0.251387	0.149792	0.370800	0.254214	0.135209	0.140259	0.238253	0.186564	0.223100	0.154559	0.686308	0.451261	0.115125	0.100185	0.207508	0.137447	0.681310	0.374485	0.884917	0.883181	0.045937	0.111497	0.194002	0.088219	0.153226	0.118194	0.634810	0.294985	0.079119	0.090861	0.220140	0.124739	0.185240	0.106784	0.462272	0.342963	0.279066	0.522653	0.135550	0.114415	0.311083	0.231247	0.564208	0.794273	0.064880	0.060021	0.255053	0.158412
89	0.170586	0.128595	0.273321	0.281138	0.107289	0.074322	0.266374	0.176254	0.195082	0.141144	0.436975	0.655664	0.186871	0.344033	0.066528	0.093711	0.729577	0.289748	0.378304	0.395167	0.097359	0.225807	0.270228	0.107415	0.357028	0.137354	0.689594	0.175724	0.123634	0.194233	0.277736	0.214698	0.254341	0.168797	0.364267	0.248808	0.137095	0.134731	0.235880	0.184348	0.233452	0.168022	0.697205	0.440595	0.110291	0.096061	0.202704	0.131816	0.672829	0.372947	0.865227	0.870925	0.045271	0.147597	0.207436	0.112849	0.130733	0.105346	0.563209	0.289268	0.084444	0.096276	0.207956	0.105777	0.187188	0.103841	0.459682	0.351554	0.242184	0.430501	0.107869	0.119646	0.293083	0.220493	0.563526	0.706166	0.065085	0.059473	0.253714	0.153117
90	0.202693	0.144205	0.275177	0.326065	0.105501	0.074227	0.252829	0.175170	0.213651	0.149641	0.473490	0.633553	0.176306	0.344365	0.057134	0.083129	0.724797	0.288667	0.338977	0.360539	0.097701	0.227683	0.277771	0.108253	0.458361	0.177204	0.689122	0.175369	0.139756	0.208731	0.270856	0.206769	0.271867	0.194413	0.360540	0.248186	0.138658	0.128662	0.234513	0.182703	0.222708	0.163462	0.720191	0.460260	0.096035	0.085981	0.196091	0.114909	0.664782	0.363644	0.859305	0.848435	0.084002	0.202860	0.218115	0.107695	0.146935	0.106493	0.454671	0.288864	0.104874	0.156351	0.194130	0.090534	0.190751	0.104439	0.403741	0.345425	0.239630	0.428928	0.107781	0.121450	0.264920	0.201435	0.561411	0.548100	0.062353	0.071789	0.253750	0.135748
91	0.222985	0.153438	0.332998	0.336459	0.099069	0.070281	0.202745	0.165072	0.212144	0.146316	0.478532	0.613104	0.165721	0.333316	0.048445	0.084507	0.724262	0.288615	0.358843	0.337283	0.102239	0.233187	0.277914	0.101130	0.449541	0.182431	0.623019	0.177689	0.144179	0.223429	0.259368	0.192758	0.289307	0.204470	0.328513	0.246442	0.125933	0.121896	0.168235	0.173107	0.188932	0.139348	0.762041	0.465446	0.084031	0.077942	0.189649	0.104959	0.603268	0.325226	0.831607	0.723718	0.112655	0.232408	0.217517	0.117141	0.164659	0.105933	0.394122	0.282376	0.137811	0.256163	0.190249	0.084274	0.190104	0.104346	0.328625	0.321705	0.283793	0.508352	0.110416	0.121458	0.249026	0.181310	0.551886	0.542970	0.067696	0.081676	0.248751	0.126217
92	0.224399	0.153962	0.445980	0.344770	0.092866	0.066860	0.189466	0.171534	0.194071	0.130412	0.474994	0.614054	0.161447	0.320370	0.046571	0.090581	0.723633	0.286649	0.353436	0.333298	0.102376	0.235076	0.277677	0.099999	0.455176	0.185104	0.593411	0.198234	0.146804	0.206338	0.241301	0.182410	0.290868	0.209490	0.324123	0.241194	0.108193	0.110769	0.155818	0.170699	0.181018	0.135944	0.794515	0.441556	0.065741	0.070063	0.155444	0.076072	0.512508	0.294552	0.744468	0.616653	0.121088	0.251371	0.212819	0.114512	0.187247	0.117864	0.368515	0.294792	0.141928	0.280598	0.187419	0.083782	0.192259	0.104999	0.292614	0.316869	0.321864	0.569652	0.117685	0.124506	0.239729	0.161527	0.546602	0.513872	0.067568	0.082058	0.199356	0.125969
93	0.241117	0.159337	0.500284	0.366286	0.083953	0.063119	0.174287	0.227331	0.185965	0.119591	0.471391	0.628312	0.160362	0.319233	0.039031	0.101163	0.692898	0.255484	0.357478	0.318812	0.102940	0.235821	0.256402	0.087160	0.457259	0.186030	0.594330	0.222272	0.145790	0.186858	0.222566	0.173939	0.295659	0.216283	0.322813	0.249878	0.121261	0.144484	0.152207	0.131159	0.172021	0.135633	0.761405	0.441186	0.055024	0.065929	0.144239	0.070793	0.491190	0.285099	0.685374	0.611812	0.132773	0.303238	0.215410	0.114920	0.201579	0.126117	0.369748	0.309662	0.143762	0.281976	0.183549	0.078421	0.201109	0.108786	0.303241	0.312857	0.343519	0.604638	0.124157	0.128368	0.241837	0.157840	0.543334	0.456045	0.067982	0.081050	0.157520	0.112270
94	0.255351	0.166684	0.502042	0.375282	0.086100	0.060764	0.171365	0.234464	0.187553	0.123717	0.472064	0.616861	0.145006	0.279425	0.032693	0.100219	0.607201	0.205135	0.428376	0.294180	0.103399	0.235917	0.185940	0.090948	0.452738	0.185490	0.484832	0.241420	0.137022	0.184500	0.170330	0.101400	0.297133	0.215790	0.279371	0.249394	0.122847	0.157096	0.151951	0.125497	0.164771	0.136847	0.700831	0.443554	0.051756	0.064871	0.145655	0.069686	0.464321	0.272323	0.667723	0.607489	0.144575	0.308072	0.212344	0.123753	0.203586	0.127800	0.336673	0.290672	0.148798	0.284561	0.183592	0.070986	0.220104	0.101506	0.371905	0.316271	0.344445	0.607271	0.162763	0.148662	0.243080	0.162939	0.469230	0.374663	0.074469	0.097961	0.150689	0.067561
95	0.290585	0.182264	0.575679	0.376604	0.133054	0.073529	0.151527	0.233738	0.187304	0.137273	0.470350	0.519484	0.145794	0.280823	0.022873	0.095780	0.524945	0.179323	0.435134	0.241729	0.104216	0.236822	0.181077	0.096209	0.439857	0.189477	0.443404	0.282536	0.120305	0.148971	0.166464	0.075524	0.304253	0.216653	0.259953	0.247846	0.111117	0.170519	0.131452	0.103385	0.167544	0.140229	0.677849	0.440286	0.053466	0.065806	0.106151	0.064609	0.437692	0.266019	0.664789	0.580571	0.150305	0.304703	0.210918	0.142745	0.205025	0.126842	0.345229	0.269778	0.162106	0.320536	0.177914	0.065887	0.212932	0.090954	0.394544	0.338698	0.345003	0.606709	0.240472	0.180328	0.269265	0.167987	0.358297	0.316828	0.082858	0.164083	0.109786	0.059955
96	0.318588	0.190531	0.620086	0.374045	0.175796	0.085803	0.180027	0.222441	0.195884	0.151644	0.441514	0.457573	0.156834	0.298547	0.029784	0.094163	0.469142	0.171249	0.406138	0.193238	0.096320	0.213720	0.172401	0.093706	0.435171	0.185589	0.521896	0.282510	0.108871	0.146973	0.120756	0.078226	0.304761	0.219741	0.247039	0.274214	0.105440	0.174145	0.130217	0.087732	0.170009	0.141736	0.670144	0.435072	0.066736	0.094001	0.091183	0.063642	0.433521	0.268679	0.639221	0.479489	0.152234	0.307047	0.195877	0.144819	0.236600	0.143705	0.348480	0.280533	0.197353	0.405714	0.177588	0.066985	0.233403	0.101093	0.387687	0.321584	0.344804	0.602049	0.249705	0.178269	0.320081	0.155489	0.304797	0.301995	0.089860	0.227010	0.088887	0.058559
97	0.316346	0.187565	0.625078	0.370953	0.191668	0.086641	0.206020	0.221028	0.228863	0.162406	0.417786	0.480425	0.185813	0.344794	0.030753	0.095532	0.390556	0.136205	0.403049	0.183246	0.083744	0.168963	0.165596	0.093937	0.435273	0.185248	0.660378	0.282448	0.101537	0.147357	0.100276	0.067091	0.317997	0.225760	0.287276	0.285730	0.115625	0.214415	0.121614	0.086766	0.173306	0.143200	0.631790	0.357250	0.070057	0.116387	0.105267	0.067611	0.446762	0.270147	0.538126	0.404361	0.153369	0.305155	0.164143	0.120192	0.254549	0.154176	0.354400	0.316690	0.228611	0.438685	0.162709	0.078073	0.262127	0.121888	0.384245	0.290768	0.333000	0.580256	0.281085	0.194461	0.333495	0.134939	0.274239	0.324657	0.091175	0.236880	0.071576	0.063251
98	0.320714	0.189749	0.629969	0.358714	0.204281	0.088963	0.200127	0.222170	0.227884	0.162238	0.405810	0.500130	0.185015	0.343562	0.038252	0.091958	0.213181	0.119994	0.415115	0.205664	0.070560	0.132004	0.160303	0.101460	0.440581	0.189555	0.622161	0.277974	0.075829	0.117051	0.095104	0.065362	0.314527	0.222638	0.370267	0.265898	0.118509	0.224105	0.117430	0.080390	0.175955	0.143843	0.653468	0.353394	0.071430	0.126990	0.105354	0.076505	0.398842	0.231083	0.484140	0.431392	0.155770	0.288181	0.116209	0.109995	0.270504	0.167343	0.354502	0.312772	0.254936	0.453262	0.111318	0.105718	0.264897	0.122307	0.405715	0.286318	0.315958	0.537597	0.289292	0.183914	0.321681	0.111423	0.279995	0.347048	0.127609	0.284762	0.101205	0.067164
99	0.329308	0.204110	0.638590	0.354922	0.262795	0.133285	0.209642	0.223340	0.233825	0.181968	0.394665	0.490833	0.178736	0.335393	0.069371	0.093360	0.225150	0.132350	0.462090	0.204604	0.058248	0.096764	0.155425	0.115707	0.446345	0.190638	0.581002	0.294679	0.074369	0.095144	0.094909	0.086630	0.333821	0.226627	0.392254	0.265690	0.126880	0.231492	0.112990	0.077012	0.188939	0.147031	0.660178	0.352911	0.078298	0.147342	0.102372	0.077234	0.280033	0.180407	0.461558	0.438032	0.145819	0.256809	0.119124	0.104964	0.280111	0.178779	0.335922	0.302677	0.259654	0.458535	0.071973	0.116493	0.268417	0.130955	0.444245	0.301335	0.291950	0.493243	0.294109	0.194416	0.328076	0.113066	0.267571	0.353347	0.131913	0.301297	0.128363	0.066517
100	0.340903	0.223711	0.631121	0.353897	0.289366	0.142019	0.213446	0.233102	0.287532	0.214132	0.391996	0.436873	0.186474	0.338204	0.071436	0.100308	0.249611	0.144071	0.464591	0.182760	0.057075	0.095657	0.153022	0.132342	0.424153	0.184157	0.580857	0.328174	0.085645	0.083845	0.114565	0.103469	0.336640	0.226658	0.430337	0.274780	0.143140	0.255112	0.106296	0.074931	0.190433	0.144196	0.652820	0.349254	0.080981	0.152953	0.098630	0.067318	0.255052	0.166057	0.461205	0.427286	0.141076	0.239965	0.108884	0.102310	0.294681	0.184809	0.332650	0.299266	0.257758	0.458150	0.065513	0.120688	0.276982	0.146526	0.447997	0.333420	0.280537	0.465680	0.294139	0.216251	0.340077	0.124773	0.273624	0.350889	0.138523	0.327991	0.132893	0.070351
101	0.343443	0.231043	0.623733	0.349586	0.290141	0.142695	0.217821	0.247320	0.292203	0.213946	0.392059	0.405612	0.212955	0.367245	0.076733	0.099999	0.258879	0.145959	0.459598	0.160817	0.071657	0.098024	0.152737	0.138594	0.413852	0.182262	0.583843	0.358552	0.100548	0.092655	0.109234	0.109029	0.307913	0.216935	0.448123	0.305083	0.143617	0.260794	0.116841	0.061243	0.189330	0.143720	0.646679	0.290131	0.087810	0.176461	0.096588	0.063888	0.231364	0.144994	0.481978	0.428710	0.133073	0.193700	0.096270	0.104071	0.297144	0.184685	0.283852	0.292118	0.255931	0.455904	0.070238	0.123464	0.307320	0.175060	0.445916	0.339099	0.286490	0.471163	0.294490	0.227044	0.341483	0.127490	0.303451	0.331400	0.139392	0.333188	0.168468	0.071920
