	221_C_T1_sh_ND_04.c3d	221_C_T1_sh_ND_04.c3d	221_C_T1_sh_ND_04.c3d	221_C_T1_sh_ND_04.c3d	221_C_T1_sh_ND_04.c3d	221_C_T1_sh_ND_04.c3d	221_C_T1_sh_ND_04.c3d	221_C_T1_sh_ND_04.c3d	221_C_T1_sh_ND_05.c3d	221_C_T1_sh_ND_05.c3d	221_C_T1_sh_ND_05.c3d	221_C_T1_sh_ND_05.c3d	221_C_T1_sh_ND_05.c3d	221_C_T1_sh_ND_05.c3d	221_C_T1_sh_ND_05.c3d	221_C_T1_sh_ND_05.c3d	221_C_T1_sh_ND_06.c3d	221_C_T1_sh_ND_06.c3d	221_C_T1_sh_ND_06.c3d	221_C_T1_sh_ND_06.c3d	221_C_T1_sh_ND_06.c3d	221_C_T1_sh_ND_06.c3d	221_C_T1_sh_ND_06.c3d	221_C_T1_sh_ND_06.c3d	221_C_T1_sh_ND_07.c3d	221_C_T1_sh_ND_07.c3d	221_C_T1_sh_ND_07.c3d	221_C_T1_sh_ND_07.c3d	221_C_T1_sh_ND_07.c3d	221_C_T1_sh_ND_07.c3d	221_C_T1_sh_ND_07.c3d	221_C_T1_sh_ND_07.c3d	221_C_T1_sh_ND_09.c3d	221_C_T1_sh_ND_09.c3d	221_C_T1_sh_ND_09.c3d	221_C_T1_sh_ND_09.c3d	221_C_T1_sh_ND_09.c3d	221_C_T1_sh_ND_09.c3d	221_C_T1_sh_ND_09.c3d	221_C_T1_sh_ND_09.c3d	221_C_T1_sh_ND_10.c3d	221_C_T1_sh_ND_10.c3d	221_C_T1_sh_ND_10.c3d	221_C_T1_sh_ND_10.c3d	221_C_T1_sh_ND_10.c3d	221_C_T1_sh_ND_10.c3d	221_C_T1_sh_ND_10.c3d	221_C_T1_sh_ND_10.c3d
	Biceps femoris_lat	Semitendinosus_lat	Vastus lateralis_lat	Vastus medialis_lat	Biceps femoris_med	Semitendinosus_med	Vastus lateralis_med	Vastus medialis_med	Biceps femoris_lat	Semitendinosus_lat	Vastus lateralis_lat	Vastus medialis_lat	Biceps femoris_med	Semitendinosus_med	Vastus lateralis_med	Vastus medialis_med	Biceps femoris_lat	Semitendinosus_lat	Vastus lateralis_lat	Vastus medialis_lat	Biceps femoris_med	Semitendinosus_med	Vastus lateralis_med	Vastus medialis_med	Biceps femoris_lat	Semitendinosus_lat	Vastus lateralis_lat	Vastus medialis_lat	Biceps femoris_med	Semitendinosus_med	Vastus lateralis_med	Vastus medialis_med	Biceps femoris_lat	Semitendinosus_lat	Vastus lateralis_lat	Vastus medialis_lat	Biceps femoris_med	Semitendinosus_med	Vastus lateralis_med	Vastus medialis_med	Biceps femoris_lat	Semitendinosus_lat	Vastus lateralis_lat	Vastus medialis_lat	Biceps femoris_med	Semitendinosus_med	Vastus lateralis_med	Vastus medialis_med
	P2D	P2D	P2D	P2D	P2D	P2D	P2D	P2D	P2D	P2D	P2D	P2D	P2D	P2D	P2D	P2D	P2D	P2D	P2D	P2D	P2D	P2D	P2D	P2D	P2D	P2D	P2D	P2D	P2D	P2D	P2D	P2D	P2D	P2D	P2D	P2D	P2D	P2D	P2D	P2D	P2D	P2D	P2D	P2D	P2D	P2D	P2D	P2D
	EMG_lat	EMG_lat	EMG_lat	EMG_lat	EMG_med	EMG_med	EMG_med	EMG_med	EMG_lat	EMG_lat	EMG_lat	EMG_lat	EMG_med	EMG_med	EMG_med	EMG_med	EMG_lat	EMG_lat	EMG_lat	EMG_lat	EMG_med	EMG_med	EMG_med	EMG_med	EMG_lat	EMG_lat	EMG_lat	EMG_lat	EMG_med	EMG_med	EMG_med	EMG_med	EMG_lat	EMG_lat	EMG_lat	EMG_lat	EMG_med	EMG_med	EMG_med	EMG_med	EMG_lat	EMG_lat	EMG_lat	EMG_lat	EMG_med	EMG_med	EMG_med	EMG_med
ITEM	Y	Y	Y	Y	Y	Y	Y	Y	Y	Y	Y	Y	Y	Y	Y	Y	Y	Y	Y	Y	Y	Y	Y	Y	Y	Y	Y	Y	Y	Y	Y	Y	Y	Y	Y	Y	Y	Y	Y	Y	Y	Y	Y	Y	Y	Y	Y	Y
1	0.256942	0.332352	0.161023	0.250376	0.118195	0.188559	0.213138	0.102547	0.107894	0.144651	0.182050	0.175655	0.217683	0.545653	0.241275	0.074183	0.133784	0.132693	0.120376	0.304139	0.396351	0.202366	0.363753	0.490275	0.449250	0.564884	0.189443	0.229077	0.132248	0.182057	0.326412	0.224914	0.088860	0.065421	0.220701	0.260002	0.147637	0.200828	0.229173	0.265093	0.117192	0.127221	0.483051	0.698594	0.449147	0.633058	0.198393	0.325123
2	0.265990	0.312805	0.185175	0.231007	0.080555	0.145619	0.119566	0.164631	0.096269	0.109834	0.196099	0.175570	0.184107	0.438935	0.265148	0.076099	0.149144	0.143738	0.136090	0.302445	0.364363	0.174493	0.356018	0.370052	0.444806	0.557183	0.190134	0.232672	0.128074	0.206120	0.337115	0.220430	0.336293	0.100574	0.171874	0.331969	0.142887	0.200552	0.296388	0.280741	0.126467	0.119642	0.472079	0.659665	0.443466	0.606496	0.227893	0.328304
3	0.266778	0.281622	0.217119	0.305046	0.076463	0.136026	0.126100	0.204134	0.085212	0.107744	0.220223	0.187187	0.180457	0.394801	0.290640	0.075227	0.168011	0.147645	0.222616	0.301809	0.364828	0.180420	0.331160	0.315940	0.440958	0.508954	0.177172	0.228087	0.124625	0.194725	0.351646	0.220979	0.377321	0.116048	0.380139	0.413456	0.144225	0.198986	0.326222	0.380520	0.139328	0.115300	0.442349	0.550123	0.431996	0.534725	0.251233	0.312557
4	0.188248	0.223220	0.230492	0.333989	0.075639	0.142667	0.192998	0.205728	0.110669	0.133291	0.204484	0.383151	0.156661	0.394916	0.299173	0.091339	0.177249	0.156464	0.277271	0.295460	0.252185	0.193267	0.311338	0.305957	0.370667	0.441598	0.159937	0.191055	0.115745	0.174995	0.320398	0.215837	0.437900	0.151907	0.487025	0.452483	0.134617	0.182039	0.342807	0.448406	0.137502	0.104937	0.402907	0.511621	0.408405	0.477363	0.241690	0.283350
5	0.183012	0.179721	0.212113	0.332275	0.075478	0.141748	0.217488	0.222764	0.116414	0.137463	0.205823	0.403332	0.143618	0.395171	0.297759	0.136461	0.176329	0.156250	0.281671	0.284178	0.131693	0.183481	0.321844	0.304757	0.327327	0.431951	0.168516	0.240128	0.116550	0.178355	0.341148	0.206486	0.477466	0.175369	0.507986	0.582546	0.116270	0.154767	0.365631	0.460318	0.136153	0.095544	0.413921	0.506943	0.397204	0.469181	0.249268	0.277488
6	0.207334	0.206123	0.204679	0.380786	0.065659	0.108852	0.265749	0.230818	0.197205	0.190846	0.223068	0.554082	0.127340	0.394420	0.324654	0.216642	0.188022	0.163579	0.339786	0.272851	0.074912	0.176759	0.334948	0.290757	0.294422	0.419857	0.151427	0.304509	0.112278	0.175976	0.336042	0.285512	0.474594	0.190703	0.507830	0.611832	0.110609	0.135256	0.369569	0.465483	0.141448	0.090777	0.389489	0.490617	0.338227	0.464730	0.262552	0.237357
7	0.462534	0.341704	0.205918	0.425329	0.082728	0.120790	0.365328	0.246374	0.199705	0.196384	0.212114	0.618015	0.103281	0.394349	0.371638	0.304328	0.201421	0.165294	0.384799	0.276355	0.066202	0.174720	0.332276	0.236136	0.201625	0.351333	0.141479	0.294113	0.098883	0.180209	0.544609	0.393375	0.483441	0.304231	0.496904	0.595580	0.109631	0.171763	0.392803	0.486061	0.150035	0.092307	0.488596	0.398975	0.284953	0.446435	0.290782	0.185582
8	0.484727	0.412967	0.197445	0.414469	0.096610	0.170858	0.406242	0.239358	0.199998	0.199138	0.241535	0.619513	0.100066	0.375784	0.413002	0.320795	0.204228	0.158567	0.409585	0.290010	0.075340	0.192256	0.276701	0.198421	0.087815	0.301942	0.119477	0.302243	0.115218	0.212139	0.643426	0.447080	0.343523	0.319907	0.491463	0.538499	0.145277	0.184308	0.391532	0.500266	0.163721	0.095535	0.578125	0.265037	0.228718	0.362899	0.288966	0.168784
9	0.580734	0.426473	0.147629	0.364231	0.104263	0.160416	0.413167	0.181682	0.193033	0.192515	0.235183	0.552454	0.095853	0.273363	0.460160	0.329785	0.209174	0.157835	0.415151	0.280972	0.094551	0.219575	0.240954	0.192067	0.046024	0.244119	0.125765	0.376658	0.148089	0.226328	0.675607	0.444123	0.299054	0.327935	0.290085	0.493616	0.148903	0.194504	0.402943	0.534316	0.438940	0.167654	0.584004	0.181830	0.203095	0.261609	0.289323	0.171463
10	0.606912	0.427047	0.153296	0.366741	0.121885	0.164748	0.405765	0.166045	0.318758	0.186061	0.266674	0.502256	0.114746	0.185749	0.480639	0.371150	0.211346	0.158194	0.414612	0.242456	0.092786	0.221939	0.216940	0.262062	0.055950	0.192384	0.150404	0.403945	0.145720	0.226324	0.817997	0.518197	0.202659	0.365142	0.164447	0.434351	0.162465	0.205058	0.413197	0.557116	0.656072	0.223629	0.565205	0.163709	0.183331	0.176299	0.297294	0.158963
11	0.613330	0.431960	0.150040	0.376147	0.123746	0.167673	0.382784	0.155523	0.410254	0.189724	0.291130	0.404981	0.142402	0.167715	0.473731	0.424385	0.200346	0.157627	0.418952	0.229643	0.153176	0.253252	0.211988	0.333276	0.059561	0.172504	0.168148	0.402235	0.134256	0.209724	0.895643	0.581500	0.138618	0.384628	0.107386	0.252024	0.164483	0.208665	0.414994	0.569158	0.705624	0.231293	0.560324	0.156011	0.184366	0.161678	0.294375	0.140405
12	0.564967	0.374025	0.155525	0.270361	0.125455	0.166924	0.353073	0.135703	0.520186	0.224060	0.289784	0.421660	0.142617	0.164918	0.493482	0.467804	0.198058	0.157775	0.419665	0.241434	0.263524	0.385232	0.213476	0.351374	0.066543	0.172892	0.168925	0.403440	0.140246	0.185614	0.905300	0.611955	0.135185	0.375925	0.117877	0.258470	0.165555	0.213805	0.358378	0.547056	1.036250	0.330090	0.557945	0.136832	0.172825	0.160674	0.256931	0.144057
13	0.430350	0.293497	0.159111	0.193813	0.126202	0.172888	0.313182	0.139613	0.532789	0.222856	0.281891	0.459922	0.142920	0.163052	0.523224	0.487433	0.197960	0.157687	0.419315	0.252369	0.278204	0.409906	0.211873	0.353549	0.065669	0.169724	0.195325	0.388266	0.143319	0.186067	0.903814	0.625707	0.091320	0.289773	0.127386	0.303615	0.167715	0.214607	0.340558	0.469164	1.094751	0.357109	0.551982	0.097008	0.141184	0.189353	0.285098	0.156474
14	0.359214	0.202502	0.178899	0.188303	0.132505	0.185653	0.181934	0.123783	0.590797	0.243212	0.313409	0.492349	0.138029	0.157984	0.525429	0.491792	0.193582	0.152181	0.418619	0.257914	0.294061	0.443259	0.229365	0.385169	0.066492	0.170130	0.197619	0.341664	0.144344	0.182145	0.899646	0.624970	0.114935	0.273652	0.149920	0.341372	0.166536	0.210667	0.316646	0.410362	1.128199	0.360110	0.535923	0.060023	0.148639	0.276018	0.296646	0.170998
15	0.239307	0.216173	0.196581	0.208911	0.127749	0.191923	0.116309	0.108612	0.589920	0.241964	0.290368	0.558507	0.130180	0.155969	0.513935	0.491667	0.168086	0.135398	0.407397	0.259175	0.296937	0.446352	0.237029	0.448762	0.068530	0.165208	0.203471	0.299768	0.145114	0.181999	0.888545	0.613684	0.104628	0.258152	0.163297	0.417962	0.167062	0.208725	0.301723	0.398287	1.128623	0.359453	0.516470	0.085555	0.166303	0.282055	0.287061	0.170334
16	0.186598	0.219913	0.187231	0.199251	0.134487	0.228388	0.097503	0.108900	0.481630	0.193678	0.287524	0.584898	0.129743	0.152268	0.496539	0.492383	0.147628	0.123037	0.360929	0.258287	0.298201	0.439870	0.287679	0.504686	0.117236	0.160598	0.200363	0.302632	0.144511	0.179175	0.832045	0.555372	0.096218	0.187212	0.191559	0.441575	0.172950	0.223023	0.312393	0.383046	1.126320	0.358898	0.511876	0.155781	0.174373	0.290483	0.256022	0.173801
17	0.179733	0.204719	0.205801	0.191387	0.128053	0.225082	0.104663	0.123913	0.358415	0.132962	0.251441	0.488587	0.139786	0.170855	0.489139	0.489363	0.137319	0.108403	0.335862	0.256144	0.301876	0.436746	0.323956	0.533571	0.190323	0.158624	0.195917	0.264230	0.139784	0.143685	0.698630	0.490467	0.096797	0.132019	0.189229	0.428512	0.176232	0.207125	0.284155	0.343960	1.125285	0.362329	0.390649	0.208904	0.168891	0.286773	0.230854	0.243814
18	0.160834	0.220638	0.216463	0.189382	0.126532	0.221630	0.116173	0.135902	0.335440	0.129533	0.253334	0.378812	0.157674	0.202942	0.489536	0.480218	0.135194	0.105315	0.325018	0.258710	0.305870	0.439373	0.317691	0.541304	0.190058	0.166194	0.190930	0.146142	0.109195	0.097277	0.689142	0.476605	0.099147	0.126688	0.209570	0.372131	0.183311	0.226216	0.288792	0.300750	1.121822	0.360571	0.211777	0.243373	0.169518	0.280691	0.235098	0.299320
19	0.153306	0.246327	0.224972	0.218473	0.123666	0.222540	0.133789	0.157014	0.274764	0.106742	0.214994	0.367808	0.167677	0.216490	0.474304	0.453938	0.110406	0.073030	0.267661	0.285630	0.306778	0.441710	0.305986	0.542302	0.219501	0.168198	0.163401	0.136802	0.086909	0.088450	0.560924	0.452204	0.118365	0.137931	0.225804	0.491598	0.177976	0.219968	0.296326	0.258547	1.034331	0.330367	0.146188	0.245928	0.166437	0.279552	0.244895	0.360750
20	0.124820	0.258036	0.191179	0.247197	0.124692	0.215168	0.149449	0.145288	0.185246	0.075888	0.204702	0.474123	0.185641	0.249403	0.438623	0.401898	0.090358	0.063740	0.209633	0.317206	0.306621	0.441620	0.304428	0.541650	0.253054	0.177189	0.159370	0.152297	0.085848	0.089461	0.348027	0.354034	0.117347	0.140376	0.286133	0.612894	0.166501	0.212292	0.307760	0.274925	0.925806	0.299912	0.221709	0.249857	0.177779	0.279504	0.237650	0.368682
21	0.111113	0.261768	0.200302	0.216489	0.101536	0.187056	0.141337	0.201143	0.155553	0.085955	0.197623	0.483816	0.196351	0.255242	0.402760	0.384891	0.106684	0.072032	0.179002	0.353804	0.302873	0.429942	0.304607	0.537210	0.259047	0.193591	0.149980	0.171252	0.068955	0.076635	0.239756	0.272265	0.148633	0.117644	0.353622	0.598660	0.165562	0.204749	0.301207	0.306240	0.885168	0.296782	0.303358	0.275256	0.178974	0.287117	0.338508	0.368563
22	0.118876	0.291075	0.207092	0.197011	0.123436	0.190413	0.166190	0.229796	0.123504	0.068954	0.263441	0.541959	0.224995	0.280028	0.350190	0.381510	0.154192	0.072941	0.168679	0.414313	0.298702	0.424323	0.299942	0.519899	0.262485	0.209723	0.108877	0.179719	0.051628	0.055639	0.212304	0.215727	0.184165	0.137324	0.369642	0.741643	0.169735	0.215408	0.297415	0.341629	0.450617	0.183177	0.318716	0.305251	0.197566	0.304539	0.394175	0.368671
23	0.148170	0.340084	0.304822	0.294362	0.106744	0.139470	0.215382	0.431536	0.118657	0.083908	0.264510	0.583440	0.228524	0.301129	0.315809	0.372469	0.230236	0.083100	0.203638	0.474203	0.302652	0.439343	0.300189	0.467424	0.265955	0.218475	0.168383	0.180649	0.044955	0.043755	0.213222	0.212278	0.189504	0.134797	0.401511	0.809020	0.173138	0.222506	0.308733	0.343843	0.281409	0.141446	0.377654	0.338832	0.173857	0.230878	0.366649	0.376371
24	0.156551	0.351097	0.374745	0.336266	0.117095	0.145547	0.223541	0.526071	0.130069	0.093825	0.264184	0.605729	0.211994	0.291233	0.311161	0.376022	0.255702	0.091131	0.192365	0.505228	0.255290	0.406976	0.300720	0.426008	0.264333	0.217870	0.234679	0.194837	0.044703	0.042597	0.213487	0.226598	0.190003	0.130374	0.383683	0.801519	0.172764	0.235309	0.335836	0.361821	0.172359	0.141794	0.396183	0.357922	0.164766	0.192627	0.370871	0.385244
25	0.155777	0.344755	0.556564	0.318250	0.153119	0.149104	0.371505	0.546129	0.147206	0.093835	0.261972	0.525668	0.207537	0.304335	0.251995	0.378375	0.258490	0.092022	0.205269	0.502675	0.173348	0.301324	0.294910	0.423301	0.231764	0.197950	0.241190	0.191859	0.044502	0.050708	0.215698	0.231676	0.169177	0.111850	0.389210	0.714754	0.177565	0.237997	0.366579	0.411493	0.180885	0.153526	0.393370	0.357890	0.133169	0.182412	0.426269	0.396909
26	0.141718	0.308547	0.625984	0.294320	0.161013	0.158724	0.373286	0.586822	0.146960	0.085279	0.226935	0.387441	0.206224	0.309252	0.198302	0.401239	0.258635	0.102510	0.216369	0.499336	0.172709	0.286316	0.272697	0.429534	0.210814	0.165897	0.263311	0.189899	0.046206	0.051915	0.212068	0.262113	0.165393	0.121764	0.316374	0.590077	0.174294	0.220532	0.386937	0.458041	0.182866	0.152055	0.384752	0.337274	0.129376	0.190348	0.436714	0.396421
27	0.117893	0.281928	0.624375	0.343588	0.161539	0.170646	0.376319	0.615115	0.265481	0.108512	0.208348	0.350864	0.208827	0.312417	0.284525	0.411272	0.259384	0.111104	0.223923	0.522068	0.148761	0.235079	0.260643	0.404030	0.223274	0.167927	0.306913	0.246150	0.045830	0.053539	0.194512	0.285219	0.136706	0.131637	0.241887	0.547897	0.138070	0.187443	0.396941	0.487028	0.179357	0.141805	0.381689	0.308520	0.130345	0.199264	0.428664	0.356632
28	0.109346	0.263436	0.662937	0.416993	0.166599	0.185198	0.373421	0.615455	0.427435	0.141121	0.117635	0.260462	0.212366	0.316741	0.346027	0.411874	0.263232	0.113918	0.250531	0.575332	0.142773	0.228306	0.250065	0.338491	0.173237	0.166662	0.314458	0.274496	0.051166	0.058013	0.176556	0.296317	0.128729	0.128294	0.225491	0.280686	0.118151	0.155265	0.382337	0.491832	0.163744	0.139128	0.385133	0.359331	0.129911	0.200219	0.418848	0.306747
29	0.049005	0.174790	0.588233	0.393822	0.153705	0.188569	0.371454	0.583890	0.527526	0.216442	0.108498	0.203925	0.215167	0.318622	0.349768	0.417067	0.339379	0.124179	0.284435	0.634014	0.138114	0.240496	0.216239	0.287087	0.178338	0.159982	0.317493	0.269546	0.057317	0.060208	0.188532	0.294853	0.157476	0.135517	0.150485	0.090292	0.129138	0.161147	0.353472	0.476456	0.120534	0.133501	0.393149	0.627522	0.121971	0.200913	0.415485	0.248297
30	0.112539	0.202195	0.536011	0.375056	0.154731	0.191387	0.354330	0.428351	0.561979	0.240047	0.098884	0.171006	0.211505	0.307077	0.371180	0.438124	0.419397	0.125962	0.313566	0.679294	0.133337	0.254880	0.201480	0.272948	0.176088	0.147098	0.318305	0.281085	0.061064	0.056525	0.188220	0.292032	0.276492	0.192499	0.205085	0.106904	0.138344	0.162985	0.321969	0.443837	0.111312	0.131212	0.344446	0.787651	0.116576	0.201609	0.401479	0.246900
31	0.128778	0.189616	0.326860	0.378889	0.122064	0.185019	0.315915	0.384081	0.564940	0.261238	0.176627	0.178835	0.198848	0.281015	0.435365	0.469349	0.422958	0.139295	0.336710	0.704639	0.139564	0.273559	0.243525	0.332025	0.172798	0.120905	0.324421	0.338791	0.078621	0.073944	0.204749	0.292507	0.386431	0.207734	0.176473	0.133191	0.143889	0.163865	0.316847	0.406136	0.116480	0.127482	0.287440	0.789407	0.112754	0.223958	0.300595	0.282618
32	0.248953	0.202910	0.285503	0.406319	0.106646	0.188855	0.165219	0.328348	0.561758	0.297446	0.192834	0.175540	0.192372	0.271625	0.464823	0.493354	0.425942	0.149766	0.337287	0.706651	0.148309	0.292777	0.249029	0.414750	0.170309	0.119543	0.301055	0.361713	0.082721	0.084235	0.268876	0.341241	0.659369	0.259123	0.211449	0.138963	0.132168	0.141657	0.355136	0.422275	0.121847	0.133963	0.283191	0.812702	0.098087	0.233628	0.306117	0.323701
33	0.325274	0.230091	0.260917	0.358039	0.090654	0.193174	0.248490	0.257661	0.430424	0.301048	0.196387	0.156730	0.171922	0.236543	0.491948	0.506263	0.426038	0.142511	0.331990	0.695341	0.149718	0.298163	0.308717	0.446236	0.175692	0.143284	0.275737	0.357237	0.093595	0.113658	0.349535	0.436509	0.666330	0.248790	0.216665	0.137232	0.132049	0.133915	0.373370	0.492587	0.118990	0.131998	0.236163	0.911447	0.097509	0.228771	0.306327	0.319492
34	0.366451	0.262255	0.231957	0.254784	0.089255	0.191943	0.306591	0.196141	0.381212	0.288620	0.229598	0.160571	0.163488	0.230314	0.502844	0.508412	0.417943	0.141621	0.328911	0.666960	0.149836	0.297389	0.366995	0.457459	0.181508	0.198106	0.273819	0.380744	0.124186	0.132418	0.355658	0.584500	0.660539	0.245203	0.241324	0.133317	0.139423	0.127370	0.388527	0.521197	0.108240	0.122178	0.214242	0.980888	0.097610	0.215134	0.284125	0.310938
35	0.368506	0.269273	0.275461	0.209142	0.083187	0.152028	0.315309	0.177254	0.334369	0.400730	0.260368	0.192113	0.120415	0.194715	0.497915	0.511623	0.403178	0.145397	0.324687	0.620237	0.149238	0.287183	0.397086	0.466699	0.186457	0.205037	0.265596	0.388614	0.153605	0.146198	0.370402	0.628231	0.664384	0.250397	0.270376	0.138540	0.144236	0.121366	0.361815	0.487787	0.097081	0.111516	0.214178	0.993356	0.101476	0.213089	0.214740	0.302572
36	0.358762	0.288210	0.285025	0.212662	0.127675	0.153128	0.354559	0.167778	0.312437	0.397963	0.255942	0.228060	0.093202	0.149954	0.500253	0.498979	0.364614	0.139375	0.305921	0.567200	0.142934	0.258335	0.414047	0.539618	0.187023	0.202314	0.232101	0.362802	0.164811	0.151261	0.368553	0.626236	0.611449	0.203397	0.243732	0.113438	0.148117	0.119896	0.338733	0.446720	0.094428	0.111558	0.229808	0.992966	0.101957	0.193458	0.218696	0.302991
37	0.338687	0.338190	0.377645	0.303543	0.148441	0.150820	0.448880	0.172947	0.299263	0.378726	0.280031	0.213814	0.089352	0.145593	0.507991	0.454612	0.363171	0.145293	0.309383	0.546834	0.143662	0.237125	0.416883	0.620224	0.167198	0.203567	0.232907	0.350308	0.165599	0.151041	0.400899	0.709836	0.484955	0.179335	0.250890	0.152482	0.144251	0.115613	0.339874	0.417670	0.096057	0.112334	0.252064	0.998797	0.103797	0.199635	0.220473	0.302911
38	0.313136	0.388220	0.390088	0.283851	0.191140	0.158613	0.454199	0.174904	0.270000	0.358184	0.326028	0.223861	0.079550	0.112628	0.508713	0.406551	0.371674	0.149521	0.302702	0.581325	0.127490	0.237040	0.430823	0.672745	0.157290	0.193783	0.222866	0.347416	0.183871	0.160746	0.434589	0.783475	0.159020	0.097636	0.241526	0.173265	0.132762	0.105439	0.385884	0.405845	0.103408	0.115783	0.245345	0.964947	0.108155	0.198334	0.226190	0.307610
39	0.255711	0.489579	0.478208	0.362728	0.209531	0.145624	0.444765	0.169256	0.254165	0.381870	0.329474	0.240616	0.078747	0.094867	0.498897	0.361951	0.383556	0.146491	0.298107	0.672706	0.124561	0.239407	0.443535	0.702688	0.147840	0.192990	0.213654	0.308833	0.209522	0.187346	0.446694	0.799039	0.142621	0.095595	0.367209	0.200308	0.125733	0.098053	0.430525	0.409761	0.124290	0.126818	0.277593	0.798463	0.109666	0.215099	0.295065	0.335880
40	0.243758	0.524606	0.432671	0.392648	0.330233	0.152128	0.405843	0.222632	0.148354	0.282953	0.313318	0.290751	0.074001	0.082500	0.470147	0.351155	0.381377	0.147707	0.291450	0.777565	0.128695	0.243471	0.445383	0.712924	0.146412	0.191514	0.182543	0.243766	0.267736	0.301955	0.449585	0.801172	0.123023	0.090965	0.424466	0.248974	0.118719	0.094384	0.453497	0.429883	0.115204	0.118316	0.308506	0.682416	0.143498	0.300395	0.310207	0.336826
41	0.254646	0.505885	0.526608	0.435636	0.340794	0.151376	0.366284	0.210651	0.152090	0.257073	0.295376	0.258548	0.067272	0.070543	0.439587	0.357991	0.379847	0.145663	0.283204	0.796951	0.133168	0.243864	0.446030	0.708236	0.147649	0.190830	0.153737	0.235327	0.283110	0.331629	0.449492	0.794097	0.079185	0.069447	0.437139	0.251921	0.115858	0.088931	0.439202	0.443923	0.134597	0.125379	0.313863	0.687577	0.203809	0.333638	0.285978	0.287853
42	0.256670	0.470283	0.516151	0.466412	0.341274	0.145775	0.379126	0.243632	0.153192	0.247166	0.279581	0.256880	0.059454	0.063415	0.441248	0.355558	0.274139	0.136701	0.250731	0.764590	0.131719	0.226175	0.442568	0.696816	0.121494	0.119405	0.173464	0.231009	0.296167	0.357612	0.401837	0.754631	0.071754	0.073267	0.464582	0.320129	0.116362	0.088093	0.412586	0.393755	0.277012	0.384412	0.295217	0.629252	0.242807	0.378655	0.275054	0.276998
43	0.249195	0.450462	0.540846	0.425169	0.349288	0.267259	0.331543	0.255562	0.161353	0.251140	0.186560	0.250393	0.057417	0.077291	0.425735	0.331728	0.199840	0.135176	0.224516	0.730670	0.122470	0.204551	0.430408	0.690375	0.099547	0.098128	0.170873	0.188091	0.297965	0.363729	0.383611	0.671749	0.071615	0.076687	0.479728	0.360322	0.108674	0.075397	0.369701	0.305539	0.333382	0.545229	0.268228	0.444284	0.244940	0.378693	0.268673	0.305761
44	0.223610	0.397577	0.579935	0.444784	0.376252	0.401830	0.269746	0.252329	0.136892	0.218054	0.150253	0.258828	0.054443	0.080714	0.359898	0.306974	0.248739	0.127059	0.193565	0.720084	0.105846	0.163961	0.444097	0.675812	0.083582	0.089217	0.187049	0.149065	0.293984	0.385140	0.377879	0.565297	0.055857	0.052957	0.482480	0.402779	0.094195	0.056853	0.336046	0.244190	0.374315	0.594559	0.267980	0.277572	0.247216	0.377856	0.254887	0.336288
45	0.155649	0.190240	0.548766	0.371399	0.376963	0.446589	0.294832	0.255036	0.141536	0.241872	0.123356	0.199379	0.057809	0.083379	0.315679	0.367131	0.259098	0.122354	0.194259	0.732312	0.095350	0.130245	0.449392	0.669664	0.067450	0.072727	0.204821	0.133765	0.287785	0.382506	0.368984	0.557699	0.053525	0.046520	0.393518	0.487814	0.076827	0.048133	0.326409	0.242867	0.375048	0.597465	0.269892	0.246367	0.248072	0.377229	0.281687	0.331173
46	0.145716	0.154333	0.534659	0.373871	0.372437	0.452743	0.312167	0.249752	0.187171	0.287186	0.122364	0.309005	0.057772	0.088246	0.278890	0.472046	0.258430	0.122416	0.217249	0.751097	0.094478	0.123170	0.398842	0.664218	0.075315	0.078740	0.218460	0.128988	0.283794	0.381604	0.355172	0.484697	0.072692	0.067540	0.405254	0.484814	0.073756	0.055292	0.325336	0.241263	0.375145	0.599176	0.251155	0.241851	0.250170	0.373084	0.366648	0.327141
47	0.111713	0.141873	0.488786	0.312258	0.275266	0.466126	0.303168	0.209439	0.204716	0.307296	0.181270	0.333244	0.060482	0.094670	0.263663	0.517632	0.262081	0.117250	0.220088	0.776367	0.093230	0.122756	0.361803	0.660203	0.111283	0.142252	0.219375	0.128213	0.278700	0.379488	0.288215	0.281665	0.089276	0.076111	0.387929	0.523269	0.065185	0.052939	0.290741	0.243520	0.393150	0.602500	0.234171	0.222363	0.285173	0.396770	0.427819	0.352933
48	0.085767	0.123328	0.501432	0.326502	0.279825	0.486730	0.301186	0.197618	0.218930	0.337686	0.216552	0.434362	0.068343	0.104513	0.268196	0.518555	0.258124	0.113152	0.219983	0.804272	0.091870	0.120658	0.325062	0.648035	0.137649	0.203658	0.223214	0.128028	0.262469	0.372760	0.296025	0.156395	0.092238	0.072161	0.347907	0.490078	0.070715	0.062305	0.253417	0.246857	0.473119	0.604246	0.259225	0.244792	0.314254	0.430612	0.534807	0.420540
49	0.072734	0.103772	0.365648	0.465491	0.282392	0.508292	0.254695	0.147183	0.232626	0.377504	0.252104	0.469245	0.069685	0.110695	0.268763	0.527031	0.267365	0.109978	0.219134	0.828881	0.086569	0.114801	0.317102	0.585022	0.172022	0.243614	0.269308	0.128530	0.217147	0.320433	0.329689	0.210730	0.092121	0.067871	0.345363	0.481998	0.079256	0.096931	0.356838	0.260848	0.532489	0.604044	0.221363	0.260154	0.305754	0.404833	0.523828	0.472303
50	0.076828	0.085020	0.382986	0.472446	0.245067	0.429756	0.202883	0.148346	0.219347	0.347674	0.258235	0.479840	0.077786	0.111249	0.272020	0.572801	0.263706	0.102444	0.208599	0.840841	0.080146	0.100069	0.308968	0.514906	0.173281	0.244402	0.276727	0.192013	0.182878	0.259686	0.324334	0.272038	0.094598	0.066992	0.365714	0.425439	0.082742	0.106697	0.381490	0.261977	0.611163	0.645881	0.222597	0.234901	0.299281	0.370236	0.576986	0.474555
51	0.082779	0.089572	0.360467	0.491616	0.209386	0.314554	0.189418	0.154869	0.163628	0.279420	0.288142	0.500125	0.109200	0.118908	0.274200	0.607138	0.243755	0.098360	0.223729	0.812572	0.088133	0.083494	0.287052	0.443034	0.174607	0.244757	0.251102	0.223497	0.128384	0.179300	0.317199	0.297112	0.099763	0.069025	0.400577	0.363213	0.080446	0.106814	0.403539	0.268967	0.700162	0.664482	0.228656	0.203671	0.233787	0.262512	0.617263	0.498243
52	0.082736	0.093818	0.390141	0.515405	0.212322	0.308219	0.096554	0.157451	0.204631	0.318232	0.278327	0.461924	0.133357	0.125411	0.289150	0.613184	0.231461	0.090864	0.248607	0.718709	0.094587	0.067058	0.281755	0.391363	0.181061	0.250970	0.232193	0.228420	0.246780	0.184386	0.308283	0.298988	0.081152	0.040670	0.323507	0.351947	0.083317	0.106770	0.406223	0.273843	0.673739	0.532077	0.273523	0.195385	0.228854	0.310164	0.656192	0.530609
53	0.141415	0.180965	0.399524	0.528459	0.220979	0.309951	0.091797	0.152739	0.281070	0.456272	0.326159	0.449039	0.132436	0.123396	0.275722	0.611869	0.230508	0.085572	0.251462	0.584666	0.088716	0.048557	0.321788	0.367446	0.190795	0.263794	0.239881	0.306219	0.260463	0.151733	0.323513	0.307427	0.074581	0.032475	0.355211	0.299968	0.094755	0.108348	0.455761	0.267666	0.662429	0.425483	0.285541	0.197175	0.226535	0.332069	0.669299	0.546023
54	0.156536	0.192177	0.389160	0.442691	0.269802	0.354175	0.102442	0.173281	0.275620	0.443898	0.280780	0.370289	0.132235	0.118508	0.247277	0.609067	0.227606	0.083469	0.233347	0.524609	0.084180	0.032846	0.365421	0.372130	0.186802	0.268340	0.231730	0.379609	0.268213	0.133482	0.336884	0.314237	0.063706	0.030450	0.346140	0.262817	0.093590	0.107207	0.498038	0.262407	0.643126	0.358290	0.284786	0.215718	0.230383	0.346794	0.668763	0.540317
55	0.161376	0.196425	0.373951	0.308759	0.285213	0.350707	0.115207	0.190384	0.280149	0.442552	0.267647	0.363666	0.133130	0.115723	0.240087	0.607674	0.227720	0.081473	0.231350	0.515302	0.084858	0.026287	0.388898	0.380047	0.190580	0.263772	0.228330	0.401620	0.278785	0.135613	0.340525	0.315830	0.066205	0.033341	0.334194	0.205043	0.092725	0.102316	0.536480	0.277811	0.644798	0.362263	0.284682	0.271446	0.233430	0.370833	0.641172	0.544072
56	0.160728	0.193591	0.325836	0.289661	0.285122	0.373788	0.118494	0.213271	0.312946	0.493511	0.242627	0.250587	0.133600	0.106266	0.244432	0.607698	0.214953	0.077785	0.212391	0.515865	0.088906	0.027843	0.377366	0.366228	0.163621	0.206314	0.228166	0.403300	0.279098	0.135449	0.345388	0.312919	0.062355	0.033258	0.282190	0.196432	0.095326	0.100246	0.552100	0.298479	0.646068	0.361181	0.304443	0.282939	0.229916	0.403363	0.599420	0.572168
57	0.165159	0.209210	0.316421	0.236563	0.288646	0.419846	0.128943	0.213001	0.345462	0.585884	0.222110	0.234703	0.134250	0.145520	0.240297	0.599466	0.150693	0.058031	0.204310	0.490878	0.088803	0.032468	0.358497	0.301724	0.147364	0.172135	0.207774	0.415708	0.280941	0.135739	0.333306	0.314700	0.054748	0.026532	0.209240	0.129979	0.099114	0.102166	0.555908	0.301430	0.629011	0.354387	0.317996	0.270549	0.167467	0.389117	0.538388	0.580473
58	0.162234	0.237794	0.249833	0.138469	0.272261	0.422732	0.134212	0.201550	0.256866	0.478838	0.136527	0.161171	0.137962	0.166184	0.238954	0.547065	0.138793	0.055315	0.190576	0.459181	0.088742	0.032722	0.377216	0.244321	0.120785	0.132479	0.168644	0.430186	0.279489	0.136649	0.274960	0.300768	0.106364	0.062570	0.184939	0.087763	0.102165	0.101431	0.535564	0.289994	0.562927	0.352999	0.306878	0.240796	0.170912	0.398617	0.444695	0.511811
59	0.121720	0.188317	0.180627	0.114035	0.263406	0.432896	0.137562	0.191561	0.244188	0.432870	0.085733	0.114393	0.173208	0.215836	0.232406	0.442039	0.137645	0.055125	0.167984	0.423984	0.089334	0.033171	0.398100	0.254272	0.122064	0.135153	0.167491	0.400419	0.277442	0.139329	0.246121	0.249128	0.336048	0.170829	0.086372	0.085267	0.086426	0.052985	0.468933	0.253398	0.523315	0.351836	0.295448	0.224402	0.176140	0.399272	0.440640	0.480938
60	0.106554	0.233163	0.181745	0.113202	0.264513	0.419950	0.138258	0.159269	0.252375	0.439412	0.093051	0.112592	0.187807	0.243001	0.218017	0.374627	0.141659	0.058558	0.166746	0.373740	0.092542	0.057761	0.399938	0.274236	0.123214	0.137611	0.167594	0.385413	0.277169	0.140066	0.229629	0.225572	0.504625	0.205049	0.072784	0.087057	0.084819	0.052265	0.447261	0.215018	0.386464	0.259785	0.276664	0.229315	0.168239	0.401903	0.363669	0.474117
61	0.115792	0.246569	0.247019	0.108375	0.186340	0.371692	0.149757	0.145951	0.235132	0.416547	0.106800	0.132103	0.185750	0.239948	0.211503	0.365360	0.166029	0.067778	0.170827	0.315197	0.098606	0.091321	0.400200	0.269278	0.117687	0.136726	0.191047	0.373726	0.252006	0.134028	0.226158	0.218845	0.509954	0.204672	0.103291	0.077323	0.085098	0.052527	0.437257	0.193846	0.233659	0.210939	0.271802	0.236017	0.163970	0.385218	0.319339	0.433748
62	0.186520	0.264980	0.256987	0.120443	0.168955	0.344265	0.143290	0.103794	0.176195	0.254375	0.154340	0.203335	0.189387	0.238140	0.206269	0.351867	0.210258	0.069580	0.205553	0.268035	0.098990	0.093712	0.399827	0.247877	0.105297	0.140545	0.199673	0.299607	0.127379	0.080635	0.191745	0.219645	0.525552	0.224787	0.286862	0.199607	0.074928	0.051021	0.425153	0.221324	0.192437	0.203230	0.230506	0.277965	0.160631	0.340268	0.316316	0.364269
63	0.237558	0.251287	0.244978	0.145550	0.215145	0.374445	0.139061	0.063885	0.171243	0.189178	0.212859	0.199285	0.189069	0.239505	0.187328	0.274050	0.326462	0.067794	0.244985	0.333946	0.096325	0.099637	0.400225	0.229918	0.101996	0.151644	0.196435	0.240489	0.115170	0.076104	0.148145	0.208590	0.538329	0.249478	0.345617	0.240615	0.068130	0.048342	0.368356	0.252440	0.174932	0.198081	0.321374	0.332281	0.163092	0.340057	0.344571	0.331347
64	0.345263	0.252509	0.214478	0.137501	0.283745	0.493805	0.131484	0.063228	0.166311	0.164793	0.236733	0.201652	0.178073	0.240032	0.220242	0.180034	0.326490	0.092633	0.226703	0.441431	0.082366	0.107677	0.402151	0.231793	0.089733	0.151300	0.200657	0.234045	0.060122	0.070138	0.148790	0.197325	0.533789	0.249218	0.430681	0.252066	0.068461	0.049736	0.309229	0.253046	0.163122	0.182692	0.396692	0.361573	0.150021	0.310762	0.356190	0.331245
65	0.350864	0.253299	0.301275	0.213145	0.341889	0.630049	0.122838	0.065390	0.151841	0.151285	0.322348	0.204495	0.159522	0.237487	0.289598	0.161556	0.338006	0.140262	0.201152	0.482788	0.071501	0.107082	0.388238	0.254763	0.157229	0.302541	0.231588	0.277246	0.199746	0.106705	0.156954	0.210400	0.424047	0.197238	0.516270	0.300164	0.073215	0.060648	0.257611	0.225062	0.192865	0.190683	0.409429	0.364364	0.149715	0.285979	0.399653	0.415337
66	0.347768	0.190400	0.310813	0.269866	0.341773	0.626497	0.122187	0.057121	0.148830	0.149704	0.399623	0.233044	0.161046	0.248890	0.338884	0.181208	0.485840	0.224098	0.202391	0.485020	0.070274	0.110218	0.355054	0.324864	0.198942	0.426712	0.233483	0.266153	0.280535	0.137643	0.200619	0.287905	0.229609	0.182655	0.586777	0.320887	0.082921	0.083992	0.247203	0.207393	0.225930	0.202437	0.390027	0.363629	0.136282	0.225081	0.409397	0.461023
67	0.378153	0.279669	0.261293	0.275747	0.369607	0.704956	0.103687	0.055825	0.144418	0.146821	0.385773	0.202745	0.160571	0.253502	0.359830	0.200395	0.549797	0.244346	0.295174	0.511399	0.066299	0.116570	0.282364	0.373604	0.220045	0.431398	0.234794	0.242297	0.325317	0.156392	0.240292	0.297454	0.243171	0.191386	0.576360	0.355581	0.093862	0.127143	0.216535	0.202426	0.233947	0.204384	0.381886	0.370261	0.114586	0.171135	0.407092	0.446127
68	0.336540	0.269365	0.263894	0.315575	0.429758	0.907587	0.061106	0.056395	0.242723	0.149551	0.358321	0.205715	0.162610	0.255124	0.367908	0.210531	0.552942	0.245142	0.378607	0.573970	0.062124	0.117563	0.257921	0.387880	0.232521	0.476215	0.235514	0.240079	0.350622	0.179803	0.251737	0.283552	0.218559	0.169635	0.514501	0.308649	0.108636	0.172020	0.157207	0.204472	0.257043	0.203795	0.379252	0.383338	0.085301	0.129236	0.413059	0.473503
69	0.311563	0.264609	0.277645	0.323167	0.436244	0.919887	0.052343	0.054639	0.267405	0.148870	0.350917	0.206495	0.213864	0.257660	0.429710	0.213440	0.559533	0.249379	0.390471	0.618347	0.069437	0.117073	0.256970	0.388485	0.231961	0.481298	0.230970	0.235802	0.415474	0.233582	0.319543	0.269162	0.187055	0.136404	0.597504	0.350115	0.109741	0.173498	0.170621	0.307875	0.248221	0.193954	0.388869	0.388818	0.073723	0.113942	0.431525	0.543002
70	0.193931	0.251216	0.265380	0.346314	0.410378	0.905346	0.052743	0.050767	0.377199	0.129111	0.400897	0.292983	0.232037	0.251810	0.506165	0.213548	0.559205	0.266977	0.393080	0.634002	0.122486	0.141951	0.227945	0.397552	0.233915	0.485547	0.176980	0.230875	0.495441	0.249850	0.335365	0.262011	0.177161	0.127408	0.593376	0.468866	0.114538	0.179080	0.158794	0.503108	0.245201	0.185899	0.389287	0.408544	0.074338	0.122730	0.456365	0.583843
71	0.190912	0.250647	0.389120	0.364957	0.343731	0.851557	0.070899	0.040951	0.392066	0.113219	0.334022	0.307980	0.246953	0.287533	0.524782	0.215194	0.563627	0.326488	0.393348	0.641682	0.159202	0.193621	0.191422	0.418097	0.266677	0.522884	0.155389	0.214692	0.497311	0.249668	0.360038	0.294134	0.199498	0.132700	0.532865	0.469706	0.134464	0.187732	0.157860	0.644006	0.236346	0.174502	0.421890	0.551757	0.095382	0.158147	0.438791	0.593791
72	0.195002	0.251399	0.532889	0.422584	0.337516	0.834560	0.073782	0.032732	0.394820	0.127465	0.363916	0.317686	0.236695	0.269657	0.536645	0.222139	0.572856	0.392213	0.393620	0.644447	0.162696	0.206194	0.160957	0.421808	0.301219	0.569119	0.152026	0.215993	0.499670	0.252817	0.362121	0.342178	0.184300	0.117396	0.491092	0.537329	0.161552	0.198694	0.156222	0.643300	0.249751	0.168124	0.514886	0.711763	0.094044	0.151396	0.397370	0.592831
73	0.119705	0.122442	0.553866	0.417485	0.334385	0.869579	0.073353	0.058370	0.374293	0.176629	0.440000	0.346524	0.256770	0.309838	0.540371	0.227442	0.564210	0.429785	0.393412	0.644026	0.192694	0.218887	0.181900	0.413348	0.303165	0.583057	0.123756	0.187934	0.500001	0.254736	0.359106	0.368156	0.172517	0.109462	0.605172	0.595872	0.169778	0.202739	0.186819	0.674755	0.272951	0.171951	0.546412	0.763561	0.106600	0.154796	0.376966	0.587440
74	0.114054	0.123246	0.612270	0.419604	0.303813	0.839321	0.073740	0.066761	0.315836	0.171851	0.439506	0.346276	0.265832	0.314695	0.544648	0.227955	0.557579	0.436396	0.391749	0.641443	0.254836	0.257774	0.241536	0.424128	0.257800	0.508603	0.059250	0.112160	0.489226	0.255471	0.371526	0.401177	0.162276	0.098082	0.622305	0.598278	0.171640	0.202715	0.196228	0.724764	0.281813	0.167397	0.596580	0.745947	0.100637	0.155238	0.366546	0.595398
75	0.106269	0.120330	0.629412	0.427675	0.240942	0.689065	0.083388	0.080443	0.235364	0.163484	0.395096	0.348038	0.278698	0.330757	0.549243	0.227035	0.518250	0.436700	0.362480	0.624228	0.262632	0.258032	0.267632	0.433714	0.242082	0.498953	0.058312	0.081024	0.438202	0.239872	0.376430	0.373268	0.163162	0.101273	0.521207	0.597878	0.170987	0.201108	0.187271	0.739919	0.261253	0.143280	0.840799	0.741573	0.100355	0.161284	0.316441	0.533551
76	0.124834	0.122233	0.629307	0.418043	0.216891	0.670975	0.092535	0.128243	0.111565	0.163482	0.362260	0.314703	0.282053	0.340561	0.548524	0.224926	0.481168	0.444895	0.352622	0.559025	0.274832	0.262743	0.269005	0.438214	0.234299	0.482768	0.045559	0.083612	0.399858	0.225569	0.346831	0.389505	0.150902	0.108898	0.542646	0.574061	0.160536	0.179422	0.207706	0.746569	0.236021	0.131931	0.947114	0.748943	0.101900	0.164746	0.316769	0.497338
77	0.160844	0.129434	0.459144	0.316717	0.189724	0.590719	0.147361	0.136948	0.109992	0.166787	0.395713	0.314668	0.281264	0.340682	0.537805	0.221576	0.485908	0.443430	0.354255	0.487845	0.278497	0.264755	0.270443	0.436260	0.218740	0.443673	0.058953	0.083936	0.390331	0.224930	0.344628	0.456719	0.148295	0.102677	0.563181	0.677596	0.150945	0.154184	0.215192	0.758910	0.236566	0.133934	0.970454	0.760361	0.109718	0.173521	0.321858	0.493598
78	0.150999	0.116421	0.484515	0.311861	0.186684	0.524032	0.170070	0.196157	0.145861	0.153109	0.337823	0.279811	0.282911	0.342192	0.493830	0.207267	0.464131	0.436948	0.354244	0.486889	0.278791	0.277714	0.314596	0.431240	0.220924	0.446713	0.073563	0.112637	0.353619	0.175640	0.314334	0.496840	0.146253	0.102783	0.534009	0.621469	0.143679	0.114856	0.209400	0.760250	0.208469	0.126296	1.041902	0.761927	0.112040	0.172897	0.290941	0.443868
79	0.143973	0.104190	0.566337	0.448092	0.187679	0.503724	0.177328	0.235366	0.251198	0.336387	0.326706	0.310492	0.282200	0.334521	0.450855	0.173687	0.311820	0.475230	0.345403	0.497700	0.279419	0.295353	0.367083	0.414894	0.213670	0.436609	0.144539	0.133941	0.174756	0.122788	0.274738	0.521363	0.146518	0.104439	0.447878	0.694714	0.143493	0.112199	0.204172	0.750425	0.220085	0.158369	1.095695	0.767872	0.112635	0.168790	0.220130	0.357540
80	0.144194	0.105076	0.569725	0.453847	0.145001	0.359834	0.185602	0.233510	0.255383	0.340587	0.312468	0.297375	0.281714	0.330423	0.435674	0.148978	0.264900	0.542943	0.283741	0.469262	0.282515	0.296637	0.374537	0.409970	0.140541	0.358281	0.151997	0.129109	0.132509	0.121469	0.253950	0.527929	0.157149	0.120967	0.455088	0.863986	0.141793	0.107399	0.221782	0.667266	0.221722	0.186096	1.107962	0.750107	0.125356	0.198460	0.174512	0.314977
81	0.152522	0.096560	0.791639	0.627424	0.140379	0.269033	0.237704	0.253473	0.254381	0.344813	0.300319	0.250654	0.280871	0.330761	0.432337	0.130609	0.319146	0.592071	0.234245	0.401425	0.285170	0.299858	0.376186	0.417933	0.108430	0.338050	0.173242	0.127813	0.116211	0.109920	0.246737	0.493961	0.177452	0.130663	0.384402	0.877097	0.116910	0.094003	0.249401	0.610896	0.235927	0.229622	1.102610	0.630223	0.129894	0.220732	0.143777	0.305662
82	0.112700	0.095369	0.828012	0.717491	0.160126	0.306482	0.265739	0.311630	0.244656	0.367894	0.339630	0.327733	0.242814	0.337865	0.376898	0.134087	0.342005	0.606642	0.229855	0.362903	0.284979	0.302922	0.374590	0.421861	0.099912	0.306347	0.177578	0.145342	0.115835	0.108953	0.251100	0.471170	0.166940	0.119261	0.318360	0.845825	0.096843	0.081985	0.255049	0.600946	0.203693	0.220807	1.050250	0.417073	0.151265	0.259904	0.127676	0.320623
83	0.106697	0.093191	0.811489	0.719562	0.169708	0.298533	0.257370	0.323913	0.312999	0.442415	0.488672	0.382934	0.229739	0.338573	0.262802	0.152515	0.350571	0.599407	0.231512	0.345268	0.282955	0.287026	0.383804	0.405397	0.130379	0.236194	0.195037	0.185990	0.108313	0.095991	0.245975	0.446812	0.153025	0.129388	0.287901	0.796003	0.118472	0.085726	0.225509	0.541590	0.181461	0.213460	1.027215	0.304160	0.140361	0.251633	0.126168	0.376913
84	0.105993	0.099544	0.755031	0.685296	0.171880	0.297505	0.252586	0.338975	0.233065	0.338770	0.524154	0.362857	0.212451	0.299053	0.214894	0.150391	0.341789	0.563587	0.257234	0.329665	0.284040	0.257660	0.403950	0.383173	0.147827	0.217692	0.243890	0.264551	0.092888	0.084780	0.189206	0.433213	0.151571	0.130017	0.279118	0.783032	0.184714	0.096741	0.220390	0.491953	0.178225	0.214892	0.991392	0.309566	0.142662	0.259486	0.107756	0.337050
85	0.104467	0.101236	0.683674	0.608309	0.238092	0.354519	0.242422	0.332382	0.225043	0.321255	0.616587	0.396116	0.207431	0.287050	0.185445	0.146200	0.333947	0.526285	0.264016	0.323707	0.281902	0.254883	0.414236	0.422336	0.178726	0.218562	0.264892	0.275553	0.091878	0.085298	0.173197	0.412479	0.144957	0.126278	0.205836	0.634866	0.209944	0.098427	0.216434	0.492150	0.160410	0.213044	0.801894	0.286075	0.146449	0.260414	0.173500	0.284698
86	0.107846	0.095747	0.541902	0.554858	0.236958	0.356704	0.269210	0.329309	0.218618	0.309423	0.668033	0.488603	0.161705	0.207724	0.171741	0.164356	0.340857	0.501310	0.316972	0.322792	0.251927	0.220000	0.402542	0.492640	0.214312	0.224616	0.272728	0.277306	0.074657	0.086142	0.148033	0.336280	0.123965	0.107124	0.185845	0.412117	0.217089	0.099871	0.201401	0.480277	0.155451	0.208761	0.711327	0.259220	0.165927	0.278407	0.172730	0.300763
87	0.186660	0.220855	0.190670	0.310979	0.226551	0.323649	0.265688	0.328041	0.226365	0.308114	0.673331	0.487418	0.205533	0.206823	0.160180	0.195698	0.363136	0.512544	0.330289	0.331990	0.214809	0.186125	0.394726	0.531284	0.229766	0.214388	0.315256	0.317626	0.069311	0.096742	0.127618	0.262064	0.096209	0.092385	0.169197	0.375448	0.306410	0.126874	0.200246	0.479845	0.152588	0.210153	0.662410	0.215028	0.164355	0.276510	0.172554	0.351460
88	0.206232	0.276700	0.157947	0.177689	0.213358	0.245549	0.198053	0.291420	0.187150	0.199968	0.589907	0.428429	0.267295	0.198820	0.140602	0.211572	0.386320	0.524250	0.328094	0.353366	0.217631	0.187084	0.394540	0.534964	0.245504	0.205876	0.362140	0.369533	0.068771	0.097395	0.117280	0.194524	0.090544	0.080978	0.154312	0.324372	0.334839	0.157011	0.193042	0.450980	0.282276	0.228748	0.527073	0.238694	0.169472	0.290024	0.179617	0.380588
89	0.231324	0.276611	0.173662	0.193278	0.221541	0.295333	0.206079	0.223080	0.079059	0.101443	0.510624	0.417891	0.314926	0.196580	0.137343	0.215723	0.389965	0.520801	0.325742	0.359684	0.203632	0.171883	0.397940	0.536083	0.253880	0.204763	0.395316	0.397784	0.090065	0.091033	0.088121	0.130782	0.082765	0.055762	0.166943	0.279402	0.333411	0.158717	0.187628	0.345481	0.446788	0.234817	0.414709	0.255424	0.169724	0.289365	0.179282	0.391661
90	0.257073	0.285182	0.211592	0.227841	0.221204	0.302466	0.194677	0.208722	0.078558	0.128137	0.425413	0.416659	0.336272	0.201813	0.126250	0.216229	0.393853	0.524765	0.322841	0.352249	0.201778	0.168727	0.390180	0.555067	0.252679	0.138202	0.402505	0.395676	0.099308	0.089356	0.086387	0.123435	0.083852	0.054638	0.158936	0.305523	0.334331	0.190394	0.147488	0.237154	0.501176	0.210922	0.404553	0.258025	0.151076	0.246980	0.180284	0.388065
91	0.284204	0.314967	0.205736	0.215129	0.173655	0.266922	0.182236	0.137176	0.158260	0.306103	0.290317	0.319292	0.357840	0.201631	0.127197	0.216258	0.419876	0.509072	0.328402	0.335203	0.232425	0.139083	0.342186	0.567069	0.243039	0.124712	0.400588	0.393755	0.104753	0.089332	0.102056	0.139912	0.130455	0.087776	0.166875	0.309353	0.337121	0.210631	0.100106	0.204419	0.603379	0.203084	0.438912	0.261491	0.142487	0.220158	0.186475	0.387130
92	0.283643	0.315412	0.337924	0.244440	0.127347	0.239497	0.154720	0.107865	0.205518	0.373252	0.209993	0.241059	0.410196	0.214593	0.126336	0.212202	0.424317	0.438545	0.347067	0.331589	0.263143	0.103064	0.297198	0.570207	0.223859	0.124663	0.400188	0.354391	0.145691	0.092680	0.091697	0.176931	0.166531	0.096720	0.217565	0.458630	0.332039	0.208114	0.084001	0.202722	0.607069	0.202936	0.437349	0.274122	0.181671	0.269952	0.189254	0.354491
93	0.249117	0.215870	0.368345	0.287006	0.131137	0.242218	0.149876	0.246025	0.215960	0.370928	0.336881	0.460046	0.421173	0.215406	0.109728	0.204770	0.425131	0.350432	0.327117	0.339915	0.272075	0.096660	0.290134	0.575272	0.219804	0.122757	0.400539	0.323897	0.204989	0.094507	0.091653	0.183460	0.177256	0.113093	0.425250	0.626928	0.325961	0.254828	0.079502	0.196647	0.613084	0.199529	0.408047	0.282685	0.190132	0.283591	0.189084	0.306403
94	0.368031	0.226927	0.360934	0.301971	0.134975	0.243938	0.175841	0.265841	0.223531	0.378718	0.501089	0.618458	0.434745	0.216168	0.096051	0.202995	0.373110	0.274251	0.321610	0.350486	0.270857	0.090996	0.285627	0.576147	0.176023	0.115203	0.389675	0.320267	0.234551	0.103264	0.089489	0.183170	0.389386	0.203272	0.581993	0.651577	0.291197	0.262651	0.070019	0.179392	0.622355	0.201957	0.310706	0.272579	0.193072	0.291866	0.172147	0.301556
95	0.451736	0.233437	0.351971	0.322017	0.113437	0.201831	0.222685	0.304465	0.278999	0.394229	0.549096	0.634759	0.438650	0.203053	0.079125	0.200636	0.402456	0.251944	0.321656	0.343542	0.261542	0.088532	0.287483	0.576270	0.135140	0.105564	0.377615	0.301671	0.256631	0.106637	0.093987	0.198073	0.394845	0.209719	0.760621	0.808329	0.290066	0.271917	0.054528	0.152469	0.641303	0.210939	0.293643	0.265791	0.189168	0.299765	0.123407	0.316859
96	0.511347	0.209453	0.330981	0.325563	0.094345	0.163997	0.268555	0.364050	0.264422	0.286447	0.701066	0.749190	0.441157	0.189564	0.107615	0.208844	0.433464	0.245448	0.318573	0.338431	0.237943	0.082141	0.282062	0.579590	0.119688	0.094891	0.315332	0.224113	0.277033	0.111585	0.108414	0.213400	0.421089	0.219456	0.767074	0.884288	0.286524	0.283786	0.036747	0.115804	0.650599	0.211236	0.313637	0.267305	0.186592	0.307918	0.152931	0.292162
97	0.511987	0.182140	0.453710	0.329363	0.100381	0.183309	0.279332	0.383174	0.221570	0.174537	0.864897	0.791845	0.443972	0.184922	0.114698	0.264435	0.436070	0.244587	0.306404	0.338151	0.225750	0.081391	0.254232	0.588664	0.080834	0.064239	0.247280	0.136133	0.308748	0.118317	0.118613	0.215556	0.518755	0.223793	0.761963	0.890306	0.136549	0.266655	0.023807	0.086014	0.672871	0.209859	0.320407	0.260791	0.191717	0.316714	0.198191	0.237057
98	0.528014	0.191186	0.366476	0.371521	0.116782	0.208179	0.278984	0.386643	0.206995	0.175867	0.869329	0.774045	0.442175	0.182845	0.125243	0.347365	0.438430	0.243162	0.294695	0.337297	0.224949	0.075758	0.239099	0.571805	0.068921	0.063686	0.204528	0.085659	0.329364	0.162288	0.125157	0.213755	0.519800	0.223390	0.743079	0.788485	0.135971	0.256863	0.023297	0.062354	0.639855	0.184515	0.321290	0.210638	0.205201	0.327314	0.220558	0.200734
99	0.484738	0.154322	0.392737	0.360273	0.112371	0.191926	0.270948	0.355724	0.202076	0.168630	0.781896	0.595194	0.444764	0.182395	0.139027	0.359712	0.432940	0.231501	0.234066	0.337149	0.220241	0.070607	0.226935	0.513781	0.056970	0.075109	0.196467	0.086330	0.325190	0.166911	0.126576	0.211764	0.517360	0.210130	0.693697	0.707771	0.135461	0.254350	0.028767	0.044342	0.587049	0.166866	0.338732	0.158729	0.218906	0.337680	0.289525	0.181231
100	0.436499	0.109283	0.628427	0.521987	0.116444	0.221994	0.341212	0.377309	0.125613	0.125259	0.760707	0.576253	0.432501	0.173149	0.141392	0.344381	0.408562	0.196797	0.227553	0.324710	0.202351	0.068127	0.183194	0.474808	0.054577	0.077341	0.205478	0.104377	0.327124	0.175864	0.113697	0.206649	0.390081	0.148947	0.512344	0.674212	0.126324	0.213389	0.029913	0.038493	0.623426	0.205918	0.325502	0.151189	0.219936	0.338678	0.297964	0.191518
101	0.318361	0.120308	0.660459	0.601578	0.125118	0.236879	0.453955	0.439436	0.093575	0.109722	0.657274	0.437817	0.392643	0.150534	0.187068	0.341654	0.389489	0.165783	0.229065	0.307057	0.195294	0.066337	0.170085	0.482953	0.056105	0.080086	0.187883	0.124917	0.321094	0.180356	0.095118	0.176871	0.384686	0.134620	0.345640	0.437454	0.124835	0.210049	0.030762	0.040278	0.529408	0.188009	0.269368	0.166799	0.205108	0.326745	0.294358	0.188609
