	222_C_T2_sh_L_ND_01.c3d	222_C_T2_sh_L_ND_01.c3d	222_C_T2_sh_L_ND_01.c3d	222_C_T2_sh_L_ND_01.c3d	222_C_T2_sh_L_ND_01.c3d	222_C_T2_sh_L_ND_01.c3d	222_C_T2_sh_L_ND_01.c3d	222_C_T2_sh_L_ND_01.c3d	222_C_T2_sh_L_ND_02.c3d	222_C_T2_sh_L_ND_02.c3d	222_C_T2_sh_L_ND_02.c3d	222_C_T2_sh_L_ND_02.c3d	222_C_T2_sh_L_ND_02.c3d	222_C_T2_sh_L_ND_02.c3d	222_C_T2_sh_L_ND_02.c3d	222_C_T2_sh_L_ND_02.c3d	222_C_T2_sh_L_ND_06.c3d	222_C_T2_sh_L_ND_06.c3d	222_C_T2_sh_L_ND_06.c3d	222_C_T2_sh_L_ND_06.c3d	222_C_T2_sh_L_ND_06.c3d	222_C_T2_sh_L_ND_06.c3d	222_C_T2_sh_L_ND_06.c3d	222_C_T2_sh_L_ND_06.c3d	222_C_T2_sh_L_ND_07.c3d	222_C_T2_sh_L_ND_07.c3d	222_C_T2_sh_L_ND_07.c3d	222_C_T2_sh_L_ND_07.c3d	222_C_T2_sh_L_ND_07.c3d	222_C_T2_sh_L_ND_07.c3d	222_C_T2_sh_L_ND_07.c3d	222_C_T2_sh_L_ND_07.c3d	222_C_T2_sh_L_ND_10.c3d	222_C_T2_sh_L_ND_10.c3d	222_C_T2_sh_L_ND_10.c3d	222_C_T2_sh_L_ND_10.c3d	222_C_T2_sh_L_ND_10.c3d	222_C_T2_sh_L_ND_10.c3d	222_C_T2_sh_L_ND_10.c3d	222_C_T2_sh_L_ND_10.c3d
	Biceps femoris_lat	Semitendinosus_lat	Vastus lateralis_lat	Vastus medialis_lat	Biceps femoris_med	Semitendinosus_med	Vastus lateralis_med	Vastus medialis_med	Biceps femoris_lat	Semitendinosus_lat	Vastus lateralis_lat	Vastus medialis_lat	Biceps femoris_med	Semitendinosus_med	Vastus lateralis_med	Vastus medialis_med	Biceps femoris_lat	Semitendinosus_lat	Vastus lateralis_lat	Vastus medialis_lat	Biceps femoris_med	Semitendinosus_med	Vastus lateralis_med	Vastus medialis_med	Biceps femoris_lat	Semitendinosus_lat	Vastus lateralis_lat	Vastus medialis_lat	Biceps femoris_med	Semitendinosus_med	Vastus lateralis_med	Vastus medialis_med	Biceps femoris_lat	Semitendinosus_lat	Vastus lateralis_lat	Vastus medialis_lat	Biceps femoris_med	Semitendinosus_med	Vastus lateralis_med	Vastus medialis_med
	P2D	P2D	P2D	P2D	P2D	P2D	P2D	P2D	P2D	P2D	P2D	P2D	P2D	P2D	P2D	P2D	P2D	P2D	P2D	P2D	P2D	P2D	P2D	P2D	P2D	P2D	P2D	P2D	P2D	P2D	P2D	P2D	P2D	P2D	P2D	P2D	P2D	P2D	P2D	P2D
	EMG_lat	EMG_lat	EMG_lat	EMG_lat	EMG_med	EMG_med	EMG_med	EMG_med	EMG_lat	EMG_lat	EMG_lat	EMG_lat	EMG_med	EMG_med	EMG_med	EMG_med	EMG_lat	EMG_lat	EMG_lat	EMG_lat	EMG_med	EMG_med	EMG_med	EMG_med	EMG_lat	EMG_lat	EMG_lat	EMG_lat	EMG_med	EMG_med	EMG_med	EMG_med	EMG_lat	EMG_lat	EMG_lat	EMG_lat	EMG_med	EMG_med	EMG_med	EMG_med
ITEM	Y	Y	Y	Y	Y	Y	Y	Y	Y	Y	Y	Y	Y	Y	Y	Y	Y	Y	Y	Y	Y	Y	Y	Y	Y	Y	Y	Y	Y	Y	Y	Y	Y	Y	Y	Y	Y	Y	Y	Y
1	0.373182	0.369283	0.232190	0.449007	0.111511	0.108309	0.696628	0.329442	0.224894	0.102151	0.432895	0.433948	0.093011	0.066057	0.814448	0.242399	0.146613	0.088287	0.525800	0.200868	0.168937	0.074218	0.559672	0.160078	0.121198	0.057409	0.427922	0.445892	0.162799	0.160527	0.395405	0.213453	0.193161	0.119839	0.293678	0.326224	0.361690	0.113689	0.509961	0.361149
2	0.373739	0.368135	0.231457	0.434040	0.113480	0.125616	0.739560	0.319955	0.219519	0.096557	0.424565	0.473494	0.093091	0.066020	0.801424	0.252364	0.143085	0.084648	0.521011	0.211059	0.218487	0.101287	0.560901	0.161301	0.121433	0.058161	0.400543	0.437874	0.167040	0.118781	0.393432	0.203731	0.193164	0.121268	0.293709	0.333616	0.360783	0.113008	0.473614	0.330097
3	0.374569	0.362026	0.223341	0.381643	0.111527	0.128257	0.697669	0.309839	0.196571	0.088767	0.384548	0.472116	0.088257	0.064992	0.789338	0.228629	0.142788	0.084189	0.518340	0.217159	0.266574	0.116551	0.553972	0.164987	0.120866	0.057818	0.385027	0.434300	0.160276	0.090886	0.335300	0.221034	0.188892	0.116024	0.296590	0.334270	0.331016	0.104449	0.460773	0.317433
4	0.371251	0.338856	0.221932	0.366129	0.116197	0.135648	0.663273	0.311400	0.123773	0.063765	0.394172	0.627343	0.071000	0.060462	0.789035	0.223072	0.142870	0.087838	0.480242	0.218284	0.266179	0.120988	0.497505	0.190869	0.120574	0.056583	0.384020	0.442241	0.156891	0.086523	0.246573	0.231730	0.181611	0.115186	0.320861	0.337882	0.230475	0.086902	0.461415	0.316128
5	0.363908	0.293742	0.214287	0.347631	0.118838	0.143444	0.671189	0.302307	0.106200	0.057319	0.382116	0.646058	0.063016	0.058301	0.795179	0.216013	0.141488	0.089424	0.477133	0.227812	0.265402	0.117415	0.448190	0.206355	0.120253	0.056477	0.359401	0.453814	0.146411	0.085848	0.187300	0.240510	0.184552	0.088392	0.344902	0.345586	0.147109	0.073718	0.460918	0.326769
6	0.361346	0.271506	0.204928	0.281904	0.148176	0.159937	0.661972	0.279210	0.095010	0.048937	0.385804	0.662976	0.055391	0.060394	0.767701	0.217598	0.124121	0.092017	0.435613	0.251314	0.271378	0.120340	0.458759	0.207399	0.116347	0.055719	0.347022	0.462528	0.119999	0.085776	0.190614	0.280517	0.167257	0.105857	0.343532	0.355317	0.133521	0.062839	0.463904	0.345255
7	0.360077	0.266289	0.243100	0.222963	0.165423	0.172949	0.629757	0.273869	0.091269	0.045052	0.286549	0.696514	0.062186	0.062648	0.724973	0.231987	0.105219	0.093004	0.318443	0.306941	0.273846	0.120839	0.484359	0.200469	0.113865	0.054581	0.363980	0.442583	0.104778	0.084873	0.193027	0.294708	0.110226	0.146426	0.319488	0.358377	0.136749	0.072176	0.445971	0.369304
8	0.364459	0.263911	0.250647	0.224773	0.165754	0.173979	0.602527	0.274735	0.094245	0.042872	0.317812	0.674259	0.088282	0.062350	0.714986	0.259029	0.099067	0.084684	0.219846	0.444550	0.270234	0.121029	0.433450	0.201925	0.112316	0.053719	0.411787	0.342262	0.103338	0.082898	0.212003	0.294263	0.136003	0.151749	0.318966	0.360327	0.136413	0.075250	0.348222	0.410545
9	0.370153	0.260311	0.251935	0.225512	0.162951	0.174134	0.577764	0.280490	0.163504	0.054306	0.318254	0.677468	0.109439	0.061298	0.568762	0.330588	0.061639	0.069679	0.262381	0.563337	0.262761	0.121096	0.409832	0.228765	0.115048	0.054531	0.472677	0.261183	0.123348	0.080441	0.305409	0.296992	0.142787	0.153895	0.324687	0.360555	0.131075	0.076831	0.257507	0.430288
10	0.243567	0.151133	0.257536	0.226855	0.157355	0.173322	0.564615	0.275935	0.178679	0.068756	0.293412	0.601202	0.112935	0.064819	0.440488	0.385747	0.056634	0.071760	0.303337	0.575086	0.267060	0.129669	0.501261	0.252564	0.110487	0.052373	0.525083	0.240535	0.144786	0.078511	0.322277	0.318161	0.142847	0.153947	0.314619	0.352758	0.130376	0.081867	0.268412	0.422932
11	0.212561	0.116182	0.268217	0.214194	0.150560	0.153808	0.570077	0.356653	0.175026	0.083346	0.271847	0.597042	0.123621	0.076954	0.461390	0.399969	0.070863	0.074571	0.315281	0.568318	0.291802	0.158477	0.574993	0.253014	0.091514	0.044312	0.533815	0.263081	0.157369	0.070120	0.345854	0.331631	0.151639	0.153798	0.291541	0.327250	0.128058	0.080668	0.279009	0.416104
12	0.207840	0.117264	0.305008	0.172608	0.150101	0.152161	0.512140	0.404184	0.176509	0.122871	0.276652	0.592021	0.143612	0.087277	0.415653	0.395549	0.087810	0.075345	0.326596	0.577253	0.293723	0.169253	0.568399	0.253041	0.080593	0.041572	0.508217	0.271247	0.187129	0.068000	0.350851	0.330100	0.159365	0.153224	0.321680	0.313173	0.127226	0.076560	0.277678	0.415669
13	0.194438	0.112460	0.374220	0.152694	0.147316	0.151863	0.409214	0.394532	0.176255	0.135286	0.284833	0.531854	0.187195	0.100399	0.385977	0.399829	0.096022	0.078038	0.357049	0.633281	0.303374	0.187877	0.559420	0.258309	0.086043	0.044059	0.458355	0.275906	0.193311	0.064672	0.345634	0.335270	0.174265	0.158613	0.322855	0.332260	0.134470	0.075918	0.312818	0.407046
14	0.182598	0.103159	0.383672	0.175343	0.143010	0.130548	0.341479	0.373314	0.176163	0.136082	0.408604	0.529755	0.204517	0.103811	0.333945	0.400347	0.110900	0.080599	0.353817	0.698121	0.300026	0.205907	0.558539	0.318358	0.129703	0.053172	0.429077	0.275547	0.190608	0.053952	0.365864	0.333948	0.172187	0.167526	0.319699	0.349827	0.136956	0.077209	0.413257	0.377292
15	0.156669	0.083166	0.379692	0.237086	0.135312	0.128125	0.354336	0.387644	0.139552	0.135376	0.511504	0.579358	0.211678	0.108491	0.346621	0.402604	0.118985	0.077877	0.352139	0.754900	0.255519	0.196420	0.559564	0.466300	0.185401	0.069275	0.430170	0.278114	0.182969	0.040156	0.368764	0.334115	0.180435	0.196515	0.317204	0.349332	0.138382	0.078229	0.489197	0.346792
16	0.149226	0.081205	0.387198	0.372471	0.144860	0.128589	0.406041	0.431527	0.105988	0.152701	0.574923	0.559450	0.212815	0.108931	0.382910	0.405851	0.119029	0.077287	0.352128	0.781228	0.246247	0.206192	0.562604	0.547864	0.203306	0.073287	0.442927	0.284065	0.204268	0.052133	0.372450	0.330949	0.190986	0.213549	0.293654	0.369625	0.146904	0.078370	0.522470	0.350772
17	0.150485	0.088698	0.386229	0.456057	0.159916	0.134236	0.411108	0.451327	0.118600	0.176321	0.577307	0.482316	0.219787	0.111867	0.371894	0.422868	0.130041	0.074762	0.345856	0.792744	0.265938	0.222940	0.575312	0.546157	0.205630	0.073813	0.450836	0.284140	0.323996	0.081977	0.414390	0.318016	0.187462	0.214992	0.277235	0.410900	0.160684	0.080013	0.531876	0.386257
18	0.156464	0.101209	0.355529	0.465004	0.141665	0.123946	0.407739	0.455301	0.117080	0.165788	0.549283	0.519982	0.229073	0.113180	0.359967	0.442296	0.138227	0.072456	0.344630	0.779843	0.261873	0.225313	0.578663	0.557261	0.206024	0.075563	0.448091	0.263108	0.389517	0.096229	0.444543	0.306165	0.188867	0.182750	0.277908	0.439862	0.161511	0.080315	0.599873	0.447245
19	0.144676	0.094895	0.334892	0.495982	0.130956	0.116213	0.415943	0.458186	0.117186	0.144699	0.551556	0.552623	0.239573	0.117551	0.360206	0.457995	0.138746	0.069076	0.344897	0.725870	0.281799	0.231668	0.607978	0.618616	0.212604	0.076127	0.442797	0.236323	0.408861	0.098198	0.442111	0.278314	0.186945	0.174635	0.276664	0.446489	0.167780	0.083104	0.683212	0.493531
20	0.129988	0.095751	0.334671	0.589932	0.131012	0.116630	0.467984	0.472714	0.134983	0.154172	0.534242	0.542525	0.238685	0.115099	0.362821	0.451159	0.140303	0.073637	0.310118	0.638562	0.290652	0.234594	0.704209	0.706797	0.226762	0.076817	0.445326	0.223383	0.409299	0.098732	0.463305	0.246445	0.189448	0.176464	0.283490	0.448068	0.202107	0.088123	0.735691	0.504658
21	0.204443	0.139001	0.333639	0.663345	0.140925	0.128564	0.490991	0.491599	0.150042	0.163171	0.340468	0.419793	0.228272	0.111508	0.365101	0.417523	0.153870	0.102330	0.271202	0.664189	0.291022	0.234637	0.796629	0.769710	0.239152	0.077110	0.433906	0.222206	0.411844	0.100902	0.473830	0.242154	0.220822	0.201957	0.275724	0.449201	0.241434	0.086722	0.756905	0.495549
22	0.294668	0.179324	0.333236	0.668178	0.145693	0.127793	0.492359	0.506317	0.146345	0.154157	0.246320	0.393729	0.248538	0.119682	0.380964	0.364603	0.174182	0.137356	0.285461	0.704605	0.291851	0.233464	0.840068	0.786430	0.249973	0.077037	0.383409	0.230831	0.416976	0.103532	0.440671	0.237997	0.235137	0.216282	0.292776	0.448772	0.264615	0.079470	0.760894	0.471593
23	0.368620	0.217314	0.272183	0.684672	0.154667	0.131150	0.478254	0.449996	0.125671	0.108547	0.215099	0.442445	0.279434	0.124365	0.389499	0.343554	0.181688	0.162406	0.314856	0.725908	0.279797	0.219402	0.804363	0.792317	0.253192	0.076616	0.307527	0.252694	0.419157	0.109084	0.412154	0.224783	0.238843	0.223722	0.286168	0.443414	0.276726	0.077099	0.760424	0.432277
24	0.407446	0.243271	0.236706	0.696442	0.158996	0.131707	0.449768	0.454552	0.116539	0.090799	0.230621	0.490980	0.291775	0.122142	0.406761	0.339709	0.181254	0.177139	0.280637	0.700964	0.259074	0.210544	0.759562	0.798719	0.253519	0.076935	0.256656	0.251449	0.426183	0.110969	0.409312	0.235464	0.227148	0.221804	0.311889	0.447442	0.278574	0.075143	0.751319	0.420168
25	0.414589	0.257235	0.406837	0.699325	0.164530	0.133169	0.435567	0.598559	0.212674	0.095686	0.264669	0.469996	0.286953	0.124028	0.406105	0.363160	0.179138	0.177040	0.282513	0.639546	0.255042	0.196934	0.744235	0.798788	0.253014	0.076014	0.279792	0.220478	0.423357	0.111671	0.429934	0.259949	0.234091	0.236642	0.372198	0.498709	0.269491	0.066191	0.738585	0.421607
26	0.415013	0.262090	0.462897	0.672767	0.171099	0.138773	0.437844	0.688151	0.214904	0.093887	0.247260	0.565893	0.268247	0.134407	0.423606	0.373984	0.195450	0.183235	0.363091	0.566405	0.242206	0.175999	0.744892	0.802244	0.252643	0.074953	0.281514	0.191648	0.429024	0.124204	0.467278	0.251735	0.237108	0.232032	0.381643	0.534549	0.262391	0.061426	0.736844	0.424604
27	0.420451	0.268324	0.481033	0.647773	0.172848	0.143621	0.418343	0.691395	0.221872	0.081762	0.241617	0.609488	0.266352	0.151464	0.429565	0.359828	0.221365	0.193534	0.394186	0.528629	0.238414	0.155651	0.765749	0.841646	0.249570	0.073407	0.279437	0.184581	0.436207	0.136788	0.460477	0.243246	0.237378	0.213046	0.382987	0.536725	0.258114	0.065489	0.740540	0.435672
28	0.428991	0.273809	0.639595	0.680135	0.165852	0.131383	0.388163	0.676461	0.238451	0.071702	0.371200	0.645846	0.268093	0.162858	0.386179	0.355261	0.247045	0.217830	0.398528	0.527140	0.230378	0.156099	0.802103	0.867040	0.222387	0.064930	0.280191	0.187604	0.440080	0.147049	0.455941	0.243215	0.241411	0.215945	0.420654	0.502931	0.255376	0.075170	0.718986	0.441783
29	0.434731	0.281389	0.748426	0.696166	0.159643	0.116838	0.442667	0.730054	0.249827	0.075895	0.422151	0.681274	0.267151	0.169914	0.452712	0.372791	0.262991	0.238894	0.397339	0.548529	0.182433	0.130846	0.913279	0.926057	0.175031	0.055179	0.276426	0.183513	0.448418	0.162293	0.472178	0.257135	0.244912	0.221555	0.493944	0.497243	0.256473	0.081416	0.692207	0.459776
30	0.454474	0.304648	0.768467	0.646500	0.161822	0.105751	0.608416	0.784443	0.250777	0.083070	0.496922	0.598062	0.259517	0.172359	0.545573	0.364024	0.269699	0.249072	0.395524	0.562169	0.164068	0.108664	0.970437	0.979970	0.156222	0.059971	0.280660	0.180273	0.409314	0.159095	0.457715	0.284556	0.240481	0.221782	0.507689	0.533520	0.256667	0.084184	0.698481	0.487431
31	0.457402	0.309983	0.766126	0.546360	0.201058	0.112375	0.643424	0.800910	0.230584	0.080659	0.495356	0.663361	0.251109	0.172553	0.588064	0.341220	0.269807	0.253698	0.414197	0.557321	0.160127	0.102788	0.991282	0.976950	0.155024	0.068978	0.295093	0.223200	0.319425	0.148049	0.403239	0.294971	0.227971	0.216741	0.508743	0.559382	0.249775	0.083007	0.736663	0.510971
32	0.423676	0.298864	0.759907	0.516601	0.237361	0.127615	0.612264	0.791913	0.223569	0.087210	0.498679	0.685553	0.250089	0.181424	0.609318	0.359390	0.262483	0.246861	0.422009	0.502499	0.108028	0.094332	0.948482	0.941577	0.154357	0.081149	0.296378	0.291399	0.289859	0.144470	0.396479	0.302213	0.196937	0.200193	0.511263	0.567920	0.243734	0.081831	0.732532	0.496318
33	0.373052	0.282011	0.758617	0.514524	0.253806	0.134910	0.593547	0.776831	0.218987	0.080844	0.510955	0.613154	0.269846	0.207142	0.610961	0.384789	0.249450	0.229811	0.401795	0.434479	0.105586	0.106019	0.865240	0.912371	0.143274	0.092760	0.306018	0.324264	0.284123	0.153257	0.383920	0.303943	0.168279	0.177382	0.508841	0.569824	0.246315	0.080591	0.666089	0.447486
34	0.318632	0.257942	0.755527	0.502562	0.258606	0.147596	0.595074	0.759395	0.191465	0.076757	0.512492	0.631704	0.281967	0.225540	0.631171	0.382104	0.237469	0.209783	0.373657	0.373683	0.179715	0.123997	0.818020	0.907528	0.122650	0.106545	0.358952	0.329884	0.282690	0.174965	0.360506	0.303970	0.143904	0.161925	0.495617	0.563642	0.238375	0.076139	0.599589	0.404052
35	0.304992	0.239655	0.733853	0.486909	0.254960	0.152006	0.603519	0.764489	0.173975	0.077589	0.619676	0.757607	0.258668	0.229563	0.619945	0.373380	0.239190	0.195614	0.376162	0.329017	0.225262	0.128842	0.811248	0.918429	0.106107	0.112955	0.392043	0.330204	0.275928	0.192604	0.358957	0.305728	0.143039	0.160008	0.477802	0.543439	0.202259	0.070514	0.571309	0.410755
36	0.311654	0.229549	0.668652	0.489405	0.253325	0.154900	0.612866	0.737468	0.218319	0.077990	0.547623	0.771218	0.234068	0.228998	0.591693	0.379759	0.249584	0.192924	0.384848	0.315903	0.246180	0.127262	0.852240	0.917169	0.097041	0.131412	0.394355	0.330284	0.259256	0.200303	0.356818	0.309689	0.134378	0.149665	0.430911	0.484653	0.155047	0.067396	0.567277	0.433971
37	0.307633	0.225311	0.663663	0.448957	0.251196	0.156086	0.622934	0.638053	0.275515	0.080099	0.556884	0.777263	0.219155	0.225071	0.590393	0.377421	0.243338	0.188608	0.340199	0.316665	0.257444	0.127932	0.883196	0.914310	0.092121	0.138774	0.400812	0.339537	0.243812	0.205893	0.358650	0.291633	0.139071	0.121284	0.386790	0.417559	0.114041	0.068166	0.572609	0.443004
38	0.300958	0.213951	0.584419	0.365925	0.245885	0.155085	0.628300	0.568169	0.346525	0.079839	0.593894	0.749348	0.212706	0.217990	0.590362	0.350022	0.226024	0.180611	0.317222	0.331040	0.259725	0.136132	0.891770	0.914141	0.097049	0.146880	0.374187	0.360144	0.230576	0.208371	0.341702	0.248760	0.130618	0.116608	0.387098	0.393184	0.095474	0.075106	0.572673	0.442367
39	0.313978	0.204509	0.371173	0.299283	0.244454	0.152845	0.624816	0.556369	0.377975	0.072037	0.596836	0.758511	0.210794	0.205865	0.565495	0.351324	0.197570	0.152744	0.327694	0.324837	0.260271	0.147156	0.882137	0.898771	0.123914	0.161390	0.398465	0.372522	0.209764	0.205806	0.273595	0.220652	0.114048	0.095732	0.366441	0.398507	0.111456	0.087384	0.571973	0.442311
40	0.331864	0.179968	0.253518	0.311013	0.240548	0.153575	0.610061	0.529159	0.412345	0.071863	0.605122	0.757129	0.211938	0.194061	0.560906	0.378388	0.159577	0.113877	0.334428	0.273323	0.260792	0.152372	0.865058	0.814057	0.145668	0.172670	0.450859	0.387539	0.185388	0.198041	0.236891	0.222694	0.099852	0.068543	0.269007	0.389155	0.129498	0.100657	0.572595	0.439729
41	0.325907	0.149750	0.237415	0.416067	0.242316	0.157937	0.538172	0.434905	0.530231	0.098762	0.533131	0.600178	0.211880	0.186367	0.538378	0.380240	0.147449	0.085102	0.341257	0.255264	0.261069	0.149210	0.812696	0.704051	0.147903	0.174581	0.465904	0.404010	0.177932	0.192286	0.232427	0.225332	0.099729	0.062339	0.191047	0.344481	0.140335	0.109822	0.571553	0.433733
42	0.321140	0.138951	0.248652	0.522569	0.250487	0.167351	0.345534	0.338604	0.558889	0.104824	0.434021	0.559842	0.221264	0.179707	0.442761	0.399647	0.148477	0.054981	0.351554	0.263819	0.278177	0.144925	0.684978	0.582093	0.148938	0.173898	0.466478	0.425389	0.156709	0.180243	0.201612	0.222216	0.099899	0.068462	0.183970	0.288798	0.143706	0.111406	0.566404	0.419962
43	0.311425	0.138395	0.295144	0.577995	0.227217	0.164218	0.287754	0.311488	0.540258	0.132857	0.559270	0.574082	0.227011	0.179035	0.358991	0.399844	0.148952	0.077418	0.324024	0.265153	0.289196	0.142630	0.619487	0.509552	0.153029	0.171360	0.470319	0.443144	0.140002	0.170071	0.163124	0.184514	0.099840	0.074143	0.168966	0.256370	0.143104	0.106175	0.549378	0.403170
44	0.304491	0.143735	0.336772	0.577859	0.195914	0.151863	0.272619	0.323333	0.648251	0.212751	0.535392	0.443963	0.225241	0.171429	0.295704	0.384368	0.148642	0.132518	0.319904	0.271869	0.296548	0.139501	0.603922	0.497801	0.159820	0.168450	0.470986	0.444040	0.137109	0.168376	0.178177	0.146517	0.101739	0.073067	0.169153	0.250922	0.140386	0.101528	0.501042	0.377206
45	0.291786	0.154595	0.355474	0.677888	0.172515	0.136074	0.290920	0.326493	0.596339	0.218886	0.642731	0.398989	0.207218	0.148810	0.290022	0.344809	0.145299	0.135885	0.322233	0.314419	0.298416	0.132859	0.613207	0.464400	0.167546	0.164567	0.475857	0.416712	0.097494	0.168619	0.196756	0.131758	0.115639	0.074583	0.195132	0.274513	0.138805	0.099612	0.417830	0.336707
46	0.279361	0.162123	0.374722	0.838845	0.165536	0.122562	0.293256	0.320271	0.595268	0.231875	0.660558	0.398823	0.169798	0.109365	0.252353	0.335470	0.141804	0.138800	0.374099	0.321060	0.302649	0.117135	0.598297	0.370276	0.174236	0.157925	0.479468	0.372605	0.076365	0.165907	0.216842	0.128505	0.143007	0.077645	0.226189	0.303954	0.139591	0.099518	0.341182	0.287039
47	0.276604	0.168382	0.361532	0.973356	0.165408	0.116088	0.303764	0.308364	0.526413	0.229459	0.631047	0.396332	0.153967	0.081876	0.361955	0.397498	0.123675	0.140738	0.401605	0.351993	0.313886	0.100936	0.541048	0.251739	0.178143	0.151667	0.471862	0.348037	0.090230	0.149543	0.235649	0.137171	0.168474	0.078838	0.249593	0.321983	0.138034	0.099545	0.330788	0.259420
48	0.286276	0.169869	0.401580	1.047858	0.172771	0.115366	0.379156	0.314961	0.461354	0.219418	0.624138	0.338552	0.159146	0.062627	0.475377	0.597487	0.109252	0.141757	0.396155	0.407109	0.309882	0.098008	0.453515	0.150900	0.177230	0.141100	0.435231	0.350552	0.101110	0.117745	0.248486	0.138746	0.191128	0.085372	0.255156	0.328443	0.131422	0.099481	0.339428	0.257055
49	0.272226	0.176014	0.426111	1.058503	0.186267	0.116447	0.402314	0.346324	0.456841	0.213254	0.567109	0.229666	0.191619	0.067459	0.512564	0.732023	0.121991	0.145311	0.461911	0.489915	0.302512	0.099899	0.339655	0.114323	0.174229	0.134959	0.415022	0.362928	0.102658	0.094134	0.274509	0.128800	0.241281	0.120025	0.248804	0.330489	0.130108	0.100010	0.319658	0.253259
50	0.221817	0.193625	0.473415	1.063661	0.199043	0.114212	0.412877	0.345516	0.312744	0.141082	0.503527	0.250750	0.260914	0.089529	0.507579	0.742624	0.133738	0.147143	0.607145	0.546612	0.300803	0.095536	0.269324	0.112852	0.168439	0.118483	0.414896	0.376575	0.098166	0.072506	0.283452	0.141049	0.323316	0.194615	0.239020	0.325434	0.136995	0.100044	0.308055	0.208803
51	0.181040	0.216972	0.482212	1.093019	0.212159	0.115746	0.418511	0.368754	0.194531	0.175582	0.561819	0.253424	0.316187	0.104231	0.523209	0.779958	0.157908	0.149132	0.638633	0.548973	0.301939	0.083617	0.249402	0.112323	0.170272	0.110202	0.412349	0.424774	0.096828	0.056048	0.341676	0.198144	0.421197	0.317098	0.236236	0.314537	0.145437	0.100609	0.308804	0.155801
52	0.172279	0.231256	0.489685	1.059900	0.208936	0.114956	0.494043	0.386861	0.262742	0.280915	0.414728	0.218653	0.331449	0.105773	0.606573	0.878861	0.201349	0.148904	0.646073	0.546156	0.301611	0.069514	0.249072	0.107533	0.168794	0.097860	0.418836	0.465492	0.096723	0.046764	0.467079	0.250172	0.469916	0.420268	0.267500	0.299925	0.159183	0.100578	0.294595	0.149128
53	0.166775	0.228678	0.479940	1.012981	0.196435	0.108280	0.559896	0.382615	0.247963	0.286522	0.430101	0.253813	0.335927	0.129289	0.641420	0.959077	0.207273	0.148876	0.699393	0.554698	0.314679	0.059323	0.244052	0.099442	0.149131	0.086895	0.367397	0.465091	0.092711	0.043405	0.495444	0.278457	0.489936	0.435488	0.266598	0.327716	0.164830	0.093614	0.292510	0.164742
54	0.165912	0.219850	0.440382	1.019520	0.179923	0.098794	0.569916	0.384827	0.234244	0.301832	0.551960	0.302105	0.353067	0.152870	0.649263	0.965705	0.215178	0.140981	0.763654	0.554827	0.472258	0.086470	0.233629	0.096515	0.172676	0.075711	0.306974	0.450470	0.090049	0.038589	0.497499	0.279296	0.584064	0.483903	0.270861	0.373877	0.153858	0.084443	0.299239	0.186304
55	0.181130	0.216106	0.425842	1.047415	0.177235	0.094247	0.616963	0.393540	0.281371	0.348174	0.576708	0.324129	0.364265	0.159594	0.650532	0.962850	0.257066	0.115883	0.790256	0.554107	0.494521	0.092324	0.216303	0.064612	0.259320	0.165111	0.300883	0.435541	0.095644	0.037228	0.504369	0.283281	0.740585	0.604487	0.284122	0.383487	0.139903	0.087294	0.325664	0.205170
56	0.194888	0.216098	0.377001	0.977651	0.174918	0.090976	0.627431	0.389079	0.345273	0.447621	0.572863	0.355149	0.371778	0.160422	0.654256	0.963280	0.297312	0.159174	0.790673	0.542018	0.486007	0.092497	0.203972	0.058839	0.275985	0.186112	0.354038	0.425405	0.097350	0.039092	0.531229	0.313798	0.849100	0.692146	0.317746	0.376378	0.134938	0.093873	0.348082	0.207606
57	0.198580	0.215302	0.386231	0.837516	0.177729	0.087654	0.726513	0.389732	0.457268	0.511932	0.455383	0.477208	0.372634	0.158572	0.654529	0.964971	0.297326	0.189686	0.772168	0.538002	0.481655	0.096746	0.168938	0.090131	0.277039	0.186094	0.414362	0.431181	0.098273	0.042529	0.555327	0.361911	0.860231	0.704377	0.337693	0.367507	0.140789	0.108881	0.372808	0.219166
58	0.188794	0.214939	0.362349	0.731573	0.178222	0.085957	0.816106	0.419718	0.442210	0.476650	0.540042	0.488057	0.372683	0.156616	0.658094	0.964996	0.329379	0.197240	0.763116	0.528742	0.481627	0.102215	0.124346	0.100775	0.278709	0.186051	0.406555	0.449334	0.105733	0.045619	0.566465	0.387583	0.855476	0.705317	0.331812	0.376767	0.146712	0.131685	0.422097	0.249197
59	0.179039	0.217086	0.328561	0.732423	0.178013	0.084949	0.806015	0.461966	0.432655	0.449148	0.551083	0.510218	0.372161	0.154853	0.628269	0.956836	0.374868	0.218118	0.795801	0.491977	0.467345	0.104797	0.124074	0.101207	0.288250	0.187113	0.397826	0.457455	0.116229	0.054496	0.562158	0.391317	0.850974	0.705166	0.327995	0.370219	0.152133	0.140572	0.442896	0.271470
60	0.181433	0.206002	0.294893	0.752896	0.172214	0.079700	0.791140	0.459303	0.428166	0.447356	0.487058	0.533915	0.368662	0.154681	0.541716	0.884284	0.369233	0.215298	0.767148	0.415073	0.430388	0.105485	0.124577	0.106665	0.298642	0.187578	0.397908	0.459944	0.119168	0.063098	0.559062	0.388820	0.841399	0.702390	0.367340	0.385152	0.155587	0.150709	0.438671	0.270629
61	0.176719	0.179315	0.251890	0.698650	0.173130	0.081971	0.824285	0.433309	0.421895	0.419092	0.454111	0.529080	0.369963	0.158175	0.508253	0.739296	0.365955	0.214789	0.665341	0.303371	0.423740	0.104501	0.135777	0.113753	0.304321	0.187661	0.396751	0.459181	0.112798	0.065574	0.552715	0.397502	0.820146	0.691569	0.461643	0.408177	0.156178	0.263766	0.442859	0.268013
62	0.178764	0.148211	0.233647	0.644393	0.183850	0.112988	0.838988	0.431205	0.361560	0.313534	0.463468	0.523372	0.371797	0.168907	0.501179	0.690466	0.358307	0.214615	0.599171	0.265454	0.417698	0.102741	0.219598	0.116008	0.306381	0.187687	0.411549	0.452792	0.107895	0.066280	0.543163	0.409184	0.783045	0.664184	0.527103	0.413008	0.169769	0.292071	0.441861	0.271861
63	0.220490	0.134939	0.222651	0.643525	0.179496	0.125480	0.836079	0.414149	0.224318	0.192047	0.520301	0.527534	0.348528	0.161684	0.503326	0.677484	0.351180	0.233563	0.594093	0.263859	0.418945	0.105676	0.277031	0.118605	0.307391	0.187926	0.422680	0.442288	0.109036	0.068178	0.528356	0.412192	0.742465	0.600038	0.526472	0.410731	0.239031	0.292266	0.429411	0.276757
64	0.286540	0.142935	0.246379	0.641556	0.184812	0.140990	0.783450	0.401024	0.212623	0.175776	0.443522	0.864248	0.329723	0.158895	0.424338	0.559348	0.350408	0.249870	0.536039	0.229091	0.427171	0.110187	0.297919	0.120791	0.341245	0.234627	0.421709	0.418358	0.111822	0.071448	0.536552	0.398987	0.747048	0.573041	0.582714	0.406511	0.344300	0.293508	0.414893	0.272626
65	0.330851	0.142707	0.283306	0.576127	0.189561	0.142006	0.767335	0.407698	0.210814	0.150543	0.464908	0.932996	0.339292	0.149850	0.340717	0.348236	0.349680	0.260623	0.421716	0.213625	0.432965	0.110532	0.302578	0.122495	0.470432	0.526630	0.435558	0.341193	0.118147	0.074546	0.445689	0.382578	0.709263	0.568733	0.700028	0.373798	0.410396	0.300981	0.382755	0.270404
66	0.382592	0.128642	0.302334	0.472627	0.182074	0.150784	0.786547	0.405957	0.214203	0.147372	0.462088	1.117527	0.324359	0.123245	0.309904	0.170593	0.328011	0.257641	0.348929	0.264924	0.399934	0.109811	0.322099	0.130192	0.567949	0.863614	0.467461	0.269735	0.151747	0.074528	0.394175	0.369330	0.596725	0.493834	0.720221	0.355170	0.454578	0.301667	0.360692	0.269027
67	0.385899	0.118230	0.287725	0.451026	0.183800	0.163891	0.773751	0.396027	0.212678	0.128264	0.497487	1.148874	0.340128	0.110472	0.378714	0.105241	0.284413	0.225331	0.362721	0.309298	0.201850	0.093735	0.408067	0.179572	0.616216	0.942168	0.485462	0.258154	0.209127	0.106859	0.403474	0.374798	0.392629	0.311646	0.709051	0.360072	0.473859	0.303802	0.357467	0.263683
68	0.430575	0.110348	0.281175	0.449421	0.189572	0.165657	0.758168	0.397076	0.203715	0.118873	0.512439	1.147318	0.378006	0.114625	0.435077	0.109232	0.282629	0.208067	0.361692	0.351471	0.179400	0.101392	0.441471	0.193429	0.953838	1.162901	0.485892	0.258593	0.245487	0.161669	0.405331	0.383687	0.330031	0.286536	0.688163	0.359208	0.479309	0.308037	0.361659	0.254658
69	0.503479	0.105182	0.294486	0.348222	0.196379	0.167328	0.664983	0.392766	0.180771	0.104236	0.477715	1.134219	0.396141	0.118166	0.464081	0.105033	0.261957	0.202849	0.349992	0.382471	0.183336	0.111241	0.440214	0.187440	1.012164	1.269276	0.475765	0.259565	0.250049	0.179211	0.390308	0.370512	0.339183	0.290662	0.674178	0.340226	0.480951	0.312530	0.368443	0.238314
70	0.522667	0.098458	0.285109	0.256464	0.198812	0.168407	0.601059	0.348948	0.137328	0.065655	0.452852	0.934770	0.409540	0.118270	0.464739	0.100433	0.169751	0.196350	0.252185	0.383156	0.180307	0.108175	0.454112	0.197158	1.019034	1.268146	0.435267	0.248368	0.290381	0.229926	0.347553	0.331633	0.338037	0.304991	0.675078	0.322236	0.516069	0.322316	0.377286	0.225348
71	0.523819	0.095952	0.295967	0.263985	0.215107	0.170642	0.597157	0.284463	0.126311	0.057775	0.409774	0.793739	0.419172	0.123140	0.463086	0.100726	0.157476	0.196087	0.221664	0.379662	0.180335	0.112493	0.455682	0.222992	1.020312	1.270567	0.386005	0.216948	0.302724	0.242674	0.310376	0.286126	0.338119	0.308122	0.666727	0.314100	0.577903	0.334655	0.377957	0.224267
72	0.521541	0.095774	0.368893	0.350222	0.210325	0.170201	0.558716	0.235826	0.076122	0.037151	0.371774	0.433362	0.425743	0.210360	0.485618	0.099352	0.161443	0.196218	0.259933	0.365825	0.184595	0.116355	0.468597	0.268560	1.029249	1.282213	0.373943	0.176698	0.304932	0.263068	0.298558	0.267754	0.338753	0.308244	0.626455	0.278477	0.626097	0.343552	0.350903	0.208714
73	0.507125	0.084159	0.532547	0.464480	0.204814	0.165526	0.492568	0.220560	0.094373	0.034713	0.310383	0.165200	0.430150	0.214243	0.489231	0.085325	0.187701	0.208286	0.329165	0.360889	0.185560	0.116418	0.501165	0.308583	1.031149	1.289914	0.362514	0.158576	0.303345	0.276919	0.297464	0.271473	0.338964	0.308960	0.553681	0.264554	0.641675	0.346360	0.289720	0.171208
74	0.481389	0.057138	0.674787	0.505610	0.183993	0.148172	0.469410	0.290585	0.090981	0.033159	0.204305	0.106027	0.406644	0.213808	0.503774	0.078687	0.170758	0.192511	0.347865	0.365604	0.185596	0.116277	0.524416	0.335570	1.027469	1.291959	0.359895	0.163776	0.300659	0.278727	0.298557	0.275971	0.336918	0.308773	0.539095	0.292565	0.646514	0.350495	0.270109	0.146099
75	0.465741	0.051528	0.692818	0.502193	0.194169	0.169007	0.468981	0.386609	0.089841	0.034873	0.200456	0.202508	0.376058	0.209136	0.498196	0.087796	0.159913	0.172996	0.350858	0.390801	0.189421	0.118061	0.517329	0.338324	1.025375	1.292193	0.358174	0.184516	0.299943	0.290574	0.376443	0.271679	0.316195	0.297942	0.539754	0.313994	0.646929	0.342969	0.278051	0.144468
76	0.442908	0.059434	0.715245	0.563310	0.195220	0.171334	0.471170	0.471063	0.089152	0.029725	0.249506	0.314613	0.363200	0.211827	0.511162	0.175019	0.246988	0.167600	0.398483	0.465883	0.197623	0.121069	0.503790	0.337991	1.025147	1.292222	0.336549	0.195760	0.301468	0.298853	0.472842	0.276490	0.297241	0.271972	0.402073	0.291655	0.646514	0.253838	0.286088	0.147920
77	0.417950	0.064291	0.864907	0.699208	0.210876	0.178787	0.476239	0.501783	0.112237	0.055380	0.245821	0.370903	0.365597	0.218920	0.510416	0.349423	0.284924	0.160563	0.485411	0.520756	0.189710	0.123453	0.502285	0.337167	1.025513	1.292728	0.319768	0.197461	0.300764	0.314240	0.528382	0.320255	0.302774	0.260852	0.323668	0.267584	0.640324	0.244926	0.292075	0.216972
78	0.410164	0.090912	1.001228	0.790387	0.251726	0.189376	0.476769	0.501683	0.150517	0.091698	0.333461	0.412403	0.368043	0.231292	0.578703	0.419657	0.290835	0.161833	0.549236	0.521810	0.183726	0.122102	0.504135	0.338164	1.012973	1.281707	0.364598	0.219037	0.299692	0.316439	0.539323	0.332248	0.305741	0.261062	0.314274	0.256286	0.608382	0.244519	0.300254	0.311924
79	0.350862	0.112544	1.059085	0.814328	0.270799	0.195014	0.500960	0.509705	0.145624	0.094187	0.370016	0.466573	0.356871	0.249728	0.700547	0.425613	0.288868	0.181655	0.564976	0.504954	0.175175	0.121200	0.477986	0.335294	0.956062	1.174777	0.399579	0.258665	0.305298	0.319469	0.533929	0.314625	0.237324	0.214613	0.325169	0.254187	0.556293	0.240539	0.344291	0.364430
80	0.324027	0.122814	1.071116	0.816517	0.301383	0.201201	0.506817	0.536279	0.130845	0.092604	0.377285	0.736837	0.299532	0.259072	0.742245	0.432927	0.288200	0.182427	0.563084	0.469974	0.163998	0.120150	0.410475	0.318886	0.910950	0.956839	0.355749	0.273609	0.326100	0.319969	0.518458	0.298709	0.181807	0.269539	0.338004	0.252986	0.513963	0.232460	0.430181	0.375641
81	0.330234	0.122530	1.069224	0.815226	0.308118	0.200845	0.524945	0.577298	0.131815	0.092261	0.386774	0.883790	0.255765	0.256926	0.730466	0.457368	0.288283	0.175047	0.560469	0.487859	0.159302	0.120307	0.398130	0.326778	0.855540	0.903714	0.341915	0.274584	0.352958	0.305645	0.533608	0.293608	0.184466	0.251985	0.338545	0.253655	0.492010	0.231819	0.475561	0.374307
82	0.335134	0.121688	1.054801	0.809338	0.305731	0.200243	0.555710	0.608179	0.142197	0.119935	0.395177	0.856761	0.234668	0.256044	0.833913	0.500428	0.288435	0.190971	0.559703	0.524145	0.157259	0.121787	0.406499	0.346595	0.407469	0.512073	0.348712	0.273118	0.380678	0.283139	0.573786	0.295766	0.183668	0.245070	0.335156	0.256279	0.495164	0.227494	0.480127	0.376463
83	0.351410	0.125108	1.012474	0.808386	0.302996	0.201179	0.570298	0.612580	0.149622	0.137949	0.393715	0.907430	0.216769	0.257481	0.957340	0.535635	0.288481	0.207546	0.538485	0.539755	0.159845	0.128486	0.432891	0.369581	0.275982	0.266445	0.358401	0.268622	0.380206	0.263937	0.620204	0.294846	0.181668	0.247680	0.334782	0.256184	0.506312	0.225005	0.476566	0.390489
84	0.373328	0.139155	0.953442	0.795216	0.315550	0.206196	0.561628	0.610267	0.144166	0.138893	0.462822	1.055705	0.208194	0.214957	1.022257	0.551525	0.275441	0.211325	0.510374	0.541302	0.160751	0.127559	0.460702	0.374928	0.233152	0.265342	0.384805	0.275591	0.354224	0.228843	0.642329	0.294553	0.181518	0.261328	0.335161	0.252642	0.510716	0.219330	0.484240	0.416746
85	0.371051	0.151690	1.017565	0.871537	0.320578	0.208023	0.558793	0.604706	0.156948	0.206565	0.479519	1.094820	0.204732	0.200352	1.024086	0.556470	0.271389	0.221215	0.513551	0.539669	0.156185	0.125120	0.466040	0.346120	0.231985	0.248007	0.413007	0.285254	0.356083	0.217105	0.643224	0.296116	0.180007	0.260915	0.326331	0.236330	0.467702	0.202015	0.495445	0.438251
86	0.349015	0.151949	1.111191	0.879320	0.328286	0.199255	0.557825	0.566475	0.186709	0.217430	0.539547	1.022979	0.215741	0.199316	1.020141	0.556778	0.269287	0.227168	0.517331	0.526602	0.155368	0.125247	0.442520	0.309783	0.187019	0.176076	0.460180	0.286151	0.365530	0.188736	0.642308	0.298048	0.174496	0.262718	0.307441	0.185678	0.416062	0.177878	0.501724	0.445381
87	0.336772	0.150064	1.102554	0.813669	0.329673	0.178273	0.561664	0.500449	0.229971	0.239517	0.859041	0.947315	0.224316	0.194679	1.018616	0.560576	0.197885	0.218606	0.491786	0.470148	0.173099	0.126505	0.409974	0.294448	0.171194	0.115511	0.485019	0.285366	0.384883	0.179739	0.642055	0.291976	0.162392	0.279283	0.266570	0.147033	0.388157	0.155293	0.510863	0.446979
88	0.361406	0.146959	0.976077	0.738019	0.339314	0.169557	0.557882	0.439903	0.236501	0.258137	0.871877	0.933440	0.223568	0.191759	1.018718	0.569961	0.118416	0.217823	0.418140	0.379795	0.169593	0.128682	0.405360	0.308419	0.170757	0.095138	0.488361	0.278779	0.392799	0.166215	0.620697	0.278817	0.151226	0.300619	0.203622	0.134790	0.384374	0.134560	0.514821	0.446525
89	0.350735	0.130731	0.907015	0.716554	0.330262	0.160967	0.570902	0.432080	0.251104	0.289289	0.906153	0.916094	0.208929	0.187355	1.035932	0.529197	0.091477	0.221145	0.296085	0.318372	0.165743	0.150367	0.429162	0.313082	0.171468	0.093268	0.485684	0.272000	0.393679	0.148653	0.555830	0.265725	0.131239	0.306219	0.164229	0.134965	0.383025	0.118194	0.513028	0.446591
90	0.311031	0.125147	0.939478	0.711849	0.297786	0.124579	0.703532	0.451644	0.295894	0.317831	0.886271	0.735314	0.186115	0.174800	1.057025	0.453858	0.106379	0.218741	0.240632	0.288598	0.160372	0.151901	0.437269	0.313964	0.172004	0.092869	0.479025	0.279610	0.392996	0.124804	0.476800	0.226625	0.107507	0.306100	0.155964	0.128384	0.384592	0.113975	0.507288	0.447540
91	0.288992	0.133004	0.955134	0.715733	0.277320	0.109093	0.785955	0.446530	0.279704	0.286877	0.850384	0.601660	0.188965	0.156724	1.003026	0.434164	0.141164	0.222877	0.233797	0.297379	0.165195	0.160307	0.435815	0.318050	0.169960	0.082741	0.476693	0.292444	0.393125	0.095099	0.427351	0.168189	0.113406	0.288508	0.130775	0.107788	0.385979	0.116020	0.499703	0.441285
92	0.305794	0.189894	0.956777	0.707166	0.241164	0.099525	0.772778	0.405491	0.262956	0.269891	0.861573	0.744534	0.208540	0.130829	0.924651	0.435150	0.172287	0.227095	0.235539	0.312273	0.164008	0.164248	0.445905	0.314513	0.159111	0.054959	0.434854	0.281556	0.391240	0.100607	0.413608	0.157585	0.111851	0.256599	0.141101	0.096445	0.385844	0.121028	0.507070	0.394315
93	0.347783	0.249371	0.958225	0.701323	0.249982	0.108071	0.738674	0.357459	0.248151	0.284000	0.636878	0.632592	0.216294	0.123323	0.910328	0.424266	0.180632	0.212354	0.267253	0.277371	0.187512	0.162822	0.452914	0.311702	0.151760	0.042992	0.384167	0.247594	0.363465	0.110840	0.411600	0.169405	0.119369	0.268705	0.170241	0.092113	0.385361	0.162689	0.506684	0.319349
94	0.387853	0.278931	0.976290	0.736331	0.260960	0.110842	0.741497	0.351787	0.240996	0.274697	0.522633	0.608145	0.217075	0.123164	0.848098	0.383403	0.180065	0.196339	0.316887	0.238144	0.257610	0.189729	0.442975	0.327396	0.147634	0.062452	0.385997	0.233666	0.311307	0.150662	0.406418	0.176529	0.151345	0.278706	0.177109	0.091795	0.383254	0.175835	0.472155	0.276601
95	0.374461	0.277369	0.925379	0.709814	0.256305	0.105581	0.812021	0.396589	0.230668	0.227881	0.573144	0.735928	0.216048	0.122351	0.718199	0.322198	0.196140	0.184571	0.318350	0.230651	0.302756	0.261244	0.435472	0.361930	0.147354	0.111850	0.406403	0.275301	0.245206	0.149161	0.364995	0.180845	0.154417	0.269340	0.187058	0.102738	0.375025	0.176659	0.399613	0.283992
96	0.394220	0.274560	0.846835	0.643184	0.242119	0.098926	0.862446	0.432315	0.169500	0.183808	0.705597	0.779310	0.213377	0.116724	0.563859	0.280841	0.201763	0.174451	0.289919	0.241567	0.303245	0.257224	0.407832	0.342909	0.148839	0.155345	0.435531	0.372792	0.206694	0.152734	0.319719	0.186682	0.154482	0.264621	0.202010	0.184000	0.350923	0.176746	0.369432	0.301475
97	0.415085	0.277843	0.761602	0.744783	0.250863	0.109829	0.871728	0.436220	0.153453	0.171616	0.750091	0.773885	0.202257	0.107759	0.493365	0.265339	0.200230	0.166501	0.313839	0.270918	0.304668	0.256801	0.381362	0.323333	0.154252	0.164294	0.478059	0.458530	0.209063	0.159462	0.256421	0.189719	0.153298	0.266361	0.249419	0.277193	0.321386	0.181247	0.373971	0.304932
98	0.408963	0.277288	0.788986	0.827518	0.266031	0.123703	0.870081	0.467758	0.154109	0.169285	0.705287	0.667619	0.180020	0.109535	0.459265	0.263562	0.202070	0.169269	0.347726	0.282891	0.306946	0.271911	0.349842	0.323018	0.155536	0.164486	0.509836	0.487552	0.211141	0.164858	0.247596	0.221446	0.170479	0.260928	0.367538	0.305682	0.293578	0.184475	0.368946	0.287588
99	0.395276	0.277640	0.876793	0.864899	0.262508	0.128591	0.880689	0.575340	0.155309	0.152237	0.725746	0.645364	0.163832	0.175406	0.460570	0.267202	0.200416	0.166847	0.356409	0.285446	0.308180	0.274000	0.338214	0.326711	0.165304	0.167479	0.513464	0.483002	0.194938	0.170902	0.280225	0.275866	0.206933	0.239994	0.432812	0.304814	0.287420	0.177831	0.321150	0.247291
100	0.413192	0.280088	0.910285	0.859054	0.246246	0.124237	0.934132	0.607590	0.133665	0.113394	0.727510	0.669279	0.157329	0.189106	0.459315	0.275055	0.196744	0.162886	0.356278	0.286876	0.296001	0.276571	0.336544	0.319338	0.182090	0.176357	0.475420	0.486548	0.156366	0.173062	0.337705	0.314109	0.210372	0.216183	0.439608	0.317760	0.280102	0.204662	0.282370	0.215613
101	0.442931	0.280802	0.926559	0.862778	0.240406	0.122918	0.940300	0.595807	0.118406	0.087165	0.733211	0.573172	0.162375	0.187576	0.435947	0.254394	0.190503	0.153427	0.355694	0.291197	0.292948	0.275004	0.294151	0.305249	0.188870	0.190220	0.462162	0.512887	0.125923	0.171567	0.380680	0.321462	0.210169	0.217838	0.509313	0.361565	0.235313	0.248466	0.295265	0.206795
