	222_C_T1_sh_ND_02.c3d	222_C_T1_sh_ND_02.c3d	222_C_T1_sh_ND_02.c3d	222_C_T1_sh_ND_02.c3d	222_C_T1_sh_ND_02.c3d	222_C_T1_sh_ND_02.c3d	222_C_T1_sh_ND_02.c3d	222_C_T1_sh_ND_02.c3d	222_C_T1_sh_ND_04.c3d	222_C_T1_sh_ND_04.c3d	222_C_T1_sh_ND_04.c3d	222_C_T1_sh_ND_04.c3d	222_C_T1_sh_ND_04.c3d	222_C_T1_sh_ND_04.c3d	222_C_T1_sh_ND_04.c3d	222_C_T1_sh_ND_04.c3d	222_C_T1_sh_ND_06.c3d	222_C_T1_sh_ND_06.c3d	222_C_T1_sh_ND_06.c3d	222_C_T1_sh_ND_06.c3d	222_C_T1_sh_ND_06.c3d	222_C_T1_sh_ND_06.c3d	222_C_T1_sh_ND_06.c3d	222_C_T1_sh_ND_06.c3d	222_C_T1_sh_ND_08.c3d	222_C_T1_sh_ND_08.c3d	222_C_T1_sh_ND_08.c3d	222_C_T1_sh_ND_08.c3d	222_C_T1_sh_ND_08.c3d	222_C_T1_sh_ND_08.c3d	222_C_T1_sh_ND_08.c3d	222_C_T1_sh_ND_08.c3d	222_C_T1_sh_ND_09.c3d	222_C_T1_sh_ND_09.c3d	222_C_T1_sh_ND_09.c3d	222_C_T1_sh_ND_09.c3d	222_C_T1_sh_ND_09.c3d	222_C_T1_sh_ND_09.c3d	222_C_T1_sh_ND_09.c3d	222_C_T1_sh_ND_09.c3d
	Biceps femoris_lat	Semitendinosus_lat	Vastus lateralis_lat	Vastus medialis_lat	Biceps femoris_med	Semitendinosus_med	Vastus lateralis_med	Vastus medialis_med	Biceps femoris_lat	Semitendinosus_lat	Vastus lateralis_lat	Vastus medialis_lat	Biceps femoris_med	Semitendinosus_med	Vastus lateralis_med	Vastus medialis_med	Biceps femoris_lat	Semitendinosus_lat	Vastus lateralis_lat	Vastus medialis_lat	Biceps femoris_med	Semitendinosus_med	Vastus lateralis_med	Vastus medialis_med	Biceps femoris_lat	Semitendinosus_lat	Vastus lateralis_lat	Vastus medialis_lat	Biceps femoris_med	Semitendinosus_med	Vastus lateralis_med	Vastus medialis_med	Biceps femoris_lat	Semitendinosus_lat	Vastus lateralis_lat	Vastus medialis_lat	Biceps femoris_med	Semitendinosus_med	Vastus lateralis_med	Vastus medialis_med
	P2D	P2D	P2D	P2D	P2D	P2D	P2D	P2D	P2D	P2D	P2D	P2D	P2D	P2D	P2D	P2D	P2D	P2D	P2D	P2D	P2D	P2D	P2D	P2D	P2D	P2D	P2D	P2D	P2D	P2D	P2D	P2D	P2D	P2D	P2D	P2D	P2D	P2D	P2D	P2D
	EMG_lat	EMG_lat	EMG_lat	EMG_lat	EMG_med	EMG_med	EMG_med	EMG_med	EMG_lat	EMG_lat	EMG_lat	EMG_lat	EMG_med	EMG_med	EMG_med	EMG_med	EMG_lat	EMG_lat	EMG_lat	EMG_lat	EMG_med	EMG_med	EMG_med	EMG_med	EMG_lat	EMG_lat	EMG_lat	EMG_lat	EMG_med	EMG_med	EMG_med	EMG_med	EMG_lat	EMG_lat	EMG_lat	EMG_lat	EMG_med	EMG_med	EMG_med	EMG_med
ITEM	Y	Y	Y	Y	Y	Y	Y	Y	Y	Y	Y	Y	Y	Y	Y	Y	Y	Y	Y	Y	Y	Y	Y	Y	Y	Y	Y	Y	Y	Y	Y	Y	Y	Y	Y	Y	Y	Y	Y	Y
1	0.131456	0.088203	0.760984	0.234240	0.144793	0.122648	0.613132	0.213050	0.153208	0.114859	0.449309	0.262164	0.132126	0.060747	0.536105	0.123017	0.082953	0.087470	0.470084	0.399246	0.192744	0.116314	0.769821	0.267349	0.140820	0.144876	0.502654	0.200510	0.070369	0.103925	0.274614	0.193381	0.067574	0.047078	0.355599	0.260787	0.112783	0.085859	0.392164	0.394243
2	0.124899	0.084296	0.740505	0.219227	0.118946	0.108383	0.583335	0.219626	0.144290	0.114507	0.449753	0.224651	0.124104	0.060586	0.566406	0.209825	0.091869	0.093179	0.442342	0.388660	0.174053	0.118781	0.796721	0.251028	0.137626	0.140024	0.504184	0.185468	0.073494	0.102119	0.273186	0.186404	0.064523	0.048652	0.300253	0.306550	0.113095	0.089715	0.371484	0.394312
3	0.121030	0.083285	0.678172	0.218514	0.110361	0.061809	0.552271	0.207868	0.143384	0.111572	0.488604	0.190086	0.094058	0.061769	0.629886	0.253075	0.095582	0.095558	0.440731	0.373319	0.165320	0.118665	0.804852	0.227241	0.115559	0.116999	0.593296	0.294963	0.067893	0.084738	0.244917	0.178892	0.064998	0.050539	0.295380	0.361164	0.129340	0.097707	0.394912	0.397877
4	0.120197	0.084885	0.620563	0.214722	0.108135	0.055157	0.526563	0.205261	0.117186	0.092675	0.546053	0.193635	0.081700	0.064145	0.663100	0.277031	0.095406	0.095355	0.439900	0.357756	0.158768	0.118607	0.804183	0.185128	0.101975	0.046522	0.661860	0.375447	0.062918	0.081657	0.228163	0.196607	0.067427	0.053259	0.343294	0.402795	0.140280	0.101428	0.371404	0.402843
5	0.113473	0.084882	0.569141	0.209153	0.078580	0.040354	0.510242	0.206849	0.096360	0.088960	0.559970	0.196329	0.079183	0.064680	0.676974	0.278970	0.095928	0.090998	0.444667	0.387606	0.162542	0.123319	0.789350	0.168259	0.097206	0.047218	0.695606	0.368204	0.077266	0.079138	0.230471	0.220437	0.077992	0.062868	0.368071	0.422259	0.139962	0.101302	0.371289	0.401780
6	0.112201	0.083020	0.559265	0.199309	0.073635	0.039447	0.509685	0.208280	0.090137	0.093274	0.559496	0.176994	0.087690	0.063034	0.681900	0.308487	0.094213	0.080806	0.442739	0.462560	0.165759	0.122602	0.779193	0.172770	0.089093	0.050236	0.703435	0.384480	0.083946	0.079833	0.232669	0.214272	0.089679	0.071995	0.361279	0.423317	0.134071	0.097988	0.368267	0.399552
7	0.106527	0.071924	0.548045	0.197396	0.067610	0.040850	0.489801	0.210283	0.092129	0.087959	0.561157	0.175140	0.094988	0.059534	0.681800	0.359003	0.091074	0.067643	0.438268	0.525517	0.149368	0.112393	0.761088	0.171300	0.079259	0.050280	0.707605	0.444973	0.086698	0.079687	0.242844	0.204799	0.094025	0.075035	0.383370	0.430158	0.123784	0.094713	0.371451	0.400604
8	0.098589	0.057941	0.480121	0.186790	0.061790	0.040880	0.444761	0.204699	0.080399	0.078572	0.561430	0.170542	0.091674	0.051188	0.695168	0.415755	0.092803	0.067385	0.437310	0.578621	0.131007	0.101027	0.740782	0.166911	0.077997	0.055955	0.709543	0.519526	0.094279	0.076479	0.242712	0.212193	0.093848	0.075269	0.465888	0.439017	0.123520	0.094866	0.374415	0.402692
9	0.109861	0.058289	0.432729	0.185207	0.067197	0.041322	0.448050	0.210008	0.078342	0.075645	0.561756	0.177574	0.085467	0.041681	0.745160	0.442932	0.100562	0.076624	0.490883	0.594255	0.131688	0.102496	0.740219	0.160350	0.079411	0.060803	0.713792	0.561579	0.107117	0.075989	0.252597	0.231789	0.096358	0.079519	0.517283	0.446759	0.121985	0.088469	0.367041	0.402051
10	0.115009	0.058521	0.461186	0.191962	0.072936	0.041998	0.475403	0.197119	0.078935	0.074724	0.541363	0.168274	0.077011	0.036086	0.814598	0.446347	0.108721	0.084053	0.548297	0.568298	0.131894	0.106993	0.729940	0.166056	0.085727	0.065150	0.673166	0.570329	0.108143	0.082684	0.233268	0.238839	0.103618	0.085999	0.537085	0.452706	0.129467	0.081551	0.304925	0.402004
11	0.097873	0.054165	0.431994	0.188544	0.075630	0.042077	0.496823	0.171174	0.079037	0.074634	0.467628	0.157986	0.079352	0.039399	0.846816	0.447694	0.114997	0.086828	0.555955	0.563721	0.126807	0.110867	0.692370	0.167037	0.090943	0.065430	0.603772	0.574017	0.107360	0.089185	0.221713	0.232807	0.110105	0.090251	0.545416	0.451539	0.139389	0.079816	0.276485	0.401705
12	0.092596	0.058696	0.372121	0.172835	0.084456	0.044406	0.550032	0.167327	0.079911	0.077357	0.419627	0.156013	0.081973	0.040096	0.876595	0.449707	0.115812	0.087198	0.554767	0.582140	0.125739	0.110703	0.618566	0.162871	0.096766	0.065413	0.587624	0.576162	0.106359	0.089322	0.271438	0.211469	0.112191	0.089194	0.543627	0.447079	0.142552	0.077873	0.312380	0.380752
13	0.106179	0.078161	0.378753	0.181046	0.113287	0.052764	0.590453	0.168677	0.076775	0.076038	0.391017	0.149220	0.083054	0.040549	0.918219	0.452061	0.118175	0.090904	0.575306	0.617555	0.115406	0.097786	0.614682	0.162246	0.129849	0.076865	0.604215	0.575754	0.104596	0.084788	0.286333	0.217925	0.111459	0.086566	0.540626	0.449296	0.142137	0.071154	0.367997	0.319175
14	0.108237	0.084775	0.369552	0.198110	0.123175	0.051953	0.592211	0.176655	0.075532	0.073180	0.383162	0.146613	0.083683	0.045833	0.913110	0.450016	0.119190	0.093347	0.595283	0.650725	0.100833	0.083732	0.560742	0.160840	0.187437	0.107800	0.594901	0.579804	0.110580	0.076060	0.271405	0.221877	0.110650	0.085932	0.540636	0.452755	0.142349	0.066943	0.400319	0.243014
15	0.110312	0.099577	0.357603	0.208693	0.126043	0.056640	0.622055	0.165927	0.074822	0.072639	0.395420	0.144989	0.083502	0.058185	0.850883	0.424407	0.122192	0.094095	0.602520	0.668089	0.098303	0.078105	0.463564	0.156987	0.230861	0.139130	0.483659	0.564751	0.114846	0.071845	0.272189	0.229288	0.110363	0.087698	0.538399	0.455184	0.151679	0.073141	0.417161	0.204053
16	0.116315	0.118097	0.347884	0.209307	0.143394	0.072141	0.769132	0.166943	0.083145	0.073348	0.372296	0.132076	0.083573	0.061249	0.790423	0.404532	0.132983	0.095740	0.615973	0.673761	0.102055	0.078648	0.441717	0.165084	0.250839	0.155414	0.435433	0.593140	0.123335	0.070240	0.273307	0.229619	0.108965	0.089599	0.534863	0.454788	0.151686	0.067432	0.406329	0.203924
17	0.127775	0.130653	0.360951	0.211791	0.147392	0.075639	0.882403	0.202754	0.089813	0.072642	0.314563	0.134243	0.086982	0.058969	0.748389	0.395650	0.139516	0.094273	0.643257	0.676891	0.103970	0.083568	0.455626	0.171528	0.250878	0.156342	0.455010	0.607939	0.133839	0.069194	0.269172	0.216358	0.107570	0.090897	0.533435	0.458496	0.146079	0.063159	0.390299	0.201909
18	0.129059	0.130767	0.399138	0.209475	0.144142	0.074678	0.913545	0.214318	0.087178	0.068124	0.301928	0.211494	0.095244	0.057048	0.738735	0.395271	0.140661	0.091364	0.651226	0.679476	0.114663	0.091559	0.465004	0.163367	0.258262	0.156536	0.461271	0.582854	0.127743	0.068401	0.260817	0.186210	0.107472	0.091010	0.533037	0.462692	0.137257	0.082937	0.451237	0.195890
19	0.135076	0.133463	0.442230	0.207104	0.143230	0.075158	0.916429	0.213665	0.080236	0.063779	0.359712	0.247808	0.090338	0.057400	0.733280	0.375488	0.142547	0.090793	0.650381	0.680210	0.104793	0.087007	0.415739	0.168056	0.278682	0.159100	0.470608	0.533259	0.131512	0.067238	0.261804	0.171402	0.107676	0.090037	0.530316	0.449250	0.137419	0.097456	0.477066	0.188670
20	0.144208	0.137095	0.432193	0.208541	0.143705	0.075266	0.917265	0.212871	0.085043	0.069063	0.384096	0.257970	0.082131	0.066174	0.730757	0.329962	0.143649	0.090988	0.642513	0.673653	0.114833	0.092661	0.362343	0.180404	0.303699	0.159018	0.546742	0.504475	0.155434	0.069781	0.255671	0.172559	0.111961	0.090773	0.516112	0.412863	0.139933	0.101461	0.478218	0.185564
21	0.145632	0.137284	0.425914	0.209179	0.143766	0.074844	0.942888	0.213935	0.126569	0.089644	0.402087	0.257816	0.085647	0.074565	0.722713	0.254001	0.145454	0.092600	0.635889	0.645166	0.122574	0.097240	0.360001	0.182259	0.316961	0.159123	0.564413	0.520281	0.166933	0.070792	0.262700	0.165771	0.112894	0.090070	0.485677	0.369192	0.141436	0.106604	0.471404	0.182846
22	0.144208	0.138447	0.429889	0.209982	0.142045	0.074307	0.924592	0.209175	0.170238	0.110510	0.412971	0.267400	0.084826	0.075287	0.674677	0.203926	0.147680	0.094048	0.636881	0.602549	0.120592	0.095814	0.355842	0.171598	0.327089	0.164573	0.544464	0.532912	0.164571	0.070891	0.256309	0.139221	0.109693	0.085525	0.456463	0.337075	0.141206	0.107092	0.465156	0.170992
23	0.149434	0.141346	0.399102	0.224961	0.139540	0.074963	0.880043	0.198916	0.185058	0.117020	0.416103	0.303713	0.090490	0.076212	0.590875	0.205290	0.147789	0.093428	0.637024	0.622365	0.119689	0.091301	0.350901	0.163310	0.330448	0.173239	0.576545	0.535187	0.163403	0.068341	0.287658	0.146891	0.098111	0.075916	0.449947	0.330035	0.139108	0.109282	0.463271	0.174681
24	0.157664	0.142865	0.404360	0.265198	0.138112	0.077345	0.861023	0.197097	0.187115	0.116799	0.436969	0.335839	0.095595	0.076196	0.529885	0.214683	0.146299	0.087932	0.615546	0.689641	0.122035	0.086093	0.324254	0.159273	0.327426	0.183508	0.641378	0.544767	0.163476	0.073111	0.450910	0.245451	0.088981	0.069117	0.443448	0.330956	0.138901	0.113561	0.461226	0.229450
25	0.158896	0.140908	0.402132	0.296435	0.135178	0.077890	0.834839	0.178516	0.189252	0.114223	0.449525	0.352324	0.115829	0.085198	0.438455	0.211258	0.151641	0.078835	0.538973	0.743837	0.125064	0.084131	0.310606	0.155900	0.308259	0.189721	0.625514	0.567676	0.163839	0.081007	0.502733	0.369045	0.088493	0.068194	0.383270	0.325295	0.154341	0.122558	0.456082	0.293478
26	0.155560	0.139694	0.391399	0.301867	0.115045	0.071289	0.804346	0.185000	0.197971	0.118859	0.480122	0.376012	0.146030	0.102897	0.334727	0.205314	0.188866	0.082062	0.477470	0.758690	0.125487	0.087317	0.324115	0.156617	0.283289	0.188720	0.621197	0.546293	0.166760	0.084831	0.492317	0.418474	0.089955	0.066694	0.270648	0.307594	0.170595	0.141285	0.441276	0.343369
27	0.147962	0.143396	0.405838	0.282998	0.100927	0.067982	0.806793	0.192428	0.210730	0.128570	0.519133	0.379651	0.157303	0.110934	0.363293	0.202816	0.234643	0.092385	0.504307	0.742074	0.130848	0.096995	0.327585	0.153064	0.272138	0.192227	0.619165	0.494996	0.179934	0.086623	0.517830	0.418366	0.084455	0.058513	0.231642	0.280102	0.172744	0.149901	0.415804	0.352626
28	0.146301	0.176048	0.453332	0.339739	0.110361	0.065588	0.796767	0.223057	0.216613	0.137306	0.507597	0.405339	0.158696	0.106420	0.382264	0.188795	0.267579	0.097313	0.534600	0.739909	0.139975	0.104108	0.320767	0.168057	0.276887	0.197792	0.605244	0.455032	0.203895	0.088679	0.548060	0.456116	0.077448	0.049866	0.241531	0.261289	0.207993	0.186187	0.473603	0.351142
29	0.146679	0.219629	0.494494	0.484153	0.120805	0.049471	0.670215	0.266654	0.212353	0.142292	0.475081	0.428217	0.170255	0.103703	0.363719	0.178638	0.276323	0.092985	0.514083	0.772902	0.146306	0.108605	0.320303	0.235231	0.274061	0.198683	0.597153	0.443938	0.202134	0.089975	0.608707	0.554597	0.081062	0.049348	0.395720	0.268358	0.225642	0.215463	0.501396	0.371133
30	0.150220	0.270018	0.501373	0.617581	0.171672	0.044518	0.496143	0.277900	0.211305	0.149326	0.469434	0.429213	0.206140	0.110149	0.387423	0.169304	0.273592	0.096002	0.476629	0.828473	0.146259	0.105520	0.300804	0.260717	0.262579	0.201124	0.596465	0.442482	0.209426	0.115436	0.622689	0.638160	0.098784	0.058827	0.453603	0.272935	0.221198	0.222090	0.499452	0.390859
31	0.149106	0.278810	0.495597	0.665148	0.222581	0.048785	0.451681	0.269845	0.211828	0.164191	0.477967	0.395413	0.208078	0.111237	0.426057	0.171116	0.272100	0.101397	0.444306	0.874256	0.136224	0.098873	0.266187	0.267103	0.253426	0.219387	0.576855	0.415280	0.232543	0.140405	0.623548	0.677047	0.119790	0.066121	0.464226	0.266009	0.216155	0.223215	0.504113	0.400194
32	0.146570	0.282805	0.484941	0.671284	0.235898	0.078225	0.489701	0.293556	0.211471	0.172851	0.458158	0.382950	0.214221	0.112884	0.435817	0.169965	0.269666	0.101247	0.395017	0.895798	0.146954	0.112252	0.261957	0.261091	0.275010	0.272894	0.505090	0.363249	0.244573	0.175400	0.629551	0.688993	0.135338	0.065538	0.461690	0.259098	0.218329	0.221500	0.503084	0.408242
33	0.148702	0.287862	0.497424	0.737961	0.239164	0.140838	0.494968	0.340097	0.204647	0.168413	0.459324	0.388817	0.220642	0.109090	0.438478	0.168607	0.268392	0.099400	0.360321	0.899522	0.145525	0.113908	0.277463	0.275503	0.299075	0.350515	0.495232	0.317026	0.238764	0.259567	0.762160	0.690358	0.140571	0.063509	0.471251	0.269864	0.220075	0.218158	0.518508	0.416289
34	0.173502	0.289182	0.521579	0.825941	0.268575	0.178252	0.462593	0.388811	0.184264	0.160288	0.447824	0.393058	0.218453	0.103091	0.551960	0.170780	0.267655	0.097937	0.436996	0.898264	0.139455	0.109552	0.276191	0.336014	0.325025	0.366648	0.499716	0.305711	0.227028	0.298835	0.797444	0.690446	0.141310	0.063540	0.510104	0.279601	0.219546	0.216488	0.526046	0.420816
35	0.216439	0.304787	0.525430	0.890641	0.326057	0.223466	0.431560	0.407119	0.182027	0.164279	0.440616	0.380580	0.224461	0.102558	0.674407	0.169060	0.266469	0.097735	0.455854	0.908191	0.145901	0.106968	0.276012	0.401894	0.348184	0.364133	0.458689	0.285313	0.222083	0.303759	0.793901	0.693348	0.141571	0.064982	0.557248	0.267362	0.220187	0.213608	0.526633	0.421508
36	0.262852	0.318348	0.517100	0.921581	0.395279	0.279003	0.418534	0.417754	0.187343	0.167919	0.437070	0.349716	0.245782	0.101360	0.715530	0.171932	0.265867	0.097758	0.469328	0.974405	0.197736	0.110611	0.280855	0.435907	0.349727	0.371449	0.446044	0.270432	0.221870	0.323902	0.791545	0.703057	0.143148	0.065449	0.620719	0.249348	0.220065	0.213785	0.532082	0.421126
37	0.371874	0.323148	0.500414	0.914581	0.534944	0.377539	0.418554	0.428190	0.188323	0.171876	0.414451	0.336870	0.255219	0.109525	0.715657	0.171477	0.264556	0.096415	0.505359	0.999421	0.217722	0.134078	0.296268	0.448251	0.361931	0.375798	0.445073	0.207764	0.222697	0.349643	0.728662	0.748582	0.140439	0.064436	0.714725	0.245921	0.217557	0.214012	0.563316	0.441871
38	0.427508	0.325936	0.500785	0.903882	0.605702	0.453818	0.414060	0.434279	0.199882	0.171441	0.398427	0.327953	0.254609	0.134450	0.715069	0.168748	0.264243	0.095210	0.530092	0.989512	0.217311	0.172762	0.293712	0.451388	0.360295	0.370586	0.467745	0.189890	0.224421	0.373300	0.675951	0.705293	0.137858	0.066164	0.795177	0.292479	0.208435	0.213151	0.581758	0.457325
39	0.430724	0.345315	0.505139	0.902702	0.607953	0.459374	0.411997	0.429413	0.213851	0.164390	0.348789	0.308777	0.240335	0.149338	0.693509	0.179262	0.265446	0.095173	0.549319	0.933359	0.227356	0.236392	0.279739	0.450860	0.351461	0.364012	0.511680	0.215975	0.225229	0.382867	0.676859	0.669882	0.136879	0.065813	0.826401	0.361970	0.189665	0.207728	0.580401	0.416401
40	0.457827	0.368773	0.493198	0.906550	0.623685	0.473513	0.430468	0.427365	0.214548	0.160428	0.349554	0.303490	0.232545	0.192116	0.658421	0.264790	0.265611	0.095234	0.579762	0.858902	0.241759	0.250990	0.392302	0.450792	0.346589	0.361860	0.544114	0.236913	0.216798	0.387319	0.661648	0.668007	0.136532	0.068155	0.831525	0.404972	0.175086	0.194772	0.574051	0.379933
41	0.497047	0.380869	0.451414	0.900431	0.664317	0.520999	0.422316	0.423606	0.215886	0.163687	0.415965	0.269426	0.231848	0.315064	0.648415	0.440261	0.254034	0.096939	0.635472	0.815136	0.253115	0.248930	0.502768	0.447605	0.345802	0.361385	0.548681	0.240439	0.193332	0.389604	0.638081	0.644922	0.136410	0.080470	0.833875	0.423683	0.172184	0.189853	0.578086	0.372606
42	0.551721	0.371068	0.400004	0.850146	0.714445	0.588456	0.414967	0.424606	0.219539	0.171682	0.431999	0.236612	0.225754	0.425941	0.651278	0.451299	0.222493	0.101682	0.651260	0.807484	0.256591	0.255351	0.502288	0.417970	0.337860	0.355762	0.538298	0.240418	0.188663	0.390362	0.583726	0.566343	0.136109	0.111117	0.852841	0.424614	0.117600	0.146214	0.531053	0.364740
43	0.596812	0.343395	0.365458	0.764887	0.743079	0.645490	0.413659	0.489122	0.220425	0.177158	0.421306	0.220290	0.196488	0.444778	0.639516	0.448738	0.205501	0.128493	0.626557	0.802162	0.263178	0.264806	0.505555	0.404477	0.310589	0.331174	0.513785	0.235059	0.176041	0.384491	0.570244	0.465926	0.134469	0.163237	0.888421	0.419497	0.070483	0.104061	0.513397	0.340087
44	0.618508	0.319726	0.367323	0.682937	0.745878	0.667961	0.383632	0.507279	0.219864	0.171775	0.385272	0.221842	0.189927	0.511752	0.608024	0.445475	0.267659	0.154965	0.602885	0.768383	0.266327	0.264922	0.506910	0.484694	0.269374	0.260095	0.504046	0.233638	0.148508	0.378330	0.573543	0.402130	0.136220	0.188433	0.925290	0.421202	0.066528	0.095490	0.514577	0.315642
45	0.628983	0.320075	0.359385	0.675459	0.746791	0.669476	0.334358	0.494941	0.219861	0.176480	0.372856	0.217626	0.181818	0.561015	0.598238	0.443485	0.307613	0.165655	0.600160	0.687955	0.262479	0.258897	0.492252	0.536971	0.232851	0.199407	0.499846	0.231508	0.141015	0.372217	0.570543	0.379212	0.178103	0.197425	0.945100	0.421155	0.070836	0.113657	0.497014	0.298752
46	0.632893	0.312901	0.359884	0.640906	0.747823	0.659148	0.384747	0.465536	0.218898	0.182963	0.353797	0.206798	0.181495	0.582919	0.605255	0.442681	0.312890	0.163146	0.620284	0.589828	0.260951	0.255771	0.473819	0.528035	0.172729	0.254960	0.446292	0.235097	0.164161	0.329326	0.408747	0.378460	0.320594	0.198867	0.919186	0.416793	0.064386	0.143834	0.437326	0.280754
47	0.630015	0.312240	0.347430	0.530473	0.739982	0.650238	0.468865	0.424364	0.205241	0.177730	0.463290	0.199032	0.195292	0.586730	0.542122	0.442292	0.312110	0.160560	0.756446	0.513538	0.261257	0.255921	0.485649	0.492072	0.162939	0.278527	0.405502	0.234539	0.181366	0.297275	0.373423	0.388670	0.396232	0.196958	0.871673	0.413393	0.062442	0.169620	0.404646	0.267013
48	0.621189	0.303754	0.357205	0.397205	0.718609	0.637408	0.474432	0.404136	0.179802	0.165583	0.553549	0.198482	0.201906	0.588797	0.405451	0.440150	0.316362	0.163429	0.870307	0.479277	0.257216	0.256099	0.507619	0.439086	0.197633	0.322170	0.406045	0.218380	0.185300	0.314240	0.385234	0.386836	0.405589	0.194275	0.864036	0.416538	0.080479	0.186984	0.408293	0.261861
49	0.602411	0.284652	0.366182	0.255917	0.684318	0.626923	0.473141	0.395882	0.172361	0.162278	0.552356	0.187527	0.178670	0.595446	0.352843	0.433529	0.323534	0.171927	0.868201	0.472771	0.222684	0.256580	0.511804	0.402353	0.233655	0.398920	0.395699	0.203092	0.235663	0.326102	0.371567	0.368099	0.400657	0.195533	0.861870	0.418725	0.131564	0.187526	0.419593	0.268438
50	0.566861	0.271662	0.409892	0.211950	0.591965	0.594186	0.504100	0.387876	0.183005	0.163406	0.563766	0.180385	0.161119	0.606339	0.383082	0.429896	0.327654	0.185034	0.837398	0.480357	0.196366	0.249261	0.508887	0.387811	0.231862	0.403292	0.363890	0.176016	0.311282	0.322487	0.360005	0.194635	0.406441	0.207094	0.861855	0.414010	0.167993	0.187942	0.413029	0.290134
51	0.490916	0.270036	0.454838	0.213169	0.507419	0.538611	0.568863	0.379686	0.178600	0.181611	0.572976	0.415294	0.148164	0.629991	0.406136	0.430182	0.329147	0.207755	0.834813	0.438032	0.195650	0.229074	0.506424	0.387233	0.234696	0.402615	0.287714	0.137108	0.350952	0.297325	0.397039	0.153057	0.422962	0.232081	0.847383	0.405468	0.175219	0.187725	0.360492	0.237827
52	0.482831	0.256159	0.479754	0.207054	0.511268	0.539040	0.578245	0.379160	0.160081	0.216189	0.571148	0.679723	0.144981	0.684209	0.432206	0.427108	0.330709	0.227314	0.826632	0.247912	0.188105	0.169529	0.503914	0.391237	0.237662	0.403146	0.267151	0.134220	0.365351	0.283208	0.453886	0.206381	0.440464	0.253212	0.817736	0.399409	0.183410	0.186285	0.373764	0.161753
53	0.474225	0.217781	0.486758	0.238312	0.504772	0.545775	0.562680	0.375348	0.147870	0.245658	0.539020	0.760635	0.143340	0.742890	0.438246	0.388866	0.333347	0.245907	0.813910	0.183777	0.173323	0.147355	0.432421	0.392525	0.237697	0.403176	0.288567	0.131187	0.363428	0.290884	0.471418	0.270325	0.453942	0.265910	0.779755	0.402571	0.208146	0.185844	0.482191	0.173102
54	0.457292	0.178772	0.492595	0.284937	0.461729	0.535632	0.567054	0.365657	0.153630	0.272126	0.571731	0.768094	0.148420	0.738296	0.432993	0.161426	0.346309	0.269270	0.802459	0.179185	0.147573	0.204996	0.259834	0.390186	0.246486	0.406933	0.308860	0.145101	0.369044	0.317910	0.472533	0.295006	0.460341	0.272826	0.710629	0.412352	0.255896	0.186268	0.592897	0.198189
55	0.437001	0.148114	0.542089	0.290341	0.379955	0.478656	0.577570	0.338283	0.185183	0.282114	0.763341	0.790426	0.158187	0.677192	0.432436	0.109674	0.365398	0.289624	0.784054	0.211689	0.131666	0.289859	0.256153	0.386311	0.279857	0.416421	0.327691	0.157577	0.387552	0.349007	0.477796	0.301708	0.462591	0.274282	0.607060	0.407034	0.294814	0.188140	0.627275	0.234555
56	0.408648	0.132694	0.612990	0.365535	0.291467	0.396371	0.583971	0.200590	0.202718	0.279037	0.880578	0.870690	0.160194	0.669745	0.433570	0.111284	0.375308	0.298434	0.751461	0.254326	0.129470	0.340602	0.253455	0.381749	0.306646	0.420953	0.360543	0.188189	0.405242	0.375486	0.473925	0.302646	0.463232	0.274640	0.536658	0.355333	0.299959	0.207042	0.608523	0.275387
57	0.402525	0.133160	0.624244	0.497559	0.241165	0.357428	0.591934	0.118150	0.206890	0.276416	0.895398	0.966713	0.164628	0.633624	0.431987	0.115756	0.376798	0.298292	0.717676	0.285165	0.143528	0.365614	0.261851	0.295893	0.309193	0.401911	0.375448	0.207524	0.416780	0.394150	0.471714	0.302821	0.463251	0.274624	0.536467	0.295228	0.302504	0.234558	0.633092	0.319850
58	0.407143	0.135268	0.640694	0.607726	0.221800	0.372355	0.585016	0.119422	0.226879	0.297671	1.009726	1.026155	0.172705	0.607804	0.434063	0.136674	0.371438	0.291006	0.730009	0.292128	0.155820	0.369352	0.277654	0.154305	0.307751	0.361494	0.375730	0.203775	0.422117	0.403041	0.478491	0.301868	0.464314	0.272973	0.562809	0.248826	0.312334	0.257959	0.658502	0.353026
59	0.410560	0.133488	0.666893	0.654997	0.215476	0.401032	0.554878	0.120968	0.237543	0.328782	1.100917	1.052365	0.165900	0.613934	0.423261	0.188029	0.345650	0.276585	0.750936	0.291999	0.152835	0.369741	0.283297	0.162712	0.299464	0.349408	0.382506	0.202247	0.412479	0.406373	0.474161	0.314110	0.466810	0.268085	0.556207	0.228572	0.325986	0.268096	0.661301	0.353902
60	0.419694	0.135096	0.718579	0.657569	0.216324	0.427886	0.495044	0.119646	0.240791	0.356175	1.070961	1.057896	0.149624	0.642317	0.404395	0.253546	0.279521	0.267021	0.771465	0.284857	0.151624	0.370785	0.271675	0.163849	0.240406	0.220064	0.387317	0.198394	0.403554	0.401610	0.420387	0.336031	0.467642	0.247801	0.510303	0.225280	0.351133	0.275043	0.661971	0.355746
61	0.432587	0.137722	0.750979	0.670350	0.223193	0.450112	0.504738	0.127113	0.239702	0.374287	1.066808	1.059026	0.135877	0.671493	0.437939	0.287926	0.253471	0.266298	0.777718	0.282967	0.157377	0.373983	0.229437	0.169321	0.220761	0.154211	0.380192	0.232250	0.410092	0.387299	0.405763	0.354662	0.467348	0.220378	0.432263	0.231040	0.362413	0.274092	0.657593	0.361401
62	0.433899	0.137710	0.779005	0.696539	0.238414	0.452312	0.556278	0.127288	0.236697	0.382558	1.082281	1.059653	0.132470	0.690214	0.508014	0.289748	0.267978	0.272506	0.748937	0.283037	0.162146	0.381793	0.250752	0.182267	0.226900	0.155288	0.376547	0.233027	0.401365	0.361705	0.434413	0.362842	0.463157	0.208356	0.354170	0.236978	0.362499	0.269812	0.649782	0.363290
63	0.445863	0.138679	0.766322	0.705821	0.250444	0.445689	0.577100	0.119023	0.230923	0.382553	1.093172	1.052915	0.130309	0.698157	0.610213	0.293743	0.287692	0.281551	0.559179	0.283940	0.162220	0.396142	0.288211	0.192008	0.225470	0.154382	0.352886	0.227675	0.357260	0.338649	0.466412	0.363287	0.414261	0.203953	0.317058	0.241827	0.352126	0.271018	0.643565	0.356275
64	0.475368	0.170366	0.742451	0.708586	0.248641	0.451252	0.511318	0.117811	0.228237	0.372264	1.098244	0.944243	0.128509	0.687122	0.677679	0.296886	0.289254	0.293634	0.462842	0.288813	0.161545	0.409987	0.301397	0.192426	0.242322	0.159257	0.348986	0.227845	0.320547	0.336810	0.463990	0.360692	0.306261	0.204152	0.313692	0.242780	0.342209	0.270470	0.643358	0.337657
65	0.519502	0.227027	0.728821	0.713620	0.233314	0.457855	0.496345	0.119579	0.230291	0.353448	1.098422	0.798570	0.129870	0.644726	0.679511	0.296965	0.289224	0.303677	0.453034	0.291352	0.160054	0.419977	0.304127	0.192058	0.284277	0.179363	0.346815	0.288575	0.304695	0.358346	0.454141	0.345722	0.256759	0.206467	0.301200	0.226278	0.342101	0.269633	0.650649	0.333472
66	0.557635	0.251319	0.722062	0.710334	0.212732	0.458673	0.507254	0.121475	0.230856	0.346105	1.097011	0.757186	0.138389	0.581377	0.677048	0.296584	0.293024	0.314430	0.443731	0.278590	0.151884	0.426606	0.303920	0.190218	0.282853	0.179179	0.343395	0.468095	0.342162	0.361068	0.432185	0.308357	0.252425	0.208095	0.298295	0.218724	0.355742	0.271976	0.626995	0.333037
67	0.581196	0.256185	0.733231	0.701710	0.274959	0.463850	0.527660	0.152237	0.243499	0.410322	1.056011	0.764324	0.154227	0.556919	0.689256	0.297035	0.294989	0.323364	0.450720	0.277749	0.147008	0.415696	0.305912	0.197041	0.249428	0.159288	0.319741	0.584203	0.400369	0.337421	0.442887	0.289315	0.245113	0.203228	0.295248	0.224263	0.381691	0.277181	0.541527	0.327061
68	0.574762	0.251715	0.753840	0.710569	0.385679	0.484152	0.532556	0.192835	0.259207	0.489116	0.919645	0.727207	0.151818	0.603142	0.700977	0.299923	0.297911	0.343525	0.437454	0.287433	0.145374	0.366535	0.321060	0.244543	0.249455	0.152921	0.313104	0.610375	0.461968	0.304006	0.450663	0.281818	0.221352	0.182107	0.295740	0.225046	0.360629	0.277887	0.407612	0.313258
69	0.548666	0.246814	0.730758	0.712700	0.481866	0.511863	0.541542	0.199895	0.275062	0.508462	0.855562	0.613263	0.145351	0.632395	0.719414	0.313105	0.293653	0.336948	0.425215	0.294808	0.135377	0.317033	0.327328	0.283439	0.284674	0.163008	0.324179	0.615108	0.510364	0.274512	0.460450	0.280685	0.191767	0.145484	0.303265	0.221870	0.332586	0.275591	0.339435	0.286845
70	0.515790	0.281248	0.716406	0.650237	0.574696	0.530699	0.558043	0.201034	0.371763	0.599210	0.825139	0.456000	0.137445	0.624067	0.742318	0.319294	0.304860	0.355021	0.422407	0.284292	0.110544	0.285444	0.317728	0.287111	0.302500	0.165569	0.319355	0.688601	0.546135	0.250493	0.470003	0.280866	0.171512	0.115373	0.308431	0.212214	0.329876	0.259719	0.338087	0.252351
71	0.494295	0.344494	0.714875	0.550634	0.665842	0.526089	0.624849	0.224612	0.373501	0.599984	0.672511	0.325112	0.129437	0.630056	0.760693	0.313793	0.331052	0.395813	0.473860	0.250987	0.105640	0.279205	0.325850	0.284847	0.304117	0.167035	0.321512	0.741724	0.540857	0.230817	0.461892	0.280812	0.168604	0.109686	0.311322	0.200053	0.328336	0.234030	0.281016	0.203439
72	0.478021	0.350659	0.672764	0.447987	0.676975	0.509422	0.653937	0.258000	0.368504	0.584218	0.547664	0.266385	0.148626	0.644331	0.774750	0.286793	0.341522	0.400010	0.541139	0.217602	0.119827	0.278460	0.447664	0.279938	0.325606	0.181506	0.319065	0.739868	0.555672	0.226007	0.458403	0.289184	0.179802	0.124330	0.311290	0.179248	0.323435	0.207513	0.237380	0.187191
73	0.474040	0.357507	0.621948	0.433660	0.775648	0.521939	0.644562	0.289350	0.368740	0.571127	0.493103	0.253229	0.213057	0.658328	0.782174	0.235506	0.353803	0.400517	0.540571	0.217073	0.129342	0.277544	0.561454	0.286103	0.379350	0.206494	0.318166	0.745949	0.616573	0.236809	0.454568	0.335029	0.186978	0.131439	0.313222	0.171342	0.310859	0.182525	0.237724	0.211889
74	0.529764	0.410719	0.562435	0.462389	0.908953	0.556076	0.616350	0.306984	0.376905	0.561493	0.464602	0.249917	0.402725	0.653252	0.768307	0.192434	0.362192	0.400429	0.502096	0.222467	0.131933	0.279813	0.583147	0.316298	0.405880	0.215093	0.309257	0.779208	0.668682	0.249605	0.454970	0.387131	0.189321	0.131923	0.298648	0.177319	0.282125	0.166175	0.309278	0.213391
75	0.622814	0.482857	0.545665	0.481486	0.929789	0.571470	0.634164	0.313104	0.393606	0.556957	0.427375	0.266305	0.564431	0.652037	0.710237	0.203331	0.361768	0.398914	0.465593	0.221786	0.167064	0.280143	0.567490	0.335248	0.406168	0.218507	0.307852	0.798920	0.725991	0.265432	0.432299	0.409541	0.189011	0.132088	0.250588	0.182244	0.281569	0.184010	0.370018	0.209944
76	0.623038	0.498712	0.538408	0.489073	0.932869	0.577561	0.653844	0.313456	0.410649	0.557109	0.394483	0.297745	0.679527	0.642928	0.605329	0.217098	0.356226	0.396571	0.437159	0.222042	0.208499	0.272415	0.544188	0.332768	0.416253	0.233486	0.317268	0.803941	0.778714	0.281518	0.398177	0.410885	0.184350	0.133375	0.204384	0.186060	0.294367	0.216758	0.373950	0.213976
77	0.610808	0.551504	0.536577	0.497956	0.931635	0.578191	0.680201	0.313627	0.419180	0.558252	0.382488	0.331488	0.752627	0.632371	0.516888	0.250252	0.351140	0.393530	0.426768	0.226853	0.238052	0.264430	0.534934	0.328648	0.440516	0.243597	0.325740	0.880669	0.820006	0.291939	0.366922	0.414456	0.181379	0.134668	0.201745	0.189060	0.301894	0.234677	0.409612	0.217889
78	0.582212	0.547919	0.521602	0.497913	0.931723	0.574223	0.687776	0.317735	0.419552	0.559215	0.378963	0.356928	0.779868	0.636838	0.492601	0.339007	0.334337	0.388363	0.427258	0.241889	0.250415	0.247128	0.533742	0.323561	0.456527	0.247668	0.322549	0.929067	0.848301	0.280529	0.306990	0.439298	0.188956	0.167777	0.210524	0.187143	0.299629	0.235677	0.452058	0.221602
79	0.546915	0.535271	0.517780	0.490546	0.932396	0.565845	0.680937	0.327582	0.419204	0.542464	0.366003	0.330008	0.797965	0.625103	0.488613	0.410375	0.321190	0.380052	0.433418	0.253280	0.261777	0.227664	0.535861	0.321937	0.455375	0.247590	0.309496	0.926312	0.844685	0.264376	0.303562	0.499466	0.216503	0.234070	0.217495	0.174430	0.295452	0.240656	0.448365	0.230908
80	0.512129	0.530039	0.511065	0.483145	0.913876	0.538831	0.655208	0.336444	0.398656	0.462548	0.340336	0.308170	1.044935	0.611650	0.467506	0.431453	0.313921	0.367778	0.431024	0.258988	0.291366	0.208419	0.536370	0.321676	0.443648	0.249073	0.323817	0.925477	0.818150	0.265162	0.285997	0.554421	0.247938	0.287322	0.215214	0.171517	0.268488	0.240847	0.441234	0.252010
81	0.490731	0.529203	0.474580	0.486756	0.872001	0.508277	0.640597	0.325822	0.382959	0.394139	0.322914	0.307979	1.284743	0.581635	0.465193	0.428447	0.312848	0.354047	0.443180	0.272247	0.325280	0.202036	0.527174	0.298504	0.447598	0.260077	0.439593	0.956451	0.785456	0.273746	0.268979	0.586302	0.265275	0.297434	0.201020	0.184019	0.208202	0.236331	0.446514	0.260943
82	0.490713	0.530008	0.410713	0.498678	0.827349	0.483004	0.627888	0.319959	0.341042	0.335809	0.399365	0.313989	1.382136	0.553227	0.462209	0.423130	0.320049	0.336214	0.482617	0.298468	0.350724	0.204923	0.523004	0.267502	0.450193	0.261117	0.465435	1.024430	0.765071	0.279338	0.259701	0.596374	0.268139	0.307977	0.190343	0.202376	0.196454	0.235651	0.464984	0.259563
83	0.494699	0.522230	0.365383	0.506710	0.773896	0.462841	0.606253	0.318346	0.249399	0.160830	0.471805	0.319388	1.398865	0.551024	0.462983	0.417010	0.330474	0.309565	0.505495	0.307339	0.370716	0.208685	0.545353	0.273811	0.446991	0.260719	0.472503	1.090216	0.758927	0.285188	0.244198	0.598981	0.268406	0.342762	0.188806	0.209628	0.200453	0.235816	0.475595	0.272722
84	0.490028	0.483191	0.346672	0.505296	0.703514	0.453053	0.540597	0.305206	0.242964	0.154553	0.494272	0.310115	1.400025	0.525479	0.453100	0.415893	0.339587	0.277438	0.510341	0.301757	0.370169	0.215447	0.565331	0.284104	0.419303	0.249626	0.501914	1.096541	0.773380	0.286028	0.245430	0.599188	0.268624	0.353774	0.198525	0.209195	0.205855	0.236973	0.474235	0.282683
85	0.485942	0.462118	0.346684	0.504189	0.692115	0.449911	0.500364	0.283429	0.250546	0.184828	0.495907	0.307847	1.405004	0.476478	0.431191	0.420200	0.341652	0.279742	0.523527	0.293535	0.468620	0.242763	0.492866	0.289218	0.372195	0.236502	0.509185	1.086390	0.771038	0.280187	0.251736	0.591617	0.270163	0.355280	0.199115	0.214479	0.205186	0.237613	0.467548	0.268939
86	0.491336	0.471456	0.339047	0.504411	0.604578	0.413978	0.493141	0.254059	0.254143	0.196106	0.505223	0.327504	1.404860	0.407518	0.407348	0.450831	0.300692	0.210077	0.525112	0.288862	0.662682	0.276440	0.344928	0.284723	0.363701	0.235599	0.509258	1.086780	0.730346	0.266620	0.257270	0.555291	0.271785	0.355522	0.193162	0.229171	0.198609	0.238192	0.460394	0.245747
87	0.473143	0.486574	0.329883	0.503375	0.384533	0.339856	0.484154	0.229090	0.243445	0.198811	0.504781	0.370050	1.366664	0.361949	0.376441	0.499460	0.258051	0.132187	0.487188	0.291371	0.786748	0.293695	0.292317	0.251118	0.350958	0.224711	0.492561	1.102768	0.681695	0.253238	0.266658	0.516784	0.268213	0.355459	0.197846	0.236753	0.194999	0.233180	0.466441	0.228914
88	0.342268	0.443478	0.258535	0.494197	0.311790	0.289549	0.400265	0.223336	0.208872	0.196383	0.511738	0.421508	1.309898	0.315096	0.374373	0.542229	0.239949	0.120398	0.474820	0.298615	0.820756	0.292933	0.312441	0.221820	0.300624	0.201295	0.462549	1.060668	0.615287	0.236613	0.268591	0.533634	0.255663	0.352587	0.207288	0.237490	0.194074	0.216579	0.431855	0.226905
89	0.282291	0.492360	0.206909	0.481752	0.288161	0.257137	0.282593	0.236818	0.168119	0.191672	0.530129	0.458010	1.257232	0.295575	0.377496	0.564678	0.228623	0.118506	0.482221	0.299356	0.824635	0.282495	0.344243	0.233764	0.263323	0.196068	0.462250	0.928078	0.549978	0.215031	0.263447	0.571599	0.241492	0.344682	0.206416	0.233909	0.173216	0.185299	0.399311	0.223748
90	0.278968	0.447118	0.209584	0.479063	0.288839	0.234463	0.191742	0.269484	0.138631	0.184845	0.549750	0.481783	1.221047	0.290127	0.365309	0.552172	0.230773	0.118600	0.482132	0.306501	0.817748	0.266588	0.366716	0.267557	0.263266	0.203942	0.482310	0.839644	0.488138	0.194960	0.284137	0.601578	0.229761	0.338963	0.210212	0.234718	0.134766	0.140805	0.398784	0.218553
91	0.280420	0.454513	0.212818	0.474219	0.299122	0.222661	0.152158	0.284949	0.135468	0.178575	0.564900	0.484608	1.202662	0.248832	0.363365	0.506645	0.235700	0.123541	0.481139	0.307381	0.814843	0.264999	0.369109	0.290265	0.265002	0.206377	0.497941	0.833330	0.436986	0.174040	0.288358	0.603891	0.226083	0.337667	0.211128	0.228237	0.127614	0.112689	0.393464	0.223858
92	0.287875	0.549008	0.211336	0.474103	0.304046	0.214319	0.155209	0.277593	0.130804	0.180735	0.559307	0.489821	1.196886	0.228810	0.373623	0.446984	0.238429	0.142053	0.482838	0.307095	0.817761	0.269290	0.368444	0.293452	0.235368	0.187342	0.444076	0.817612	0.418965	0.174344	0.298464	0.558581	0.228297	0.337614	0.207480	0.224193	0.154949	0.114429	0.373112	0.224377
93	0.291024	0.628750	0.218860	0.478830	0.322096	0.200170	0.154642	0.253015	0.123205	0.184712	0.549424	0.493106	1.012691	0.218056	0.378018	0.424021	0.241110	0.169352	0.492117	0.306678	0.814774	0.272002	0.368227	0.290779	0.208451	0.177635	0.354410	0.691220	0.423852	0.172681	0.301537	0.498191	0.234326	0.336947	0.202676	0.231975	0.165629	0.108372	0.367817	0.214680
94	0.285285	0.655246	0.220163	0.470354	0.337743	0.184833	0.155708	0.235197	0.120315	0.188133	0.542645	0.504667	0.685023	0.165570	0.354601	0.422204	0.242162	0.197802	0.499846	0.320062	0.805429	0.266667	0.369710	0.283280	0.215927	0.177784	0.370721	0.489179	0.415496	0.160603	0.292683	0.477063	0.247571	0.336075	0.213375	0.238320	0.166114	0.108518	0.369513	0.196404
95	0.271495	0.662264	0.211843	0.443804	0.332234	0.171123	0.165116	0.228981	0.133171	0.188025	0.460693	0.506729	0.484081	0.120147	0.318685	0.416286	0.241279	0.217198	0.504968	0.336516	0.797478	0.254543	0.367751	0.270334	0.214277	0.168004	0.366508	0.407430	0.390301	0.141805	0.283444	0.500895	0.256335	0.330053	0.221314	0.248520	0.166061	0.109656	0.366550	0.228063
96	0.257321	0.662123	0.206304	0.417243	0.317692	0.157004	0.166706	0.238837	0.141361	0.177873	0.381649	0.506211	0.480195	0.113759	0.261995	0.415307	0.238139	0.223874	0.528250	0.330659	0.791808	0.245826	0.338247	0.250472	0.209859	0.158583	0.336336	0.441637	0.332747	0.116634	0.276031	0.531593	0.249722	0.298559	0.221412	0.260337	0.178029	0.109825	0.347940	0.253085
97	0.249636	0.661792	0.206279	0.406073	0.294103	0.143601	0.168231	0.263808	0.141138	0.151964	0.356606	0.517804	0.514553	0.113579	0.216234	0.414551	0.227343	0.224539	0.537108	0.310928	0.793445	0.240194	0.284387	0.229988	0.208978	0.154261	0.350848	0.497441	0.307763	0.095878	0.270593	0.558678	0.225465	0.242476	0.225333	0.260101	0.190009	0.109105	0.350614	0.236618
98	0.248520	0.661791	0.204283	0.404643	0.287218	0.140137	0.142533	0.280134	0.130195	0.106760	0.358712	0.548198	0.507182	0.110114	0.201070	0.412448	0.207779	0.223122	0.507555	0.289285	0.756442	0.216326	0.252935	0.228783	0.208846	0.180773	0.407510	0.456315	0.321694	0.089045	0.266974	0.578129	0.195968	0.211227	0.227284	0.250351	0.186671	0.108148	0.349990	0.231176
99	0.244672	0.656842	0.211793	0.404352	0.272715	0.143195	0.133179	0.306657	0.115089	0.081107	0.348041	0.572174	0.488263	0.108860	0.201694	0.390053	0.185985	0.223623	0.499253	0.281317	0.603316	0.170803	0.254935	0.243778	0.207220	0.191640	0.422037	0.433744	0.312857	0.095063	0.271220	0.582766	0.187477	0.219707	0.225498	0.234786	0.183988	0.111036	0.347563	0.254171
100	0.226620	0.641173	0.194460	0.394952	0.237805	0.157543	0.136379	0.336922	0.107478	0.077519	0.368796	0.563763	0.486319	0.108990	0.195416	0.337175	0.167455	0.228290	0.489284	0.287896	0.422986	0.127056	0.261636	0.278003	0.194752	0.182922	0.425568	0.445096	0.306622	0.103463	0.266509	0.572351	0.190600	0.185794	0.224012	0.225467	0.183635	0.106980	0.346591	0.295397
101	0.196070	0.629503	0.186762	0.358447	0.270379	0.191062	0.131019	0.353025	0.109064	0.078228	0.359531	0.534589	0.485673	0.110010	0.183178	0.261902	0.162684	0.222462	0.475493	0.295568	0.328509	0.101079	0.244634	0.288283	0.172577	0.165064	0.426055	0.450764	0.302384	0.109835	0.272784	0.534374	0.192649	0.148205	0.222448	0.224196	0.188625	0.102443	0.327731	0.321066
