	223_C_T2_sh_ND_L_01.c3d	223_C_T2_sh_ND_L_01.c3d	223_C_T2_sh_ND_L_01.c3d	223_C_T2_sh_ND_L_01.c3d	223_C_T2_sh_ND_L_01.c3d	223_C_T2_sh_ND_L_01.c3d	223_C_T2_sh_ND_L_01.c3d	223_C_T2_sh_ND_L_01.c3d	223_C_T2_sh_ND_L_02.c3d	223_C_T2_sh_ND_L_02.c3d	223_C_T2_sh_ND_L_02.c3d	223_C_T2_sh_ND_L_02.c3d	223_C_T2_sh_ND_L_02.c3d	223_C_T2_sh_ND_L_02.c3d	223_C_T2_sh_ND_L_02.c3d	223_C_T2_sh_ND_L_02.c3d	223_C_T2_sh_ND_L_03.c3d	223_C_T2_sh_ND_L_03.c3d	223_C_T2_sh_ND_L_03.c3d	223_C_T2_sh_ND_L_03.c3d	223_C_T2_sh_ND_L_03.c3d	223_C_T2_sh_ND_L_03.c3d	223_C_T2_sh_ND_L_03.c3d	223_C_T2_sh_ND_L_03.c3d	223_C_T2_sh_ND_L_04.c3d	223_C_T2_sh_ND_L_04.c3d	223_C_T2_sh_ND_L_04.c3d	223_C_T2_sh_ND_L_04.c3d	223_C_T2_sh_ND_L_04.c3d	223_C_T2_sh_ND_L_04.c3d	223_C_T2_sh_ND_L_04.c3d	223_C_T2_sh_ND_L_04.c3d	223_C_T2_sh_ND_L_05.c3d	223_C_T2_sh_ND_L_05.c3d	223_C_T2_sh_ND_L_05.c3d	223_C_T2_sh_ND_L_05.c3d	223_C_T2_sh_ND_L_05.c3d	223_C_T2_sh_ND_L_05.c3d	223_C_T2_sh_ND_L_05.c3d	223_C_T2_sh_ND_L_05.c3d	223_C_T2_sh_ND_L_06.c3d	223_C_T2_sh_ND_L_06.c3d	223_C_T2_sh_ND_L_06.c3d	223_C_T2_sh_ND_L_06.c3d	223_C_T2_sh_ND_L_06.c3d	223_C_T2_sh_ND_L_06.c3d	223_C_T2_sh_ND_L_06.c3d	223_C_T2_sh_ND_L_06.c3d	223_C_T2_sh_ND_L_07.c3d	223_C_T2_sh_ND_L_07.c3d	223_C_T2_sh_ND_L_07.c3d	223_C_T2_sh_ND_L_07.c3d	223_C_T2_sh_ND_L_07.c3d	223_C_T2_sh_ND_L_07.c3d	223_C_T2_sh_ND_L_07.c3d	223_C_T2_sh_ND_L_07.c3d	223_C_T2_sh_ND_L_08.c3d	223_C_T2_sh_ND_L_08.c3d	223_C_T2_sh_ND_L_08.c3d	223_C_T2_sh_ND_L_08.c3d	223_C_T2_sh_ND_L_08.c3d	223_C_T2_sh_ND_L_08.c3d	223_C_T2_sh_ND_L_08.c3d	223_C_T2_sh_ND_L_08.c3d	223_C_T2_sh_ND_L_09.c3d	223_C_T2_sh_ND_L_09.c3d	223_C_T2_sh_ND_L_09.c3d	223_C_T2_sh_ND_L_09.c3d	223_C_T2_sh_ND_L_09.c3d	223_C_T2_sh_ND_L_09.c3d	223_C_T2_sh_ND_L_09.c3d	223_C_T2_sh_ND_L_09.c3d	223_C_T2_sh_ND_L_10.c3d	223_C_T2_sh_ND_L_10.c3d	223_C_T2_sh_ND_L_10.c3d	223_C_T2_sh_ND_L_10.c3d	223_C_T2_sh_ND_L_10.c3d	223_C_T2_sh_ND_L_10.c3d	223_C_T2_sh_ND_L_10.c3d	223_C_T2_sh_ND_L_10.c3d
	Biceps femoris_lat	Semitendinosus_lat	Vastus lateralis_lat	Vastus medialis_lat	Biceps femoris_med	Semitendinosus_med	Vastus lateralis_med	Vastus medialis_med	Biceps femoris_lat	Semitendinosus_lat	Vastus lateralis_lat	Vastus medialis_lat	Biceps femoris_med	Semitendinosus_med	Vastus lateralis_med	Vastus medialis_med	Biceps femoris_lat	Semitendinosus_lat	Vastus lateralis_lat	Vastus medialis_lat	Biceps femoris_med	Semitendinosus_med	Vastus lateralis_med	Vastus medialis_med	Biceps femoris_lat	Semitendinosus_lat	Vastus lateralis_lat	Vastus medialis_lat	Biceps femoris_med	Semitendinosus_med	Vastus lateralis_med	Vastus medialis_med	Biceps femoris_lat	Semitendinosus_lat	Vastus lateralis_lat	Vastus medialis_lat	Biceps femoris_med	Semitendinosus_med	Vastus lateralis_med	Vastus medialis_med	Biceps femoris_lat	Semitendinosus_lat	Vastus lateralis_lat	Vastus medialis_lat	Biceps femoris_med	Semitendinosus_med	Vastus lateralis_med	Vastus medialis_med	Biceps femoris_lat	Semitendinosus_lat	Vastus lateralis_lat	Vastus medialis_lat	Biceps femoris_med	Semitendinosus_med	Vastus lateralis_med	Vastus medialis_med	Biceps femoris_lat	Semitendinosus_lat	Vastus lateralis_lat	Vastus medialis_lat	Biceps femoris_med	Semitendinosus_med	Vastus lateralis_med	Vastus medialis_med	Biceps femoris_lat	Semitendinosus_lat	Vastus lateralis_lat	Vastus medialis_lat	Biceps femoris_med	Semitendinosus_med	Vastus lateralis_med	Vastus medialis_med	Biceps femoris_lat	Semitendinosus_lat	Vastus lateralis_lat	Vastus medialis_lat	Biceps femoris_med	Semitendinosus_med	Vastus lateralis_med	Vastus medialis_med
	P2D	P2D	P2D	P2D	P2D	P2D	P2D	P2D	P2D	P2D	P2D	P2D	P2D	P2D	P2D	P2D	P2D	P2D	P2D	P2D	P2D	P2D	P2D	P2D	P2D	P2D	P2D	P2D	P2D	P2D	P2D	P2D	P2D	P2D	P2D	P2D	P2D	P2D	P2D	P2D	P2D	P2D	P2D	P2D	P2D	P2D	P2D	P2D	P2D	P2D	P2D	P2D	P2D	P2D	P2D	P2D	P2D	P2D	P2D	P2D	P2D	P2D	P2D	P2D	P2D	P2D	P2D	P2D	P2D	P2D	P2D	P2D	P2D	P2D	P2D	P2D	P2D	P2D	P2D	P2D
	EMG_lat	EMG_lat	EMG_lat	EMG_lat	EMG_med	EMG_med	EMG_med	EMG_med	EMG_lat	EMG_lat	EMG_lat	EMG_lat	EMG_med	EMG_med	EMG_med	EMG_med	EMG_lat	EMG_lat	EMG_lat	EMG_lat	EMG_med	EMG_med	EMG_med	EMG_med	EMG_lat	EMG_lat	EMG_lat	EMG_lat	EMG_med	EMG_med	EMG_med	EMG_med	EMG_lat	EMG_lat	EMG_lat	EMG_lat	EMG_med	EMG_med	EMG_med	EMG_med	EMG_lat	EMG_lat	EMG_lat	EMG_lat	EMG_med	EMG_med	EMG_med	EMG_med	EMG_lat	EMG_lat	EMG_lat	EMG_lat	EMG_med	EMG_med	EMG_med	EMG_med	EMG_lat	EMG_lat	EMG_lat	EMG_lat	EMG_med	EMG_med	EMG_med	EMG_med	EMG_lat	EMG_lat	EMG_lat	EMG_lat	EMG_med	EMG_med	EMG_med	EMG_med	EMG_lat	EMG_lat	EMG_lat	EMG_lat	EMG_med	EMG_med	EMG_med	EMG_med
ITEM	Y	Y	Y	Y	Y	Y	Y	Y	Y	Y	Y	Y	Y	Y	Y	Y	Y	Y	Y	Y	Y	Y	Y	Y	Y	Y	Y	Y	Y	Y	Y	Y	Y	Y	Y	Y	Y	Y	Y	Y	Y	Y	Y	Y	Y	Y	Y	Y	Y	Y	Y	Y	Y	Y	Y	Y	Y	Y	Y	Y	Y	Y	Y	Y	Y	Y	Y	Y	Y	Y	Y	Y	Y	Y	Y	Y	Y	Y	Y	Y
1	0.205645	0.231123	0.186269	0.061917	0.652712	0.464569	0.144119	0.134432	0.416753	0.832431	0.287058	0.118313	0.199206	0.327845	0.124823	0.103972	0.155798	0.229860	0.113009	0.035381	0.091128	0.106822	0.086997	0.117211	0.336569	0.356617	0.130877	0.121560	0.218242	0.285800	0.197790	0.139040	0.463559	0.422847	0.109831	0.063678	0.387792	0.527711	0.113876	0.048302	0.486675	0.467015	0.170260	0.075020	0.228754	0.273518	0.317511	0.294312	0.247872	0.441001	0.103757	0.041738	0.239726	0.417619	0.073685	0.137506	0.120062	0.249411	0.118033	0.126534	0.092549	0.123741	0.151885	0.128075	0.092155	0.196172	0.104690	0.094550	0.117434	0.333131	0.050847	0.030639	0.131118	0.198591	0.067576	0.021864	0.322462	0.451237	0.243482	0.086633
2	0.218167	0.236718	0.237316	0.068801	0.472509	0.338330	0.144375	0.139321	0.381936	0.755666	0.266618	0.118359	0.196155	0.329583	0.131447	0.087595	0.154245	0.209966	0.111891	0.034512	0.091191	0.120230	0.074450	0.116427	0.224626	0.447182	0.128942	0.124908	0.247294	0.292542	0.216133	0.137398	0.474118	0.424813	0.110323	0.064071	0.387913	0.490034	0.106287	0.057402	0.486910	0.451337	0.178078	0.078934	0.228154	0.270522	0.302100	0.203910	0.178012	0.397169	0.086956	0.041669	0.226078	0.417021	0.075061	0.139369	0.123321	0.317943	0.128591	0.128345	0.120475	0.173576	0.115493	0.114728	0.095029	0.199296	0.104459	0.112923	0.119037	0.317709	0.043905	0.027734	0.119189	0.204371	0.057991	0.030477	0.336766	0.456100	0.251845	0.084014
3	0.204728	0.233870	0.250564	0.083149	0.288382	0.317468	0.143582	0.127140	0.385540	0.753868	0.249236	0.114478	0.191997	0.329639	0.131849	0.076192	0.150842	0.197285	0.108093	0.033176	0.091324	0.127654	0.075872	0.117256	0.190670	0.518575	0.127488	0.125569	0.276272	0.307854	0.205532	0.121872	0.525745	0.442629	0.117719	0.064818	0.389721	0.494291	0.103068	0.132008	0.418048	0.339227	0.186365	0.079936	0.228858	0.282243	0.285517	0.185214	0.163905	0.325114	0.078169	0.038773	0.219139	0.424376	0.088874	0.144428	0.114342	0.324581	0.133880	0.128575	0.140801	0.234573	0.091531	0.093106	0.096007	0.206568	0.136299	0.112874	0.126601	0.312172	0.102792	0.024740	0.105105	0.196619	0.056749	0.066288	0.323620	0.452089	0.279600	0.093384
4	0.146932	0.220796	0.251805	0.079403	0.203747	0.274352	0.129607	0.138434	0.394546	0.673818	0.242121	0.104831	0.144447	0.328735	0.131775	0.071909	0.102755	0.233615	0.102650	0.034548	0.090854	0.138989	0.082467	0.122133	0.181960	0.529648	0.115369	0.096385	0.384115	0.395019	0.220548	0.117583	0.582422	0.456527	0.145740	0.065327	0.383232	0.529243	0.106467	0.175481	0.358202	0.269882	0.183922	0.078401	0.211664	0.279808	0.282216	0.186412	0.162344	0.312188	0.084282	0.038608	0.211370	0.427352	0.105263	0.147396	0.112839	0.409566	0.135526	0.128614	0.142853	0.234237	0.117581	0.091540	0.121559	0.207662	0.197232	0.116719	0.137986	0.325195	0.184658	0.121692	0.090011	0.203381	0.067802	0.068620	0.319453	0.451283	0.285882	0.103597
5	0.141331	0.221802	0.250880	0.078852	0.189121	0.269038	0.144007	0.162445	0.346728	0.524820	0.247281	0.149169	0.134909	0.327744	0.135862	0.070687	0.090778	0.305348	0.111492	0.034578	0.097752	0.159687	0.104234	0.136543	0.222977	0.557224	0.109269	0.076202	0.431970	0.406334	0.232706	0.109186	0.609368	0.496905	0.152583	0.067383	0.378687	0.536851	0.100954	0.178165	0.359335	0.309952	0.177914	0.072191	0.196277	0.264215	0.280465	0.200460	0.138140	0.214523	0.084624	0.041524	0.204633	0.394091	0.109754	0.126088	0.129147	0.499903	0.133821	0.130465	0.181768	0.270676	0.126466	0.104475	0.146758	0.198974	0.204842	0.161981	0.141039	0.344067	0.191333	0.226643	0.102869	0.248226	0.073423	0.084117	0.323844	0.430668	0.280225	0.103486
6	0.139061	0.226852	0.245709	0.076798	0.229908	0.272479	0.172541	0.170227	0.325686	0.374009	0.244079	0.159994	0.129319	0.323848	0.150393	0.070735	0.091740	0.313508	0.132293	0.050677	0.097295	0.174277	0.108355	0.143858	0.312357	0.545135	0.111621	0.073794	0.446632	0.400917	0.232773	0.112125	0.623702	0.526595	0.153679	0.081364	0.384652	0.506628	0.097524	0.190052	0.365059	0.401679	0.181991	0.073963	0.208585	0.266289	0.240254	0.181196	0.111217	0.180022	0.113049	0.042056	0.212253	0.362314	0.116554	0.116606	0.226414	0.699851	0.147659	0.113295	0.242045	0.358022	0.118311	0.120892	0.146090	0.193287	0.217069	0.176041	0.139586	0.344274	0.204859	0.252667	0.106980	0.248792	0.230589	0.109594	0.324522	0.444675	0.290844	0.106193
7	0.139555	0.231997	0.259324	0.076956	0.284766	0.273440	0.268516	0.188067	0.352954	0.321440	0.171965	0.162282	0.127862	0.316069	0.157998	0.069008	0.103548	0.390134	0.131080	0.065198	0.096286	0.188526	0.117388	0.157628	0.354833	0.560199	0.134540	0.073901	0.458569	0.377425	0.245076	0.160434	0.626391	0.526529	0.146987	0.087811	0.407011	0.475161	0.098950	0.230310	0.359749	0.496937	0.178766	0.072392	0.251987	0.331500	0.153977	0.150960	0.114597	0.263218	0.140309	0.042332	0.173960	0.354969	0.115128	0.118389	0.239642	0.800121	0.156040	0.104110	0.249950	0.428725	0.168071	0.121648	0.144503	0.199991	0.217693	0.177317	0.152468	0.367623	0.257647	0.254735	0.099279	0.238349	0.251171	0.143161	0.330397	0.483223	0.337350	0.095793
8	0.188669	0.460007	0.271766	0.079556	0.290479	0.326979	0.299901	0.278338	0.333605	0.323355	0.084172	0.170696	0.126131	0.312598	0.182860	0.094967	0.112201	0.447914	0.127316	0.065232	0.108652	0.197930	0.123461	0.177664	0.380029	0.639471	0.124445	0.088950	0.480271	0.339572	0.243465	0.226037	0.620665	0.525117	0.159562	0.085129	0.336679	0.496756	0.097789	0.261465	0.290692	0.540068	0.176144	0.068089	0.239578	0.344210	0.128112	0.157102	0.103439	0.272196	0.159570	0.044230	0.152501	0.337353	0.125614	0.119908	0.247100	0.788867	0.139213	0.104260	0.265777	0.518569	0.206167	0.116425	0.156289	0.234899	0.253171	0.169322	0.172547	0.390811	0.342115	0.259876	0.102205	0.231912	0.303895	0.158330	0.333204	0.487274	0.355556	0.092714
9	0.205958	0.634903	0.274233	0.082342	0.284282	0.373501	0.300231	0.333945	0.297390	0.328357	0.126412	0.168283	0.133347	0.311863	0.196405	0.236515	0.119791	0.448923	0.125279	0.065217	0.129846	0.219386	0.143225	0.183455	0.478630	0.668102	0.123388	0.086799	0.567842	0.413836	0.240874	0.223364	0.586427	0.519829	0.280260	0.092532	0.284248	0.551979	0.147741	0.270512	0.240443	0.579667	0.176661	0.067692	0.234446	0.300956	0.125104	0.157621	0.101007	0.264244	0.167261	0.057954	0.161571	0.319572	0.133461	0.120338	0.249447	0.782820	0.131141	0.096654	0.299940	0.528034	0.209073	0.102483	0.156101	0.221927	0.265760	0.170802	0.176837	0.384754	0.360258	0.266543	0.146591	0.245221	0.393697	0.160002	0.322467	0.482139	0.343021	0.095690
10	0.198466	0.638388	0.270205	0.084273	0.272159	0.386056	0.302412	0.336236	0.280732	0.328920	0.163301	0.162047	0.150438	0.303258	0.197068	0.295640	0.131131	0.460510	0.202304	0.081763	0.133720	0.227030	0.144753	0.189559	0.511938	0.653270	0.165990	0.093071	0.653710	0.458230	0.269613	0.241448	0.515587	0.495717	0.298605	0.094334	0.289814	0.544470	0.149569	0.361005	0.196273	0.579766	0.172796	0.068224	0.238634	0.300827	0.125568	0.156314	0.102153	0.261584	0.167027	0.059919	0.157707	0.314852	0.128110	0.119784	0.248762	0.783849	0.140012	0.077574	0.303833	0.526738	0.209577	0.139661	0.167328	0.252641	0.266781	0.162453	0.174912	0.380239	0.401331	0.271004	0.157464	0.239766	0.446918	0.161625	0.296284	0.425908	0.340262	0.095870
11	0.203002	0.732810	0.258562	0.084771	0.313224	0.441452	0.355755	0.339006	0.263625	0.317591	0.171928	0.158561	0.178559	0.282179	0.204623	0.298619	0.137640	0.462180	0.262322	0.103839	0.146342	0.230927	0.151014	0.195315	0.538126	0.610423	0.269686	0.130118	0.650946	0.456378	0.252230	0.273704	0.508807	0.430037	0.351525	0.125550	0.309604	0.571471	0.162303	0.388451	0.178489	0.648860	0.151515	0.066009	0.240002	0.291067	0.129308	0.157765	0.108206	0.286689	0.167410	0.067853	0.148259	0.296172	0.127291	0.116540	0.246715	0.785243	0.166402	0.072125	0.302205	0.522775	0.221639	0.148628	0.185378	0.374398	0.265818	0.157224	0.175067	0.377741	0.433151	0.281051	0.225498	0.267830	0.466111	0.168730	0.265268	0.336050	0.335714	0.089634
12	0.211536	0.777761	0.253401	0.081851	0.343707	0.459016	0.406320	0.342502	0.245521	0.305679	0.177924	0.158743	0.194990	0.287037	0.259569	0.300032	0.146117	0.460797	0.264770	0.106637	0.148368	0.229962	0.157855	0.199412	0.537115	0.543942	0.271600	0.131596	0.642763	0.455755	0.257874	0.290062	0.514606	0.407192	0.366598	0.148686	0.328381	0.613369	0.205716	0.395169	0.174072	0.716610	0.125954	0.052633	0.249376	0.321943	0.113063	0.160895	0.108415	0.316633	0.168060	0.089400	0.128484	0.280153	0.126672	0.095635	0.240931	0.765385	0.163388	0.080502	0.298404	0.505437	0.265850	0.157162	0.185024	0.392699	0.233338	0.156939	0.177251	0.352851	0.434402	0.291217	0.259342	0.311329	0.475816	0.175952	0.255441	0.319437	0.324305	0.087242
13	0.202473	0.782822	0.226308	0.077674	0.345776	0.447022	0.409831	0.357298	0.241770	0.344298	0.178376	0.162970	0.191449	0.235360	0.336061	0.307521	0.154067	0.464672	0.275562	0.119315	0.140875	0.233806	0.157333	0.215315	0.538675	0.542578	0.272516	0.131373	0.620423	0.443947	0.266450	0.294763	0.504394	0.409242	0.368321	0.149273	0.352187	0.644277	0.318832	0.410333	0.205204	0.754600	0.122065	0.050727	0.256710	0.405183	0.097641	0.158629	0.110443	0.316096	0.162777	0.092026	0.123278	0.281667	0.127543	0.094347	0.238037	0.763666	0.160655	0.103748	0.301491	0.501964	0.270687	0.169738	0.167014	0.414633	0.206513	0.144434	0.175985	0.350111	0.441915	0.299507	0.292391	0.460569	0.476807	0.177929	0.172472	0.264664	0.319991	0.085949
14	0.206639	0.787383	0.178277	0.059442	0.346192	0.433117	0.421955	0.364073	0.270158	0.390926	0.177649	0.166761	0.219085	0.194652	0.343005	0.325579	0.168004	0.469827	0.282694	0.122636	0.140575	0.237376	0.157279	0.221208	0.529056	0.557173	0.272107	0.131023	0.555502	0.364768	0.255345	0.295208	0.454070	0.425556	0.366235	0.148935	0.348799	0.639178	0.331711	0.415476	0.221024	0.768590	0.124186	0.050444	0.261798	0.411901	0.097156	0.153894	0.111304	0.325733	0.163058	0.094711	0.121429	0.270896	0.127352	0.091772	0.239516	0.701128	0.195408	0.130591	0.296073	0.499427	0.280451	0.176377	0.152659	0.450452	0.175526	0.087613	0.179801	0.340774	0.446759	0.304352	0.304296	0.567010	0.477792	0.171507	0.149597	0.255921	0.309639	0.085304
15	0.207534	0.787947	0.173650	0.050730	0.342494	0.432380	0.424455	0.362498	0.256212	0.401400	0.182803	0.166952	0.239611	0.201535	0.340770	0.338616	0.188225	0.470375	0.304250	0.127470	0.149408	0.247657	0.158614	0.220827	0.481225	0.628289	0.271082	0.130665	0.534081	0.353797	0.251188	0.294821	0.385815	0.470312	0.369763	0.150204	0.344986	0.602518	0.336732	0.419997	0.231911	0.787396	0.121267	0.045361	0.274625	0.442853	0.095084	0.138830	0.106608	0.320257	0.158447	0.094018	0.117996	0.233074	0.114734	0.082299	0.225155	0.660516	0.264166	0.129429	0.240238	0.425902	0.287234	0.161143	0.178511	0.468933	0.166545	0.068204	0.184700	0.346574	0.447529	0.306350	0.326785	0.574130	0.447503	0.157661	0.144651	0.256718	0.290940	0.068308
16	0.211316	0.787434	0.169133	0.047465	0.327544	0.423629	0.418091	0.357126	0.254447	0.410193	0.196790	0.146632	0.242684	0.208986	0.339817	0.346103	0.177035	0.429581	0.306395	0.197300	0.150204	0.247450	0.157528	0.218836	0.442596	0.650859	0.261662	0.130269	0.520612	0.352752	0.255643	0.292317	0.344860	0.470688	0.415674	0.155057	0.333687	0.597642	0.343501	0.425118	0.233791	0.797622	0.104642	0.038949	0.282025	0.454254	0.093194	0.115813	0.101033	0.274720	0.123100	0.094364	0.117017	0.183128	0.113217	0.082461	0.151991	0.432222	0.261592	0.124049	0.232968	0.403391	0.271053	0.160833	0.194766	0.524637	0.249598	0.064973	0.183907	0.351631	0.440483	0.307655	0.329579	0.574154	0.499544	0.169120	0.119694	0.248930	0.306924	0.056593
17	0.213253	0.803606	0.170393	0.044730	0.284585	0.417906	0.400866	0.355830	0.255252	0.398798	0.199162	0.113140	0.236960	0.212027	0.340741	0.347500	0.173701	0.392238	0.303780	0.235555	0.149203	0.237118	0.161361	0.213953	0.426457	0.579073	0.258815	0.122710	0.500047	0.359122	0.240419	0.259730	0.321149	0.456884	0.427531	0.222308	0.318609	0.585983	0.350525	0.416060	0.233210	0.803447	0.108632	0.034233	0.254409	0.455340	0.085914	0.107835	0.101305	0.269145	0.106525	0.106685	0.109072	0.168745	0.110553	0.082520	0.159992	0.340433	0.268435	0.128447	0.215238	0.294294	0.237952	0.159966	0.207308	0.572038	0.297253	0.253974	0.176509	0.338494	0.411214	0.289051	0.344987	0.601719	0.527373	0.235972	0.110764	0.250720	0.335133	0.056829
18	0.218391	0.873467	0.162371	0.043699	0.237030	0.420271	0.344602	0.331976	0.236474	0.395265	0.197676	0.110988	0.235848	0.215492	0.341223	0.347561	0.180011	0.387227	0.298198	0.233017	0.143148	0.220676	0.167969	0.208006	0.293051	0.518457	0.256449	0.122484	0.481073	0.521341	0.227620	0.204756	0.315101	0.453179	0.432777	0.280638	0.280095	0.562239	0.353449	0.392982	0.225323	0.795295	0.131271	0.055598	0.216779	0.405326	0.073078	0.073349	0.098445	0.271793	0.088453	0.105257	0.104587	0.196534	0.113299	0.078444	0.150170	0.330691	0.289269	0.136396	0.160658	0.261768	0.262109	0.160719	0.226531	0.604993	0.297356	0.280411	0.172265	0.299812	0.407438	0.215792	0.387797	0.670666	0.483773	0.249761	0.110598	0.217651	0.343561	0.050167
19	0.210124	0.900301	0.112079	0.041707	0.224900	0.368183	0.334253	0.250466	0.220163	0.382083	0.197254	0.097012	0.235012	0.218500	0.339266	0.347776	0.197478	0.282739	0.308936	0.237429	0.147201	0.205298	0.161820	0.205399	0.227011	0.509655	0.236823	0.117398	0.325274	0.625043	0.208076	0.199239	0.318128	0.451989	0.457467	0.283731	0.244532	0.505796	0.348785	0.379238	0.214580	0.772525	0.131386	0.135676	0.208706	0.419897	0.083659	0.054177	0.091988	0.300174	0.087158	0.103619	0.104376	0.211023	0.106541	0.072514	0.142239	0.338177	0.288083	0.136783	0.157656	0.267100	0.334194	0.136310	0.260526	0.600671	0.356583	0.277699	0.171916	0.273279	0.403041	0.178054	0.384891	0.684624	0.531018	0.264450	0.084439	0.160111	0.267910	0.052285
20	0.192187	0.752343	0.062405	0.032459	0.229482	0.352412	0.337690	0.206041	0.214388	0.379026	0.189773	0.081340	0.233998	0.220082	0.335850	0.348260	0.203223	0.225496	0.330143	0.249231	0.150141	0.203093	0.167589	0.184749	0.137893	0.505636	0.100469	0.065105	0.216906	0.646819	0.167606	0.167104	0.325297	0.453038	0.485042	0.283077	0.299304	0.493827	0.335561	0.357878	0.206685	0.724766	0.135264	0.174260	0.197834	0.443204	0.092879	0.057656	0.080392	0.321804	0.087436	0.100489	0.092399	0.227534	0.097357	0.064072	0.135330	0.361833	0.280566	0.137446	0.146902	0.266025	0.378469	0.209154	0.266514	0.548370	0.389567	0.288792	0.161120	0.229042	0.376101	0.175324	0.351477	0.676750	0.594316	0.286556	0.065150	0.154634	0.252113	0.063508
21	0.216127	0.702259	0.047840	0.029866	0.242237	0.334797	0.335186	0.205412	0.224793	0.438005	0.147899	0.067561	0.233925	0.221889	0.331365	0.348266	0.199379	0.207839	0.332707	0.265990	0.134714	0.180825	0.159245	0.172531	0.140190	0.507096	0.089333	0.056002	0.220311	0.681138	0.159239	0.106819	0.306069	0.521604	0.512745	0.296670	0.357967	0.499310	0.334583	0.266073	0.210426	0.672576	0.154042	0.175662	0.194418	0.445441	0.098382	0.095662	0.088766	0.316550	0.078164	0.081800	0.074146	0.264745	0.104106	0.053079	0.141989	0.341181	0.283497	0.139103	0.121661	0.233938	0.354252	0.261755	0.281159	0.545185	0.391479	0.330054	0.136936	0.162721	0.304137	0.167506	0.331993	0.658003	0.595672	0.288775	0.067293	0.154968	0.252697	0.240878
22	0.216300	0.674578	0.049645	0.029946	0.178106	0.257284	0.233025	0.187713	0.269799	0.639617	0.127008	0.064968	0.232570	0.221747	0.315808	0.337136	0.190089	0.161569	0.286944	0.269018	0.126348	0.168392	0.159600	0.169009	0.141606	0.516037	0.086333	0.048211	0.223310	0.679941	0.127036	0.123045	0.283707	0.639331	0.478272	0.308058	0.383039	0.454956	0.328128	0.249597	0.217567	0.641765	0.204795	0.183408	0.192236	0.445451	0.104502	0.109167	0.095668	0.390314	0.075984	0.076866	0.077798	0.267773	0.113073	0.051658	0.168672	0.380127	0.285319	0.154862	0.113539	0.234161	0.372001	0.258823	0.282259	0.515421	0.397844	0.348092	0.131710	0.162380	0.275237	0.165040	0.307217	0.571940	0.594568	0.288585	0.092308	0.179055	0.252347	0.329710
23	0.215511	0.616296	0.053813	0.029095	0.234183	0.300789	0.198539	0.172056	0.292177	0.738548	0.121755	0.065304	0.228225	0.224463	0.309071	0.249799	0.189469	0.149943	0.252394	0.268790	0.120865	0.166876	0.161818	0.166913	0.122514	0.478579	0.100502	0.048521	0.223776	0.686342	0.115022	0.157662	0.288118	0.670498	0.470296	0.316761	0.374106	0.391070	0.277248	0.232593	0.207804	0.612493	0.269324	0.193971	0.179615	0.384410	0.107277	0.114520	0.106255	0.400184	0.089113	0.069886	0.089173	0.281637	0.125594	0.052450	0.184748	0.416994	0.291463	0.149134	0.098395	0.240190	0.387669	0.264503	0.289540	0.503708	0.397865	0.354480	0.119590	0.172999	0.225531	0.179397	0.290055	0.426990	0.593742	0.288704	0.132701	0.210698	0.250663	0.333093
24	0.217133	0.658190	0.074805	0.032605	0.272778	0.327442	0.189302	0.175624	0.295899	0.734223	0.151892	0.069326	0.216625	0.218458	0.308761	0.191060	0.183848	0.161482	0.244177	0.269206	0.100461	0.162166	0.154023	0.192004	0.121999	0.400893	0.152123	0.063526	0.229921	0.696832	0.130133	0.162277	0.315475	0.747622	0.470120	0.319867	0.479891	0.411983	0.153141	0.194402	0.207122	0.609590	0.281111	0.206304	0.182533	0.346421	0.169190	0.116362	0.131173	0.414173	0.127852	0.081566	0.093227	0.284906	0.168482	0.092102	0.183160	0.422108	0.271727	0.138154	0.100134	0.249894	0.385973	0.262873	0.275604	0.473247	0.394712	0.355455	0.109968	0.161540	0.151285	0.175083	0.269626	0.422256	0.581588	0.288273	0.150508	0.225380	0.358718	0.350669
25	0.205332	0.654227	0.104433	0.031809	0.300446	0.344602	0.161964	0.167992	0.282285	0.725961	0.206788	0.083250	0.194042	0.200440	0.299262	0.188831	0.181241	0.195022	0.235274	0.265361	0.098104	0.178721	0.148241	0.167884	0.158163	0.389739	0.194866	0.241304	0.232109	0.705137	0.140616	0.173242	0.317336	0.785752	0.470721	0.319898	0.542612	0.438287	0.198073	0.159202	0.216000	0.516679	0.299040	0.216478	0.159377	0.317174	0.224906	0.182461	0.155013	0.486601	0.194209	0.095886	0.107714	0.297199	0.205822	0.126681	0.185018	0.413590	0.215020	0.212514	0.097096	0.239812	0.401724	0.276493	0.269195	0.409247	0.314725	0.348370	0.114502	0.172588	0.157091	0.157760	0.273582	0.441540	0.527872	0.270926	0.173867	0.225471	0.431290	0.375066
26	0.206851	0.659224	0.108381	0.041018	0.355333	0.346901	0.161076	0.157460	0.269025	0.710659	0.238287	0.087598	0.178845	0.189807	0.243418	0.188013	0.166909	0.196538	0.221328	0.264897	0.099353	0.267318	0.147640	0.144911	0.163035	0.390149	0.217683	0.272563	0.230826	0.709696	0.141958	0.183786	0.304666	0.760175	0.458549	0.319038	0.566338	0.453060	0.283835	0.230693	0.219910	0.424738	0.305879	0.220367	0.146551	0.298227	0.235863	0.281743	0.174735	0.566362	0.246343	0.095912	0.125016	0.337505	0.204912	0.133700	0.163428	0.349750	0.223216	0.216452	0.094203	0.176706	0.409191	0.302461	0.254655	0.358313	0.272083	0.234502	0.119497	0.180242	0.138285	0.141129	0.258526	0.437230	0.468526	0.201915	0.187468	0.227932	0.438276	0.396124
27	0.219016	0.676254	0.174374	0.052717	0.400672	0.408562	0.166805	0.156594	0.274189	0.723864	0.232640	0.089152	0.169766	0.202558	0.127608	0.173545	0.151651	0.216571	0.194257	0.260477	0.099873	0.335291	0.148024	0.143869	0.177829	0.405263	0.257771	0.301796	0.225345	0.703942	0.173410	0.187054	0.299315	0.775507	0.414899	0.316552	0.584858	0.471538	0.293087	0.358629	0.195180	0.359583	0.306397	0.221500	0.124122	0.259259	0.336267	0.294743	0.189152	0.607563	0.284618	0.195489	0.133851	0.363066	0.233899	0.134058	0.162520	0.328006	0.257937	0.224246	0.086065	0.169192	0.421827	0.307075	0.225887	0.305097	0.258206	0.227574	0.116017	0.178723	0.123440	0.131405	0.154242	0.312414	0.456355	0.178887	0.200387	0.230244	0.438096	0.407617
28	0.240461	0.699978	0.305818	0.174266	0.465823	0.458024	0.161489	0.158180	0.316048	0.759955	0.286302	0.094698	0.130920	0.230605	0.114883	0.135790	0.153360	0.230140	0.199042	0.205086	0.102217	0.339800	0.145891	0.145492	0.203974	0.427709	0.286377	0.306279	0.178745	0.555800	0.174770	0.188657	0.311344	0.811450	0.404104	0.272906	0.600195	0.488694	0.324843	0.367724	0.201153	0.375828	0.306401	0.221793	0.136887	0.247770	0.492857	0.334404	0.188728	0.599861	0.358855	0.204261	0.135459	0.363968	0.294473	0.137636	0.168967	0.332192	0.441397	0.226847	0.101541	0.171306	0.380595	0.306579	0.178570	0.236041	0.148883	0.232355	0.100276	0.164945	0.124799	0.129440	0.146133	0.272234	0.382717	0.158655	0.206612	0.228680	0.422327	0.410849
29	0.243184	0.653170	0.366024	0.457375	0.516148	0.484635	0.156879	0.169818	0.319960	0.773044	0.346442	0.093373	0.093869	0.237557	0.100185	0.098335	0.151120	0.238075	0.310963	0.208437	0.140986	0.396483	0.136514	0.144336	0.211797	0.396394	0.317955	0.316338	0.150968	0.402507	0.194495	0.204485	0.336839	0.858426	0.420721	0.239114	0.601886	0.485500	0.439154	0.394529	0.210820	0.500710	0.306702	0.221777	0.156957	0.239551	0.566843	0.367242	0.187579	0.579373	0.458875	0.225524	0.140170	0.346411	0.317909	0.139604	0.201224	0.327227	0.463869	0.253993	0.108833	0.171943	0.312140	0.278302	0.144690	0.232267	0.147827	0.201781	0.088900	0.148744	0.123746	0.128110	0.140347	0.256993	0.269273	0.112271	0.206489	0.218295	0.397320	0.410404
30	0.247395	0.543926	0.382615	0.509964	0.552827	0.500191	0.169029	0.173280	0.311078	0.773436	0.357441	0.095220	0.073913	0.233056	0.099040	0.069740	0.144726	0.241213	0.389385	0.324997	0.145192	0.423385	0.120560	0.138777	0.214731	0.394853	0.379328	0.333429	0.112790	0.310824	0.214114	0.223363	0.346033	0.882340	0.408147	0.269579	0.597151	0.471057	0.518456	0.430877	0.215002	0.583936	0.309634	0.221676	0.212952	0.253210	0.581460	0.399588	0.219645	0.575932	0.478590	0.239519	0.149962	0.334000	0.319251	0.144172	0.232568	0.333854	0.463892	0.274783	0.113072	0.188031	0.311744	0.196040	0.140237	0.235233	0.252890	0.161453	0.086089	0.142931	0.126167	0.128540	0.130065	0.283075	0.252417	0.164385	0.204317	0.199804	0.380865	0.410366
31	0.280373	0.537790	0.430793	0.512394	0.559720	0.495057	0.182996	0.182391	0.309519	0.773264	0.359955	0.097357	0.077092	0.247370	0.105762	0.067948	0.118787	0.255954	0.397667	0.346510	0.149943	0.423890	0.113116	0.134461	0.214619	0.383600	0.405902	0.351141	0.126658	0.257301	0.216242	0.228761	0.349247	0.896027	0.290287	0.269823	0.579461	0.450265	0.519485	0.464294	0.222963	0.589089	0.323247	0.222220	0.242940	0.285438	0.590186	0.414490	0.245461	0.546729	0.486011	0.251962	0.152794	0.323738	0.321228	0.156031	0.265520	0.402679	0.454178	0.275644	0.126694	0.219146	0.305454	0.190712	0.150054	0.256061	0.253808	0.170482	0.088977	0.143977	0.126414	0.129612	0.169379	0.294801	0.334459	0.190491	0.203151	0.186593	0.378922	0.409711
32	0.257465	0.546952	0.657954	0.524062	0.557531	0.490113	0.176046	0.180900	0.315080	0.766278	0.361081	0.105509	0.073815	0.253339	0.123388	0.072013	0.120716	0.268750	0.402542	0.340610	0.143674	0.425935	0.137493	0.129944	0.216078	0.375141	0.406816	0.357930	0.125982	0.256631	0.286840	0.199855	0.340162	0.863781	0.224396	0.252798	0.552120	0.416397	0.518912	0.482723	0.281284	0.682325	0.350924	0.215967	0.250944	0.308160	0.601098	0.410252	0.248079	0.539484	0.488220	0.259647	0.162281	0.279449	0.325616	0.174793	0.252924	0.370394	0.458486	0.261641	0.127469	0.206843	0.291954	0.221094	0.187275	0.288937	0.281740	0.184808	0.089635	0.144504	0.125189	0.129167	0.214680	0.307817	0.375930	0.235453	0.203969	0.195603	0.374732	0.406274
33	0.285084	0.553952	0.723483	0.578333	0.546666	0.477576	0.159738	0.181300	0.289588	0.668394	0.362817	0.112576	0.077906	0.264545	0.122431	0.072326	0.133197	0.279379	0.520117	0.338480	0.140627	0.428492	0.135246	0.127834	0.215308	0.367104	0.399136	0.369921	0.127287	0.215303	0.370076	0.224075	0.301561	0.778407	0.237601	0.225642	0.539272	0.406993	0.518723	0.486822	0.308015	0.721938	0.386578	0.224689	0.247045	0.303882	0.633140	0.407812	0.241880	0.556667	0.488011	0.258420	0.169192	0.289021	0.332858	0.177391	0.243945	0.338515	0.454491	0.257146	0.144322	0.214625	0.282335	0.270730	0.208899	0.316451	0.310900	0.230655	0.092554	0.151804	0.121069	0.129120	0.231061	0.316427	0.376614	0.254005	0.201074	0.200021	0.374464	0.305775
34	0.332792	0.559591	0.725348	0.660997	0.516409	0.445927	0.148480	0.164930	0.259060	0.483526	0.363107	0.113886	0.086740	0.267814	0.114003	0.070209	0.133040	0.277935	0.624493	0.338138	0.146230	0.430989	0.128624	0.127844	0.198640	0.317176	0.381379	0.314670	0.123873	0.166990	0.395040	0.248675	0.281602	0.737741	0.256363	0.201345	0.521341	0.390866	0.519821	0.485525	0.313336	0.744321	0.401638	0.267001	0.242678	0.302808	0.655974	0.415397	0.228187	0.505607	0.572064	0.255949	0.175309	0.308388	0.326624	0.178370	0.241167	0.346703	0.451693	0.249985	0.169285	0.254005	0.268897	0.266877	0.204735	0.305383	0.321491	0.291277	0.094871	0.167077	0.116595	0.129177	0.249476	0.289521	0.379158	0.256915	0.191609	0.180961	0.373992	0.246119
35	0.371870	0.477981	0.727225	0.695915	0.501234	0.424705	0.144091	0.134616	0.255693	0.439477	0.358403	0.110575	0.100204	0.269984	0.125833	0.069989	0.148341	0.282320	0.636103	0.349344	0.159065	0.434259	0.119360	0.125737	0.192495	0.304897	0.374351	0.280382	0.167042	0.136722	0.403365	0.249954	0.250367	0.654372	0.260900	0.203939	0.411122	0.328541	0.520195	0.482325	0.317957	0.755929	0.414576	0.276013	0.244900	0.302185	0.632712	0.450611	0.220796	0.406362	0.567042	0.284698	0.174659	0.318352	0.314018	0.167016	0.241021	0.352643	0.452995	0.195997	0.194522	0.286091	0.272850	0.237775	0.205185	0.275666	0.324818	0.358406	0.108665	0.218509	0.115682	0.121172	0.297439	0.306351	0.388493	0.257589	0.170435	0.172632	0.368474	0.239591
36	0.386823	0.477794	0.726463	0.696863	0.478400	0.419889	0.143404	0.131544	0.246252	0.404779	0.346017	0.103573	0.110730	0.279118	0.178515	0.070596	0.156741	0.270654	0.635402	0.363255	0.175778	0.439148	0.146464	0.074882	0.178468	0.291157	0.346391	0.300827	0.192448	0.142964	0.457343	0.266952	0.236140	0.588789	0.270478	0.215835	0.349161	0.302223	0.487920	0.472381	0.347314	0.775854	0.394972	0.273710	0.251290	0.306593	0.652104	0.398217	0.211567	0.331152	0.586000	0.240459	0.171147	0.313211	0.292951	0.145454	0.252212	0.399600	0.450528	0.194869	0.194054	0.290873	0.243696	0.231646	0.205974	0.272832	0.325442	0.383405	0.108170	0.215213	0.109991	0.086975	0.321041	0.408762	0.387626	0.263481	0.160998	0.159733	0.289866	0.213403
37	0.395270	0.475790	0.724403	0.698411	0.451366	0.416372	0.139019	0.127608	0.244940	0.381522	0.330178	0.088081	0.109033	0.280045	0.188997	0.070580	0.154097	0.238521	0.635751	0.369663	0.179234	0.437398	0.185552	0.072423	0.141700	0.230039	0.335675	0.305614	0.217307	0.150831	0.499659	0.273104	0.244381	0.580917	0.278620	0.229876	0.314901	0.269185	0.461310	0.405470	0.360749	0.786520	0.376826	0.267830	0.252107	0.307763	0.644303	0.383954	0.264927	0.381201	0.601052	0.238702	0.156967	0.274652	0.299201	0.136611	0.247956	0.431288	0.410194	0.190653	0.186105	0.288630	0.271097	0.243433	0.210895	0.270587	0.334855	0.414815	0.115706	0.253594	0.096869	0.056325	0.322866	0.426445	0.345235	0.264266	0.135850	0.160781	0.268035	0.192902
38	0.395815	0.472728	0.722266	0.701524	0.389983	0.370402	0.192989	0.124432	0.258358	0.363237	0.326303	0.125804	0.112369	0.278686	0.212130	0.070150	0.153615	0.238423	0.635961	0.371259	0.197799	0.409452	0.191275	0.082310	0.131855	0.242507	0.302950	0.333015	0.221550	0.171821	0.520764	0.306543	0.263710	0.537719	0.278210	0.239413	0.280148	0.229396	0.472309	0.337982	0.363315	0.785545	0.429433	0.263737	0.248611	0.306569	0.571547	0.358361	0.278117	0.399439	0.582983	0.224073	0.148331	0.229150	0.299687	0.148703	0.240751	0.430636	0.238283	0.207440	0.176402	0.280956	0.270663	0.249131	0.280589	0.379015	0.304804	0.418605	0.109480	0.250569	0.076554	0.055315	0.322809	0.423275	0.316715	0.260690	0.118892	0.156698	0.252878	0.156453
39	0.379070	0.432731	0.688449	0.703600	0.325666	0.339178	0.334662	0.120072	0.229373	0.307389	0.327679	0.127916	0.113943	0.277947	0.230382	0.068437	0.149434	0.212793	0.637414	0.369531	0.202715	0.334260	0.189993	0.083137	0.122965	0.252657	0.240734	0.332929	0.221123	0.173433	0.522242	0.318671	0.259033	0.489158	0.278593	0.235863	0.256224	0.191769	0.430438	0.336745	0.366404	0.782734	0.455096	0.275554	0.247025	0.305789	0.435487	0.326691	0.281979	0.394914	0.571206	0.208470	0.150196	0.217331	0.277755	0.150264	0.214547	0.420719	0.235295	0.169080	0.174160	0.271873	0.269361	0.252604	0.330412	0.569490	0.268245	0.403130	0.103116	0.243174	0.078285	0.054535	0.323863	0.407709	0.307851	0.217836	0.107488	0.158217	0.263378	0.131180
40	0.372215	0.447376	0.655539	0.609611	0.259336	0.324411	0.363167	0.151014	0.243673	0.259948	0.284321	0.138934	0.113517	0.275825	0.231021	0.058478	0.159030	0.236008	0.632063	0.368505	0.205543	0.312587	0.189725	0.081963	0.143458	0.282843	0.201597	0.314246	0.222248	0.176226	0.518282	0.313715	0.236236	0.442525	0.244410	0.210102	0.264726	0.208823	0.285009	0.294701	0.364906	0.779668	0.485140	0.286780	0.205356	0.278030	0.421840	0.285534	0.260876	0.374462	0.579371	0.192189	0.165435	0.235227	0.232860	0.149441	0.191973	0.385632	0.236434	0.140117	0.169522	0.252235	0.257330	0.262331	0.322330	0.584920	0.265993	0.395113	0.101587	0.244875	0.095790	0.049465	0.303188	0.401160	0.217951	0.186146	0.117211	0.170966	0.311316	0.131865
41	0.370668	0.461730	0.642280	0.503655	0.217868	0.315444	0.372181	0.152564	0.274467	0.269014	0.301274	0.140626	0.112970	0.263072	0.231002	0.053553	0.162213	0.276099	0.576058	0.335412	0.190993	0.268013	0.189895	0.080013	0.144757	0.301512	0.222758	0.305969	0.225027	0.201592	0.518031	0.310321	0.218924	0.400504	0.207351	0.165890	0.261275	0.238736	0.207086	0.242921	0.361014	0.778181	0.523706	0.290022	0.149368	0.209690	0.427728	0.251018	0.254059	0.357349	0.575640	0.179850	0.164451	0.256052	0.236052	0.151271	0.173452	0.325158	0.246071	0.140825	0.169323	0.250030	0.245324	0.251958	0.294156	0.588438	0.228277	0.375275	0.099525	0.245286	0.094400	0.040069	0.271114	0.413973	0.117465	0.128863	0.118926	0.174343	0.329553	0.142270
42	0.360129	0.464189	0.666971	0.487776	0.212319	0.315639	0.439497	0.170434	0.289476	0.271745	0.305591	0.139228	0.110051	0.220002	0.233132	0.055559	0.156532	0.315643	0.532416	0.229198	0.180819	0.179502	0.189106	0.080247	0.165514	0.361513	0.219825	0.325458	0.226909	0.217387	0.470442	0.309827	0.204508	0.364800	0.206678	0.160950	0.229798	0.216390	0.223145	0.188694	0.350585	0.747876	0.530855	0.296051	0.130685	0.161489	0.424778	0.243775	0.250299	0.316488	0.572293	0.178058	0.162074	0.259002	0.231249	0.150507	0.185015	0.322149	0.257498	0.142284	0.163460	0.263954	0.248533	0.169031	0.287778	0.582413	0.200585	0.358258	0.104629	0.256887	0.091909	0.032433	0.255737	0.404209	0.114327	0.078967	0.125126	0.177454	0.330565	0.144161
43	0.342878	0.480012	0.598604	0.558859	0.214135	0.323776	0.581335	0.176879	0.315521	0.297964	0.356296	0.134715	0.108891	0.192542	0.234305	0.057923	0.177997	0.379378	0.524644	0.209816	0.178298	0.182998	0.188413	0.080271	0.147423	0.358366	0.339037	0.305939	0.223327	0.217872	0.413523	0.272441	0.181608	0.336712	0.206320	0.161453	0.208183	0.199780	0.223401	0.201908	0.341030	0.640272	0.530771	0.300435	0.142556	0.189641	0.386911	0.244445	0.253332	0.335713	0.496880	0.174248	0.152850	0.257247	0.241918	0.123528	0.192650	0.325698	0.264470	0.140734	0.133391	0.212978	0.245499	0.162412	0.291506	0.606394	0.182781	0.274101	0.107248	0.272241	0.092910	0.036935	0.269811	0.442097	0.151084	0.071209	0.128695	0.179179	0.332005	0.150140
44	0.335279	0.489528	0.408327	0.656886	0.249189	0.324479	0.609720	0.202804	0.325628	0.325517	0.384695	0.128717	0.111594	0.188983	0.234173	0.058359	0.216653	0.471845	0.501213	0.200865	0.178080	0.186703	0.188780	0.081774	0.152033	0.356662	0.397881	0.309283	0.214663	0.219102	0.385096	0.254864	0.177900	0.334020	0.201843	0.155257	0.189715	0.194156	0.224326	0.202527	0.342676	0.567755	0.528199	0.304624	0.176862	0.209069	0.349396	0.251614	0.246273	0.342855	0.449469	0.192072	0.146738	0.244756	0.229999	0.119411	0.189452	0.307306	0.260219	0.138909	0.097034	0.184777	0.224398	0.156646	0.289299	0.610049	0.179478	0.230123	0.106248	0.277651	0.108124	0.065255	0.233015	0.443891	0.156660	0.120646	0.131878	0.166260	0.336655	0.149962
45	0.303394	0.463423	0.392527	0.597622	0.294125	0.342420	0.632381	0.217426	0.320794	0.334253	0.396481	0.126597	0.109326	0.166235	0.227847	0.051218	0.226725	0.484745	0.408635	0.186450	0.177281	0.177854	0.192600	0.088320	0.163237	0.349606	0.434658	0.275815	0.170481	0.205372	0.377074	0.241474	0.183149	0.383127	0.279812	0.153433	0.174801	0.193337	0.224463	0.225289	0.333776	0.549992	0.514349	0.304995	0.193088	0.213765	0.407455	0.199832	0.244777	0.317312	0.430610	0.220039	0.137251	0.208116	0.232513	0.120356	0.189119	0.300225	0.265727	0.137115	0.123498	0.182021	0.219489	0.150638	0.290016	0.627538	0.168490	0.151525	0.106427	0.295181	0.113453	0.066369	0.209519	0.359395	0.162715	0.116397	0.131370	0.160739	0.337709	0.151514
46	0.234884	0.412843	0.391256	0.537312	0.317077	0.354553	0.673195	0.215786	0.311890	0.323962	0.401896	0.127267	0.112045	0.153248	0.220063	0.047159	0.225133	0.579838	0.379071	0.177651	0.173019	0.170368	0.193477	0.089431	0.163075	0.337480	0.473799	0.286772	0.151900	0.195534	0.297043	0.217437	0.185230	0.405782	0.325391	0.159677	0.166608	0.196560	0.260622	0.233090	0.285410	0.429422	0.490588	0.304327	0.188020	0.213147	0.397197	0.140126	0.192705	0.273477	0.359616	0.214931	0.134197	0.174805	0.254287	0.159554	0.175247	0.225113	0.267216	0.134381	0.136683	0.203932	0.180691	0.137461	0.277546	0.659615	0.156593	0.120076	0.124698	0.299253	0.113777	0.066896	0.216529	0.359596	0.184711	0.116609	0.125728	0.150745	0.343185	0.156394
47	0.208091	0.391510	0.402417	0.527596	0.323276	0.353530	0.697179	0.215451	0.310603	0.316487	0.399049	0.130954	0.108946	0.130458	0.219911	0.044244	0.218802	0.669529	0.386463	0.147932	0.164363	0.161033	0.197326	0.089827	0.162764	0.338028	0.547290	0.247743	0.114315	0.215413	0.220774	0.203453	0.187995	0.408526	0.319596	0.146721	0.157202	0.211055	0.267974	0.231553	0.266179	0.400786	0.465916	0.257511	0.206261	0.233199	0.362512	0.136420	0.164899	0.207433	0.258003	0.240676	0.138363	0.168014	0.252316	0.168847	0.186720	0.189655	0.240490	0.115781	0.143144	0.238868	0.175320	0.119184	0.205858	0.590915	0.153399	0.171513	0.178588	0.356686	0.123071	0.067907	0.232784	0.364644	0.222577	0.148310	0.118826	0.129356	0.336386	0.159491
48	0.182147	0.377087	0.404546	0.537533	0.320936	0.345037	0.707030	0.215558	0.310417	0.320390	0.384704	0.132124	0.102409	0.124096	0.217691	0.043466	0.333511	0.722656	0.387230	0.112148	0.162956	0.179029	0.222976	0.136815	0.162778	0.333728	0.552894	0.224244	0.119695	0.369484	0.162647	0.142504	0.185882	0.404022	0.346509	0.136692	0.170796	0.216573	0.237434	0.223677	0.287333	0.406521	0.452509	0.200086	0.233705	0.265130	0.362679	0.134366	0.122119	0.206570	0.254973	0.261518	0.140148	0.168683	0.241819	0.169052	0.199728	0.204956	0.216190	0.071196	0.143176	0.282232	0.182546	0.108534	0.190772	0.536923	0.160644	0.192626	0.187584	0.361145	0.171476	0.071213	0.238644	0.377014	0.269727	0.346925	0.117177	0.127531	0.273258	0.146831
49	0.198141	0.376380	0.432438	0.548683	0.315751	0.302269	0.682458	0.216472	0.311673	0.351603	0.381803	0.113439	0.091037	0.118799	0.213378	0.043515	0.456698	0.766304	0.417350	0.091800	0.203181	0.239290	0.206915	0.151408	0.146116	0.328071	0.572161	0.283612	0.132524	0.399272	0.135532	0.085506	0.205799	0.388596	0.431280	0.130767	0.205396	0.310421	0.215363	0.208833	0.311778	0.407620	0.436244	0.189988	0.240567	0.282159	0.358892	0.129945	0.088417	0.184889	0.212064	0.264876	0.142735	0.176238	0.241499	0.163908	0.203305	0.209826	0.193870	0.072400	0.138560	0.281856	0.189285	0.095811	0.205334	0.541460	0.168611	0.268002	0.187007	0.354492	0.244605	0.089632	0.246166	0.381516	0.279359	0.489267	0.115686	0.128863	0.246218	0.111236
50	0.233364	0.384797	0.542833	0.547363	0.313329	0.312202	0.633004	0.213554	0.300130	0.358968	0.369196	0.087753	0.080373	0.097175	0.208892	0.051533	0.521939	0.798606	0.513794	0.100871	0.211930	0.263810	0.274820	0.219542	0.145284	0.312224	0.566480	0.313306	0.145943	0.440326	0.125820	0.067552	0.225549	0.360901	0.496639	0.219122	0.270384	0.687815	0.213093	0.203960	0.300115	0.371159	0.440810	0.185180	0.239412	0.282259	0.358734	0.129532	0.079162	0.180984	0.316321	0.293087	0.141383	0.177003	0.206083	0.158143	0.185005	0.198101	0.190836	0.070963	0.176403	0.338661	0.153302	0.058919	0.223528	0.543071	0.193822	0.332348	0.184324	0.337619	0.264205	0.092091	0.263791	0.373425	0.399818	0.499219	0.112000	0.144505	0.246781	0.106443
51	0.237625	0.358040	0.628633	0.560681	0.290845	0.292618	0.632838	0.187337	0.283049	0.338627	0.346510	0.078369	0.086464	0.088357	0.206334	0.055030	0.526162	0.801225	0.543404	0.179245	0.204530	0.260085	0.314106	0.227344	0.112572	0.236921	0.561760	0.281037	0.132501	0.437096	0.122573	0.064485	0.245014	0.326569	0.501005	0.230787	0.271474	0.840374	0.213685	0.203294	0.341535	0.365961	0.445276	0.184299	0.243169	0.292304	0.323756	0.133512	0.121395	0.191141	0.357662	0.302294	0.121445	0.155042	0.199802	0.161865	0.156492	0.181904	0.171942	0.061104	0.184738	0.383984	0.121379	0.057162	0.278095	0.555547	0.246149	0.386899	0.195484	0.356937	0.268210	0.099838	0.299635	0.392215	0.596741	0.553776	0.108623	0.169666	0.224039	0.107050
52	0.237627	0.311664	0.637045	0.564429	0.274003	0.306850	0.622162	0.177395	0.246164	0.312857	0.307275	0.067589	0.095912	0.095699	0.188477	0.059536	0.537925	0.798928	0.547028	0.221403	0.208087	0.257668	0.353636	0.247553	0.134692	0.223236	0.521454	0.279413	0.137674	0.452173	0.124717	0.040437	0.276547	0.357222	0.500688	0.265206	0.281563	0.840284	0.198593	0.197665	0.392209	0.377862	0.407483	0.173445	0.246545	0.375510	0.302760	0.134823	0.158951	0.189792	0.371944	0.324744	0.100538	0.108413	0.194594	0.157336	0.140240	0.171318	0.135711	0.066409	0.214563	0.402572	0.121727	0.058749	0.294144	0.530383	0.302930	0.451624	0.198499	0.358797	0.267553	0.107495	0.271596	0.353022	0.647347	0.684669	0.096292	0.160361	0.153339	0.093043
53	0.276607	0.326915	0.624707	0.565354	0.267010	0.303533	0.553857	0.157537	0.313334	0.340901	0.275101	0.071039	0.104925	0.096940	0.174965	0.070158	0.552251	0.798999	0.548300	0.232307	0.213408	0.258668	0.412902	0.257061	0.134273	0.222756	0.480841	0.278138	0.160857	0.565114	0.130465	0.041281	0.289641	0.376059	0.503234	0.311402	0.272764	0.844303	0.186203	0.170494	0.398622	0.378185	0.378129	0.141671	0.240421	0.391250	0.299956	0.122766	0.185332	0.175818	0.421507	0.379661	0.104625	0.114964	0.194790	0.149523	0.132735	0.166244	0.122933	0.069630	0.288835	0.544710	0.123207	0.100787	0.297585	0.533125	0.313902	0.484560	0.216442	0.377382	0.262308	0.110976	0.276058	0.307303	0.640152	0.775957	0.097979	0.158297	0.130922	0.081746
54	0.322212	0.312463	0.590357	0.556854	0.262160	0.305648	0.412614	0.143695	0.400614	0.373339	0.246816	0.071884	0.127699	0.094076	0.174922	0.099770	0.556779	0.789537	0.548817	0.257562	0.215423	0.256361	0.425958	0.258441	0.130942	0.219891	0.452002	0.278175	0.162804	0.569378	0.131492	0.041445	0.290904	0.377934	0.506594	0.318315	0.276540	0.850041	0.185381	0.126752	0.488444	0.450551	0.332608	0.129425	0.237150	0.382124	0.296552	0.112716	0.187245	0.173828	0.483360	0.370878	0.113860	0.189516	0.179980	0.148831	0.128704	0.167177	0.126226	0.081682	0.303554	0.627155	0.144233	0.102822	0.305957	0.502216	0.408525	0.542312	0.250017	0.468699	0.261545	0.111228	0.286034	0.304991	0.642937	0.809792	0.104079	0.182504	0.128925	0.075864
55	0.342234	0.282445	0.574497	0.385383	0.218103	0.303398	0.398695	0.091345	0.487772	0.374762	0.164680	0.071341	0.171410	0.086701	0.217916	0.103456	0.544062	0.745803	0.567559	0.258684	0.240919	0.267494	0.515547	0.262785	0.150136	0.225595	0.403270	0.262268	0.164136	0.584882	0.120352	0.048178	0.297610	0.381817	0.501137	0.318712	0.280525	0.852615	0.183007	0.108879	0.644320	0.529531	0.276010	0.223196	0.207532	0.369886	0.213743	0.111261	0.186810	0.172006	0.523336	0.471256	0.109424	0.218773	0.166863	0.148352	0.124850	0.189001	0.101257	0.100306	0.319883	0.678058	0.168671	0.110519	0.394601	0.515613	0.441442	0.542055	0.260393	0.527979	0.271207	0.111110	0.302803	0.311621	0.647695	0.818957	0.108843	0.283110	0.120519	0.064950
56	0.347795	0.275442	0.583094	0.280570	0.156392	0.296868	0.341573	0.066491	0.519114	0.359857	0.115235	0.068104	0.173623	0.081447	0.259310	0.105477	0.527983	0.695214	0.574530	0.257835	0.261404	0.280714	0.566956	0.270113	0.168854	0.223311	0.297061	0.267843	0.176281	0.597148	0.100527	0.071589	0.303938	0.347162	0.453393	0.318736	0.308937	0.896576	0.167293	0.049588	0.711823	0.576389	0.274918	0.287014	0.206374	0.394527	0.169692	0.105167	0.199294	0.188474	0.542677	0.516120	0.111734	0.247782	0.162214	0.148307	0.121361	0.185869	0.086286	0.103157	0.324859	0.685578	0.177056	0.265074	0.453985	0.498546	0.435298	0.547481	0.261161	0.524057	0.278921	0.110853	0.334733	0.357230	0.640765	0.814983	0.159737	0.336582	0.106355	0.064437
57	0.348737	0.274812	0.591641	0.263817	0.109123	0.308298	0.258432	0.064701	0.670915	0.456513	0.078288	0.075334	0.174346	0.106390	0.297861	0.105439	0.525178	0.679073	0.510598	0.260508	0.275723	0.301747	0.569978	0.271245	0.197091	0.345409	0.271163	0.270438	0.179997	0.596110	0.097506	0.081613	0.302244	0.320526	0.432323	0.311688	0.324118	0.966926	0.109810	0.028603	0.739744	0.597184	0.301146	0.289362	0.201350	0.435497	0.165114	0.123914	0.267488	0.241280	0.589286	0.509318	0.109346	0.250825	0.133102	0.113037	0.097483	0.170666	0.074587	0.160948	0.324069	0.664863	0.232680	0.292038	0.458393	0.442878	0.433247	0.537810	0.263327	0.547690	0.292371	0.096145	0.341260	0.344622	0.621847	0.759877	0.194772	0.445809	0.102005	0.060396
58	0.337342	0.264344	0.598635	0.246130	0.086497	0.308682	0.199673	0.064716	0.758238	0.492019	0.072577	0.073240	0.172886	0.116846	0.305308	0.107546	0.526305	0.589851	0.450696	0.262778	0.281931	0.324770	0.568442	0.270350	0.218908	0.605861	0.210804	0.214137	0.174346	0.510462	0.105443	0.090415	0.299472	0.314933	0.438341	0.323738	0.328265	1.014712	0.103516	0.028732	0.751018	0.605700	0.302571	0.296047	0.190611	0.469797	0.152513	0.144357	0.318267	0.301452	0.613924	0.513605	0.105202	0.251802	0.117764	0.071415	0.080561	0.152266	0.074993	0.202089	0.333565	0.663866	0.240731	0.294447	0.453464	0.419489	0.430564	0.516984	0.263180	0.551199	0.303802	0.107278	0.344656	0.342287	0.617708	0.673307	0.200213	0.448102	0.080351	0.042407
59	0.336580	0.259636	0.618523	0.246291	0.082753	0.311756	0.173300	0.063961	0.763167	0.492123	0.112346	0.069830	0.177314	0.116048	0.339506	0.110916	0.530369	0.503289	0.448745	0.258957	0.284364	0.345696	0.567322	0.269950	0.218157	0.672631	0.197796	0.158531	0.158094	0.489062	0.109379	0.091690	0.294485	0.309426	0.430862	0.328903	0.319256	1.030121	0.094427	0.026211	0.753279	0.607613	0.314609	0.296603	0.178581	0.467220	0.146121	0.143410	0.331499	0.325113	0.579417	0.498855	0.109653	0.260083	0.105157	0.064969	0.071483	0.146493	0.076152	0.211983	0.323862	0.646936	0.296405	0.313092	0.437688	0.389926	0.413877	0.462558	0.256091	0.549761	0.306819	0.145059	0.331276	0.325612	0.555072	0.668277	0.202402	0.451346	0.072688	0.033290
60	0.331866	0.254196	0.646296	0.206906	0.087954	0.364546	0.169747	0.056346	0.765426	0.492984	0.229183	0.070188	0.177784	0.114430	0.367728	0.114015	0.440134	0.424577	0.464590	0.264182	0.282964	0.350590	0.561696	0.265207	0.222173	0.682705	0.196438	0.155454	0.149685	0.461033	0.121570	0.091804	0.261250	0.299317	0.360458	0.325722	0.292936	0.979703	0.094594	0.033331	0.752297	0.600436	0.350828	0.298618	0.177335	0.465103	0.154142	0.145017	0.322744	0.319380	0.580198	0.499793	0.111305	0.266473	0.076945	0.045405	0.096544	0.148550	0.116324	0.224440	0.334051	0.621642	0.302530	0.371057	0.405639	0.367476	0.390587	0.408117	0.223563	0.516047	0.308197	0.154413	0.293633	0.298288	0.338752	0.633870	0.203347	0.452449	0.090099	0.036225
61	0.307046	0.235261	0.612248	0.228203	0.091750	0.442331	0.160963	0.049636	0.767618	0.468294	0.281001	0.075288	0.178557	0.113548	0.371333	0.126605	0.326639	0.343282	0.434371	0.272739	0.257379	0.318626	0.555929	0.240801	0.218001	0.754881	0.154600	0.151263	0.156579	0.460039	0.121141	0.091741	0.246433	0.307888	0.333903	0.270917	0.251262	0.736938	0.120132	0.043158	0.752820	0.580380	0.355255	0.315974	0.176085	0.464710	0.151227	0.142710	0.310932	0.311168	0.576911	0.489491	0.122428	0.365331	0.048714	0.043440	0.170315	0.213111	0.204468	0.260504	0.355186	0.628815	0.309680	0.408021	0.402612	0.364628	0.355527	0.371806	0.210516	0.501343	0.295153	0.154010	0.290910	0.307548	0.173332	0.498477	0.218916	0.467875	0.113935	0.065115
62	0.299623	0.224085	0.489335	0.215001	0.125188	0.442314	0.133101	0.093187	0.775110	0.473327	0.283142	0.081466	0.177540	0.112035	0.372618	0.137921	0.241688	0.275268	0.313212	0.265845	0.232886	0.286057	0.530248	0.196492	0.233769	0.849472	0.091089	0.145943	0.144530	0.430531	0.117579	0.092105	0.244890	0.319158	0.384284	0.335737	0.240072	0.644912	0.142743	0.081923	0.747628	0.550821	0.351683	0.353601	0.171433	0.437313	0.151593	0.136824	0.291780	0.296650	0.552624	0.448486	0.123770	0.443954	0.038364	0.026460	0.213305	0.269201	0.374975	0.270572	0.345364	0.544421	0.308868	0.404072	0.399861	0.356271	0.334705	0.298452	0.209711	0.503771	0.246530	0.144815	0.280788	0.340476	0.167226	0.317071	0.228425	0.481538	0.111393	0.149394
63	0.312425	0.228542	0.474838	0.184914	0.142329	0.460625	0.102025	0.167785	0.777270	0.474463	0.282632	0.100034	0.177446	0.107951	0.367615	0.138232	0.240124	0.273120	0.286033	0.223965	0.228318	0.340424	0.499562	0.155153	0.237276	0.875630	0.150387	0.118595	0.140605	0.335874	0.128591	0.087262	0.236950	0.294178	0.398721	0.441463	0.224649	0.632857	0.137519	0.087821	0.738087	0.534383	0.347576	0.383721	0.179618	0.421557	0.174241	0.136265	0.292715	0.299271	0.493140	0.430648	0.126304	0.462812	0.036547	0.017570	0.226236	0.288693	0.397378	0.296509	0.335625	0.454102	0.310520	0.401916	0.380691	0.337619	0.186593	0.208284	0.206340	0.497440	0.227557	0.180770	0.264369	0.355158	0.214428	0.203572	0.225292	0.476701	0.112235	0.159558
64	0.315343	0.221953	0.568772	0.180170	0.128564	0.493455	0.140586	0.173183	0.764782	0.472640	0.290328	0.098629	0.184756	0.106561	0.379173	0.135248	0.212035	0.241484	0.276178	0.203132	0.228204	0.371502	0.479886	0.137863	0.245396	0.885803	0.196674	0.106422	0.151801	0.341354	0.210439	0.093096	0.247332	0.277535	0.407034	0.427736	0.223653	0.636431	0.135199	0.096293	0.728128	0.530175	0.345990	0.389747	0.177376	0.442805	0.196622	0.136539	0.297575	0.305921	0.444137	0.334389	0.169900	0.543867	0.033995	0.017674	0.241750	0.304321	0.408025	0.294160	0.319881	0.366573	0.300020	0.401608	0.266921	0.281475	0.150379	0.175943	0.198880	0.480648	0.236814	0.188257	0.240505	0.328598	0.198207	0.166266	0.224972	0.477920	0.107056	0.171525
65	0.260075	0.174995	0.627003	0.177529	0.137738	0.517499	0.169005	0.176304	0.727410	0.448700	0.305524	0.104663	0.192905	0.109361	0.418774	0.134133	0.175332	0.188110	0.280500	0.179840	0.220362	0.391975	0.432831	0.100988	0.236276	0.884872	0.232986	0.151846	0.164091	0.324092	0.211792	0.110404	0.278644	0.284459	0.437103	0.449430	0.220075	0.641055	0.135670	0.108958	0.704126	0.517864	0.345740	0.392363	0.184715	0.451293	0.198839	0.164833	0.297743	0.303242	0.407285	0.192674	0.170707	0.554878	0.048458	0.022814	0.246451	0.293527	0.426851	0.313888	0.307480	0.327714	0.288152	0.344166	0.150517	0.202885	0.135093	0.131200	0.203307	0.487890	0.240829	0.203093	0.255319	0.326293	0.190044	0.164767	0.226568	0.480507	0.142397	0.185786
66	0.207327	0.143195	0.629986	0.180435	0.143495	0.517262	0.189972	0.180901	0.667109	0.426504	0.309118	0.125925	0.202572	0.139759	0.420385	0.132645	0.163508	0.162174	0.290180	0.150631	0.220563	0.409428	0.409814	0.093389	0.213591	0.853344	0.265470	0.221264	0.161107	0.304420	0.210577	0.118085	0.297195	0.284529	0.618143	0.451326	0.214543	0.644362	0.146129	0.115318	0.676547	0.511479	0.344603	0.404454	0.187353	0.465527	0.216869	0.179986	0.248498	0.267514	0.349385	0.168345	0.169056	0.536865	0.070874	0.021894	0.249267	0.293172	0.492679	0.501726	0.308697	0.325291	0.254881	0.293953	0.133278	0.184994	0.101176	0.101442	0.195304	0.483498	0.242247	0.214445	0.332208	0.392656	0.239157	0.232607	0.278760	0.584574	0.165827	0.187462
67	0.187874	0.145926	0.620883	0.192108	0.147343	0.507695	0.194945	0.207731	0.603166	0.421231	0.312732	0.133876	0.203922	0.193012	0.419865	0.126022	0.168390	0.170663	0.263514	0.152096	0.200718	0.405369	0.339995	0.088952	0.183887	0.701045	0.270734	0.301435	0.184452	0.294019	0.225524	0.137906	0.297627	0.273095	0.655549	0.454029	0.189981	0.584727	0.157026	0.115926	0.670578	0.507071	0.344759	0.407155	0.185572	0.427368	0.250744	0.177677	0.170908	0.196051	0.265370	0.154305	0.167078	0.530347	0.144657	0.030996	0.259070	0.300408	0.527700	0.517531	0.300618	0.323600	0.225052	0.292587	0.134184	0.186853	0.109537	0.100253	0.151865	0.413440	0.291658	0.235312	0.373493	0.457316	0.331948	0.407943	0.301790	0.699125	0.173625	0.190893
68	0.190808	0.146508	0.649403	0.190325	0.148530	0.500655	0.201904	0.218277	0.570578	0.392028	0.313269	0.160821	0.199024	0.278218	0.422283	0.105288	0.181235	0.183891	0.246710	0.152625	0.168741	0.397803	0.186019	0.060077	0.182614	0.622475	0.272142	0.317331	0.191218	0.298497	0.287058	0.139212	0.316585	0.290141	0.675471	0.483068	0.181235	0.463044	0.152758	0.115949	0.584008	0.430555	0.343209	0.404403	0.173808	0.362146	0.250141	0.152852	0.128791	0.138773	0.272523	0.229904	0.191345	0.566889	0.219997	0.077122	0.266840	0.313987	0.528294	0.539989	0.294787	0.322275	0.157757	0.278723	0.163234	0.249691	0.236560	0.123442	0.125578	0.327689	0.323845	0.253067	0.408033	0.495404	0.397292	0.832860	0.270976	0.668945	0.239726	0.207590
69	0.210718	0.154586	0.673484	0.199168	0.164423	0.515165	0.233248	0.226742	0.270370	0.274052	0.311973	0.162713	0.167779	0.303412	0.392999	0.100996	0.179653	0.180615	0.247441	0.142909	0.152019	0.424482	0.109381	0.034565	0.178758	0.611420	0.292191	0.395428	0.212626	0.304146	0.289249	0.146165	0.318483	0.288543	0.671762	0.476414	0.183046	0.368460	0.151928	0.115471	0.428424	0.340517	0.366820	0.388739	0.159766	0.325551	0.264980	0.164241	0.157956	0.133128	0.214671	0.259458	0.203003	0.605936	0.239931	0.241725	0.279973	0.322208	0.540837	0.629535	0.277004	0.303964	0.135113	0.211108	0.166990	0.282661	0.403735	0.165396	0.122439	0.320834	0.318893	0.259365	0.424130	0.520127	0.412204	0.932125	0.267337	0.684283	0.268053	0.223456
70	0.219059	0.156499	0.671690	0.278950	0.183281	0.540942	0.235187	0.242829	0.232838	0.277662	0.323686	0.172897	0.166835	0.304687	0.376334	0.094782	0.171935	0.169764	0.253783	0.140358	0.133843	0.438659	0.146897	0.052246	0.173924	0.522947	0.316927	0.449873	0.222056	0.314380	0.286664	0.150741	0.328800	0.293125	0.662455	0.485564	0.223696	0.350435	0.151010	0.114920	0.309299	0.254060	0.439698	0.363828	0.156205	0.321894	0.279673	0.205120	0.186492	0.131720	0.151015	0.261449	0.200362	0.606674	0.275561	0.262952	0.298711	0.338218	0.534669	0.671970	0.240439	0.273740	0.117673	0.094337	0.192476	0.315033	0.568058	0.513953	0.118223	0.291964	0.302673	0.299060	0.436538	0.528014	0.489323	0.984851	0.266658	0.712738	0.286408	0.301612
71	0.246701	0.175565	0.645586	0.321354	0.189342	0.489050	0.233024	0.246232	0.227473	0.294850	0.298556	0.222291	0.165813	0.314348	0.346888	0.094273	0.147448	0.150486	0.355064	0.151039	0.136441	0.445963	0.364336	0.189587	0.172950	0.348540	0.314233	0.487216	0.219564	0.321911	0.287461	0.151797	0.332104	0.292442	0.654831	0.539137	0.385922	0.420594	0.144590	0.112650	0.243064	0.201307	0.485610	0.361575	0.163185	0.325073	0.279111	0.210685	0.221858	0.137426	0.181889	0.274756	0.200695	0.605227	0.297596	0.296368	0.271533	0.303922	0.490848	0.670677	0.170340	0.230567	0.106059	0.049034	0.233937	0.348941	0.596386	0.635266	0.120223	0.268502	0.296334	0.326337	0.432696	0.505346	0.675908	1.109014	0.273944	0.719523	0.301150	0.313117
72	0.255746	0.184373	0.631763	0.312911	0.187056	0.441776	0.227186	0.254576	0.211569	0.286847	0.285624	0.320084	0.164304	0.315508	0.339868	0.090399	0.177625	0.162966	0.418775	0.213617	0.166737	0.444849	0.478230	0.369442	0.164542	0.280049	0.306062	0.503313	0.216014	0.305237	0.286550	0.157794	0.321865	0.272327	0.634057	0.567541	0.502364	0.517201	0.114123	0.103104	0.213935	0.173712	0.495540	0.364362	0.161896	0.322743	0.283892	0.210324	0.236435	0.137265	0.204864	0.266705	0.195258	0.560658	0.364376	0.328950	0.243351	0.260359	0.400279	0.667270	0.129676	0.204710	0.127458	0.049173	0.241909	0.355588	0.706555	0.705532	0.127449	0.275458	0.297033	0.324467	0.458414	0.504162	0.715404	1.214826	0.298349	0.733312	0.334647	0.319098
73	0.253487	0.186140	0.686983	0.333758	0.170567	0.457141	0.229577	0.235848	0.182700	0.281347	0.337005	0.354120	0.157494	0.316631	0.303235	0.087457	0.208553	0.184434	0.410591	0.383096	0.206533	0.457033	0.484178	0.427576	0.140763	0.249571	0.288610	0.507529	0.208313	0.274104	0.272361	0.168225	0.300328	0.235089	0.617063	0.526718	0.552406	0.530343	0.092303	0.080041	0.223459	0.177186	0.486186	0.388446	0.152528	0.294907	0.292398	0.211069	0.234101	0.116415	0.330720	0.386330	0.208137	0.506169	0.392212	0.338849	0.235862	0.240897	0.390608	0.664231	0.115893	0.189950	0.131786	0.131326	0.248394	0.339831	0.946889	0.853019	0.153397	0.274679	0.340617	0.333202	0.499088	0.546175	0.723530	1.289953	0.327156	0.740038	0.482960	0.313686
74	0.288336	0.203207	0.710579	0.428953	0.166813	0.409750	0.227964	0.213408	0.184271	0.295067	0.350523	0.359441	0.157574	0.319149	0.273119	0.081748	0.216830	0.192510	0.408725	0.413527	0.228558	0.465377	0.511727	0.439151	0.130469	0.245420	0.266577	0.491640	0.194608	0.257527	0.228319	0.164733	0.285882	0.232908	0.615709	0.432168	0.561864	0.557535	0.110363	0.076747	0.236314	0.190583	0.461756	0.402290	0.137271	0.198147	0.268311	0.217832	0.232552	0.121476	0.350417	0.573968	0.228798	0.492977	0.444871	0.341764	0.223225	0.220509	0.418552	0.665953	0.114498	0.187228	0.131572	0.144060	0.285571	0.358431	1.007242	0.901916	0.163806	0.259175	0.484467	0.337485	0.510391	0.553229	0.730929	1.325925	0.326248	0.731789	0.517624	0.287437
75	0.395657	0.252903	0.667708	0.527579	0.185208	0.374365	0.197897	0.212002	0.206536	0.318514	0.471765	0.382694	0.155730	0.319724	0.271724	0.057614	0.213523	0.196533	0.442737	0.415279	0.245562	0.449104	0.579624	0.494633	0.130401	0.239740	0.231465	0.463915	0.185413	0.249348	0.231800	0.155192	0.270669	0.247948	0.607653	0.427929	0.708866	0.577303	0.110441	0.061508	0.236396	0.195166	0.459434	0.397325	0.124571	0.177931	0.265379	0.207447	0.350629	0.203403	0.356037	0.591763	0.215582	0.437983	0.455449	0.342648	0.216450	0.217281	0.457725	0.642958	0.117265	0.197712	0.180455	0.159680	0.325656	0.407042	1.007955	0.921701	0.165595	0.252102	0.567873	0.436226	0.505711	0.551125	0.717433	1.328148	0.355480	0.739122	0.572766	0.301934
76	0.556073	0.313855	0.578483	0.576328	0.187993	0.351043	0.219093	0.224407	0.194426	0.304863	0.525560	0.414740	0.156394	0.331166	0.284185	0.030615	0.226595	0.218312	0.542042	0.415543	0.245952	0.399299	0.724068	0.533016	0.133199	0.172280	0.227822	0.416236	0.172079	0.233263	0.225129	0.134297	0.239840	0.231924	0.582793	0.402500	0.789305	0.575601	0.112030	0.037418	0.223301	0.201521	0.467623	0.376421	0.108343	0.126237	0.252228	0.184783	0.392817	0.232066	0.488793	0.652015	0.204252	0.376583	0.454799	0.342604	0.212769	0.214559	0.380110	0.529472	0.122027	0.203365	0.216965	0.164477	0.351968	0.459687	0.999704	0.929300	0.167083	0.259832	0.575461	0.530747	0.492795	0.528205	0.704617	1.289844	0.375313	0.748518	0.592291	0.333854
77	0.599832	0.341340	0.539613	0.594220	0.185244	0.349042	0.273431	0.217987	0.185830	0.294752	0.525553	0.431780	0.154892	0.335122	0.286500	0.072683	0.231214	0.230029	0.604761	0.427771	0.263486	0.399221	0.769742	0.547338	0.131380	0.164018	0.274107	0.422609	0.145835	0.218712	0.199370	0.119773	0.211251	0.213886	0.407915	0.405320	0.795024	0.553552	0.101283	0.018827	0.215612	0.202991	0.499264	0.361853	0.101653	0.090982	0.197425	0.179677	0.407661	0.235925	0.658466	0.677785	0.203786	0.372961	0.452678	0.342695	0.198226	0.193945	0.363869	0.512842	0.134642	0.206997	0.223661	0.166532	0.368953	0.525715	0.978261	0.924269	0.166723	0.265405	0.573757	0.535307	0.468318	0.502106	0.680531	1.073279	0.380843	0.748405	0.590794	0.341604
78	0.638085	0.379116	0.536983	0.596289	0.185679	0.344835	0.270719	0.200903	0.187155	0.285957	0.524565	0.449407	0.148188	0.338180	0.239371	0.095925	0.238813	0.229767	0.606812	0.475179	0.274041	0.383195	0.774168	0.569319	0.137192	0.164683	0.381090	0.621167	0.140546	0.224696	0.095890	0.112012	0.225713	0.221636	0.352773	0.402232	0.808974	0.536113	0.100660	0.017031	0.210247	0.211220	0.547944	0.368290	0.091599	0.085975	0.173571	0.177765	0.427247	0.276575	0.657986	0.692116	0.205387	0.372298	0.449482	0.342250	0.186228	0.171254	0.435511	0.471130	0.137278	0.208781	0.228273	0.166927	0.368180	0.533095	0.899511	0.911505	0.167810	0.256802	0.594610	0.548076	0.452927	0.476120	0.686344	0.971051	0.339139	0.623948	0.592131	0.344092
79	0.657403	0.384498	0.510390	0.594499	0.193258	0.349028	0.269567	0.220295	0.201325	0.277874	0.523829	0.473536	0.147943	0.351085	0.180656	0.096561	0.253845	0.227846	0.600868	0.542467	0.285804	0.391795	0.781671	0.630210	0.202262	0.192209	0.404280	0.865357	0.104392	0.240142	0.091542	0.105269	0.311157	0.246282	0.298331	0.368587	0.827523	0.551686	0.110236	0.017767	0.209724	0.216311	0.606194	0.475215	0.077558	0.081702	0.166222	0.173766	0.489381	0.342893	0.658226	0.721693	0.190166	0.327188	0.411240	0.340582	0.158497	0.146230	0.475098	0.331051	0.137421	0.198709	0.229979	0.171015	0.357928	0.565599	0.840537	0.725395	0.181949	0.254544	0.645344	0.568300	0.445442	0.465701	0.638348	0.963199	0.329558	0.505262	0.590106	0.341378
80	0.678427	0.409569	0.531209	0.593786	0.203129	0.340795	0.247892	0.218508	0.202854	0.265039	0.528650	0.469970	0.131289	0.342497	0.173770	0.099341	0.263862	0.224353	0.611933	0.584074	0.290910	0.402789	0.784464	0.653829	0.255619	0.206557	0.420814	0.895083	0.072910	0.227482	0.087271	0.099157	0.379334	0.268026	0.298410	0.370911	0.831724	0.589839	0.119258	0.017337	0.211618	0.213995	0.652736	0.574163	0.070113	0.081746	0.122908	0.135580	0.526181	0.379880	0.681717	0.716117	0.165390	0.218495	0.409396	0.265421	0.103518	0.095594	0.484187	0.255781	0.134965	0.190561	0.262660	0.170053	0.348330	0.569903	0.806222	0.683250	0.180377	0.237790	0.670213	0.575744	0.447847	0.466524	0.463054	0.833410	0.323422	0.480659	0.561204	0.330792
81	0.799757	0.471134	0.592270	0.668272	0.224866	0.417233	0.260816	0.210742	0.205426	0.262063	0.550460	0.472849	0.121541	0.311543	0.217185	0.112202	0.269241	0.224970	0.628640	0.599129	0.283867	0.374762	0.783971	0.656584	0.259252	0.198677	0.522259	0.904555	0.073683	0.217678	0.085889	0.097851	0.420245	0.272209	0.306740	0.349269	0.810783	0.577961	0.119246	0.017137	0.223302	0.221090	0.674989	0.589767	0.049674	0.064422	0.106510	0.092673	0.554571	0.389811	0.737395	0.734964	0.166458	0.205698	0.385731	0.221516	0.183162	0.130969	0.487231	0.237467	0.119480	0.173674	0.259960	0.171409	0.389588	0.594257	0.683174	0.553999	0.185149	0.221646	0.654952	0.573763	0.432418	0.460208	0.400788	0.703093	0.316896	0.383005	0.554944	0.310706
82	0.820314	0.484195	0.610014	0.954737	0.237386	0.493846	0.270432	0.202022	0.202093	0.224501	0.557651	0.468801	0.104499	0.242972	0.306312	0.118651	0.270784	0.226061	0.632124	0.602178	0.285670	0.331534	0.790903	0.677691	0.257933	0.183912	0.559103	0.990708	0.083248	0.256241	0.086380	0.083577	0.422826	0.292440	0.355212	0.253823	0.728809	0.505677	0.124240	0.038482	0.250312	0.242795	0.689524	0.585132	0.039779	0.059421	0.108780	0.092849	0.554315	0.395453	0.811415	0.844969	0.165904	0.204353	0.369821	0.190480	0.278842	0.198889	0.480786	0.235814	0.104252	0.140618	0.255365	0.140302	0.437769	0.614009	0.264196	0.329255	0.203526	0.249227	0.652851	0.576137	0.403768	0.425502	0.403724	0.562324	0.313906	0.343917	0.544651	0.242802
83	0.829085	0.494996	0.643553	1.029512	0.238299	0.506726	0.271999	0.195359	0.200388	0.217648	0.545228	0.421500	0.101938	0.219773	0.319843	0.121006	0.269420	0.224814	0.571079	0.600123	0.289044	0.295169	0.778379	0.697225	0.262888	0.188747	0.557417	1.017184	0.083190	0.251305	0.107283	0.063053	0.604229	0.403519	0.373564	0.199009	0.667492	0.445430	0.132335	0.056868	0.285549	0.274516	0.675512	0.560286	0.038709	0.057167	0.180485	0.086480	0.603890	0.444845	0.823095	0.775918	0.160063	0.201424	0.319431	0.117656	0.350827	0.262814	0.474917	0.214622	0.101964	0.126476	0.256874	0.128939	0.475630	0.626561	0.155404	0.215723	0.220799	0.269235	0.653149	0.559197	0.373200	0.383450	0.397406	0.733195	0.306170	0.323833	0.536730	0.236649
84	0.870829	0.533037	0.620913	1.069837	0.233209	0.498858	0.268575	0.179001	0.233690	0.255994	0.497982	0.364416	0.111248	0.238737	0.339490	0.128102	0.241741	0.208315	0.548886	0.559242	0.285776	0.275718	0.686426	0.670815	0.272997	0.206166	0.559846	1.037063	0.089620	0.255180	0.128318	0.058680	0.639704	0.421740	0.380681	0.320262	0.641356	0.424977	0.129992	0.058440	0.301516	0.291355	0.627821	0.552126	0.051268	0.057851	0.194338	0.178685	0.608053	0.461899	0.827066	0.758263	0.143571	0.189476	0.263901	0.070420	0.399422	0.277387	0.425573	0.208872	0.092457	0.099168	0.240074	0.139148	0.469672	0.599971	0.221328	0.228021	0.224363	0.274200	0.651170	0.541650	0.303110	0.314933	0.397683	0.783900	0.274815	0.282661	0.498414	0.233089
85	0.943033	0.602500	0.600790	1.087977	0.228708	0.497208	0.265529	0.174174	0.348654	0.334535	0.482815	0.356493	0.117895	0.239643	0.352452	0.189235	0.225930	0.197240	0.563795	0.464851	0.268449	0.261389	0.670752	0.628700	0.289438	0.237740	0.560194	1.076286	0.105204	0.274603	0.125728	0.073485	0.644534	0.420102	0.428268	0.486026	0.619059	0.389098	0.123919	0.068540	0.298978	0.289810	0.614855	0.567452	0.072862	0.069435	0.195001	0.228046	0.628689	0.485527	0.886808	0.721505	0.106937	0.138474	0.177400	0.054682	0.432057	0.320663	0.379857	0.204915	0.080392	0.073255	0.197784	0.136702	0.615543	0.655866	0.394681	0.365379	0.221391	0.264728	0.649532	0.533600	0.281158	0.257912	0.366664	0.833093	0.239653	0.234512	0.342808	0.227148
86	0.953254	0.611964	0.610715	1.047914	0.211699	0.493596	0.261335	0.169945	0.483591	0.426355	0.436387	0.333682	0.118545	0.240166	0.362303	0.201495	0.241992	0.203629	0.569740	0.450346	0.251172	0.249488	0.665392	0.636471	0.295766	0.248003	0.545710	1.118529	0.107297	0.275543	0.126739	0.085463	0.667199	0.420531	0.443081	0.566455	0.396285	0.351203	0.126844	0.083075	0.294309	0.285805	0.665290	0.571808	0.110052	0.103651	0.223322	0.236816	0.626253	0.484886	0.866766	0.677909	0.068663	0.084898	0.119242	0.046849	0.465353	0.358365	0.390171	0.168099	0.069958	0.066924	0.215192	0.170328	0.716499	0.675723	0.558208	0.425303	0.205280	0.262743	0.631442	0.525838	0.272594	0.234204	0.483728	0.889106	0.232086	0.229616	0.312082	0.226192
87	0.885317	0.582000	0.607411	1.018604	0.208915	0.492580	0.206033	0.152711	0.646499	0.603560	0.311364	0.299310	0.120170	0.237167	0.362832	0.224361	0.281177	0.225272	0.529132	0.444076	0.238967	0.245771	0.632188	0.609476	0.300860	0.248287	0.477001	1.031132	0.105121	0.276845	0.154608	0.080106	0.691703	0.431413	0.467983	0.571531	0.315213	0.350719	0.141606	0.113589	0.288437	0.279862	0.765230	0.557226	0.115201	0.117440	0.344217	0.257364	0.614307	0.474099	0.875958	0.641933	0.059699	0.074708	0.118129	0.046607	0.499730	0.405676	0.484192	0.231995	0.053460	0.053947	0.208590	0.172959	0.744745	0.701667	0.580012	0.436588	0.192997	0.252419	0.532692	0.524180	0.282999	0.245838	0.480983	0.957665	0.181098	0.187819	0.185715	0.191961
88	0.813316	0.559972	0.650648	1.011709	0.209211	0.492524	0.145469	0.151861	0.734520	0.668469	0.273671	0.254147	0.119404	0.234651	0.368590	0.262983	0.287210	0.214863	0.420180	0.455706	0.225153	0.244820	0.508832	0.567473	0.260760	0.227639	0.434573	0.830852	0.099689	0.270134	0.168855	0.082480	0.698764	0.435503	0.553332	0.598760	0.289694	0.374923	0.141345	0.130808	0.280701	0.271897	0.864969	0.548158	0.119747	0.119164	0.381608	0.261084	0.576960	0.438084	0.890245	0.606965	0.058148	0.072680	0.118034	0.043839	0.561623	0.448001	0.525087	0.498438	0.086279	0.073078	0.216255	0.182949	0.758147	0.673322	0.631833	0.453359	0.196105	0.260230	0.425953	0.459482	0.278514	0.246152	0.536555	0.945093	0.134781	0.144510	0.132637	0.117321
89	0.817796	0.548755	0.685446	1.020867	0.205123	0.491721	0.138907	0.131631	0.766507	0.695250	0.276180	0.222536	0.122937	0.236214	0.401634	0.281146	0.286656	0.209096	0.362799	0.529757	0.209813	0.236687	0.332281	0.545813	0.188859	0.197778	0.422105	0.793109	0.100795	0.246604	0.168610	0.084430	0.688561	0.425120	0.665441	0.632624	0.224809	0.399182	0.137540	0.139523	0.277171	0.271602	0.885945	0.546459	0.147446	0.150284	0.385153	0.266340	0.532469	0.414790	0.905459	0.622477	0.048963	0.071104	0.098099	0.043422	0.586879	0.462472	0.503705	0.595020	0.146784	0.106456	0.223578	0.181525	0.758728	0.673446	0.722183	0.457705	0.197968	0.278275	0.408373	0.319058	0.274846	0.235798	0.550675	1.037998	0.108901	0.114441	0.095356	0.087562
90	0.815162	0.550763	0.686108	1.070043	0.192206	0.484809	0.130722	0.077720	0.843284	0.731216	0.275350	0.153170	0.125702	0.228031	0.431635	0.284331	0.288676	0.207684	0.402490	0.512875	0.184566	0.216311	0.325409	0.542133	0.173249	0.191355	0.287778	0.777992	0.101430	0.244969	0.169063	0.091498	0.689542	0.427384	0.703879	0.648232	0.146364	0.355302	0.182031	0.146472	0.282806	0.276478	0.882662	0.554626	0.178751	0.198380	0.386900	0.268346	0.487146	0.405078	0.871311	0.762824	0.044957	0.070561	0.078347	0.042236	0.621922	0.482165	0.498938	0.592146	0.172417	0.122424	0.200449	0.183859	0.733854	0.644493	0.748868	0.462488	0.195215	0.274446	0.403450	0.296779	0.266032	0.238672	0.531231	1.027131	0.090909	0.082979	0.063533	0.078856
91	0.824434	0.560964	0.692336	1.128974	0.160832	0.456786	0.128597	0.044794	0.869457	0.745682	0.275436	0.100081	0.132463	0.221045	0.440824	0.276424	0.325348	0.209313	0.437503	0.442820	0.166388	0.194151	0.306797	0.476150	0.177962	0.194493	0.179054	0.689056	0.090946	0.213497	0.170853	0.094585	0.767037	0.499340	0.703629	0.656723	0.156440	0.315598	0.201898	0.149859	0.299737	0.293805	0.863574	0.565653	0.187744	0.220653	0.388431	0.268244	0.488230	0.408987	0.812241	0.757782	0.044168	0.069444	0.057256	0.041353	0.610288	0.479911	0.520162	0.592071	0.176508	0.119709	0.193115	0.182815	0.705591	0.629434	0.753191	0.520633	0.188079	0.268040	0.372630	0.268480	0.240229	0.227950	0.603560	1.094922	0.087416	0.060719	0.047876	0.078602
92	0.734555	0.517861	0.652672	1.173330	0.096505	0.310882	0.105274	0.041675	0.954607	0.811679	0.265782	0.084317	0.135319	0.222448	0.437551	0.273254	0.327329	0.212612	0.439426	0.407759	0.152574	0.162720	0.294884	0.425392	0.183155	0.212851	0.203615	0.647546	0.087428	0.172789	0.174635	0.095628	0.832920	0.572224	0.699308	0.664777	0.190990	0.331677	0.202919	0.155625	0.336585	0.308375	0.824402	0.562983	0.188359	0.226222	0.388975	0.267924	0.450809	0.371432	0.808055	0.654637	0.037862	0.057776	0.045455	0.040285	0.572684	0.455561	0.542326	0.654418	0.186121	0.128847	0.188063	0.174283	0.670575	0.607085	0.765353	0.663557	0.163048	0.255207	0.279622	0.206037	0.219996	0.203975	0.659920	0.976492	0.093838	0.056849	0.043515	0.078240
93	0.670394	0.506471	0.606141	1.026810	0.086484	0.243492	0.083872	0.041229	0.976493	0.842737	0.268859	0.103274	0.123912	0.200287	0.432604	0.276373	0.428021	0.263385	0.448685	0.405468	0.151701	0.154849	0.292956	0.420996	0.180401	0.209174	0.310256	0.631750	0.092368	0.179910	0.153884	0.098230	0.846038	0.570053	0.678828	0.671722	0.199000	0.334601	0.200570	0.150346	0.359713	0.326323	0.772783	0.460661	0.188617	0.228166	0.370568	0.267599	0.377809	0.309798	0.807954	0.651051	0.033321	0.053379	0.052197	0.040139	0.529645	0.425730	0.545799	0.732749	0.310834	0.192246	0.254464	0.234082	0.659843	0.606857	0.742308	0.734350	0.161123	0.255371	0.126725	0.158501	0.249987	0.222225	0.690373	0.915990	0.105794	0.089230	0.043906	0.076541
94	0.656878	0.504843	0.595768	0.829521	0.083247	0.175140	0.087545	0.056842	0.994781	0.865042	0.344762	0.379085	0.126926	0.200765	0.432217	0.276376	0.531981	0.305954	0.440208	0.405588	0.149679	0.160807	0.285836	0.403042	0.176333	0.172804	0.423820	0.652138	0.089604	0.173630	0.133946	0.110011	0.729250	0.498884	0.663060	0.675537	0.198174	0.319999	0.196077	0.148442	0.365880	0.335296	0.739698	0.334439	0.187879	0.229042	0.342381	0.255173	0.267697	0.233750	0.764306	0.739929	0.033478	0.049604	0.081371	0.107689	0.507663	0.421672	0.558870	0.742145	0.326912	0.196727	0.328810	0.405575	0.485907	0.460806	0.630593	0.714665	0.156961	0.252474	0.082105	0.131108	0.245330	0.239051	0.696010	0.927548	0.132614	0.100303	0.046711	0.071865
95	0.621395	0.483154	0.555298	0.782991	0.086747	0.157176	0.111246	0.059129	1.004043	0.878445	0.468478	0.468075	0.129682	0.204261	0.405831	0.270691	0.569801	0.331017	0.427281	0.410086	0.148299	0.163977	0.203119	0.354614	0.273887	0.232368	0.424509	0.920184	0.077886	0.148554	0.140666	0.101975	0.704717	0.492853	0.685093	0.621220	0.195086	0.322527	0.194153	0.146842	0.360887	0.331597	0.723639	0.319079	0.182010	0.230083	0.340573	0.161591	0.229217	0.218163	0.580479	0.898113	0.038263	0.049090	0.089417	0.184998	0.496137	0.410061	0.571671	0.750206	0.329636	0.196698	0.322771	0.451188	0.358123	0.355674	0.530619	0.693287	0.133028	0.227812	0.080786	0.107644	0.251257	0.241599	0.606662	0.902797	0.136017	0.103520	0.079454	0.066703
96	0.531031	0.412437	0.575878	0.704502	0.083357	0.147377	0.136319	0.057331	0.988681	0.863709	0.547443	0.502308	0.128845	0.213773	0.345006	0.268480	0.638240	0.359408	0.411036	0.414834	0.131700	0.158381	0.169386	0.295348	0.419942	0.338845	0.457542	0.923995	0.076209	0.137496	0.139608	0.107213	0.711820	0.496790	0.688240	0.505170	0.187789	0.313042	0.191423	0.142873	0.343901	0.313922	0.722048	0.321721	0.173751	0.253737	0.338507	0.147360	0.229475	0.214043	0.534973	0.912633	0.044522	0.051595	0.089932	0.189366	0.500400	0.414322	0.570273	0.775952	0.329434	0.196587	0.334363	0.481473	0.312219	0.297434	0.501642	0.686363	0.097530	0.182024	0.073137	0.098629	0.244416	0.236115	0.713942	0.847378	0.141922	0.115126	0.096317	0.060237
97	0.399782	0.326216	0.525434	0.679667	0.073329	0.131920	0.141089	0.055799	0.954683	0.838701	0.585969	0.521325	0.128598	0.216385	0.337971	0.267066	0.646640	0.362373	0.400070	0.417804	0.114316	0.146843	0.161493	0.229314	0.503364	0.432239	0.529378	1.049566	0.075368	0.118504	0.101505	0.111624	0.702924	0.491498	0.714924	0.499934	0.185283	0.332647	0.186515	0.137816	0.307450	0.282583	0.724519	0.321718	0.167417	0.252891	0.278947	0.099648	0.196012	0.194762	0.527433	0.938941	0.046422	0.051570	0.108656	0.211121	0.456669	0.361286	0.471228	0.762405	0.326461	0.193635	0.374410	0.554374	0.261441	0.243903	0.416613	0.675077	0.082348	0.156198	0.056300	0.093234	0.248342	0.242610	0.785751	0.867945	0.153654	0.127140	0.097044	0.054031
98	0.372843	0.320883	0.518992	0.676908	0.073519	0.129918	0.148377	0.057964	0.870554	0.751550	0.689336	0.524574	0.119084	0.189828	0.313758	0.262247	0.665996	0.370355	0.530860	0.418407	0.090640	0.125602	0.135212	0.169897	0.516341	0.447788	0.603053	1.118240	0.075464	0.115632	0.090037	0.111448	0.696164	0.492737	0.703130	0.597510	0.188731	0.351571	0.178025	0.101556	0.312324	0.285289	0.718717	0.320068	0.191108	0.309092	0.166355	0.089074	0.162075	0.155122	0.490158	0.961778	0.048438	0.051775	0.155654	0.228321	0.392082	0.320367	0.397831	0.654038	0.305371	0.179309	0.372760	0.586003	0.264255	0.265894	0.257624	0.674765	0.081457	0.158504	0.043605	0.093237	0.245992	0.242694	0.773378	0.749256	0.181150	0.145507	0.096878	0.060830
99	0.372421	0.320504	0.510710	0.664184	0.076208	0.131325	0.191192	0.061719	0.778568	0.639066	0.712070	0.534044	0.113956	0.158740	0.299426	0.221663	0.696077	0.377322	0.596578	0.601288	0.072499	0.110505	0.108248	0.145736	0.529788	0.459153	0.661208	1.122589	0.073597	0.113454	0.087859	0.113116	0.726046	0.519193	0.644319	0.583679	0.191814	0.315105	0.176255	0.093110	0.347112	0.306042	0.691339	0.284999	0.180714	0.306483	0.174677	0.146357	0.159150	0.130375	0.471737	0.868132	0.063478	0.086037	0.164859	0.232306	0.348720	0.302398	0.573878	0.618602	0.290579	0.167118	0.370920	0.588450	0.257530	0.277744	0.239996	0.669734	0.078346	0.161007	0.032507	0.088507	0.264408	0.223772	0.812448	0.750911	0.199499	0.147493	0.098731	0.108046
100	0.387841	0.319550	0.438571	0.650523	0.075674	0.131874	0.202348	0.088489	0.732148	0.619273	0.764796	0.558283	0.113271	0.159949	0.289742	0.215452	0.705067	0.382368	0.606337	0.738693	0.071212	0.110630	0.085543	0.143634	0.547043	0.478657	0.678007	1.116358	0.075146	0.110426	0.087523	0.105162	0.738843	0.538637	0.582664	0.546997	0.194592	0.293690	0.164732	0.073619	0.347551	0.309684	0.631896	0.267203	0.160956	0.286126	0.169408	0.154059	0.160558	0.114002	0.473301	0.754153	0.086965	0.118280	0.168680	0.235328	0.296570	0.271395	0.599605	0.660636	0.285370	0.168027	0.370635	0.592292	0.252439	0.272617	0.246655	0.620086	0.074611	0.162629	0.023304	0.080503	0.278798	0.207779	0.776670	0.666046	0.239972	0.159218	0.099117	0.146493
101	0.378324	0.300530	0.413206	0.601327	0.076708	0.130862	0.207358	0.090868	0.634463	0.553334	0.806964	0.609764	0.109768	0.168931	0.290177	0.186450	0.712460	0.392077	0.591710	0.691521	0.072456	0.114530	0.067535	0.141999	0.561850	0.481812	0.673969	1.119035	0.075281	0.116012	0.080397	0.105590	0.695926	0.520062	0.581001	0.529338	0.196190	0.290738	0.099622	0.065268	0.342809	0.307594	0.493014	0.285130	0.141867	0.265153	0.181971	0.158600	0.194158	0.114112	0.443107	0.739512	0.104063	0.137774	0.168028	0.236892	0.284718	0.258415	0.594740	0.663379	0.282786	0.166783	0.371343	0.593220	0.231123	0.259297	0.438542	0.536748	0.060767	0.150489	0.019066	0.072128	0.273896	0.209822	0.731688	0.611837	0.279237	0.177750	0.113591	0.148151
