	223_C_T1_sh_ND_01.c3d	223_C_T1_sh_ND_01.c3d	223_C_T1_sh_ND_01.c3d	223_C_T1_sh_ND_01.c3d	223_C_T1_sh_ND_01.c3d	223_C_T1_sh_ND_01.c3d	223_C_T1_sh_ND_01.c3d	223_C_T1_sh_ND_01.c3d	223_C_T1_sh_ND_02.c3d	223_C_T1_sh_ND_02.c3d	223_C_T1_sh_ND_02.c3d	223_C_T1_sh_ND_02.c3d	223_C_T1_sh_ND_02.c3d	223_C_T1_sh_ND_02.c3d	223_C_T1_sh_ND_02.c3d	223_C_T1_sh_ND_02.c3d	223_C_T1_sh_ND_03.c3d	223_C_T1_sh_ND_03.c3d	223_C_T1_sh_ND_03.c3d	223_C_T1_sh_ND_03.c3d	223_C_T1_sh_ND_03.c3d	223_C_T1_sh_ND_03.c3d	223_C_T1_sh_ND_03.c3d	223_C_T1_sh_ND_03.c3d	223_C_T1_sh_ND_04.c3d	223_C_T1_sh_ND_04.c3d	223_C_T1_sh_ND_04.c3d	223_C_T1_sh_ND_04.c3d	223_C_T1_sh_ND_04.c3d	223_C_T1_sh_ND_04.c3d	223_C_T1_sh_ND_04.c3d	223_C_T1_sh_ND_04.c3d	223_C_T1_sh_ND_06.c3d	223_C_T1_sh_ND_06.c3d	223_C_T1_sh_ND_06.c3d	223_C_T1_sh_ND_06.c3d	223_C_T1_sh_ND_06.c3d	223_C_T1_sh_ND_06.c3d	223_C_T1_sh_ND_06.c3d	223_C_T1_sh_ND_06.c3d	223_C_T1_sh_ND_09.c3d	223_C_T1_sh_ND_09.c3d	223_C_T1_sh_ND_09.c3d	223_C_T1_sh_ND_09.c3d	223_C_T1_sh_ND_09.c3d	223_C_T1_sh_ND_09.c3d	223_C_T1_sh_ND_09.c3d	223_C_T1_sh_ND_09.c3d	223_C_T1_sh_ND_10.c3d	223_C_T1_sh_ND_10.c3d	223_C_T1_sh_ND_10.c3d	223_C_T1_sh_ND_10.c3d	223_C_T1_sh_ND_10.c3d	223_C_T1_sh_ND_10.c3d	223_C_T1_sh_ND_10.c3d	223_C_T1_sh_ND_10.c3d
	Biceps femoris_lat	Semitendinosus_lat	Vastus lateralis_lat	Vastus medialis_lat	Biceps femoris_med	Semitendinosus_med	Vastus lateralis_med	Vastus medialis_med	Biceps femoris_lat	Semitendinosus_lat	Vastus lateralis_lat	Vastus medialis_lat	Biceps femoris_med	Semitendinosus_med	Vastus lateralis_med	Vastus medialis_med	Biceps femoris_lat	Semitendinosus_lat	Vastus lateralis_lat	Vastus medialis_lat	Biceps femoris_med	Semitendinosus_med	Vastus lateralis_med	Vastus medialis_med	Biceps femoris_lat	Semitendinosus_lat	Vastus lateralis_lat	Vastus medialis_lat	Biceps femoris_med	Semitendinosus_med	Vastus lateralis_med	Vastus medialis_med	Biceps femoris_lat	Semitendinosus_lat	Vastus lateralis_lat	Vastus medialis_lat	Biceps femoris_med	Semitendinosus_med	Vastus lateralis_med	Vastus medialis_med	Biceps femoris_lat	Semitendinosus_lat	Vastus lateralis_lat	Vastus medialis_lat	Biceps femoris_med	Semitendinosus_med	Vastus lateralis_med	Vastus medialis_med	Biceps femoris_lat	Semitendinosus_lat	Vastus lateralis_lat	Vastus medialis_lat	Biceps femoris_med	Semitendinosus_med	Vastus lateralis_med	Vastus medialis_med
	P2D	P2D	P2D	P2D	P2D	P2D	P2D	P2D	P2D	P2D	P2D	P2D	P2D	P2D	P2D	P2D	P2D	P2D	P2D	P2D	P2D	P2D	P2D	P2D	P2D	P2D	P2D	P2D	P2D	P2D	P2D	P2D	P2D	P2D	P2D	P2D	P2D	P2D	P2D	P2D	P2D	P2D	P2D	P2D	P2D	P2D	P2D	P2D	P2D	P2D	P2D	P2D	P2D	P2D	P2D	P2D
	EMG_lat	EMG_lat	EMG_lat	EMG_lat	EMG_med	EMG_med	EMG_med	EMG_med	EMG_lat	EMG_lat	EMG_lat	EMG_lat	EMG_med	EMG_med	EMG_med	EMG_med	EMG_lat	EMG_lat	EMG_lat	EMG_lat	EMG_med	EMG_med	EMG_med	EMG_med	EMG_lat	EMG_lat	EMG_lat	EMG_lat	EMG_med	EMG_med	EMG_med	EMG_med	EMG_lat	EMG_lat	EMG_lat	EMG_lat	EMG_med	EMG_med	EMG_med	EMG_med	EMG_lat	EMG_lat	EMG_lat	EMG_lat	EMG_med	EMG_med	EMG_med	EMG_med	EMG_lat	EMG_lat	EMG_lat	EMG_lat	EMG_med	EMG_med	EMG_med	EMG_med
ITEM	Y	Y	Y	Y	Y	Y	Y	Y	Y	Y	Y	Y	Y	Y	Y	Y	Y	Y	Y	Y	Y	Y	Y	Y	Y	Y	Y	Y	Y	Y	Y	Y	Y	Y	Y	Y	Y	Y	Y	Y	Y	Y	Y	Y	Y	Y	Y	Y	Y	Y	Y	Y	Y	Y	Y	Y
1	0.571554	0.249712	0.145821	0.137055	0.198715	0.384873	0.215940	0.048109	0.147355	0.072749	0.095021	0.083478	0.162507	0.073720	0.375911	0.130433	0.527621	0.288354	0.095742	0.029064	0.304654	0.147076	0.110416	0.023938	0.317930	0.195396	0.379718	0.485809	0.149308	0.099160	0.075357	0.144407	0.453758	0.162518	0.452816	0.413783	0.105441	0.158584	0.140449	0.075999	0.604186	0.247518	0.065299	0.125149	0.246089	0.270869	0.318249	0.124110	0.287549	0.261139	0.728534	0.407090	0.115860	0.347984	0.115289	0.108140
2	0.558496	0.244769	0.149996	0.130700	0.199916	0.383588	0.214943	0.060515	0.109837	0.064657	0.096563	0.083539	0.171692	0.066487	0.369056	0.116044	0.519498	0.292065	0.073951	0.034521	0.278819	0.149124	0.104634	0.028880	0.273593	0.204776	0.384126	0.486370	0.163205	0.100584	0.069470	0.130300	0.445564	0.165179	0.500860	0.413877	0.101219	0.162741	0.141699	0.067261	0.598492	0.219107	0.090729	0.132589	0.248261	0.212305	0.316678	0.124049	0.235233	0.229021	0.746875	0.407194	0.125908	0.343599	0.131336	0.088953
3	0.427192	0.176085	0.138957	0.080785	0.201503	0.390690	0.229532	0.097855	0.107549	0.083612	0.097183	0.081857	0.189410	0.058586	0.346014	0.110840	0.486018	0.305497	0.062070	0.039604	0.287868	0.176937	0.103973	0.034998	0.251137	0.220773	0.379130	0.457920	0.167983	0.097588	0.069569	0.121688	0.340416	0.150319	0.544550	0.414087	0.104432	0.172358	0.156576	0.057703	0.322142	0.125973	0.102510	0.161693	0.248092	0.201192	0.313940	0.134138	0.230698	0.220888	0.750920	0.412796	0.140777	0.344084	0.146454	0.096268
4	0.133978	0.085858	0.133443	0.104701	0.199812	0.384805	0.247818	0.100846	0.105271	0.097085	0.097165	0.109664	0.198827	0.052275	0.336921	0.102918	0.441430	0.306794	0.062590	0.039806	0.291766	0.182883	0.103985	0.036734	0.226369	0.216202	0.337785	0.340938	0.168207	0.087764	0.071614	0.121403	0.272692	0.136059	0.553902	0.414154	0.109871	0.176430	0.211074	0.056688	0.303978	0.141278	0.143910	0.171893	0.262201	0.226041	0.322071	0.150256	0.233023	0.214608	0.768002	0.481945	0.148801	0.344386	0.147879	0.099314
5	0.113718	0.095337	0.217986	0.142135	0.219355	0.359836	0.241456	0.104175	0.108473	0.097658	0.157495	0.339126	0.201962	0.055415	0.337163	0.097277	0.400491	0.285046	0.064036	0.055936	0.183728	0.177987	0.104602	0.035969	0.230194	0.238213	0.322633	0.315270	0.168478	0.077314	0.082369	0.101063	0.229007	0.118829	0.554071	0.404399	0.133294	0.180091	0.222553	0.051909	0.319606	0.147721	0.172271	0.192722	0.237235	0.282519	0.332947	0.158787	0.235851	0.219661	0.730367	0.407892	0.151071	0.345025	0.147593	0.102308
6	0.106094	0.092423	0.226576	0.161505	0.272056	0.362253	0.241806	0.141992	0.125061	0.115120	0.239321	0.399570	0.308073	0.132523	0.301132	0.096110	0.231559	0.288559	0.064223	0.060704	0.171418	0.180918	0.105567	0.039354	0.217441	0.274568	0.316338	0.166818	0.166694	0.072048	0.087028	0.071578	0.191431	0.106926	0.522995	0.283663	0.140438	0.198996	0.222428	0.046385	0.263156	0.139340	0.481760	0.640207	0.192501	0.287966	0.334693	0.153234	0.263569	0.253944	0.670803	0.419280	0.169016	0.277787	0.151813	0.103398
7	0.128515	0.107429	0.275583	0.203682	0.260058	0.219436	0.272411	0.150451	0.120173	0.131992	0.280828	0.403319	0.479531	0.255725	0.269621	0.116639	0.275339	0.410500	0.069789	0.071475	0.189011	0.178845	0.131273	0.041662	0.217255	0.288998	0.174860	0.101850	0.168472	0.061818	0.088162	0.067956	0.185965	0.127683	0.479356	0.262471	0.140167	0.201564	0.230421	0.050301	0.269457	0.148710	0.662511	0.657270	0.194220	0.315177	0.333754	0.139157	0.264520	0.249011	0.656505	0.427752	0.216838	0.293400	0.156578	0.125813
8	0.168143	0.138491	0.301036	0.233131	0.264873	0.171414	0.308050	0.157844	0.111303	0.140532	0.311861	0.442810	0.503455	0.285595	0.256678	0.118044	0.282240	0.442336	0.073299	0.073816	0.197203	0.170296	0.215434	0.066265	0.181527	0.293873	0.456906	0.638786	0.169381	0.053539	0.091292	0.068229	0.188000	0.158619	0.434337	0.220213	0.136400	0.202651	0.230723	0.055141	0.400723	0.227360	0.730301	0.821295	0.192464	0.312843	0.258873	0.144978	0.264114	0.250252	0.660475	0.388013	0.207917	0.293805	0.158328	0.128883
9	0.153173	0.139434	0.303012	0.251831	0.276354	0.150086	0.330065	0.207729	0.142678	0.157711	0.319198	0.496505	0.514594	0.287965	0.201417	0.123125	0.286207	0.453925	0.085746	0.103329	0.197588	0.155921	0.276448	0.068302	0.167843	0.282208	0.698931	0.688208	0.172345	0.053433	0.090934	0.073690	0.186779	0.167534	0.409154	0.093111	0.146731	0.186743	0.233181	0.076003	0.455179	0.261042	1.077767	0.903092	0.195954	0.311091	0.184189	0.152846	0.304421	0.390158	0.472042	0.382123	0.214549	0.277471	0.169723	0.124658
10	0.167220	0.136092	0.285636	0.252584	0.295599	0.147440	0.426184	0.225914	0.221728	0.194616	0.408388	0.513619	0.713444	0.348863	0.160514	0.142552	0.287188	0.463787	0.122834	0.129924	0.196798	0.156273	0.275580	0.078239	0.309067	0.276876	0.800127	0.766359	0.151868	0.054123	0.100676	0.082707	0.159379	0.168451	0.316779	0.112740	0.154566	0.168818	0.234771	0.078066	0.506746	0.301187	1.152216	0.900395	0.193347	0.313288	0.164391	0.153030	0.418947	0.746941	0.425446	0.382094	0.216620	0.260733	0.170253	0.116946
11	0.167828	0.131314	0.264525	0.543773	0.298804	0.149722	0.542089	0.224975	0.233196	0.193728	0.501377	0.513843	0.785458	0.406846	0.157638	0.197100	0.290134	0.472331	0.127149	0.130185	0.193722	0.146429	0.275144	0.079473	0.353210	0.282675	1.032755	0.868661	0.127007	0.060290	0.118852	0.082381	0.140803	0.170315	0.271091	0.122848	0.158502	0.157549	0.233984	0.095432	0.516393	0.303701	1.156864	0.900183	0.216976	0.332049	0.156245	0.153325	0.425233	0.776610	0.412577	0.381025	0.218890	0.242873	0.170474	0.115050
12	0.179660	0.171571	0.321539	0.574527	0.295640	0.130669	0.548297	0.215397	0.237417	0.194774	0.515923	0.514607	0.798273	0.431781	0.158010	0.199175	0.274988	0.470460	0.146988	0.181377	0.234294	0.130829	0.353848	0.080810	0.435018	0.312466	1.242800	0.878530	0.137285	0.074457	0.121658	0.083906	0.126182	0.166711	0.196507	0.136429	0.160431	0.154113	0.234482	0.150299	0.516510	0.302090	1.121608	0.737543	0.240808	0.337207	0.154519	0.153082	0.429001	0.778853	0.393994	0.300389	0.219030	0.270959	0.214086	0.126421
13	0.208787	0.196663	0.359248	0.722840	0.301046	0.139987	0.540836	0.212641	0.243513	0.194919	0.515864	0.514890	0.809234	0.442432	0.158540	0.234194	0.268024	0.463401	0.147584	0.226843	0.283935	0.145369	0.423539	0.086389	0.465868	0.288178	1.264694	0.879755	0.209210	0.105950	0.119565	0.081994	0.120901	0.182495	0.185508	0.157472	0.159956	0.141975	0.216347	0.178909	0.500013	0.292064	0.989419	0.639461	0.240667	0.336635	0.155011	0.146611	0.420796	0.778717	0.331547	0.255041	0.210402	0.282757	0.238308	0.132163
14	0.219868	0.187393	0.500839	0.730775	0.312295	0.138263	0.538579	0.210679	0.249431	0.199868	0.516373	0.515831	0.809758	0.446651	0.168842	0.271980	0.266568	0.463286	0.148943	0.232374	0.291194	0.148678	0.427681	0.087596	0.470040	0.287597	1.267849	0.880007	0.214588	0.111703	0.121649	0.075339	0.164666	0.275469	0.205998	0.169636	0.162277	0.152495	0.153410	0.181426	0.406748	0.241527	0.925176	0.544441	0.225867	0.313661	0.138026	0.131292	0.407354	0.770800	0.305358	0.238385	0.202838	0.290192	0.243835	0.129145
15	0.225877	0.214772	0.505222	0.727815	0.257232	0.101684	0.535596	0.196279	0.250408	0.196449	0.517894	0.517138	0.802581	0.449591	0.192452	0.283925	0.268172	0.467866	0.152134	0.250830	0.287418	0.143241	0.425901	0.086588	0.471156	0.286927	1.206427	0.654590	0.206369	0.111580	0.121472	0.071784	0.206733	0.336482	0.210662	0.169368	0.159938	0.179555	0.120901	0.190066	0.351096	0.222371	0.711798	0.150020	0.202172	0.238075	0.134193	0.122439	0.408784	0.784818	0.295829	0.143431	0.199954	0.289691	0.244344	0.127542
16	0.231145	0.243782	0.495303	0.714742	0.278807	0.109046	0.519710	0.176619	0.251039	0.228106	0.514121	0.456303	0.714720	0.407312	0.187408	0.276467	0.231311	0.429439	0.165357	0.279583	0.275133	0.142202	0.419477	0.085389	0.453943	0.273804	1.076679	0.571792	0.206284	0.112271	0.127824	0.071064	0.255839	0.404968	0.210480	0.169651	0.162834	0.163687	0.128583	0.197515	0.224319	0.148786	0.259887	0.093585	0.199969	0.227823	0.124614	0.123487	0.433782	0.850244	0.187780	0.042414	0.192192	0.283325	0.247397	0.130334
17	0.243300	0.265716	0.480362	0.544795	0.273918	0.111254	0.499411	0.174938	0.257579	0.230967	0.482810	0.384684	0.657375	0.363226	0.174612	0.272962	0.153640	0.309790	0.214167	0.285484	0.268400	0.150022	0.394993	0.068132	0.380561	0.242226	0.997759	0.499341	0.213470	0.116893	0.140945	0.071241	0.263588	0.414849	0.210204	0.170127	0.186134	0.161355	0.117964	0.198359	0.120381	0.128009	0.152752	0.092654	0.187214	0.185256	0.116298	0.111898	0.414524	0.863735	0.080564	0.032159	0.142599	0.258712	0.249541	0.118405
18	0.203454	0.230578	0.527655	0.512242	0.261033	0.128502	0.467996	0.125311	0.308590	0.292036	0.457421	0.380976	0.642494	0.358750	0.172174	0.271819	0.135518	0.258721	0.223332	0.284965	0.268835	0.168494	0.342532	0.068826	0.342006	0.226641	0.842923	0.254504	0.223641	0.123920	0.138771	0.078659	0.308625	0.478655	0.205010	0.166001	0.275139	0.164644	0.144166	0.195657	0.133059	0.159927	0.134128	0.091877	0.188647	0.196099	0.118161	0.094911	0.251543	0.587968	0.068995	0.043115	0.110350	0.210101	0.249492	0.108426
19	0.176184	0.217752	0.436664	0.320735	0.253511	0.164446	0.421442	0.061520	0.330329	0.325176	0.437344	0.351835	0.575810	0.354707	0.167795	0.270240	0.119990	0.217104	0.222992	0.278418	0.289331	0.207750	0.335163	0.058896	0.224606	0.177394	0.314794	0.207134	0.231522	0.130290	0.134598	0.082291	0.324186	0.480700	0.164254	0.129454	0.281936	0.153268	0.196933	0.191379	0.148460	0.165174	0.131236	0.071603	0.197478	0.223314	0.132030	0.084544	0.216543	0.471424	0.074602	0.072061	0.106169	0.233122	0.269469	0.163618
20	0.195510	0.272906	0.458485	0.424731	0.249358	0.167910	0.164775	0.057943	0.323406	0.321788	0.428128	0.271744	0.278139	0.263484	0.191410	0.248594	0.117960	0.179560	0.218943	0.269799	0.434093	0.443864	0.337564	0.062270	0.134508	0.187561	0.169433	0.201653	0.234759	0.134850	0.136283	0.081989	0.325341	0.479744	0.125805	0.149304	0.276009	0.151565	0.204649	0.193111	0.171401	0.179262	0.105443	0.037270	0.207673	0.242705	0.157952	0.085403	0.217002	0.469222	0.092340	0.081609	0.098659	0.245516	0.337526	0.169826
21	0.211203	0.306576	0.532701	0.467180	0.250319	0.167304	0.090531	0.046410	0.278855	0.300929	0.389322	0.225303	0.226112	0.229967	0.263532	0.231871	0.113078	0.159631	0.348062	0.273565	0.456882	0.543653	0.300001	0.067328	0.135737	0.271420	0.133296	0.195109	0.234744	0.137122	0.137663	0.081890	0.327845	0.500138	0.121907	0.143250	0.275740	0.151190	0.203606	0.192546	0.188500	0.180368	0.139252	0.377685	0.199030	0.230413	0.159657	0.119880	0.216482	0.465571	0.088641	0.103544	0.094557	0.254754	0.352345	0.170441
22	0.200636	0.318532	0.537865	0.453135	0.240087	0.178654	0.077926	0.039964	0.264578	0.296658	0.227798	0.216239	0.145293	0.214394	0.282808	0.217828	0.117375	0.174403	0.373995	0.253471	0.433069	0.543343	0.139815	0.056460	0.144895	0.306078	0.125679	0.179364	0.232827	0.139191	0.136573	0.074041	0.334022	0.524550	0.190274	0.325444	0.281853	0.152250	0.198513	0.154550	0.221445	0.223180	0.481308	0.795343	0.163103	0.207205	0.159731	0.123844	0.215823	0.454793	0.090498	0.138434	0.107000	0.243339	0.344020	0.169924
23	0.199308	0.336080	0.547093	0.661703	0.207441	0.198196	0.079103	0.044199	0.274617	0.296438	0.166760	0.214768	0.185603	0.212483	0.279423	0.174812	0.112428	0.174365	0.374942	0.222010	0.436680	0.569602	0.104140	0.056582	0.210900	0.368395	0.096403	0.128937	0.232911	0.143160	0.123512	0.071252	0.323693	0.503608	0.325058	0.491342	0.296916	0.161985	0.196827	0.127283	0.243750	0.236865	0.613495	0.836052	0.163572	0.214823	0.160064	0.135187	0.203646	0.442267	0.107549	0.160602	0.126318	0.222870	0.313799	0.177240
24	0.194027	0.341521	0.517996	0.677930	0.192228	0.217174	0.094206	0.080830	0.277072	0.303650	0.178840	0.219670	0.182202	0.196536	0.277184	0.153841	0.113968	0.177990	0.374494	0.284121	0.604752	0.763839	0.104719	0.108085	0.223312	0.421805	0.075164	0.113120	0.232115	0.145610	0.108255	0.071595	0.325009	0.482546	0.371249	0.503119	0.301166	0.154134	0.217935	0.139504	0.251461	0.234727	0.685580	1.100138	0.165559	0.215356	0.166189	0.133329	0.125797	0.313452	0.113553	0.163538	0.128720	0.210009	0.316242	0.184378
25	0.223014	0.350130	0.556722	0.705222	0.154162	0.226043	0.151854	0.091091	0.271512	0.297612	0.184816	0.218527	0.182732	0.182723	0.263839	0.165561	0.122732	0.217514	0.399325	0.267092	0.645305	0.831723	0.115407	0.121874	0.235802	0.449561	0.037922	0.089276	0.209769	0.143574	0.106188	0.068096	0.319384	0.434903	0.383711	0.620535	0.297393	0.120154	0.363064	0.142782	0.331583	0.258156	1.004312	1.201203	0.169248	0.214176	0.141955	0.127438	0.101085	0.165018	0.125313	0.309999	0.130859	0.208432	0.316039	0.184170
26	0.210182	0.289441	0.505373	0.681557	0.122875	0.227496	0.157443	0.090905	0.275992	0.301674	0.184918	0.214690	0.182272	0.181069	0.259396	0.174547	0.120621	0.217417	0.453423	0.237290	0.647303	0.843882	0.123918	0.124312	0.233863	0.452360	0.037153	0.037723	0.149245	0.187429	0.106199	0.063108	0.309945	0.410779	0.510608	0.729809	0.296375	0.116349	0.420750	0.134400	0.363643	0.273378	1.058881	1.207354	0.167901	0.214925	0.132031	0.123986	0.113802	0.136647	0.242219	0.777056	0.131161	0.201592	0.321754	0.183394
27	0.311291	0.478883	0.529677	0.678835	0.132231	0.227625	0.163613	0.096303	0.276080	0.285963	0.214681	0.173729	0.188609	0.182879	0.259058	0.181641	0.117995	0.223568	0.443573	0.228278	0.691546	0.859979	0.117417	0.123947	0.231192	0.440194	0.036287	0.060383	0.154314	0.216395	0.106155	0.057359	0.310150	0.387454	0.598965	0.761564	0.279997	0.118458	0.427204	0.139685	0.360374	0.273658	1.072748	1.262091	0.168723	0.215451	0.131432	0.124501	0.138559	0.152444	0.361781	0.868392	0.139284	0.206379	0.328707	0.179926
28	0.330625	0.524575	0.540348	0.671607	0.136471	0.206690	0.204365	0.108054	0.269965	0.294790	0.211352	0.130039	0.189644	0.179403	0.272188	0.188311	0.131972	0.220604	0.441405	0.237843	0.778828	0.871456	0.116267	0.139393	0.218464	0.396604	0.038225	0.128398	0.154907	0.225770	0.105979	0.056751	0.298055	0.404442	0.619889	0.760769	0.206797	0.120633	0.423220	0.209985	0.338155	0.242642	1.019787	1.049229	0.166105	0.205731	0.129515	0.123977	0.232490	0.190086	0.462501	0.903424	0.167584	0.222879	0.346309	0.179139
29	0.336132	0.515059	0.480620	0.375302	0.121328	0.201691	0.222790	0.110593	0.213412	0.258153	0.284992	0.135232	0.193321	0.155967	0.281777	0.169755	0.171628	0.221777	0.468069	0.251295	0.718855	0.799385	0.133725	0.148667	0.214634	0.356291	0.162954	0.323942	0.161207	0.234081	0.090127	0.056231	0.297034	0.408563	0.624875	0.757611	0.200615	0.125265	0.501254	0.271725	0.341649	0.287603	0.920741	1.005275	0.149896	0.171602	0.121784	0.117853	0.269969	0.210295	0.513359	1.085834	0.184946	0.242581	0.344283	0.140781
30	0.335405	0.516483	0.418265	0.359679	0.116150	0.206586	0.230252	0.115579	0.158206	0.182074	0.311423	0.129410	0.173469	0.141258	0.229341	0.164438	0.178659	0.223708	0.485434	0.253953	0.676309	0.711769	0.115267	0.145014	0.141782	0.299978	0.340873	0.608121	0.184564	0.241887	0.065788	0.054908	0.295588	0.383404	0.625305	0.754499	0.212977	0.126341	0.565372	0.291018	0.315792	0.272953	0.927463	0.829334	0.126324	0.130330	0.083417	0.118507	0.380072	0.272050	0.658480	1.180349	0.188806	0.233845	0.275866	0.125001
31	0.363514	0.613855	0.357257	0.212171	0.137550	0.205755	0.240049	0.119231	0.169642	0.186732	0.314165	0.174785	0.175698	0.103572	0.187990	0.162559	0.180652	0.220506	0.404766	0.252248	0.663651	0.701191	0.115392	0.144144	0.140277	0.221898	0.438142	0.648798	0.173237	0.282129	0.059933	0.048741	0.284302	0.334483	0.584075	0.657945	0.224517	0.144202	0.576425	0.285309	0.272829	0.277872	0.655106	0.516104	0.102964	0.102594	0.073403	0.093202	0.469094	0.374968	0.725858	1.186941	0.194522	0.225662	0.244052	0.116184
32	0.326936	0.623257	0.253829	0.119341	0.161192	0.198782	0.241668	0.122542	0.168530	0.192296	0.366597	0.229444	0.124283	0.090085	0.180734	0.157860	0.173930	0.195859	0.370854	0.243277	0.663601	0.698141	0.116142	0.144157	0.144055	0.158218	0.496341	0.810438	0.174699	0.311191	0.067528	0.101835	0.268185	0.311637	0.561162	0.732536	0.223152	0.168532	0.584253	0.291156	0.175398	0.248763	0.409304	0.478249	0.098516	0.100383	0.074358	0.081355	0.549486	0.556353	0.766408	1.187416	0.187531	0.201313	0.213123	0.099991
33	0.225818	0.457111	0.316983	0.172309	0.162131	0.177206	0.241048	0.110944	0.171499	0.228964	0.432721	0.231662	0.108426	0.088493	0.175805	0.131595	0.180339	0.186971	0.369586	0.234194	0.542439	0.524777	0.116191	0.130531	0.218710	0.217554	0.637139	0.902867	0.197187	0.322836	0.063937	0.179189	0.227024	0.287458	0.621040	0.852567	0.209179	0.164110	0.592997	0.393613	0.171219	0.251880	0.380946	0.331812	0.091354	0.090402	0.073682	0.065529	0.559112	0.603159	0.779919	1.180307	0.170362	0.191625	0.200522	0.088658
34	0.257017	0.489860	0.326052	0.217430	0.167358	0.158865	0.208607	0.097630	0.182801	0.290549	0.453539	0.233927	0.110452	0.088692	0.156104	0.121933	0.180207	0.179343	0.370153	0.142421	0.460774	0.344409	0.107241	0.096256	0.276983	0.433071	0.659024	0.918393	0.212988	0.324065	0.089454	0.183425	0.235530	0.292293	0.655716	0.760115	0.217359	0.171217	0.598167	0.506628	0.176002	0.259897	0.339405	0.244920	0.094478	0.081570	0.084965	0.132463	0.564690	0.622523	0.768711	0.979216	0.167774	0.190902	0.182699	0.079665
35	0.265475	0.498742	0.345770	0.223037	0.179994	0.151683	0.200387	0.094856	0.171365	0.305794	0.452939	0.255604	0.130533	0.093230	0.151907	0.112116	0.164326	0.115837	0.344997	0.139153	0.457115	0.302376	0.092634	0.091966	0.310157	0.467119	0.669338	0.913202	0.227818	0.322844	0.123820	0.194630	0.227423	0.304706	0.527272	0.738845	0.222498	0.173269	0.567209	0.517780	0.188625	0.245110	0.330730	0.242683	0.094650	0.078481	0.207743	0.273447	0.584852	0.651376	0.717927	0.831064	0.169884	0.190882	0.181226	0.110295
36	0.263366	0.472841	0.363669	0.227485	0.170474	0.143273	0.190522	0.092016	0.175042	0.308463	0.479026	0.326778	0.159859	0.095851	0.166304	0.114605	0.179424	0.116137	0.258911	0.156455	0.445066	0.262811	0.095276	0.099079	0.312714	0.472392	0.668366	0.874088	0.246361	0.320927	0.140324	0.210532	0.199100	0.275593	0.506777	0.794490	0.244670	0.181961	0.625189	0.538023	0.189366	0.246553	0.384774	0.389619	0.104613	0.073723	0.263551	0.320427	0.583539	0.730646	0.664204	0.816991	0.178190	0.191747	0.182155	0.153312
37	0.217734	0.322502	0.366461	0.375023	0.168032	0.141233	0.163934	0.173701	0.222661	0.315940	0.569488	0.363735	0.166445	0.098090	0.197022	0.090598	0.201857	0.131644	0.241236	0.346369	0.142848	0.163172	0.105983	0.425789	0.313806	0.485839	0.606877	0.705584	0.248759	0.320145	0.153694	0.235595	0.225287	0.331789	0.558611	0.813302	0.250039	0.188541	0.747229	0.538981	0.220597	0.269584	0.513946	0.390348	0.118081	0.079126	0.302699	0.396565	0.552218	0.743883	0.605457	0.603185	0.183271	0.190484	0.244966	0.205765
38	0.215901	0.282854	0.328580	0.406638	0.164820	0.142860	0.177729	0.273336	0.260756	0.376837	0.598722	0.371325	0.196404	0.112578	0.226584	0.086833	0.206898	0.155089	0.288153	0.562863	0.155246	0.164993	0.303106	0.816536	0.317938	0.500827	0.534899	0.671806	0.270810	0.323917	0.170539	0.258894	0.237202	0.355346	0.566494	0.813797	0.241135	0.181708	0.750934	0.535534	0.279863	0.296121	0.534337	0.425551	0.125198	0.080230	0.316192	0.421145	0.556828	0.836090	0.498373	0.259661	0.159982	0.173983	0.299863	0.262921
39	0.211613	0.269133	0.210265	0.404586	0.165298	0.149866	0.203516	0.281418	0.280871	0.427675	0.602918	0.374855	0.198718	0.112945	0.252406	0.170226	0.193659	0.175283	0.333757	0.582618	0.188997	0.167321	0.417526	0.849601	0.310515	0.504078	0.498496	0.485039	0.288997	0.302769	0.208858	0.265595	0.276508	0.429254	0.568278	0.813060	0.237175	0.177841	0.685391	0.510520	0.310398	0.299508	0.678652	0.505120	0.126749	0.079217	0.321574	0.469946	0.583728	1.050137	0.344677	0.141864	0.129034	0.111901	0.293676	0.271904
40	0.190827	0.196852	0.220516	0.399243	0.181031	0.168070	0.242943	0.347030	0.281433	0.438165	0.583427	0.373597	0.196927	0.111314	0.248771	0.274850	0.234695	0.205851	0.366659	0.598901	0.229063	0.170449	0.426765	0.890880	0.340538	0.624260	0.283060	0.226054	0.292756	0.311456	0.216498	0.265900	0.299908	0.421443	0.566717	0.797285	0.245323	0.178684	0.645192	0.511815	0.364312	0.315207	0.746278	0.504991	0.127380	0.079577	0.330286	0.478557	0.519468	1.030379	0.230716	0.130314	0.120468	0.080759	0.296640	0.288463
41	0.166859	0.278254	0.161710	0.398287	0.178168	0.157946	0.316153	0.407609	0.299751	0.450534	0.563697	0.372499	0.194795	0.104254	0.249884	0.288584	0.259558	0.219800	0.409820	0.701886	0.246189	0.160035	0.442358	1.057359	0.308781	0.583469	0.196179	0.118468	0.293174	0.310412	0.219918	0.266032	0.298697	0.425108	0.507382	0.610731	0.259725	0.163621	0.658227	0.552616	0.383103	0.320576	0.750976	0.495336	0.128547	0.079556	0.331715	0.566271	0.492917	0.989949	0.134107	0.161513	0.110380	0.061775	0.297051	0.405418
42	0.195946	0.322339	0.154044	0.399996	0.171843	0.145216	0.315693	0.430958	0.317702	0.484028	0.562996	0.362004	0.197393	0.102401	0.250272	0.384192	0.261581	0.219643	0.425903	0.794165	0.311097	0.174119	0.619824	1.168628	0.320893	0.663297	0.217456	0.162262	0.280886	0.308312	0.221810	0.266611	0.318206	0.452975	0.407658	0.488854	0.262313	0.143056	0.658075	0.570092	0.376393	0.289677	0.734849	0.365716	0.128752	0.079435	0.333570	0.708879	0.484980	0.982720	0.179618	0.262721	0.126490	0.062834	0.308803	0.470298
43	0.230035	0.358874	0.143325	0.197839	0.168292	0.145180	0.320293	0.507712	0.318493	0.497591	0.553447	0.333556	0.208210	0.106465	0.277506	0.535549	0.269210	0.236171	0.444087	0.801160	0.348188	0.178727	0.680535	1.182837	0.312565	0.692003	0.234940	0.241646	0.269502	0.296518	0.223207	0.267530	0.351717	0.621883	0.361816	0.470080	0.251539	0.129195	0.677853	0.521664	0.356989	0.261225	0.590529	0.335062	0.148423	0.079139	0.368126	0.826263	0.467265	0.969189	0.309571	0.301918	0.134841	0.063631	0.341627	0.479809
44	0.262354	0.425577	0.127455	0.171133	0.157231	0.144112	0.359391	0.622657	0.315824	0.492056	0.524843	0.351088	0.228441	0.117863	0.347019	0.582273	0.284165	0.264657	0.444566	0.807386	0.361151	0.173999	0.688910	1.184119	0.349163	0.715516	0.324155	0.276029	0.269686	0.253315	0.224239	0.265424	0.346421	0.667437	0.357316	0.334376	0.236409	0.110686	0.715201	0.461508	0.328975	0.362259	0.540469	0.324283	0.180015	0.090137	0.481172	0.870755	0.481740	0.907216	0.347655	0.301105	0.138001	0.063604	0.365291	0.483188
45	0.254272	0.434275	0.091996	0.171781	0.166105	0.147844	0.439653	0.677720	0.302868	0.462556	0.520963	0.395486	0.218436	0.115239	0.352619	0.580560	0.287993	0.265696	0.444671	0.809801	0.363860	0.172388	0.689523	1.183945	0.382491	0.722211	0.377210	0.281544	0.259880	0.220650	0.222501	0.238830	0.385309	0.745230	0.257764	0.146286	0.225541	0.103827	0.695632	0.451208	0.327632	0.384058	0.460074	0.156887	0.196896	0.100085	0.487572	0.847256	0.502656	0.879330	0.400421	0.327869	0.133821	0.062922	0.373834	0.488518
46	0.264033	0.428862	0.138423	0.171591	0.270585	0.190666	0.454728	0.673330	0.301136	0.446717	0.551473	0.566741	0.221954	0.113346	0.338181	0.580550	0.280733	0.271337	0.447949	0.810488	0.364531	0.172465	0.689419	1.156271	0.398224	0.719965	0.442606	0.365290	0.240272	0.207903	0.221169	0.201785	0.502483	0.893396	0.101033	0.080852	0.197422	0.091621	0.594010	0.427147	0.279568	0.409508	0.186191	0.082808	0.204621	0.101480	0.460604	0.828037	0.477702	0.842571	0.409813	0.337199	0.124405	0.058679	0.386641	0.489402
47	0.276235	0.398000	0.156391	0.222247	0.445993	0.314823	0.486221	0.635445	0.305663	0.447089	0.561487	0.575824	0.224211	0.102478	0.311247	0.580504	0.265214	0.268469	0.469228	0.766709	0.362223	0.197063	0.644719	0.902242	0.341583	0.625861	0.474808	0.374948	0.230690	0.208275	0.208039	0.200153	0.520465	0.919527	0.056577	0.079189	0.189771	0.100630	0.457290	0.421087	0.241412	0.408420	0.108715	0.069147	0.207995	0.100926	0.439658	0.798852	0.332906	0.492236	0.434247	0.335555	0.108943	0.043308	0.368383	0.472949
48	0.242768	0.376342	0.159927	0.320688	0.489326	0.361423	0.492485	0.625838	0.281628	0.450020	0.502537	0.550815	0.227156	0.137807	0.278364	0.577163	0.256382	0.256586	0.503105	0.622086	0.345983	0.213775	0.560685	0.830819	0.322102	0.530537	0.523856	0.378692	0.227191	0.221571	0.192663	0.205379	0.552552	1.054598	0.039033	0.079421	0.206533	0.227681	0.441747	0.396973	0.236829	0.422425	0.095130	0.043893	0.207244	0.100215	0.423567	0.781264	0.283764	0.230861	0.439560	0.356729	0.105101	0.037271	0.306499	0.444866
49	0.260173	0.397478	0.186136	0.348811	0.482159	0.361817	0.482735	0.611815	0.245654	0.415582	0.457731	0.555817	0.231098	0.156074	0.271645	0.535218	0.250048	0.242987	0.457116	0.603308	0.325514	0.252053	0.546784	0.813302	0.327652	0.414208	0.706174	0.380957	0.228258	0.235758	0.220045	0.386798	0.564955	1.117140	0.041273	0.079449	0.200614	0.286136	0.437881	0.401857	0.235693	0.421479	0.095364	0.035632	0.205236	0.114128	0.422130	0.759870	0.296126	0.173929	0.496336	0.371199	0.105120	0.036417	0.295526	0.434103
50	0.226268	0.321530	0.198947	0.347869	0.500149	0.357125	0.426437	0.555670	0.275565	0.515107	0.450120	0.615531	0.267024	0.189903	0.265471	0.518451	0.208644	0.216648	0.406820	0.603364	0.344956	0.524639	0.541081	0.629736	0.346049	0.338787	0.738161	0.348178	0.236950	0.241639	0.274915	0.567641	0.569299	1.121156	0.050895	0.084648	0.205858	0.311290	0.435788	0.383169	0.235047	0.383891	0.095242	0.028285	0.207960	0.177324	0.413132	0.755961	0.307004	0.169061	0.529758	0.321208	0.109717	0.036630	0.291924	0.433602
51	0.224960	0.336505	0.181186	0.324669	0.509615	0.356742	0.424417	0.549320	0.297056	0.610917	0.539495	0.688458	0.268067	0.201057	0.268803	0.499021	0.171218	0.199983	0.376552	0.493828	0.313249	0.543973	0.379645	0.298503	0.318609	0.263833	0.703471	0.308166	0.217226	0.228064	0.301790	0.603982	0.571662	1.152720	0.112070	0.138330	0.211248	0.377657	0.406888	0.333657	0.213422	0.295300	0.092955	0.027633	0.208686	0.206744	0.412120	0.718380	0.308345	0.175899	0.481851	0.269567	0.108387	0.036302	0.290328	0.359098
52	0.228614	0.389921	0.157146	0.314829	0.513490	0.364836	0.422120	0.494904	0.332125	0.619675	0.622192	0.725605	0.272060	0.228697	0.266567	0.355277	0.169055	0.199201	0.378886	0.319672	0.279397	0.595064	0.167531	0.174246	0.260410	0.195407	0.676977	0.306760	0.206781	0.213202	0.312549	0.604184	0.607323	1.110349	0.163534	0.221718	0.205631	0.377770	0.400103	0.295672	0.147481	0.243823	0.079143	0.073923	0.217272	0.208235	0.412798	0.589166	0.264284	0.169766	0.450525	0.258484	0.093532	0.048917	0.290845	0.252086
53	0.271448	0.477748	0.136493	0.260258	0.515700	0.414642	0.412299	0.353255	0.315816	0.604514	0.668105	0.738597	0.288752	0.261596	0.167453	0.166200	0.146677	0.177530	0.356417	0.302313	0.272518	0.648525	0.110505	0.162031	0.229502	0.184143	0.643274	0.190575	0.217456	0.189769	0.363836	0.605772	0.618963	1.100347	0.175102	0.251960	0.215741	0.389363	0.347805	0.217894	0.156199	0.217646	0.057914	0.095838	0.214085	0.213108	0.399308	0.400219	0.202076	0.201246	0.404256	0.233143	0.083393	0.083096	0.268217	0.244822
54	0.267631	0.494333	0.121271	0.155783	0.529420	0.446508	0.306358	0.186094	0.370888	0.669822	0.690078	0.739049	0.274618	0.266689	0.150389	0.146275	0.113399	0.127149	0.371933	0.292168	0.300321	0.692332	0.100160	0.161925	0.236871	0.203507	0.618513	0.167017	0.218361	0.182918	0.394592	0.606727	0.565118	1.012599	0.250516	0.299008	0.223250	0.402371	0.210474	0.198463	0.154224	0.169186	0.049064	0.106537	0.210896	0.257501	0.272004	0.239697	0.250657	0.310025	0.384579	0.192926	0.076880	0.091631	0.249101	0.250507
55	0.222634	0.441803	0.072958	0.125852	0.510089	0.476375	0.320216	0.235372	0.391720	0.705281	0.683280	0.728924	0.263522	0.266744	0.181703	0.158258	0.102971	0.115343	0.394678	0.291438	0.317587	0.721423	0.100621	0.160025	0.246158	0.255372	0.593251	0.148587	0.221502	0.180377	0.399203	0.607821	0.476242	0.891710	0.267528	0.368690	0.226915	0.406555	0.176180	0.221654	0.171977	0.199049	0.072679	0.130128	0.194096	0.266622	0.154002	0.191140	0.349270	0.603118	0.350689	0.190899	0.077087	0.106746	0.252386	0.269375
56	0.225086	0.444682	0.037772	0.127292	0.369207	0.422407	0.409028	0.434814	0.394542	0.715829	0.669238	0.716085	0.249902	0.265982	0.192524	0.197336	0.116429	0.110845	0.393890	0.281867	0.315885	0.722214	0.100981	0.151703	0.319937	0.414684	0.345296	0.075296	0.228704	0.179859	0.399157	0.613021	0.433669	0.818737	0.296987	0.369833	0.225763	0.405286	0.177524	0.224440	0.203540	0.218104	0.095898	0.144729	0.180022	0.266402	0.117890	0.198765	0.467315	0.920218	0.347665	0.166923	0.126659	0.115535	0.246835	0.258946
57	0.224917	0.412141	0.026201	0.121575	0.310862	0.381860	0.479986	0.494978	0.405421	0.767905	0.640082	0.598147	0.255208	0.287664	0.376882	0.314190	0.202946	0.281929	0.368299	0.238622	0.320150	0.720897	0.098538	0.135712	0.387383	0.564624	0.187453	0.050038	0.231069	0.180588	0.400602	0.624698	0.367230	0.600843	0.299242	0.378913	0.221940	0.396646	0.194471	0.222916	0.198349	0.211947	0.105516	0.203231	0.169272	0.267310	0.115196	0.222042	0.475762	0.936391	0.275093	0.083648	0.197681	0.177914	0.214897	0.252863
58	0.183501	0.369044	0.047379	0.120941	0.342907	0.420786	0.538900	0.494542	0.402862	0.809391	0.619448	0.527590	0.258347	0.275370	0.514301	0.314466	0.257682	0.389322	0.275435	0.231741	0.323472	0.724114	0.096202	0.115872	0.409634	0.588768	0.159649	0.056696	0.234352	0.178700	0.414346	0.661648	0.352199	0.551424	0.325727	0.429939	0.202210	0.330463	0.228996	0.222769	0.197881	0.201078	0.112871	0.204969	0.173212	0.296563	0.141278	0.244555	0.574082	1.120231	0.182862	0.048474	0.212805	0.210962	0.203119	0.265489
59	0.124645	0.220314	0.085760	0.159769	0.326089	0.434238	0.542415	0.499272	0.401811	0.831929	0.596274	0.526407	0.231350	0.258843	0.540273	0.312152	0.314126	0.488329	0.256354	0.208626	0.291744	0.579356	0.089951	0.095915	0.468373	0.704914	0.162357	0.055996	0.247718	0.179836	0.502021	0.716257	0.348866	0.535770	0.356009	0.445957	0.199021	0.298492	0.333922	0.231077	0.208638	0.211757	0.126156	0.190366	0.177461	0.306773	0.185878	0.246617	0.663476	1.291081	0.110083	0.028171	0.246338	0.296676	0.217993	0.296980
60	0.126570	0.210270	0.140290	0.160482	0.301718	0.437298	0.549184	0.510205	0.395314	0.847023	0.580296	0.528811	0.216965	0.252186	0.540358	0.313328	0.385061	0.714168	0.251740	0.150606	0.277342	0.524194	0.081382	0.107378	0.540919	0.793505	0.157374	0.053228	0.259246	0.181035	0.603066	0.755133	0.284632	0.377040	0.469494	0.441776	0.152521	0.251016	0.359150	0.222571	0.194588	0.211971	0.169849	0.241969	0.176285	0.288131	0.215505	0.250167	0.685590	1.347150	0.094404	0.024761	0.257487	0.329532	0.235397	0.306856
61	0.154968	0.208913	0.184191	0.184520	0.300440	0.435194	0.565971	0.555564	0.371894	0.786415	0.571522	0.477863	0.231029	0.221197	0.707487	0.376740	0.415891	0.737555	0.226296	0.106030	0.245910	0.466320	0.065546	0.112508	0.549701	0.808892	0.142226	0.050870	0.259567	0.167080	0.633429	0.762966	0.152747	0.276900	0.554586	0.420805	0.110964	0.170622	0.356768	0.215355	0.203915	0.201076	0.174282	0.248062	0.181197	0.262628	0.287114	0.272996	0.683712	1.349664	0.094205	0.033924	0.300010	0.397238	0.236975	0.342333
62	0.141692	0.192548	0.212408	0.229736	0.302695	0.390093	0.601324	0.592010	0.342064	0.677698	0.520130	0.363485	0.204445	0.197585	0.842911	0.429836	0.512683	0.827316	0.190977	0.101496	0.235291	0.392223	0.054091	0.111419	0.542956	0.789681	0.121203	0.051543	0.248256	0.147194	0.627265	0.659362	0.132690	0.260692	0.554927	0.406524	0.107359	0.168476	0.368036	0.208045	0.182002	0.160092	0.187606	0.258206	0.178501	0.261987	0.314706	0.278458	0.664338	1.328655	0.099825	0.099693	0.299149	0.405684	0.357361	0.468405
63	0.133723	0.177226	0.279037	0.260586	0.290198	0.368537	0.656768	0.609032	0.310819	0.668545	0.404352	0.262157	0.195565	0.167874	0.874581	0.437526	0.550909	0.997360	0.190490	0.093075	0.200979	0.307262	0.051123	0.134563	0.504845	0.741423	0.094735	0.047758	0.237465	0.131425	0.605587	0.528980	0.146890	0.264800	0.566295	0.341427	0.090093	0.137714	0.360449	0.210638	0.213144	0.174112	0.283448	0.250303	0.165603	0.260981	0.312972	0.286159	0.637173	1.269774	0.137798	0.127839	0.301003	0.406133	0.468431	0.490445
64	0.136051	0.140360	0.280740	0.267648	0.291312	0.301513	0.687844	0.595346	0.291296	0.675243	0.362911	0.217331	0.198448	0.165196	0.881241	0.438687	0.613193	1.086871	0.170272	0.120619	0.156919	0.204142	0.052721	0.150875	0.408195	0.606919	0.072080	0.044615	0.226124	0.121811	0.585145	0.503110	0.186421	0.280202	0.706625	0.312631	0.069474	0.097233	0.365936	0.193035	0.239598	0.193304	0.294986	0.238513	0.139226	0.221603	0.311679	0.308243	0.533262	1.035656	0.145768	0.128288	0.312731	0.418042	0.548837	0.499298
65	0.124770	0.132174	0.270904	0.382083	0.306307	0.301001	0.649645	0.499490	0.223346	0.650084	0.328835	0.190314	0.206992	0.178050	0.884508	0.438524	0.620739	1.102871	0.125000	0.131504	0.158643	0.186419	0.055787	0.153703	0.389798	0.607028	0.051837	0.032397	0.209253	0.108886	0.569649	0.500479	0.230746	0.287030	0.746052	0.311391	0.063430	0.083553	0.381515	0.176086	0.238076	0.205992	0.287927	0.236916	0.127961	0.194223	0.313477	0.322359	0.593853	1.031863	0.140550	0.133679	0.321333	0.422677	0.571284	0.503504
66	0.096970	0.130263	0.283704	0.377018	0.279502	0.281978	0.561778	0.394809	0.156964	0.586583	0.309439	0.186456	0.191956	0.163805	0.856731	0.375239	0.620617	1.107010	0.120214	0.137455	0.152262	0.170394	0.068624	0.158433	0.329746	0.492931	0.036940	0.025007	0.198222	0.098553	0.530424	0.501970	0.250656	0.284536	0.755105	0.287269	0.075997	0.087304	0.406534	0.178416	0.228759	0.193091	0.274123	0.195999	0.156550	0.209493	0.332594	0.321939	0.614634	0.922239	0.144070	0.164691	0.321016	0.420708	0.582378	0.586701
67	0.139379	0.139491	0.251728	0.364981	0.232620	0.233534	0.489705	0.392871	0.156550	0.583323	0.313256	0.185315	0.152529	0.110103	0.781853	0.350363	0.600007	1.077240	0.120343	0.138773	0.138478	0.119032	0.083706	0.160853	0.181340	0.316350	0.035161	0.023874	0.199989	0.102894	0.518980	0.503493	0.250670	0.265536	0.738266	0.231051	0.076133	0.086160	0.449909	0.238483	0.246769	0.210747	0.255521	0.174710	0.168964	0.221747	0.333984	0.308806	0.553827	0.623920	0.155298	0.180683	0.303184	0.409803	0.688014	0.626439
68	0.163557	0.200471	0.234820	0.332423	0.219726	0.252191	0.476780	0.387768	0.123605	0.517509	0.315810	0.182162	0.151127	0.108351	0.733816	0.349681	0.583577	1.063654	0.129116	0.158059	0.133663	0.117364	0.085730	0.161901	0.111526	0.248652	0.037836	0.026899	0.191628	0.101064	0.515719	0.505774	0.241596	0.241086	0.726487	0.175634	0.107988	0.098623	0.467767	0.269974	0.234677	0.220172	0.252592	0.166296	0.160233	0.192427	0.332709	0.288113	0.588009	0.458426	0.157934	0.181122	0.304837	0.389434	0.759552	0.626626
69	0.162480	0.202389	0.157515	0.320370	0.221851	0.288562	0.475325	0.372535	0.111200	0.438360	0.318527	0.203766	0.150504	0.108151	0.731230	0.341733	0.557453	1.027813	0.206423	0.168271	0.124905	0.116490	0.086397	0.158128	0.111713	0.262077	0.037582	0.023376	0.184713	0.101886	0.516962	0.499669	0.237232	0.222024	0.619744	0.172640	0.116007	0.087812	0.399376	0.275751	0.204972	0.211825	0.173929	0.156473	0.156060	0.161049	0.355215	0.282783	0.618696	0.444205	0.162553	0.185494	0.299214	0.357517	0.782465	0.616472
70	0.163937	0.200421	0.156875	0.246576	0.218612	0.305010	0.463042	0.315018	0.139936	0.402079	0.319348	0.226938	0.142426	0.187770	0.691000	0.315329	0.511258	0.898024	0.218492	0.198836	0.117436	0.103408	0.122988	0.140271	0.111082	0.267074	0.039437	0.023492	0.184008	0.105147	0.517975	0.483072	0.246685	0.223177	0.580222	0.217728	0.122263	0.084190	0.386657	0.291351	0.170884	0.190615	0.102931	0.172703	0.161356	0.155668	0.422414	0.274701	0.645540	0.467502	0.172978	0.298141	0.290884	0.309644	0.788658	0.605972
71	0.181784	0.218054	0.094376	0.068111	0.218934	0.317905	0.426891	0.221014	0.151153	0.363195	0.329560	0.221576	0.150316	0.202003	0.417924	0.197368	0.489934	0.880038	0.220837	0.216248	0.107162	0.094867	0.151199	0.138765	0.103663	0.244317	0.043059	0.027046	0.175759	0.104715	0.495435	0.418198	0.278831	0.240953	0.624978	0.262061	0.130861	0.087755	0.381005	0.288117	0.156217	0.156478	0.106314	0.184508	0.158470	0.150685	0.404459	0.238218	0.657802	0.479135	0.171031	0.329965	0.241398	0.234804	0.795596	0.598212
72	0.187426	0.236658	0.083030	0.090940	0.221178	0.325573	0.346001	0.142919	0.151448	0.346860	0.334006	0.198384	0.160248	0.217340	0.269452	0.142995	0.386673	0.801992	0.294583	0.222685	0.076065	0.082925	0.155283	0.118208	0.139875	0.281747	0.048984	0.033482	0.170767	0.175074	0.387446	0.319780	0.297969	0.246167	0.614956	0.456656	0.133451	0.086930	0.366180	0.287944	0.156534	0.155538	0.140090	0.188232	0.157303	0.150438	0.391194	0.226100	0.708233	0.504572	0.160723	0.333012	0.238162	0.198501	0.767811	0.501131
73	0.148528	0.167662	0.123200	0.217098	0.237224	0.325418	0.245807	0.092736	0.194308	0.344360	0.348436	0.231391	0.159626	0.219208	0.225809	0.106653	0.339384	0.579766	0.435425	0.309948	0.089348	0.109209	0.164354	0.092862	0.147965	0.287555	0.048687	0.032300	0.211599	0.371538	0.227968	0.229290	0.296247	0.236520	0.584412	0.499235	0.130222	0.084578	0.364934	0.286987	0.166394	0.186118	0.148637	0.212580	0.156795	0.152141	0.395034	0.203775	0.681957	0.447301	0.168735	0.351022	0.236576	0.193456	0.699017	0.453316
74	0.177476	0.176892	0.140499	0.224069	0.272893	0.319406	0.155656	0.076978	0.214424	0.342090	0.342084	0.299227	0.147516	0.211253	0.172252	0.074764	0.213833	0.379306	0.516997	0.408986	0.107922	0.146115	0.177288	0.087231	0.143332	0.292207	0.065424	0.038327	0.208575	0.417931	0.162529	0.167994	0.279128	0.219239	0.558339	0.569125	0.130169	0.084547	0.349702	0.301881	0.163247	0.176116	0.142204	0.234234	0.155039	0.152018	0.394575	0.176322	0.634625	0.429928	0.174014	0.407132	0.221941	0.163935	0.627794	0.428891
75	0.183357	0.182885	0.145019	0.305407	0.313582	0.319515	0.141749	0.072161	0.213494	0.308311	0.405368	0.314678	0.143105	0.205987	0.174655	0.066559	0.189962	0.330085	0.514098	0.433095	0.169236	0.273319	0.181754	0.080807	0.143212	0.299987	0.126026	0.081313	0.224488	0.417728	0.129184	0.150199	0.267200	0.207381	0.568150	0.678472	0.127643	0.082462	0.329715	0.302850	0.173349	0.195973	0.166826	0.217772	0.152885	0.149692	0.390804	0.123873	0.635455	0.533807	0.192203	0.415025	0.205186	0.135638	0.588101	0.417458
76	0.181630	0.186738	0.177016	0.340232	0.359862	0.307546	0.142551	0.060782	0.221990	0.230184	0.394631	0.314236	0.143360	0.202087	0.146164	0.051752	0.227724	0.334525	0.512745	0.431112	0.200537	0.311104	0.175773	0.073684	0.180143	0.298128	0.148588	0.095230	0.231663	0.431421	0.124406	0.146823	0.269513	0.208000	0.613682	0.713984	0.121034	0.077788	0.312461	0.297301	0.163682	0.195316	0.178434	0.186553	0.126989	0.126721	0.382367	0.097677	0.657145	0.654916	0.197057	0.414882	0.199060	0.131955	0.585099	0.292176
77	0.198426	0.244931	0.183201	0.341325	0.357108	0.257384	0.139272	0.060066	0.246657	0.218507	0.398475	0.315141	0.145084	0.202955	0.135969	0.026438	0.298374	0.376967	0.528343	0.432271	0.240203	0.355595	0.174377	0.079574	0.199178	0.302095	0.157003	0.100128	0.258197	0.502301	0.123365	0.146606	0.268521	0.208383	0.635318	0.723558	0.123126	0.076742	0.262219	0.249421	0.162591	0.220575	0.181007	0.184313	0.101472	0.094310	0.381043	0.097602	0.674243	0.713785	0.195080	0.415841	0.168736	0.121864	0.485013	0.127349
78	0.334604	0.412157	0.179774	0.312232	0.502568	0.244282	0.178224	0.123965	0.281804	0.233283	0.431664	0.318164	0.144458	0.204015	0.136879	0.023321	0.328588	0.348543	0.534114	0.465851	0.277554	0.360105	0.174085	0.064188	0.220485	0.306934	0.176040	0.143743	0.260756	0.509042	0.121651	0.144424	0.267505	0.202247	0.644340	0.720567	0.094062	0.056002	0.206233	0.219804	0.159095	0.243086	0.154917	0.171865	0.103589	0.092809	0.381321	0.089825	0.641370	0.725342	0.183551	0.371960	0.124465	0.104546	0.337109	0.087025
79	0.482695	0.561808	0.131788	0.264187	0.545581	0.220245	0.199003	0.145574	0.305067	0.249816	0.464837	0.321584	0.142122	0.181951	0.131045	0.022985	0.335327	0.350613	0.523316	0.509564	0.295378	0.361175	0.160149	0.058597	0.193896	0.226697	0.380460	0.276698	0.276159	0.557693	0.121407	0.134910	0.273431	0.194680	0.636831	0.703727	0.086072	0.051810	0.211183	0.206087	0.176572	0.237625	0.140295	0.153783	0.095640	0.085627	0.359506	0.065160	0.657404	0.803055	0.169678	0.303450	0.082048	0.085822	0.247527	0.065298
80	0.485021	0.581724	0.126856	0.241404	0.547897	0.208663	0.193056	0.148350	0.320658	0.262193	0.468605	0.313225	0.133379	0.127568	0.129073	0.038503	0.333542	0.322210	0.540506	0.505606	0.298162	0.363962	0.123189	0.057143	0.181133	0.187753	0.407344	0.308869	0.283997	0.616264	0.119060	0.121615	0.249577	0.173696	0.588767	0.680352	0.078249	0.049334	0.211073	0.187425	0.181267	0.220258	0.139243	0.105407	0.085112	0.084218	0.258981	0.056812	0.644088	0.830898	0.154266	0.302768	0.060555	0.064968	0.199809	0.066103
81	0.597349	0.646194	0.101347	0.108863	0.545733	0.190235	0.197720	0.157425	0.319198	0.258483	0.472884	0.288618	0.045981	0.076364	0.125290	0.043587	0.331446	0.313582	0.555383	0.499159	0.304374	0.379081	0.127213	0.077361	0.187603	0.171436	0.406247	0.361328	0.291587	0.655995	0.116151	0.127793	0.260817	0.181470	0.491389	0.563475	0.072547	0.043921	0.248465	0.185293	0.175942	0.238467	0.100449	0.067122	0.081837	0.080042	0.211279	0.066480	0.630164	0.836842	0.153118	0.305779	0.060728	0.056697	0.166121	0.067804
82	0.648151	0.704687	0.116463	0.090906	0.533974	0.181317	0.233331	0.163538	0.312483	0.246889	0.466604	0.284748	0.047017	0.064959	0.114006	0.043657	0.332303	0.309540	0.537822	0.497374	0.414298	0.417440	0.141070	0.079243	0.225253	0.161082	0.424513	0.396051	0.301447	0.682223	0.154769	0.285500	0.278922	0.185797	0.372992	0.553442	0.066563	0.040633	0.270553	0.180155	0.293392	0.260207	0.068416	0.138868	0.089073	0.086951	0.182504	0.170057	0.614278	0.823703	0.158544	0.296503	0.063642	0.054968	0.155171	0.060980
83	0.649225	0.676556	0.284300	0.424178	0.511684	0.182177	0.234909	0.169057	0.309134	0.245603	0.489106	0.283582	0.062294	0.073696	0.098981	0.050827	0.327533	0.307098	0.454089	0.452177	0.439450	0.423040	0.138868	0.080453	0.242592	0.174272	0.454840	0.422386	0.316800	0.700338	0.336882	0.484352	0.281492	0.198893	0.363498	0.446503	0.072398	0.041128	0.271685	0.157000	0.319254	0.252057	0.080289	0.183429	0.094072	0.086270	0.206799	0.267885	0.541374	0.757801	0.129553	0.305205	0.061346	0.045111	0.154586	0.055171
84	0.541481	0.515415	0.345833	0.446898	0.495322	0.176215	0.252341	0.170067	0.287861	0.239124	0.503500	0.267976	0.063000	0.079896	0.082557	0.068715	0.322112	0.307180	0.363524	0.353000	0.425676	0.367310	0.132461	0.081482	0.237760	0.157389	0.460012	0.421824	0.329135	0.711131	0.447414	0.526532	0.309335	0.208368	0.324723	0.291909	0.072759	0.041643	0.274077	0.122134	0.317905	0.214055	0.092130	0.200801	0.098989	0.087827	0.233426	0.282992	0.456723	0.646607	0.111506	0.364381	0.060879	0.038485	0.153955	0.056475
85	0.506829	0.454866	0.417683	0.503327	0.443050	0.169155	0.258227	0.170513	0.270802	0.235586	0.500644	0.183422	0.060774	0.080439	0.069072	0.076074	0.321535	0.303370	0.361546	0.308801	0.419184	0.321952	0.140848	0.115420	0.214831	0.144651	0.456607	0.412736	0.320443	0.687860	0.490355	0.527332	0.342598	0.210610	0.223225	0.212523	0.074890	0.048118	0.278808	0.114659	0.312601	0.208960	0.100964	0.246355	0.105280	0.091126	0.233199	0.287312	0.338234	0.526484	0.214921	0.432741	0.061519	0.037534	0.142009	0.061264
86	0.497226	0.425892	0.503146	0.514836	0.443134	0.168640	0.258949	0.180616	0.278343	0.242226	0.436107	0.130338	0.053402	0.077366	0.062258	0.126094	0.291298	0.277917	0.361843	0.307995	0.392287	0.269042	0.153760	0.119595	0.209590	0.141664	0.322308	0.347590	0.298042	0.606608	0.503441	0.548291	0.346691	0.239098	0.178299	0.185636	0.071742	0.048673	0.257431	0.110875	0.292528	0.205933	0.111758	0.259564	0.111086	0.093142	0.231776	0.303464	0.317742	0.503400	0.319994	0.461634	0.061174	0.039082	0.124301	0.063449
87	0.312492	0.289266	0.507857	0.517442	0.356602	0.133106	0.271243	0.163764	0.277320	0.238255	0.396579	0.145049	0.055145	0.078261	0.062328	0.183334	0.213678	0.207977	0.355050	0.319983	0.390644	0.271240	0.156557	0.123296	0.216907	0.157807	0.273725	0.315024	0.298756	0.596857	0.507791	0.629286	0.365946	0.268640	0.179907	0.197140	0.062863	0.049263	0.228743	0.095168	0.291494	0.160690	0.147999	0.259196	0.143595	0.108143	0.252367	0.323139	0.271090	0.357789	0.339633	0.465323	0.071769	0.106161	0.108125	0.062132
88	0.250556	0.179098	0.489080	0.545566	0.182562	0.090729	0.261633	0.132008	0.258485	0.223772	0.397217	0.142768	0.076718	0.072936	0.062549	0.191634	0.163842	0.158203	0.358853	0.314959	0.376510	0.272031	0.158549	0.124437	0.220886	0.177291	0.273359	0.244001	0.337892	0.623904	0.599144	0.722771	0.364156	0.247822	0.189438	0.205305	0.063412	0.049971	0.224755	0.073255	0.188581	0.078196	0.162785	0.252324	0.159658	0.108759	0.258425	0.331191	0.220482	0.216026	0.358048	0.496879	0.076748	0.126193	0.108058	0.059220
89	0.279868	0.223749	0.421137	0.402396	0.177534	0.088253	0.262352	0.142155	0.214307	0.197588	0.359100	0.140674	0.091729	0.077020	0.073948	0.190068	0.185750	0.158721	0.361741	0.470390	0.375353	0.273121	0.157951	0.139344	0.195126	0.168090	0.246962	0.195141	0.356145	0.623981	0.721953	0.769888	0.363264	0.254204	0.194099	0.197663	0.063751	0.050392	0.218030	0.049322	0.101317	0.042983	0.152253	0.217150	0.163601	0.108297	0.256652	0.340638	0.188974	0.140768	0.360414	0.497514	0.095413	0.168836	0.103486	0.054643
90	0.292879	0.246279	0.427628	0.479692	0.171334	0.084859	0.257472	0.146559	0.172223	0.172463	0.300995	0.134702	0.098253	0.075094	0.078295	0.199196	0.251928	0.179628	0.339631	0.468909	0.376828	0.259500	0.158810	0.142546	0.152275	0.153682	0.165076	0.076069	0.350636	0.581678	0.759748	0.777697	0.340389	0.235213	0.260345	0.176444	0.055078	0.045075	0.214251	0.044193	0.129387	0.059882	0.168923	0.230056	0.168591	0.109177	0.250119	0.348497	0.187214	0.129085	0.360659	0.486604	0.109930	0.185234	0.093354	0.055958
91	0.295368	0.245429	0.659903	0.486086	0.171605	0.084128	0.228596	0.134717	0.139057	0.154408	0.287288	0.133584	0.107962	0.074494	0.072872	0.205101	0.349974	0.224156	0.438462	0.475726	0.282601	0.209720	0.142992	0.140735	0.129634	0.189456	0.147731	0.077595	0.351192	0.574944	0.768549	0.777804	0.347037	0.231325	0.416890	0.158783	0.091953	0.053517	0.169958	0.057112	0.137393	0.069104	0.181705	0.197136	0.168374	0.107890	0.242896	0.350175	0.185086	0.129012	0.360428	0.443225	0.123610	0.208224	0.098026	0.073279
92	0.320822	0.250616	0.648286	0.495346	0.165730	0.079671	0.214672	0.134141	0.116253	0.114800	0.280872	0.133808	0.204934	0.094832	0.087865	0.208341	0.371443	0.236862	0.638187	0.570409	0.190831	0.159740	0.131697	0.148961	0.253344	0.284931	0.145908	0.079002	0.337939	0.512805	0.771491	0.777760	0.341479	0.216691	0.434378	0.161154	0.120326	0.063723	0.146435	0.069044	0.125218	0.079170	0.179705	0.190691	0.159597	0.096813	0.237829	0.325504	0.188679	0.127307	0.375568	0.429692	0.127162	0.218859	0.095696	0.088116
93	0.353782	0.262389	0.677899	0.542013	0.154314	0.073414	0.200861	0.131861	0.114353	0.112102	0.283981	0.117870	0.212347	0.086780	0.153925	0.210045	0.379357	0.248593	0.631687	0.586399	0.181726	0.159538	0.139950	0.151766	0.256673	0.313799	0.145366	0.077964	0.332120	0.448222	0.772285	0.777325	0.337791	0.243912	0.583418	0.163424	0.138005	0.073334	0.152229	0.080649	0.126004	0.073368	0.168491	0.216046	0.152919	0.091715	0.208584	0.247373	0.186868	0.126900	0.390728	0.338130	0.131779	0.222962	0.091563	0.093823
94	0.341360	0.241340	0.735793	0.554228	0.149502	0.070616	0.182798	0.132088	0.115902	0.113655	0.254750	0.118173	0.214694	0.087608	0.171765	0.229756	0.414445	0.277636	0.639447	0.620532	0.182456	0.176093	0.139586	0.137662	0.257850	0.325102	0.126482	0.072312	0.324326	0.393323	0.772190	0.770590	0.480513	0.296164	0.812651	0.235955	0.172665	0.084667	0.193791	0.078804	0.134771	0.076658	0.145284	0.232064	0.151428	0.099719	0.166531	0.212126	0.214704	0.131473	0.308282	0.329885	0.140536	0.222738	0.098405	0.107691
95	0.263580	0.168473	0.724120	0.605608	0.146188	0.070513	0.182933	0.122874	0.117629	0.110393	0.190054	0.120321	0.215386	0.091019	0.192560	0.240953	0.439255	0.290937	0.648692	0.715982	0.232250	0.181224	0.131442	0.123528	0.254435	0.319484	0.123067	0.060480	0.312035	0.348331	0.753253	0.699711	0.509396	0.275611	0.893707	0.256813	0.206550	0.094284	0.288893	0.084439	0.138987	0.077987	0.143705	0.240129	0.151738	0.116179	0.162934	0.210403	0.243613	0.141389	0.298402	0.321063	0.141278	0.222757	0.108689	0.131137
96	0.293180	0.161095	0.673406	0.498816	0.136333	0.063341	0.151783	0.105378	0.128379	0.105454	0.196542	0.147107	0.216867	0.098703	0.258479	0.192760	0.461104	0.304198	0.654196	0.747858	0.211315	0.178923	0.125087	0.117012	0.244388	0.318221	0.115516	0.056626	0.296077	0.316493	0.682632	0.596741	0.494890	0.258769	0.900134	0.265605	0.210849	0.095268	0.314452	0.086842	0.110601	0.073623	0.120346	0.213337	0.172890	0.146763	0.161593	0.190204	0.242230	0.142993	0.280595	0.269389	0.142239	0.223705	0.141231	0.140514
97	0.279911	0.152625	0.427446	0.489654	0.116271	0.048593	0.076982	0.102487	0.112323	0.087826	0.247179	0.163723	0.218599	0.097738	0.277950	0.181643	0.468375	0.308684	0.652162	0.745290	0.202141	0.174377	0.122508	0.115414	0.281727	0.343342	0.068949	0.043944	0.282514	0.291347	0.622365	0.575753	0.527694	0.280566	1.056776	0.293147	0.225667	0.113418	0.360544	0.124747	0.099112	0.074501	0.100999	0.198954	0.161091	0.149553	0.126552	0.169530	0.209359	0.123746	0.273237	0.242854	0.148733	0.212295	0.158115	0.154163
98	0.227199	0.108459	0.409007	0.476243	0.111441	0.045533	0.071027	0.082297	0.105425	0.080374	0.258631	0.156969	0.207861	0.087398	0.288675	0.184767	0.464765	0.302548	0.645750	0.749995	0.198860	0.172895	0.121307	0.102101	0.376501	0.479073	0.035450	0.034796	0.271436	0.277480	0.598298	0.574066	0.550688	0.289233	1.197266	0.311959	0.248443	0.143103	0.407632	0.139722	0.111405	0.074444	0.096178	0.195432	0.138696	0.144975	0.087768	0.178258	0.197077	0.123878	0.271122	0.239300	0.150979	0.194917	0.189621	0.158696
99	0.316161	0.158091	0.293014	0.359383	0.115502	0.052008	0.031660	0.059600	0.104793	0.084720	0.249531	0.179164	0.208505	0.086592	0.286897	0.202547	0.446933	0.285205	0.632616	0.637971	0.247499	0.220939	0.119835	0.081005	0.339443	0.491916	0.035151	0.033565	0.258464	0.268443	0.589272	0.539179	0.545820	0.286771	1.182512	0.326591	0.262679	0.158295	0.432354	0.142111	0.119769	0.076844	0.100204	0.134949	0.141504	0.147365	0.079364	0.177062	0.200307	0.125988	0.298903	0.196505	0.145652	0.168072	0.218535	0.169491
100	0.415306	0.236911	0.228418	0.260136	0.124004	0.050625	0.059859	0.065627	0.158387	0.098208	0.293574	0.248350	0.217296	0.087551	0.285973	0.211164	0.412388	0.265900	0.653931	0.632817	0.333789	0.268121	0.106788	0.078765	0.336663	0.480254	0.025709	0.032467	0.243808	0.256749	0.579116	0.425051	0.552729	0.295220	1.165423	0.332566	0.282383	0.166741	0.439101	0.153742	0.125726	0.087860	0.096843	0.111901	0.141335	0.147723	0.089181	0.163372	0.213099	0.127314	0.452382	0.181733	0.153226	0.153125	0.231255	0.168978
101	0.602976	0.320775	0.211880	0.158576	0.131121	0.053606	0.100307	0.060928	0.194984	0.115823	0.373848	0.406088	0.186219	0.073089	0.299315	0.211600	0.335274	0.228346	0.642099	0.629793	0.437396	0.286180	0.103437	0.058545	0.374465	0.543930	0.025789	0.039175	0.161437	0.165499	0.439153	0.244749	0.575393	0.301399	1.174971	0.338972	0.279074	0.164379	0.437608	0.161499	0.142740	0.153347	0.084054	0.060512	0.141318	0.148615	0.123816	0.162067	0.260867	0.137224	0.489026	0.199698	0.133014	0.104610	0.236671	0.163999
