	224_C_T1_sh_ND_02.c3d	224_C_T1_sh_ND_02.c3d	224_C_T1_sh_ND_02.c3d	224_C_T1_sh_ND_02.c3d	224_C_T1_sh_ND_02.c3d	224_C_T1_sh_ND_02.c3d	224_C_T1_sh_ND_02.c3d	224_C_T1_sh_ND_02.c3d	224_C_T1_sh_ND_03.c3d	224_C_T1_sh_ND_03.c3d	224_C_T1_sh_ND_03.c3d	224_C_T1_sh_ND_03.c3d	224_C_T1_sh_ND_03.c3d	224_C_T1_sh_ND_03.c3d	224_C_T1_sh_ND_03.c3d	224_C_T1_sh_ND_03.c3d	224_C_T1_sh_ND_05.c3d	224_C_T1_sh_ND_05.c3d	224_C_T1_sh_ND_05.c3d	224_C_T1_sh_ND_05.c3d	224_C_T1_sh_ND_05.c3d	224_C_T1_sh_ND_05.c3d	224_C_T1_sh_ND_05.c3d	224_C_T1_sh_ND_05.c3d	224_C_T1_sh_ND_06.c3d	224_C_T1_sh_ND_06.c3d	224_C_T1_sh_ND_06.c3d	224_C_T1_sh_ND_06.c3d	224_C_T1_sh_ND_06.c3d	224_C_T1_sh_ND_06.c3d	224_C_T1_sh_ND_06.c3d	224_C_T1_sh_ND_06.c3d	224_C_T1_sh_ND_08.c3d	224_C_T1_sh_ND_08.c3d	224_C_T1_sh_ND_08.c3d	224_C_T1_sh_ND_08.c3d	224_C_T1_sh_ND_08.c3d	224_C_T1_sh_ND_08.c3d	224_C_T1_sh_ND_08.c3d	224_C_T1_sh_ND_08.c3d	224_C_T1_sh_ND_09.c3d	224_C_T1_sh_ND_09.c3d	224_C_T1_sh_ND_09.c3d	224_C_T1_sh_ND_09.c3d	224_C_T1_sh_ND_09.c3d	224_C_T1_sh_ND_09.c3d	224_C_T1_sh_ND_09.c3d	224_C_T1_sh_ND_09.c3d	224_C_T1_sh_ND_10.c3d	224_C_T1_sh_ND_10.c3d	224_C_T1_sh_ND_10.c3d	224_C_T1_sh_ND_10.c3d	224_C_T1_sh_ND_10.c3d	224_C_T1_sh_ND_10.c3d	224_C_T1_sh_ND_10.c3d	224_C_T1_sh_ND_10.c3d
	Biceps femoris_lat	Semitendinosus_lat	Vastus lateralis_lat	Vastus medialis_lat	Biceps femoris_med	Semitendinosus_med	Vastus lateralis_med	Vastus medialis_med	Biceps femoris_lat	Semitendinosus_lat	Vastus lateralis_lat	Vastus medialis_lat	Biceps femoris_med	Semitendinosus_med	Vastus lateralis_med	Vastus medialis_med	Biceps femoris_lat	Semitendinosus_lat	Vastus lateralis_lat	Vastus medialis_lat	Biceps femoris_med	Semitendinosus_med	Vastus lateralis_med	Vastus medialis_med	Biceps femoris_lat	Semitendinosus_lat	Vastus lateralis_lat	Vastus medialis_lat	Biceps femoris_med	Semitendinosus_med	Vastus lateralis_med	Vastus medialis_med	Biceps femoris_lat	Semitendinosus_lat	Vastus lateralis_lat	Vastus medialis_lat	Biceps femoris_med	Semitendinosus_med	Vastus lateralis_med	Vastus medialis_med	Biceps femoris_lat	Semitendinosus_lat	Vastus lateralis_lat	Vastus medialis_lat	Biceps femoris_med	Semitendinosus_med	Vastus lateralis_med	Vastus medialis_med	Biceps femoris_lat	Semitendinosus_lat	Vastus lateralis_lat	Vastus medialis_lat	Biceps femoris_med	Semitendinosus_med	Vastus lateralis_med	Vastus medialis_med
	P2D	P2D	P2D	P2D	P2D	P2D	P2D	P2D	P2D	P2D	P2D	P2D	P2D	P2D	P2D	P2D	P2D	P2D	P2D	P2D	P2D	P2D	P2D	P2D	P2D	P2D	P2D	P2D	P2D	P2D	P2D	P2D	P2D	P2D	P2D	P2D	P2D	P2D	P2D	P2D	P2D	P2D	P2D	P2D	P2D	P2D	P2D	P2D	P2D	P2D	P2D	P2D	P2D	P2D	P2D	P2D
	EMG_lat	EMG_lat	EMG_lat	EMG_lat	EMG_med	EMG_med	EMG_med	EMG_med	EMG_lat	EMG_lat	EMG_lat	EMG_lat	EMG_med	EMG_med	EMG_med	EMG_med	EMG_lat	EMG_lat	EMG_lat	EMG_lat	EMG_med	EMG_med	EMG_med	EMG_med	EMG_lat	EMG_lat	EMG_lat	EMG_lat	EMG_med	EMG_med	EMG_med	EMG_med	EMG_lat	EMG_lat	EMG_lat	EMG_lat	EMG_med	EMG_med	EMG_med	EMG_med	EMG_lat	EMG_lat	EMG_lat	EMG_lat	EMG_med	EMG_med	EMG_med	EMG_med	EMG_lat	EMG_lat	EMG_lat	EMG_lat	EMG_med	EMG_med	EMG_med	EMG_med
ITEM	Y	Y	Y	Y	Y	Y	Y	Y	Y	Y	Y	Y	Y	Y	Y	Y	Y	Y	Y	Y	Y	Y	Y	Y	Y	Y	Y	Y	Y	Y	Y	Y	Y	Y	Y	Y	Y	Y	Y	Y	Y	Y	Y	Y	Y	Y	Y	Y	Y	Y	Y	Y	Y	Y	Y	Y
1	0.289106	0.408010	0.210763	0.228602	0.715491	0.793417	0.210829	0.157566	0.594017	0.645287	0.319975	0.163137	0.470537	0.546250	0.238187	0.197759	0.605307	0.283856	0.263736	0.121256	0.459760	0.303091	0.250525	0.245389	0.311579	0.565889	0.421241	0.145293	0.732490	0.606261	0.253641	0.286179	0.344820	0.474858	0.640597	0.196817	0.308579	0.418101	0.160295	0.303353	0.164105	0.217104	0.291361	0.201356	0.095699	0.084211	0.245058	0.258038	0.202224	0.293683	0.313321	0.121248	0.385037	0.523731	0.280419	0.249125
2	0.301574	0.406067	0.211301	0.243699	0.717788	0.798567	0.193504	0.163315	0.637708	0.651826	0.337103	0.150411	0.439374	0.479659	0.245724	0.196664	0.620277	0.248264	0.267157	0.124198	0.456913	0.288399	0.252560	0.277537	0.313534	0.537294	0.386491	0.139174	0.770361	0.620223	0.224605	0.285380	0.404567	0.463538	0.628431	0.155912	0.258103	0.299787	0.145547	0.280037	0.163206	0.214889	0.281308	0.223888	0.100058	0.080141	0.253745	0.250316	0.156494	0.281430	0.281259	0.130618	0.364236	0.518314	0.287887	0.259764
3	0.301631	0.359346	0.220135	0.249454	0.664053	0.722232	0.174592	0.157715	0.631222	0.639856	0.292527	0.125140	0.392331	0.382985	0.251674	0.193864	0.618673	0.246402	0.311946	0.131530	0.399272	0.262925	0.252272	0.294241	0.316854	0.506022	0.381713	0.152211	0.785319	0.637515	0.189742	0.273762	0.502731	0.563332	0.599551	0.158324	0.203103	0.177428	0.182510	0.265754	0.145544	0.185488	0.328633	0.289895	0.103150	0.097187	0.253588	0.247154	0.195228	0.302094	0.302656	0.165024	0.339556	0.507899	0.277669	0.294376
4	0.308159	0.306011	0.286867	0.248741	0.609268	0.632073	0.170405	0.151068	0.616216	0.672873	0.275524	0.102779	0.359889	0.340000	0.230167	0.193281	0.607363	0.228290	0.345414	0.180910	0.282396	0.279028	0.243411	0.300825	0.235232	0.294886	0.347171	0.247100	0.785189	0.666068	0.165708	0.267185	0.532425	0.591577	0.581779	0.178011	0.203580	0.134780	0.235977	0.275368	0.120586	0.137467	0.379806	0.333745	0.102365	0.107233	0.252190	0.263531	0.224866	0.301729	0.252368	0.159537	0.318645	0.494621	0.254973	0.387004
5	0.317831	0.284934	0.339527	0.252659	0.562126	0.591277	0.140473	0.151239	0.568918	0.672185	0.270975	0.084679	0.371853	0.332993	0.178007	0.190639	0.561476	0.149509	0.387591	0.214187	0.209611	0.302966	0.223585	0.302929	0.235871	0.214713	0.293069	0.322889	0.760383	0.662012	0.165125	0.269071	0.519697	0.549454	0.625153	0.242473	0.203983	0.127308	0.233358	0.313625	0.114918	0.105680	0.431069	0.344074	0.111752	0.118358	0.268646	0.266197	0.204465	0.213885	0.290317	0.159140	0.299008	0.453448	0.248013	0.438507
6	0.340503	0.279671	0.354763	0.256085	0.353381	0.342780	0.115065	0.139848	0.475331	0.603427	0.283052	0.172690	0.372142	0.272845	0.130101	0.174009	0.555786	0.082332	0.365863	0.219355	0.203951	0.305546	0.198415	0.305270	0.320615	0.173531	0.309368	0.334662	0.758401	0.651834	0.207117	0.267993	0.516836	0.534722	0.601120	0.242365	0.199997	0.129363	0.240382	0.315658	0.117689	0.074609	0.475677	0.342084	0.159973	0.171313	0.293604	0.301735	0.201071	0.159770	0.276049	0.144360	0.256725	0.346926	0.246180	0.435205
7	0.391562	0.276101	0.358425	0.256495	0.229737	0.254813	0.162547	0.261922	0.412338	0.490475	0.309049	0.260844	0.380240	0.255071	0.124539	0.160181	0.540125	0.079783	0.342026	0.264675	0.200717	0.316816	0.196677	0.307427	0.416660	0.167117	0.300118	0.369670	0.749933	0.644669	0.266439	0.278000	0.509092	0.529349	0.438245	0.237138	0.183787	0.146499	0.240739	0.321178	0.124070	0.050960	0.488246	0.334380	0.182231	0.206020	0.318556	0.347281	0.198717	0.150752	0.271232	0.127294	0.213921	0.243895	0.218613	0.476874
8	0.455624	0.280532	0.358307	0.299883	0.228810	0.260010	0.309423	0.347572	0.382278	0.457659	0.323046	0.267613	0.391868	0.254394	0.128416	0.150734	0.326342	0.082777	0.359476	0.270845	0.225541	0.352263	0.198381	0.304450	0.415754	0.155191	0.393961	0.397366	0.709360	0.606007	0.301815	0.298838	0.487811	0.526228	0.402090	0.255087	0.156321	0.172472	0.302616	0.303441	0.131506	0.039627	0.488417	0.334021	0.185820	0.219419	0.315701	0.362459	0.134678	0.069534	0.238263	0.165492	0.213235	0.225305	0.315573	0.516880
9	0.476618	0.285665	0.357541	0.370361	0.203134	0.275244	0.369509	0.353040	0.308448	0.408973	0.301600	0.297649	0.387103	0.247059	0.134803	0.161858	0.250314	0.080483	0.413901	0.270008	0.245224	0.376885	0.189936	0.303482	0.409768	0.145405	0.400690	0.399509	0.677893	0.555648	0.308582	0.304150	0.493832	0.516552	0.426573	0.261581	0.240728	0.199932	0.408982	0.292572	0.126170	0.041099	0.529135	0.335022	0.185027	0.222534	0.297355	0.356930	0.110289	0.086307	0.231065	0.187451	0.210133	0.175993	0.319555	0.558851
10	0.478146	0.277814	0.357171	0.390891	0.192283	0.271993	0.370204	0.374525	0.187412	0.347961	0.252823	0.314066	0.349687	0.203405	0.150746	0.172281	0.136917	0.081207	0.454638	0.286982	0.228845	0.381019	0.158965	0.314629	0.400962	0.132449	0.395292	0.388557	0.675057	0.536574	0.318167	0.302440	0.480079	0.486155	0.486092	0.261469	0.246598	0.203799	0.418477	0.300235	0.112914	0.042558	0.613197	0.346186	0.186181	0.224121	0.272651	0.354960	0.083403	0.095717	0.171732	0.195246	0.208026	0.139521	0.316977	0.558731
11	0.474383	0.233137	0.347131	0.368126	0.164292	0.213939	0.393563	0.400936	0.205661	0.313761	0.227732	0.318107	0.327925	0.154225	0.153571	0.189984	0.156902	0.081698	0.442762	0.373081	0.224104	0.381715	0.133545	0.317146	0.425562	0.214763	0.364821	0.316056	0.654799	0.512855	0.332606	0.312581	0.378623	0.342736	0.494852	0.255200	0.246463	0.204158	0.442895	0.320364	0.101520	0.048850	0.662318	0.369446	0.190147	0.223494	0.297626	0.378532	0.065466	0.106737	0.215937	0.231669	0.207536	0.145144	0.310484	0.549598
12	0.475280	0.179188	0.331935	0.361794	0.174289	0.213072	0.502301	0.428519	0.194839	0.249578	0.226904	0.317666	0.346667	0.159465	0.156343	0.260439	0.159729	0.067933	0.452701	0.402937	0.225528	0.384636	0.128151	0.309620	0.546324	0.504272	0.324663	0.269106	0.490117	0.408371	0.349677	0.365801	0.303952	0.228073	0.475669	0.242499	0.252096	0.205861	0.443547	0.320880	0.096018	0.059763	0.680945	0.405335	0.190871	0.220914	0.329292	0.423016	0.135170	0.133056	0.215067	0.204997	0.215330	0.170855	0.336075	0.544564
13	0.488942	0.174203	0.326658	0.372328	0.172455	0.236597	0.518857	0.440204	0.194246	0.212225	0.227070	0.318070	0.362861	0.179654	0.155683	0.302563	0.151811	0.054033	0.473954	0.392431	0.224784	0.387476	0.151218	0.312395	0.532637	0.571163	0.304209	0.239427	0.429499	0.383103	0.364785	0.379554	0.290637	0.208139	0.408317	0.195444	0.265473	0.233877	0.427486	0.320181	0.095544	0.062169	0.694968	0.437302	0.204897	0.218449	0.334177	0.460374	0.152301	0.134751	0.230295	0.193240	0.213814	0.179910	0.343909	0.487087
14	0.505645	0.187229	0.328395	0.374673	0.179256	0.283519	0.518436	0.438773	0.194943	0.210250	0.223364	0.271664	0.373583	0.192545	0.155861	0.351272	0.229829	0.055159	0.483844	0.395710	0.218045	0.386414	0.168724	0.311628	0.505335	0.659505	0.277287	0.161074	0.397378	0.370354	0.369017	0.359271	0.259100	0.266604	0.345168	0.188266	0.277611	0.266424	0.400763	0.305461	0.096061	0.066508	0.704294	0.453116	0.218616	0.219255	0.332973	0.471157	0.145834	0.142931	0.260893	0.208811	0.210971	0.171979	0.348294	0.435119
15	0.506808	0.193974	0.335966	0.375747	0.181860	0.280236	0.517563	0.427569	0.199800	0.210060	0.219599	0.216965	0.379458	0.195090	0.159323	0.378237	0.241099	0.056752	0.501131	0.377465	0.218330	0.381676	0.168953	0.312840	0.578339	0.745546	0.087912	0.078357	0.358984	0.345944	0.378138	0.348169	0.271681	0.335144	0.348173	0.179492	0.274718	0.268982	0.397579	0.238892	0.095885	0.074414	0.704979	0.452850	0.221766	0.219552	0.321363	0.478553	0.158252	0.139725	0.256060	0.272059	0.209484	0.176322	0.350144	0.427211
16	0.502685	0.195325	0.355119	0.385004	0.195242	0.299123	0.475425	0.336697	0.212295	0.211539	0.203329	0.200561	0.383844	0.190942	0.190730	0.379353	0.247658	0.049624	0.492440	0.385030	0.228916	0.372926	0.166504	0.286305	0.593258	0.805095	0.128270	0.077475	0.350476	0.291969	0.396249	0.358977	0.279813	0.342143	0.343884	0.150011	0.273494	0.269708	0.392005	0.225499	0.097645	0.077355	0.679961	0.422578	0.215387	0.216563	0.320334	0.475855	0.164696	0.131040	0.245460	0.242189	0.209302	0.196418	0.345845	0.367058
17	0.502152	0.195505	0.351050	0.389335	0.205844	0.342942	0.402574	0.289292	0.204360	0.204121	0.183518	0.155573	0.416949	0.211515	0.241307	0.386273	0.268158	0.040784	0.477120	0.421919	0.231911	0.361696	0.165804	0.266751	0.592506	0.830248	0.214452	0.076718	0.348955	0.224135	0.401960	0.383362	0.292224	0.378990	0.308458	0.144212	0.275422	0.260382	0.389429	0.212623	0.102194	0.079949	0.641968	0.391846	0.214420	0.206282	0.322137	0.462013	0.137514	0.091562	0.249611	0.271727	0.206938	0.202899	0.246890	0.291876
18	0.497846	0.195626	0.289736	0.387992	0.212382	0.359662	0.402865	0.283391	0.193503	0.188233	0.181781	0.152386	0.451507	0.232522	0.252800	0.408739	0.267075	0.040334	0.455289	0.465448	0.232315	0.337304	0.169200	0.274366	0.569055	0.796414	0.230468	0.072527	0.358610	0.209819	0.405620	0.417414	0.251613	0.389160	0.202236	0.146791	0.251565	0.237294	0.347261	0.205206	0.103902	0.095837	0.609758	0.383140	0.213703	0.204759	0.319270	0.458393	0.146076	0.061089	0.289535	0.324034	0.200201	0.215867	0.232415	0.194944
19	0.491208	0.188057	0.244292	0.385299	0.190843	0.365753	0.398712	0.243142	0.156573	0.151814	0.169465	0.170047	0.436531	0.234590	0.258313	0.446926	0.247441	0.035013	0.453510	0.435039	0.218897	0.281184	0.171827	0.286671	0.430457	0.642638	0.288429	0.107420	0.348708	0.207578	0.381543	0.426275	0.235869	0.383952	0.180816	0.152340	0.169530	0.214004	0.206313	0.184396	0.103126	0.116826	0.575945	0.379956	0.192165	0.177476	0.296909	0.448334	0.145649	0.052125	0.366781	0.289166	0.191122	0.220184	0.233298	0.186334
20	0.474129	0.184730	0.242930	0.387568	0.174525	0.370613	0.313249	0.191426	0.131334	0.129908	0.165342	0.174117	0.415939	0.226481	0.262745	0.476848	0.235299	0.031759	0.436846	0.379568	0.205766	0.249247	0.171660	0.308019	0.404959	0.618158	0.343960	0.128000	0.348465	0.202350	0.333977	0.407204	0.234745	0.381208	0.227411	0.164643	0.159955	0.217822	0.185096	0.227839	0.100648	0.128018	0.559496	0.378696	0.156201	0.127428	0.269003	0.413858	0.127288	0.042743	0.355753	0.293650	0.175792	0.215275	0.235184	0.180097
21	0.427215	0.184588	0.245619	0.397946	0.165601	0.370190	0.186326	0.140249	0.129076	0.127277	0.157541	0.169827	0.410646	0.225490	0.259740	0.487155	0.243496	0.033086	0.371084	0.358353	0.205458	0.247446	0.177010	0.321903	0.354318	0.505238	0.349379	0.139863	0.344799	0.199397	0.309957	0.397648	0.234490	0.374721	0.269936	0.147533	0.162803	0.229815	0.145740	0.352936	0.092766	0.129110	0.559100	0.378646	0.144383	0.083221	0.254636	0.362870	0.115582	0.075795	0.338733	0.303726	0.161815	0.208455	0.187858	0.141417
22	0.362824	0.171177	0.289291	0.409868	0.171455	0.353179	0.183399	0.122529	0.128418	0.118347	0.125853	0.154475	0.396216	0.225548	0.256038	0.487440	0.216636	0.030934	0.319329	0.352571	0.195262	0.221795	0.195901	0.333118	0.219694	0.393272	0.347935	0.163678	0.331954	0.200837	0.310396	0.398133	0.227823	0.333644	0.271853	0.149710	0.167096	0.221228	0.152258	0.392778	0.096389	0.131502	0.548842	0.379528	0.147484	0.089794	0.256252	0.351914	0.097469	0.114190	0.341131	0.299229	0.161306	0.198518	0.159599	0.142894
23	0.339137	0.160188	0.330434	0.414128	0.209566	0.351824	0.205136	0.119950	0.111107	0.118156	0.066249	0.144940	0.389241	0.225559	0.263932	0.484263	0.168120	0.019085	0.286025	0.346425	0.157168	0.156873	0.205935	0.337947	0.171856	0.248787	0.342758	0.174233	0.329879	0.304035	0.293786	0.397029	0.223561	0.265789	0.279016	0.161192	0.161647	0.209607	0.144792	0.392272	0.095328	0.144248	0.472755	0.373503	0.159818	0.141350	0.274952	0.424749	0.178972	0.154496	0.218010	0.213542	0.144414	0.191854	0.169531	0.170114
24	0.337548	0.160055	0.339564	0.411440	0.210231	0.371438	0.217350	0.118179	0.069600	0.112465	0.063957	0.155842	0.383976	0.225676	0.281750	0.481259	0.160335	0.021268	0.277171	0.337971	0.133879	0.104153	0.207386	0.330473	0.136342	0.188953	0.331497	0.274593	0.438187	0.579916	0.278725	0.354128	0.213085	0.252918	0.347555	0.189661	0.183231	0.267929	0.131395	0.423880	0.099629	0.162334	0.367211	0.353089	0.193858	0.257335	0.298147	0.600730	0.249764	0.200813	0.147994	0.170590	0.140481	0.174293	0.205039	0.218975
25	0.333519	0.155200	0.333001	0.410969	0.209328	0.360481	0.223513	0.107049	0.062491	0.107256	0.065119	0.187487	0.373579	0.224553	0.297020	0.481398	0.152066	0.023778	0.264561	0.345591	0.125963	0.094619	0.204649	0.312620	0.143959	0.187294	0.483001	0.345322	0.556252	0.798719	0.251629	0.296585	0.154339	0.172613	0.347423	0.255571	0.187964	0.307393	0.141946	0.495146	0.103446	0.161445	0.307696	0.313936	0.221086	0.348441	0.267825	0.657114	0.290826	0.276160	0.162346	0.166305	0.139296	0.142519	0.293155	0.229423
26	0.324616	0.141201	0.343598	0.405870	0.239856	0.370802	0.245963	0.093689	0.054544	0.092576	0.080360	0.165108	0.351420	0.215109	0.298566	0.448078	0.127090	0.026164	0.257259	0.340790	0.125014	0.096711	0.198153	0.305553	0.135287	0.169003	0.479455	0.372109	0.562910	0.847026	0.245052	0.280637	0.101873	0.096917	0.348270	0.284682	0.194791	0.312269	0.157027	0.540660	0.103646	0.182407	0.269827	0.257421	0.217825	0.365248	0.242471	0.635109	0.341880	0.261977	0.255100	0.498648	0.146718	0.134330	0.310859	0.236783
27	0.292527	0.121760	0.354487	0.398499	0.251026	0.387034	0.236384	0.124345	0.053239	0.085822	0.140236	0.144108	0.321416	0.192443	0.298469	0.414382	0.189648	0.037102	0.313746	0.362326	0.132964	0.145901	0.196585	0.304153	0.147912	0.138939	0.503160	0.435368	0.542599	0.846771	0.238864	0.279691	0.112964	0.129625	0.347592	0.313438	0.197184	0.321490	0.157188	0.548763	0.121170	0.235926	0.234509	0.207148	0.285494	0.407458	0.229147	0.627324	0.372445	0.270854	0.337449	0.584026	0.135633	0.109526	0.328475	0.250019
28	0.189388	0.100633	0.375057	0.393612	0.254647	0.383898	0.237946	0.127749	0.058213	0.074784	0.161094	0.140496	0.305042	0.173317	0.297952	0.377326	0.213897	0.040129	0.375323	0.396525	0.152451	0.192177	0.169865	0.300414	0.146565	0.109608	0.528857	0.434885	0.548693	0.856310	0.208630	0.270157	0.114823	0.162877	0.363035	0.390339	0.205497	0.331788	0.157296	0.551726	0.133062	0.245908	0.224906	0.187160	0.418459	0.541521	0.233872	0.654631	0.305386	0.236494	0.401650	0.743831	0.113239	0.089265	0.342131	0.237856
29	0.108649	0.085088	0.400581	0.390518	0.253642	0.381637	0.275534	0.124657	0.058413	0.060768	0.216029	0.162551	0.295401	0.169640	0.297638	0.340086	0.229739	0.062579	0.405932	0.401184	0.159685	0.201733	0.151663	0.289846	0.143549	0.085599	0.539199	0.427112	0.581102	0.883591	0.179632	0.243125	0.134865	0.172618	0.374497	0.414391	0.207365	0.335527	0.158049	0.551938	0.137721	0.244942	0.225432	0.184648	0.442233	0.588274	0.247773	0.679122	0.322098	0.180179	0.487548	0.770499	0.110992	0.088964	0.388416	0.239816
30	0.116181	0.072420	0.397628	0.404272	0.259068	0.383670	0.287014	0.137380	0.069436	0.056605	0.224290	0.182208	0.294692	0.176452	0.282508	0.335437	0.255971	0.080788	0.496131	0.432003	0.154056	0.215539	0.148929	0.268687	0.138970	0.057458	0.525881	0.442816	0.618858	0.933539	0.169206	0.185804	0.147268	0.208918	0.465656	0.422952	0.212151	0.337724	0.158951	0.532864	0.142428	0.246322	0.216750	0.150859	0.441578	0.593922	0.263534	0.693173	0.243138	0.119600	0.481438	0.767719	0.116379	0.056643	0.402576	0.236049
31	0.117431	0.071353	0.394845	0.420999	0.297653	0.462370	0.298344	0.153854	0.069934	0.052967	0.230042	0.208780	0.258968	0.176654	0.229120	0.331748	0.256565	0.081766	0.552582	0.455313	0.183071	0.263430	0.147325	0.266752	0.138363	0.043460	0.498967	0.449993	0.668824	1.002650	0.116223	0.104994	0.128652	0.213661	0.456797	0.444631	0.214754	0.329685	0.135744	0.443676	0.138677	0.243384	0.198138	0.101535	0.441508	0.595909	0.267530	0.705736	0.193426	0.112365	0.391526	0.570046	0.138463	0.058940	0.403952	0.260629
32	0.116272	0.067456	0.396282	0.429569	0.270584	0.458624	0.311207	0.161539	0.071464	0.051660	0.244400	0.204070	0.173225	0.165219	0.199482	0.308742	0.257804	0.081666	0.557069	0.490680	0.206838	0.282729	0.145367	0.254516	0.122390	0.044844	0.354563	0.420240	0.690718	1.044661	0.144352	0.084701	0.126363	0.214148	0.473260	0.490661	0.208392	0.328506	0.119629	0.398451	0.136741	0.235120	0.180174	0.090025	0.441550	0.596936	0.268200	0.713633	0.155531	0.086412	0.362489	0.479534	0.137557	0.056331	0.401891	0.273192
33	0.116032	0.061654	0.387736	0.429005	0.307502	0.497404	0.311716	0.164487	0.074811	0.051012	0.272474	0.190983	0.086318	0.160038	0.194295	0.247820	0.261342	0.081349	0.567103	0.494572	0.211386	0.285314	0.140216	0.232944	0.120560	0.069300	0.323405	0.362270	0.691259	1.059190	0.173735	0.111911	0.126908	0.214326	0.522049	0.476456	0.198562	0.313481	0.126625	0.403331	0.134728	0.226161	0.151266	0.089286	0.442118	0.596979	0.270516	0.716333	0.094034	0.082883	0.220179	0.283627	0.140330	0.041040	0.384159	0.232119
34	0.113495	0.056322	0.377978	0.425942	0.294615	0.482123	0.306455	0.166494	0.074416	0.054301	0.277273	0.220895	0.079639	0.158722	0.185123	0.169024	0.265095	0.081868	0.595608	0.469386	0.217733	0.286262	0.137789	0.208163	0.070206	0.082379	0.222321	0.313364	0.691256	1.063718	0.180544	0.136077	0.127983	0.213888	0.549639	0.459157	0.177769	0.232939	0.245198	0.474050	0.134393	0.224190	0.143818	0.114243	0.442291	0.596879	0.270632	0.718145	0.074266	0.086694	0.139901	0.258850	0.139029	0.040268	0.333207	0.221053
35	0.111716	0.052450	0.374082	0.413486	0.270027	0.446952	0.275081	0.162080	0.084658	0.062787	0.253177	0.240282	0.085610	0.158126	0.184204	0.138554	0.267577	0.085286	0.600227	0.448699	0.223765	0.287154	0.137081	0.178924	0.073856	0.100913	0.187947	0.330102	0.690557	1.058378	0.173913	0.138984	0.124179	0.184747	0.561753	0.438951	0.174762	0.171706	0.255433	0.439839	0.127141	0.222195	0.263718	0.181117	0.441783	0.595560	0.273594	0.719130	0.090433	0.156409	0.106035	0.183510	0.128919	0.041496	0.309321	0.224483
36	0.112100	0.048520	0.336692	0.354049	0.264313	0.435763	0.274400	0.157603	0.077194	0.051201	0.238047	0.352715	0.092162	0.167200	0.187744	0.181596	0.229521	0.087149	0.537673	0.463184	0.226653	0.287503	0.126329	0.160611	0.090277	0.177409	0.155773	0.348290	0.664249	0.982763	0.174396	0.138983	0.125058	0.154323	0.533788	0.362783	0.167482	0.162485	0.266408	0.381855	0.127493	0.224594	0.337503	0.210711	0.440314	0.589715	0.277681	0.713073	0.088867	0.179921	0.094227	0.123283	0.116115	0.042691	0.309405	0.227409
37	0.112260	0.045744	0.302131	0.287611	0.265023	0.432403	0.272307	0.158316	0.072666	0.045509	0.200301	0.463990	0.097605	0.188954	0.199352	0.258536	0.231401	0.084374	0.534803	0.520925	0.226470	0.287421	0.099949	0.138017	0.107303	0.194895	0.158636	0.308474	0.576889	0.800377	0.173492	0.138946	0.110887	0.140320	0.504897	0.335633	0.162460	0.152840	0.288385	0.376180	0.122033	0.214321	0.363214	0.241294	0.433932	0.567241	0.236702	0.601364	0.108672	0.211685	0.225991	0.118232	0.123178	0.045512	0.304049	0.298511
38	0.113926	0.044447	0.289889	0.273525	0.264794	0.428540	0.238000	0.208246	0.080911	0.043475	0.223491	0.525909	0.117670	0.223506	0.184441	0.300974	0.198577	0.060773	0.485014	0.569823	0.225593	0.287269	0.109230	0.130275	0.119639	0.214227	0.188598	0.258327	0.516783	0.669403	0.165957	0.139035	0.096098	0.095824	0.414924	0.325993	0.159841	0.177680	0.295674	0.376553	0.121322	0.208834	0.369844	0.260669	0.416372	0.511504	0.205456	0.459088	0.141109	0.231529	0.385826	0.144196	0.138006	0.048536	0.293731	0.437637
39	0.113099	0.043338	0.288065	0.276980	0.223038	0.354720	0.231813	0.229095	0.094854	0.048359	0.251925	0.523887	0.131469	0.234032	0.144481	0.308934	0.185633	0.055910	0.430074	0.608348	0.224799	0.287077	0.105795	0.131018	0.124976	0.242733	0.244311	0.355597	0.516079	0.661869	0.175623	0.147942	0.097355	0.093249	0.402282	0.297659	0.184014	0.240268	0.362096	0.397765	0.121551	0.204706	0.368507	0.261220	0.409501	0.482673	0.202094	0.407759	0.151085	0.197508	0.466503	0.146525	0.146186	0.053901	0.301430	0.520218
40	0.111014	0.042889	0.276643	0.272692	0.186054	0.265034	0.267499	0.233363	0.098242	0.070872	0.247146	0.522845	0.129695	0.234372	0.132137	0.308228	0.197572	0.057339	0.410874	0.604223	0.224611	0.286637	0.104650	0.123186	0.125383	0.359945	0.269038	0.365948	0.512001	0.664919	0.184439	0.155197	0.110265	0.125500	0.377515	0.261382	0.178553	0.241514	0.376638	0.399741	0.117739	0.155222	0.366979	0.268897	0.395090	0.480535	0.204876	0.404308	0.157609	0.176247	0.569942	0.176321	0.144378	0.063392	0.314535	0.540840
41	0.111191	0.042593	0.272390	0.269719	0.212027	0.242901	0.320390	0.241893	0.101803	0.086236	0.212955	0.518401	0.127922	0.235447	0.132023	0.314207	0.199536	0.057312	0.397940	0.562357	0.222787	0.279755	0.105932	0.112194	0.222721	0.525247	0.269337	0.392568	0.474538	0.636290	0.185156	0.174784	0.202716	0.147889	0.364301	0.228256	0.228954	0.329469	0.384397	0.408248	0.088794	0.092743	0.382522	0.302129	0.268733	0.372355	0.205849	0.353215	0.158663	0.154534	0.588127	0.231796	0.191423	0.110397	0.317125	0.529849
42	0.099656	0.037826	0.246297	0.266883	0.301404	0.115143	0.344757	0.241969	0.101984	0.102461	0.207417	0.517112	0.129613	0.239783	0.132776	0.320433	0.195724	0.056703	0.371662	0.558901	0.210523	0.243229	0.105670	0.109625	0.294786	0.566229	0.264122	0.387211	0.421273	0.582627	0.188414	0.181094	0.283114	0.239017	0.336095	0.241522	0.245372	0.352387	0.397244	0.419335	0.085376	0.091384	0.410045	0.351148	0.101068	0.214878	0.202774	0.279825	0.122410	0.063844	0.472862	0.241964	0.232018	0.227502	0.317541	0.537166
43	0.073137	0.028990	0.186903	0.246576	0.326397	0.088875	0.338422	0.238642	0.100183	0.100129	0.206948	0.519415	0.130404	0.240327	0.132843	0.324492	0.178073	0.049659	0.268151	0.555243	0.196462	0.211778	0.106696	0.109536	0.294129	0.549033	0.279668	0.373410	0.334303	0.467717	0.195775	0.181499	0.348278	0.433023	0.313617	0.277163	0.241676	0.351975	0.396273	0.417117	0.074201	0.090121	0.424960	0.374075	0.131879	0.197196	0.178614	0.233510	0.107392	0.040773	0.455207	0.255763	0.234400	0.248408	0.309696	0.585652
44	0.053755	0.023119	0.162822	0.193763	0.326644	0.080721	0.337940	0.231578	0.104790	0.100062	0.243683	0.468335	0.145027	0.250283	0.133047	0.335404	0.164833	0.038488	0.264218	0.592005	0.191629	0.207811	0.107256	0.104032	0.286628	0.542908	0.285371	0.372190	0.259201	0.333968	0.185979	0.193639	0.501231	0.507277	0.312592	0.317219	0.226272	0.351071	0.338047	0.336297	0.084817	0.105440	0.438090	0.393339	0.138328	0.191176	0.174006	0.196348	0.087072	0.030873	0.302267	0.249820	0.272892	0.287078	0.311882	0.650984
45	0.052386	0.022934	0.160891	0.147088	0.331906	0.080210	0.337344	0.236145	0.152758	0.100185	0.276149	0.352676	0.199821	0.308131	0.132330	0.356425	0.164533	0.030268	0.264325	0.694776	0.195081	0.193027	0.110476	0.108409	0.284191	0.535580	0.243731	0.391121	0.256392	0.267972	0.160381	0.189392	0.614569	0.601494	0.316275	0.327633	0.228339	0.351942	0.325113	0.342392	0.087756	0.116200	0.453428	0.406316	0.141841	0.207085	0.171638	0.156293	0.051479	0.024798	0.209959	0.188656	0.308056	0.298330	0.295138	0.653928
46	0.054887	0.023538	0.161597	0.226877	0.423211	0.084811	0.324035	0.229308	0.158701	0.109856	0.257853	0.280541	0.224972	0.342378	0.133450	0.382880	0.175409	0.030702	0.309375	0.707646	0.190059	0.194433	0.115150	0.111796	0.282249	0.518526	0.187712	0.323156	0.257399	0.247997	0.145882	0.163563	0.645033	0.680132	0.316019	0.346984	0.235522	0.352205	0.324115	0.365742	0.088025	0.116439	0.463378	0.405657	0.143251	0.222460	0.167817	0.180771	0.051176	0.026176	0.185237	0.168649	0.367445	0.370299	0.293249	0.640450
47	0.076256	0.027936	0.197795	0.380796	0.446992	0.102114	0.328983	0.217084	0.174708	0.112318	0.237842	0.355001	0.227466	0.343841	0.136056	0.401098	0.223766	0.039924	0.295437	0.651374	0.196476	0.222792	0.122587	0.107323	0.282640	0.456132	0.161348	0.358780	0.256439	0.247365	0.143862	0.153965	0.675552	0.758902	0.336246	0.390992	0.242344	0.351690	0.307044	0.360672	0.095403	0.120673	0.467346	0.421222	0.142020	0.224248	0.203419	0.280272	0.095782	0.129962	0.179190	0.097808	0.380486	0.389971	0.295418	0.728642
48	0.092652	0.032034	0.285547	0.499879	0.449083	0.104159	0.313173	0.202290	0.172409	0.121754	0.240744	0.363124	0.234649	0.355354	0.157340	0.411369	0.240810	0.052383	0.293404	0.661565	0.194503	0.229839	0.134500	0.110150	0.172560	0.186482	0.173589	0.335568	0.239565	0.244283	0.144326	0.154913	0.690296	0.802285	0.313721	0.379798	0.258431	0.333384	0.300644	0.358629	0.097291	0.123851	0.437815	0.433675	0.141944	0.224591	0.294236	0.388542	0.127228	0.154276	0.174712	0.082253	0.375236	0.390960	0.294994	0.731431
49	0.100772	0.033255	0.384578	0.574847	0.454256	0.146346	0.230814	0.186482	0.179237	0.130769	0.258769	0.362710	0.240210	0.370704	0.174146	0.414944	0.228577	0.054153	0.324023	0.714392	0.203884	0.257057	0.143346	0.129515	0.094922	0.091849	0.204611	0.324972	0.186082	0.243327	0.140994	0.155106	0.673475	0.801712	0.292197	0.381951	0.319426	0.288173	0.234688	0.335533	0.093647	0.120949	0.368153	0.420748	0.141624	0.224495	0.392141	0.466565	0.132307	0.212665	0.081863	0.097201	0.368120	0.389159	0.277952	0.709138
50	0.109669	0.033824	0.442231	0.582549	0.462964	0.427350	0.153603	0.178078	0.213060	0.220732	0.272794	0.361171	0.250701	0.378032	0.179769	0.400747	0.237772	0.053992	0.392862	0.745154	0.246036	0.322805	0.228399	0.350340	0.182905	0.136513	0.187231	0.391421	0.171514	0.243589	0.141878	0.155240	0.643641	0.780934	0.281812	0.375605	0.377959	0.278517	0.241677	0.346272	0.092788	0.109048	0.344502	0.419890	0.137431	0.224228	0.465727	0.493392	0.135707	0.218468	0.073310	0.098464	0.345552	0.379926	0.266167	0.744745
51	0.109013	0.031343	0.458445	0.592795	0.434084	0.490450	0.152076	0.183835	0.210671	0.239466	0.275597	0.345952	0.271219	0.390092	0.167682	0.361527	0.251759	0.058535	0.441554	0.751795	0.268156	0.346447	0.316439	0.533241	0.233128	0.178680	0.171042	0.396053	0.178296	0.242537	0.143293	0.155134	0.611349	0.701891	0.288002	0.352938	0.367277	0.166565	0.260817	0.339771	0.095296	0.102098	0.335638	0.414036	0.148998	0.226507	0.492318	0.500780	0.185948	0.331836	0.081656	0.100932	0.317516	0.325946	0.266794	0.783936
52	0.116538	0.030626	0.458495	0.600922	0.625218	0.815826	0.204577	0.186150	0.259951	0.257149	0.256704	0.319094	0.267535	0.374033	0.151691	0.316169	0.267539	0.079368	0.463084	0.725460	0.272397	0.353447	0.453507	0.584130	0.240855	0.196062	0.174671	0.338278	0.203701	0.237400	0.141270	0.150702	0.491543	0.664511	0.297348	0.351947	0.358582	0.100806	0.293832	0.327298	0.091082	0.098833	0.332798	0.429270	0.186010	0.229074	0.494829	0.505506	0.169298	0.320711	0.122552	0.106098	0.324668	0.310051	0.337587	0.803656
53	0.127912	0.031402	0.458431	0.600850	0.646158	0.846861	0.206690	0.181063	0.255021	0.290231	0.223222	0.340499	0.267246	0.378517	0.153354	0.296655	0.264302	0.103671	0.447088	0.587520	0.275419	0.355747	0.622017	0.592245	0.253988	0.203482	0.169500	0.319354	0.214928	0.232452	0.148672	0.158402	0.344254	0.600464	0.316143	0.408844	0.365264	0.101968	0.301285	0.329590	0.091567	0.098455	0.334334	0.437080	0.196613	0.222655	0.511666	0.508147	0.145527	0.296657	0.125604	0.104908	0.305068	0.281800	0.340463	0.760619
54	0.141761	0.032432	0.455183	0.605185	0.645447	0.871241	0.223269	0.213826	0.249607	0.303665	0.218602	0.326550	0.308484	0.415831	0.159741	0.301925	0.264531	0.105335	0.430973	0.464993	0.279555	0.357313	0.690607	0.593911	0.268495	0.275875	0.169810	0.276779	0.212932	0.231853	0.185217	0.164213	0.283303	0.506061	0.323483	0.400406	0.457538	0.112297	0.324305	0.295855	0.091993	0.097482	0.361807	0.433061	0.197764	0.216697	0.535900	0.515012	0.148587	0.276084	0.158917	0.130056	0.277412	0.271844	0.343190	0.754832
55	0.145003	0.033185	0.452425	0.606266	0.615937	0.883401	0.243239	0.208975	0.243744	0.312024	0.200230	0.243345	0.317989	0.424533	0.164005	0.337891	0.244412	0.131191	0.398142	0.441037	0.283130	0.358514	0.697654	0.603118	0.290890	0.466423	0.133330	0.271117	0.207716	0.226422	0.188703	0.164590	0.194564	0.372703	0.300729	0.356093	0.545398	0.128328	0.387023	0.225606	0.093339	0.095703	0.384312	0.418768	0.198239	0.205921	0.548249	0.542911	0.144543	0.270629	0.166432	0.131474	0.199830	0.170602	0.343717	0.744156
56	0.143742	0.033215	0.460583	0.606916	0.618196	0.883681	0.240119	0.192275	0.244712	0.303099	0.200149	0.260276	0.317631	0.422408	0.178031	0.394366	0.235285	0.168717	0.377377	0.416250	0.285350	0.358642	0.716210	0.619734	0.360937	0.615982	0.130448	0.255146	0.195458	0.214103	0.182109	0.165121	0.148576	0.258125	0.253801	0.332064	0.574032	0.131332	0.419837	0.191250	0.092661	0.094019	0.411131	0.403936	0.180206	0.172972	0.558361	0.616849	0.078135	0.088688	0.125715	0.147685	0.163673	0.112057	0.312393	0.587130
57	0.145204	0.033458	0.461144	0.629813	0.617703	0.894144	0.256402	0.300592	0.232767	0.297051	0.186341	0.290871	0.317290	0.420669	0.211970	0.430847	0.225310	0.188756	0.372178	0.324522	0.302011	0.359549	0.826205	0.652242	0.361998	0.710148	0.178915	0.193312	0.194372	0.203081	0.188796	0.158070	0.132552	0.247294	0.201977	0.354468	0.594949	0.128093	0.455081	0.193804	0.084134	0.084759	0.418605	0.416232	0.173369	0.164115	0.566647	0.691361	0.086003	0.096544	0.123291	0.136553	0.165126	0.116992	0.269879	0.494005
58	0.153870	0.033740	0.461442	0.662336	0.603225	0.869705	0.288193	0.325549	0.248758	0.279141	0.174160	0.285782	0.315672	0.419099	0.246098	0.440079	0.252191	0.359113	0.309681	0.194853	0.317351	0.360883	0.920850	0.692315	0.349586	0.706824	0.197471	0.236661	0.196840	0.191253	0.272317	0.172196	0.129374	0.240675	0.201735	0.366751	0.601170	0.126683	0.461127	0.194516	0.073390	0.058609	0.400616	0.412437	0.185607	0.157951	0.573893	0.730694	0.086117	0.099038	0.123779	0.128346	0.178704	0.175311	0.284215	0.492850
59	0.154310	0.033464	0.470905	0.663842	0.568995	0.775708	0.286776	0.342762	0.281684	0.297369	0.167586	0.275135	0.296506	0.382306	0.286941	0.427591	0.249865	0.407820	0.222642	0.117438	0.324605	0.361433	0.950352	0.702458	0.367416	0.730753	0.194769	0.232662	0.202035	0.195742	0.354541	0.187888	0.126439	0.214397	0.194988	0.368566	0.570287	0.122180	0.502298	0.233031	0.078602	0.052442	0.392153	0.409928	0.202514	0.127543	0.585621	0.751849	0.072787	0.089259	0.082422	0.232565	0.186182	0.208371	0.296548	0.432408
60	0.157408	0.033727	0.486095	0.633420	0.472255	0.674227	0.271344	0.356897	0.303020	0.320298	0.133651	0.262407	0.290695	0.332449	0.301364	0.403274	0.231550	0.427892	0.168588	0.104870	0.316489	0.347138	0.955035	0.702771	0.360592	0.728923	0.199653	0.234138	0.213566	0.214451	0.386117	0.199497	0.158887	0.176865	0.178824	0.335553	0.532699	0.121569	0.535537	0.220891	0.077606	0.048929	0.426075	0.415666	0.215461	0.118890	0.595668	0.747202	0.084999	0.112862	0.152075	0.239599	0.227292	0.256072	0.296193	0.349089
61	0.154880	0.029814	0.490620	0.575968	0.326666	0.361877	0.270527	0.359025	0.311884	0.311901	0.128095	0.241225	0.296519	0.316258	0.303508	0.381071	0.225709	0.433042	0.148071	0.101420	0.290718	0.310844	0.955034	0.705430	0.354445	0.695869	0.216039	0.233226	0.214905	0.210719	0.393962	0.204157	0.263653	0.222734	0.134758	0.251298	0.520239	0.120660	0.543531	0.227018	0.070267	0.030846	0.482200	0.391227	0.224074	0.119672	0.577052	0.710617	0.071875	0.102431	0.169348	0.259631	0.268924	0.324588	0.229924	0.230750
62	0.162843	0.025750	0.457517	0.517732	0.267711	0.333591	0.283919	0.352884	0.310116	0.309037	0.123009	0.234622	0.298574	0.310040	0.301815	0.369708	0.260024	0.487028	0.262122	0.481276	0.278985	0.285731	0.954051	0.712222	0.337599	0.589888	0.239450	0.231926	0.226647	0.226315	0.394156	0.205085	0.297650	0.256878	0.109365	0.240057	0.523178	0.120591	0.523328	0.241204	0.078045	0.028290	0.526139	0.378934	0.226527	0.119232	0.522619	0.655777	0.094115	0.097937	0.176443	0.311387	0.260857	0.329807	0.223054	0.247315
63	0.164280	0.024577	0.385170	0.504925	0.206503	0.249769	0.262652	0.332577	0.369642	0.408368	0.121489	0.230481	0.290807	0.284440	0.292457	0.361234	0.272965	0.501261	0.348982	0.648804	0.278406	0.282556	0.953073	0.718378	0.223998	0.385007	0.215611	0.231678	0.225107	0.223034	0.392249	0.207109	0.360340	0.431131	0.104212	0.230224	0.534025	0.130958	0.518981	0.235800	0.083519	0.036139	0.549977	0.375411	0.228136	0.122165	0.447060	0.619287	0.099700	0.098130	0.172287	0.295752	0.257889	0.330988	0.322803	0.264573
64	0.158516	0.023717	0.326576	0.521871	0.181460	0.240848	0.251429	0.335193	0.421162	0.409057	0.104162	0.188595	0.292123	0.278668	0.287093	0.358790	0.244642	0.487671	0.354834	0.671194	0.257293	0.235080	0.952236	0.708906	0.178941	0.241621	0.172367	0.164721	0.209087	0.216543	0.389481	0.204394	0.413367	0.713143	0.103117	0.206738	0.494409	0.164598	0.538739	0.232306	0.099627	0.063496	0.548741	0.358237	0.226391	0.122876	0.385706	0.607839	0.128928	0.091580	0.160417	0.220020	0.257987	0.331210	0.415846	0.268734
65	0.157159	0.024627	0.315348	0.511431	0.159891	0.244410	0.248823	0.300062	0.458137	0.420937	0.083059	0.130642	0.280422	0.249010	0.285925	0.365355	0.238190	0.489226	0.350877	0.775687	0.211952	0.146948	0.930889	0.596030	0.156107	0.224366	0.160571	0.157942	0.219854	0.210485	0.393567	0.194210	0.482541	0.732436	0.133149	0.153899	0.438332	0.204220	0.527163	0.241332	0.118963	0.117587	0.549754	0.341987	0.201064	0.115551	0.379831	0.601635	0.135413	0.086682	0.113347	0.217930	0.255280	0.330474	0.441813	0.292041
66	0.149493	0.024532	0.320296	0.504592	0.152751	0.157335	0.248411	0.222135	0.452089	0.435129	0.058248	0.103165	0.284431	0.243502	0.284469	0.376637	0.223838	0.436039	0.447644	0.833588	0.193606	0.104736	0.901795	0.468323	0.109263	0.119825	0.159516	0.170394	0.238908	0.209759	0.388154	0.170151	0.602154	0.869150	0.282270	0.127636	0.413138	0.218106	0.502786	0.240144	0.125086	0.154721	0.549697	0.320145	0.186647	0.132499	0.374225	0.600925	0.133725	0.090370	0.086930	0.119320	0.255670	0.326339	0.455557	0.346639
67	0.139552	0.025426	0.319862	0.501554	0.148375	0.145079	0.254452	0.214057	0.435051	0.432219	0.182200	0.100824	0.290543	0.235725	0.283358	0.400636	0.215204	0.333850	0.583651	0.886110	0.211570	0.121135	0.825893	0.431654	0.225017	0.155138	0.151236	0.168064	0.271703	0.213224	0.380153	0.164648	0.611940	0.933287	0.316488	0.116487	0.382111	0.227400	0.477167	0.235298	0.124116	0.158507	0.541319	0.320171	0.184586	0.153639	0.348706	0.607176	0.124311	0.095638	0.097203	0.058832	0.264560	0.309334	0.523460	0.360957
68	0.126298	0.024744	0.317532	0.498599	0.155905	0.152165	0.248862	0.177597	0.386923	0.401574	0.261027	0.149103	0.260586	0.171356	0.292333	0.421028	0.209031	0.324143	0.590525	0.889949	0.246498	0.181510	0.712230	0.433059	0.280088	0.203568	0.114015	0.164566	0.341704	0.218723	0.382135	0.156144	0.617220	0.987340	0.319483	0.133799	0.358659	0.240696	0.473531	0.237939	0.137501	0.197457	0.514979	0.297227	0.184404	0.157185	0.319356	0.608790	0.104116	0.115294	0.100920	0.071092	0.271818	0.296357	0.566706	0.359037
69	0.124229	0.025318	0.313403	0.500335	0.127197	0.120994	0.261773	0.180422	0.374781	0.394372	0.267385	0.157159	0.245481	0.146563	0.302227	0.410991	0.214859	0.305128	0.588858	0.890075	0.275333	0.265910	0.670282	0.431698	0.289810	0.283074	0.062557	0.163104	0.412412	0.268798	0.382299	0.147963	0.581399	0.972560	0.348120	0.145159	0.349830	0.278205	0.422679	0.200646	0.140048	0.206857	0.475124	0.276761	0.186596	0.188886	0.296383	0.576365	0.082095	0.113525	0.161971	0.141676	0.249022	0.279708	0.570747	0.365178
70	0.125172	0.027152	0.302587	0.501279	0.120855	0.130901	0.284447	0.176038	0.370040	0.365884	0.320176	0.170151	0.252531	0.165694	0.304617	0.357562	0.228861	0.303975	0.573903	0.858282	0.285421	0.312915	0.667449	0.417049	0.291020	0.387700	0.046209	0.161401	0.431804	0.327313	0.355405	0.148523	0.566707	0.982459	0.396574	0.163386	0.349620	0.296127	0.357569	0.191067	0.144411	0.210496	0.449150	0.245008	0.182538	0.191864	0.275057	0.475669	0.072901	0.089931	0.171543	0.150244	0.206858	0.247874	0.564722	0.358350
71	0.122021	0.028741	0.309373	0.467325	0.121154	0.135050	0.284612	0.200703	0.307552	0.271213	0.390493	0.195278	0.256066	0.168676	0.294845	0.302148	0.256651	0.305095	0.511913	0.643029	0.280275	0.315269	0.625869	0.386355	0.308167	0.413502	0.042363	0.153083	0.451135	0.334546	0.264564	0.134003	0.542172	0.919998	0.411384	0.201413	0.350091	0.301643	0.322510	0.174762	0.146924	0.214436	0.445362	0.196304	0.175968	0.195125	0.259165	0.394571	0.079526	0.100438	0.197481	0.157620	0.203648	0.238785	0.562052	0.310680
72	0.114739	0.031757	0.309370	0.430071	0.122619	0.135360	0.289562	0.200476	0.247007	0.275108	0.407213	0.218077	0.256810	0.172153	0.270304	0.269458	0.301053	0.301750	0.491623	0.621462	0.260493	0.316703	0.436364	0.318898	0.524583	0.748443	0.034966	0.116067	0.566270	0.370930	0.196782	0.112809	0.499165	0.725383	0.420949	0.204554	0.340306	0.302676	0.314768	0.144465	0.147605	0.217290	0.444104	0.182829	0.185168	0.195417	0.236843	0.330799	0.091182	0.125363	0.194206	0.164716	0.196503	0.239939	0.514066	0.292713
73	0.115043	0.034525	0.290947	0.437206	0.125393	0.125688	0.286918	0.190156	0.166402	0.238337	0.430065	0.237471	0.259714	0.197452	0.226963	0.261469	0.352920	0.303944	0.492151	0.520886	0.246490	0.315808	0.249554	0.239354	0.619980	0.919085	0.038242	0.106485	0.676301	0.441419	0.182340	0.098834	0.429041	0.708572	0.419793	0.207789	0.316889	0.298436	0.318385	0.136681	0.154717	0.227869	0.424835	0.171923	0.189255	0.218306	0.204308	0.282597	0.100411	0.118152	0.195343	0.117725	0.217054	0.270350	0.434412	0.306018
74	0.108144	0.036544	0.265420	0.435512	0.117800	0.121733	0.287004	0.212371	0.134903	0.158013	0.490141	0.241236	0.237570	0.203345	0.195514	0.262113	0.357928	0.299310	0.491211	0.422232	0.243689	0.315179	0.152809	0.230267	0.583618	0.916841	0.037849	0.107984	0.693916	0.456267	0.180878	0.107586	0.237785	0.534657	0.334915	0.200150	0.261184	0.278175	0.263808	0.134239	0.156184	0.228318	0.365464	0.151604	0.208707	0.238560	0.193625	0.315290	0.117642	0.146099	0.150684	0.179671	0.226923	0.279015	0.401574	0.296709
75	0.098450	0.039839	0.227542	0.410598	0.123085	0.125698	0.276132	0.213973	0.161895	0.205815	0.470047	0.247079	0.221607	0.205526	0.188741	0.263635	0.405856	0.294155	0.364313	0.349962	0.258486	0.330847	0.133962	0.232516	0.568747	0.906244	0.046559	0.135962	0.702324	0.459968	0.181167	0.112616	0.209259	0.416286	0.321502	0.200023	0.169579	0.240701	0.186675	0.102999	0.154742	0.229522	0.298670	0.158588	0.226823	0.251576	0.224339	0.459065	0.147049	0.159415	0.180033	0.185741	0.303522	0.364694	0.389647	0.227977
76	0.072310	0.042171	0.207975	0.358334	0.123922	0.135688	0.314206	0.216250	0.240113	0.332032	0.473235	0.264291	0.215640	0.215739	0.184145	0.263240	0.511638	0.305585	0.294814	0.302015	0.301395	0.409252	0.130895	0.231799	0.569317	0.881296	0.055587	0.162382	0.732258	0.464278	0.181319	0.111961	0.162437	0.268017	0.350103	0.199298	0.122864	0.222832	0.155873	0.081163	0.152372	0.231107	0.229554	0.185025	0.230380	0.253302	0.252435	0.534165	0.156608	0.149848	0.184850	0.204466	0.303052	0.396620	0.281232	0.201616
77	0.072212	0.043720	0.261440	0.277787	0.099753	0.123061	0.317396	0.227409	0.251824	0.357449	0.516602	0.305985	0.216070	0.221705	0.178232	0.260221	0.520748	0.319408	0.294617	0.305358	0.325822	0.453817	0.131975	0.225360	0.570211	0.845764	0.096872	0.163751	0.757225	0.465187	0.169282	0.122704	0.152637	0.255249	0.328367	0.199316	0.149326	0.210031	0.124815	0.078055	0.146978	0.241182	0.189509	0.293826	0.231303	0.251098	0.263277	0.543107	0.155819	0.113664	0.312648	0.220995	0.290174	0.389659	0.156036	0.204774
78	0.084605	0.045714	0.314027	0.244496	0.095517	0.117171	0.286460	0.280490	0.322696	0.442700	0.490841	0.306874	0.231269	0.221727	0.179014	0.261787	0.508238	0.296861	0.295515	0.304165	0.328245	0.461289	0.151174	0.254583	0.557242	0.837098	0.105910	0.157821	0.752181	0.473547	0.159528	0.173500	0.147268	0.180676	0.282426	0.184140	0.163540	0.191103	0.120307	0.056835	0.131323	0.243846	0.186813	0.418525	0.230108	0.249220	0.265727	0.552265	0.159684	0.111085	0.423879	0.312965	0.283554	0.378792	0.158576	0.215590
79	0.095947	0.047280	0.335177	0.238929	0.106437	0.118858	0.270923	0.280174	0.327236	0.460892	0.444551	0.296317	0.247513	0.219512	0.177935	0.257081	0.522245	0.213332	0.305657	0.302099	0.329069	0.464155	0.186807	0.371194	0.287247	0.453096	0.111387	0.146418	0.745222	0.473930	0.157466	0.219283	0.083654	0.170510	0.268074	0.151524	0.160412	0.128568	0.129649	0.048349	0.139066	0.218668	0.189823	0.461926	0.228831	0.240900	0.263024	0.597401	0.151793	0.038918	0.459307	0.339333	0.267602	0.340349	0.160511	0.216411
80	0.101303	0.048628	0.333634	0.263307	0.128543	0.126678	0.263919	0.302160	0.320866	0.466175	0.435224	0.279402	0.238683	0.215991	0.172817	0.249027	0.509509	0.185153	0.310265	0.320137	0.329155	0.465061	0.198034	0.441162	0.144846	0.142738	0.112979	0.172273	0.728644	0.473301	0.151443	0.229619	0.091990	0.169997	0.252959	0.145923	0.162728	0.089798	0.132443	0.059702	0.204161	0.245620	0.188811	0.462654	0.234018	0.223920	0.255240	0.627391	0.111474	0.043294	0.533807	0.441012	0.265371	0.336176	0.159820	0.213511
81	0.102307	0.047718	0.334046	0.324007	0.186557	0.132297	0.262963	0.313049	0.318089	0.467239	0.403564	0.275758	0.230925	0.213262	0.170076	0.224186	0.479860	0.178987	0.315640	0.339817	0.328460	0.463759	0.189292	0.462539	0.152481	0.130483	0.118073	0.346150	0.691126	0.464334	0.148579	0.229632	0.099063	0.161171	0.237311	0.140860	0.199387	0.301909	0.128695	0.088190	0.244228	0.289742	0.178619	0.462599	0.252412	0.219336	0.257231	0.628133	0.108559	0.044907	0.531854	0.474956	0.266323	0.342939	0.163857	0.214797
82	0.113374	0.048919	0.334235	0.371661	0.280040	0.189790	0.274624	0.334420	0.316833	0.462421	0.350953	0.323667	0.237445	0.212229	0.151481	0.178362	0.467384	0.179409	0.308949	0.343455	0.311189	0.453241	0.177814	0.458130	0.129441	0.119267	0.120113	0.392567	0.680479	0.463785	0.150516	0.233524	0.094487	0.149345	0.293834	0.143608	0.278639	0.529919	0.116891	0.096377	0.239279	0.280996	0.168179	0.462059	0.257383	0.205941	0.271348	0.624748	0.062088	0.045923	0.398478	0.461395	0.246808	0.337539	0.172356	0.214084
83	0.130222	0.049376	0.343402	0.385593	0.305698	0.209066	0.257253	0.326890	0.291591	0.424621	0.390854	0.332625	0.230631	0.204413	0.124478	0.147752	0.453105	0.186188	0.209990	0.237156	0.284039	0.425428	0.176545	0.452918	0.108695	0.103106	0.127884	0.430103	0.687842	0.489602	0.153035	0.240092	0.109971	0.137079	0.290627	0.149897	0.290605	0.556756	0.101679	0.098798	0.239911	0.282824	0.174181	0.464934	0.256077	0.186183	0.273850	0.620250	0.058422	0.040642	0.360204	0.404906	0.238092	0.333655	0.167709	0.199137
84	0.136804	0.048524	0.349730	0.385709	0.318304	0.251636	0.232260	0.325700	0.235896	0.334170	0.339312	0.315219	0.230859	0.192415	0.108323	0.133632	0.335687	0.170200	0.159306	0.219327	0.255586	0.374170	0.183724	0.452810	0.100838	0.109083	0.102852	0.466892	0.629173	0.474066	0.165623	0.256535	0.121792	0.107930	0.254306	0.151667	0.348145	0.607572	0.098699	0.105962	0.242602	0.279126	0.183797	0.470025	0.255027	0.181591	0.270498	0.618390	0.059559	0.027354	0.234263	0.350022	0.132941	0.251047	0.160878	0.200013
85	0.137762	0.047297	0.345456	0.408498	0.320226	0.247978	0.206400	0.348370	0.225784	0.314627	0.273628	0.319482	0.279642	0.188038	0.087220	0.125356	0.283776	0.141290	0.157064	0.221447	0.253083	0.348803	0.197724	0.453046	0.104266	0.124477	0.113188	0.483210	0.496568	0.430658	0.159808	0.279173	0.160555	0.115213	0.273734	0.161082	0.357497	0.661012	0.107934	0.116320	0.249073	0.278243	0.184197	0.506080	0.243244	0.178202	0.268694	0.618463	0.052369	0.020973	0.296627	0.339508	0.084084	0.179901	0.162316	0.205577
86	0.135791	0.044552	0.345316	0.444370	0.365262	0.244725	0.215613	0.338824	0.088772	0.160323	0.274993	0.312468	0.303210	0.187374	0.082433	0.124306	0.282387	0.113010	0.157544	0.217358	0.256289	0.348072	0.211719	0.462911	0.109957	0.137016	0.122557	0.482595	0.426776	0.391713	0.152141	0.283471	0.240596	0.106369	0.282755	0.205481	0.355228	0.673103	0.143225	0.144135	0.250168	0.274165	0.184385	0.562223	0.220463	0.158930	0.267603	0.618276	0.064948	0.021912	0.335344	0.381207	0.089814	0.178650	0.149726	0.201706
87	0.135470	0.044640	0.344426	0.473536	0.460027	0.245715	0.225943	0.340428	0.090030	0.122898	0.278682	0.317174	0.317916	0.162597	0.087374	0.125052	0.263179	0.109098	0.152268	0.213643	0.256285	0.345778	0.221557	0.477301	0.208053	0.312297	0.139565	0.468885	0.428761	0.383987	0.151906	0.279873	0.258005	0.104918	0.282805	0.249788	0.340313	0.681134	0.155444	0.151525	0.250097	0.287729	0.183123	0.614781	0.199605	0.120815	0.258836	0.611578	0.067946	0.020133	0.373369	0.452466	0.090537	0.178076	0.115574	0.185405
88	0.136226	0.046904	0.341748	0.471650	0.543020	0.241928	0.287362	0.320876	0.125687	0.096279	0.281387	0.320377	0.317303	0.142880	0.089829	0.124081	0.152267	0.116021	0.131115	0.187644	0.254862	0.345540	0.225193	0.493394	0.239202	0.387246	0.148713	0.351857	0.399876	0.379807	0.150758	0.279407	0.333380	0.106663	0.287177	0.257657	0.329602	0.689484	0.153597	0.155292	0.250415	0.296520	0.172954	0.647899	0.161547	0.076719	0.233710	0.542299	0.103081	0.027339	0.421132	0.502037	0.092766	0.178327	0.096930	0.187997
89	0.135982	0.048274	0.345552	0.470295	0.544202	0.241291	0.300905	0.313810	0.150923	0.107487	0.282965	0.308554	0.317204	0.140455	0.088925	0.120220	0.155566	0.128872	0.132175	0.249434	0.248989	0.345379	0.225672	0.505406	0.241767	0.404218	0.153230	0.319420	0.321848	0.378350	0.148046	0.276371	0.443464	0.108062	0.285921	0.267099	0.330692	0.694408	0.146140	0.173020	0.251216	0.308071	0.196017	0.665679	0.145817	0.052393	0.187534	0.426596	0.106222	0.026716	0.404119	0.524509	0.101088	0.178286	0.096908	0.195307
90	0.132799	0.058525	0.336173	0.467719	0.520443	0.225088	0.306152	0.292494	0.150231	0.115258	0.264383	0.267059	0.315169	0.125217	0.087572	0.115448	0.142618	0.128022	0.121206	0.324281	0.232653	0.314392	0.231858	0.506934	0.281165	0.551181	0.165078	0.250059	0.296778	0.370873	0.144974	0.261987	0.494940	0.108434	0.228589	0.373367	0.329921	0.697178	0.143794	0.169995	0.252776	0.305876	0.235688	0.659752	0.142192	0.049391	0.161410	0.389058	0.105804	0.029276	0.287618	0.467012	0.102278	0.158331	0.086436	0.187938
91	0.131186	0.100432	0.287692	0.467183	0.484368	0.179312	0.343816	0.268614	0.152794	0.115038	0.219927	0.263157	0.315517	0.115944	0.084782	0.111053	0.126687	0.112305	0.120978	0.329368	0.189756	0.195087	0.250608	0.509220	0.280800	0.554635	0.193555	0.172955	0.298452	0.363485	0.134043	0.218113	0.502797	0.099200	0.221204	0.474090	0.308921	0.635990	0.145257	0.166200	0.252290	0.291220	0.266168	0.595659	0.142052	0.043905	0.148796	0.386616	0.115744	0.041850	0.320544	0.480016	0.087483	0.103618	0.060627	0.174497
92	0.128646	0.158284	0.223447	0.466021	0.491163	0.199529	0.344324	0.257141	0.168964	0.114563	0.229579	0.294260	0.307746	0.120024	0.082173	0.107038	0.140935	0.126687	0.100073	0.398262	0.177553	0.116714	0.272146	0.510621	0.306030	0.553985	0.182744	0.149876	0.290092	0.363582	0.126272	0.194809	0.601450	0.100099	0.238897	0.547624	0.250200	0.461944	0.155899	0.174341	0.248842	0.289181	0.285280	0.535638	0.140633	0.044210	0.147922	0.341378	0.119250	0.044469	0.238877	0.492004	0.084747	0.089743	0.080552	0.203887
93	0.121753	0.173992	0.187474	0.465204	0.498633	0.198958	0.336118	0.265768	0.283836	0.116734	0.253912	0.306324	0.283520	0.131149	0.081422	0.102886	0.147438	0.126003	0.101966	0.449356	0.193945	0.121152	0.276288	0.480172	0.306522	0.549467	0.185649	0.146728	0.281227	0.361438	0.125578	0.192950	0.593226	0.065273	0.214115	0.561611	0.240235	0.426741	0.156142	0.174755	0.220498	0.289278	0.293745	0.525094	0.134880	0.051362	0.140341	0.244958	0.105898	0.048495	0.213638	0.463870	0.072940	0.071248	0.101853	0.242333
94	0.133123	0.183311	0.189047	0.448231	0.489656	0.234027	0.321135	0.261841	0.279380	0.110157	0.247772	0.313201	0.275521	0.133399	0.083007	0.090302	0.157086	0.152160	0.107971	0.477740	0.213631	0.165401	0.265226	0.393097	0.233982	0.445075	0.244475	0.136335	0.242233	0.324152	0.125691	0.188280	0.607727	0.058439	0.228751	0.556991	0.165375	0.373942	0.157331	0.184756	0.145866	0.230526	0.295297	0.526402	0.110555	0.072610	0.124224	0.188971	0.120781	0.058588	0.255283	0.540089	0.072418	0.046573	0.101217	0.236352
95	0.165708	0.240630	0.189224	0.408484	0.447002	0.245087	0.318343	0.280551	0.276574	0.087578	0.241680	0.364208	0.274256	0.131721	0.083426	0.070473	0.166645	0.169642	0.112282	0.488489	0.227362	0.219433	0.259951	0.324335	0.215089	0.415922	0.253074	0.124196	0.194706	0.240653	0.118557	0.172123	0.618345	0.064953	0.254633	0.626366	0.229765	0.347290	0.156261	0.193405	0.151876	0.220887	0.294328	0.530405	0.078056	0.093569	0.074298	0.144301	0.127455	0.060980	0.245178	0.502953	0.068312	0.029031	0.105049	0.261170
96	0.170810	0.274046	0.185903	0.370003	0.300745	0.238605	0.276479	0.299064	0.284375	0.085508	0.239420	0.413847	0.262076	0.124891	0.083416	0.043436	0.174160	0.166566	0.156351	0.554599	0.227414	0.234837	0.260021	0.304099	0.213015	0.417912	0.255359	0.117138	0.181419	0.202263	0.102846	0.149823	0.584050	0.061155	0.333259	0.681966	0.280721	0.426361	0.126374	0.176861	0.169834	0.242125	0.292726	0.531868	0.083267	0.097289	0.045031	0.111373	0.107236	0.057428	0.245683	0.556229	0.069520	0.027852	0.116320	0.291184
97	0.178591	0.281651	0.160925	0.365506	0.260735	0.236369	0.220384	0.308010	0.335416	0.061621	0.248305	0.437665	0.256693	0.113627	0.080832	0.025998	0.187897	0.164373	0.166288	0.558878	0.223199	0.243708	0.263152	0.303359	0.188395	0.215667	0.241756	0.099090	0.170474	0.156884	0.069693	0.105543	0.510727	0.063713	0.343189	0.778711	0.286584	0.479475	0.110020	0.171277	0.167160	0.246965	0.295704	0.534504	0.130361	0.135523	0.044473	0.113198	0.126332	0.064027	0.328654	0.531628	0.066775	0.026040	0.123752	0.278451
98	0.225452	0.312315	0.139448	0.363998	0.290767	0.236832	0.218342	0.313547	0.384357	0.087686	0.210993	0.435928	0.257264	0.101143	0.074263	0.022772	0.189186	0.154444	0.171784	0.491752	0.220211	0.258496	0.263428	0.302885	0.230120	0.226037	0.227779	0.123757	0.166354	0.100747	0.061674	0.062563	0.466120	0.068075	0.419047	0.755177	0.291141	0.491327	0.108808	0.169746	0.174995	0.260885	0.302637	0.519337	0.139968	0.152907	0.047153	0.114389	0.120606	0.060806	0.336630	0.446739	0.057102	0.024307	0.129160	0.271606
99	0.251593	0.366243	0.140851	0.335357	0.284362	0.235130	0.175749	0.321769	0.417749	0.158653	0.197295	0.429918	0.207859	0.093666	0.062809	0.022965	0.190545	0.153904	0.170902	0.476909	0.219249	0.277576	0.256042	0.300073	0.205319	0.223267	0.229992	0.215371	0.138574	0.095059	0.062450	0.053844	0.517661	0.073491	0.554456	0.699506	0.290150	0.496254	0.108211	0.158295	0.180804	0.270078	0.305189	0.469578	0.149552	0.153185	0.048200	0.116712	0.133015	0.053409	0.355422	0.432380	0.045327	0.016675	0.128468	0.271198
100	0.270421	0.421793	0.143432	0.273853	0.278770	0.224498	0.150606	0.373216	0.409254	0.194212	0.179664	0.395734	0.161247	0.091575	0.049994	0.023166	0.171226	0.143195	0.180634	0.447047	0.214992	0.284276	0.246289	0.297417	0.203008	0.222449	0.221632	0.288653	0.105108	0.077207	0.061196	0.055543	0.414197	0.066444	0.607260	0.655340	0.308104	0.510279	0.107157	0.175835	0.176548	0.266167	0.305077	0.397101	0.156736	0.154616	0.048276	0.116524	0.136393	0.051085	0.362034	0.521698	0.044650	0.014913	0.127254	0.260425
101	0.272082	0.427127	0.143502	0.208855	0.285985	0.170185	0.149284	0.383980	0.389525	0.207483	0.141343	0.383084	0.105417	0.089994	0.040196	0.018784	0.151141	0.136794	0.206495	0.402139	0.219148	0.299947	0.236152	0.276532	0.198836	0.224182	0.166849	0.304615	0.118233	0.058984	0.057716	0.059817	0.414264	0.069881	0.629678	0.648960	0.397473	0.641269	0.098330	0.171162	0.174484	0.253486	0.304635	0.319888	0.159275	0.167373	0.050094	0.103529	0.251423	0.050864	0.279107	0.427431	0.044980	0.014831	0.123062	0.238818
