	225_C_T2_sh_ND_L_01.c3d	225_C_T2_sh_ND_L_01.c3d	225_C_T2_sh_ND_L_01.c3d	225_C_T2_sh_ND_L_01.c3d	225_C_T2_sh_ND_L_01.c3d	225_C_T2_sh_ND_L_01.c3d	225_C_T2_sh_ND_L_01.c3d	225_C_T2_sh_ND_L_01.c3d	225_C_T2_sh_ND_L_02.c3d	225_C_T2_sh_ND_L_02.c3d	225_C_T2_sh_ND_L_02.c3d	225_C_T2_sh_ND_L_02.c3d	225_C_T2_sh_ND_L_02.c3d	225_C_T2_sh_ND_L_02.c3d	225_C_T2_sh_ND_L_02.c3d	225_C_T2_sh_ND_L_02.c3d	225_C_T2_sh_ND_L_03.c3d	225_C_T2_sh_ND_L_03.c3d	225_C_T2_sh_ND_L_03.c3d	225_C_T2_sh_ND_L_03.c3d	225_C_T2_sh_ND_L_03.c3d	225_C_T2_sh_ND_L_03.c3d	225_C_T2_sh_ND_L_03.c3d	225_C_T2_sh_ND_L_03.c3d	225_C_T2_sh_ND_L_04.c3d	225_C_T2_sh_ND_L_04.c3d	225_C_T2_sh_ND_L_04.c3d	225_C_T2_sh_ND_L_04.c3d	225_C_T2_sh_ND_L_04.c3d	225_C_T2_sh_ND_L_04.c3d	225_C_T2_sh_ND_L_04.c3d	225_C_T2_sh_ND_L_04.c3d	225_C_T2_sh_ND_L_05.c3d	225_C_T2_sh_ND_L_05.c3d	225_C_T2_sh_ND_L_05.c3d	225_C_T2_sh_ND_L_05.c3d	225_C_T2_sh_ND_L_05.c3d	225_C_T2_sh_ND_L_05.c3d	225_C_T2_sh_ND_L_05.c3d	225_C_T2_sh_ND_L_05.c3d	225_C_T2_sh_ND_L_08.c3d	225_C_T2_sh_ND_L_08.c3d	225_C_T2_sh_ND_L_08.c3d	225_C_T2_sh_ND_L_08.c3d	225_C_T2_sh_ND_L_08.c3d	225_C_T2_sh_ND_L_08.c3d	225_C_T2_sh_ND_L_08.c3d	225_C_T2_sh_ND_L_08.c3d	225_C_T2_sh_ND_L_09.c3d	225_C_T2_sh_ND_L_09.c3d	225_C_T2_sh_ND_L_09.c3d	225_C_T2_sh_ND_L_09.c3d	225_C_T2_sh_ND_L_09.c3d	225_C_T2_sh_ND_L_09.c3d	225_C_T2_sh_ND_L_09.c3d	225_C_T2_sh_ND_L_09.c3d	225_C_T2_sh_ND_L_10.c3d	225_C_T2_sh_ND_L_10.c3d	225_C_T2_sh_ND_L_10.c3d	225_C_T2_sh_ND_L_10.c3d	225_C_T2_sh_ND_L_10.c3d	225_C_T2_sh_ND_L_10.c3d	225_C_T2_sh_ND_L_10.c3d	225_C_T2_sh_ND_L_10.c3d
	Biceps femoris_lat	Semitendinosus_lat	Vastus lateralis_lat	Vastus medialis_lat	Biceps femoris_med	Semitendinosus_med	Vastus lateralis_med	Vastus medialis_med	Biceps femoris_lat	Semitendinosus_lat	Vastus lateralis_lat	Vastus medialis_lat	Biceps femoris_med	Semitendinosus_med	Vastus lateralis_med	Vastus medialis_med	Biceps femoris_lat	Semitendinosus_lat	Vastus lateralis_lat	Vastus medialis_lat	Biceps femoris_med	Semitendinosus_med	Vastus lateralis_med	Vastus medialis_med	Biceps femoris_lat	Semitendinosus_lat	Vastus lateralis_lat	Vastus medialis_lat	Biceps femoris_med	Semitendinosus_med	Vastus lateralis_med	Vastus medialis_med	Biceps femoris_lat	Semitendinosus_lat	Vastus lateralis_lat	Vastus medialis_lat	Biceps femoris_med	Semitendinosus_med	Vastus lateralis_med	Vastus medialis_med	Biceps femoris_lat	Semitendinosus_lat	Vastus lateralis_lat	Vastus medialis_lat	Biceps femoris_med	Semitendinosus_med	Vastus lateralis_med	Vastus medialis_med	Biceps femoris_lat	Semitendinosus_lat	Vastus lateralis_lat	Vastus medialis_lat	Biceps femoris_med	Semitendinosus_med	Vastus lateralis_med	Vastus medialis_med	Biceps femoris_lat	Semitendinosus_lat	Vastus lateralis_lat	Vastus medialis_lat	Biceps femoris_med	Semitendinosus_med	Vastus lateralis_med	Vastus medialis_med
	P2D	P2D	P2D	P2D	P2D	P2D	P2D	P2D	P2D	P2D	P2D	P2D	P2D	P2D	P2D	P2D	P2D	P2D	P2D	P2D	P2D	P2D	P2D	P2D	P2D	P2D	P2D	P2D	P2D	P2D	P2D	P2D	P2D	P2D	P2D	P2D	P2D	P2D	P2D	P2D	P2D	P2D	P2D	P2D	P2D	P2D	P2D	P2D	P2D	P2D	P2D	P2D	P2D	P2D	P2D	P2D	P2D	P2D	P2D	P2D	P2D	P2D	P2D	P2D
	EMG_lat	EMG_lat	EMG_lat	EMG_lat	EMG_med	EMG_med	EMG_med	EMG_med	EMG_lat	EMG_lat	EMG_lat	EMG_lat	EMG_med	EMG_med	EMG_med	EMG_med	EMG_lat	EMG_lat	EMG_lat	EMG_lat	EMG_med	EMG_med	EMG_med	EMG_med	EMG_lat	EMG_lat	EMG_lat	EMG_lat	EMG_med	EMG_med	EMG_med	EMG_med	EMG_lat	EMG_lat	EMG_lat	EMG_lat	EMG_med	EMG_med	EMG_med	EMG_med	EMG_lat	EMG_lat	EMG_lat	EMG_lat	EMG_med	EMG_med	EMG_med	EMG_med	EMG_lat	EMG_lat	EMG_lat	EMG_lat	EMG_med	EMG_med	EMG_med	EMG_med	EMG_lat	EMG_lat	EMG_lat	EMG_lat	EMG_med	EMG_med	EMG_med	EMG_med
ITEM	Y	Y	Y	Y	Y	Y	Y	Y	Y	Y	Y	Y	Y	Y	Y	Y	Y	Y	Y	Y	Y	Y	Y	Y	Y	Y	Y	Y	Y	Y	Y	Y	Y	Y	Y	Y	Y	Y	Y	Y	Y	Y	Y	Y	Y	Y	Y	Y	Y	Y	Y	Y	Y	Y	Y	Y	Y	Y	Y	Y	Y	Y	Y	Y
1	0.466762	0.361169	0.261865	0.301016	0.269647	0.556987	0.175490	0.213638	0.406209	0.252402	0.215126	0.113513	0.211424	0.245029	0.291866	0.198916	0.717828	0.133154	0.171542	0.254858	0.456045	0.239385	0.183569	0.165091	0.233931	0.140394	0.120982	0.212497	0.277493	0.152707	0.303203	0.210400	0.375831	0.462578	0.134597	0.182939	0.234029	0.122977	0.202647	0.121275	0.278291	0.153888	0.302224	0.190582	0.277370	0.314167	0.208260	0.248579	0.179623	0.350763	0.367951	0.280509	0.207099	0.237183	0.164707	0.495483	0.292917	0.233807	0.209944	0.321024	0.131114	0.155420	0.184508	0.279139
2	0.421295	0.417322	0.282118	0.303939	0.262451	0.510865	0.180408	0.228943	0.422851	0.205773	0.217098	0.116328	0.209089	0.246447	0.281416	0.198815	0.717270	0.135945	0.171048	0.254743	0.425934	0.253167	0.181122	0.174409	0.199362	0.186635	0.146696	0.194917	0.276983	0.140374	0.291693	0.214491	0.322943	0.426271	0.123310	0.175959	0.246184	0.120777	0.199061	0.132233	0.272501	0.152311	0.291526	0.240257	0.274043	0.330380	0.204437	0.250921	0.189248	0.324088	0.432080	0.278003	0.186849	0.229497	0.134329	0.501112	0.273147	0.215692	0.238235	0.333592	0.122679	0.168580	0.174682	0.277907
3	0.295206	0.410006	0.283378	0.308753	0.252970	0.437415	0.205838	0.228106	0.422494	0.195288	0.214179	0.115786	0.222688	0.239167	0.282743	0.199677	0.687521	0.133929	0.171225	0.236616	0.425060	0.259818	0.176971	0.186111	0.241880	0.225912	0.171160	0.182345	0.271686	0.126628	0.268546	0.201873	0.230398	0.366059	0.108227	0.179634	0.241361	0.114268	0.201094	0.124668	0.227967	0.143362	0.290569	0.267919	0.269512	0.328883	0.236514	0.254284	0.188635	0.267129	0.440514	0.296248	0.186781	0.228708	0.132858	0.502148	0.267187	0.201381	0.243632	0.335851	0.116190	0.195097	0.209609	0.287555
4	0.251486	0.396129	0.282069	0.291711	0.220332	0.383548	0.207691	0.227283	0.417668	0.194818	0.214655	0.117345	0.230030	0.234618	0.281191	0.192302	0.647687	0.134541	0.166195	0.199182	0.412108	0.250824	0.177102	0.190837	0.271775	0.268540	0.166963	0.183389	0.261095	0.119510	0.237645	0.258213	0.190340	0.312646	0.104956	0.181693	0.238933	0.113597	0.194654	0.119773	0.148206	0.103229	0.289857	0.269233	0.276093	0.335700	0.243529	0.275201	0.181732	0.228019	0.443367	0.403532	0.188388	0.228616	0.141383	0.489729	0.264841	0.199777	0.270656	0.330326	0.121033	0.205085	0.215709	0.305456
5	0.247685	0.403349	0.262862	0.261875	0.214182	0.370806	0.210179	0.228046	0.445732	0.201363	0.217311	0.114792	0.238543	0.234985	0.267754	0.204854	0.632591	0.136297	0.128926	0.179699	0.419758	0.251112	0.178137	0.195288	0.265792	0.277639	0.162950	0.186219	0.213666	0.122008	0.205589	0.369276	0.183488	0.304887	0.115090	0.176337	0.232909	0.113288	0.185639	0.151773	0.145414	0.077672	0.282513	0.268110	0.279242	0.323224	0.259574	0.294544	0.173617	0.188738	0.456619	0.450466	0.197815	0.225322	0.142537	0.468275	0.266044	0.200173	0.286245	0.320018	0.125514	0.215081	0.218559	0.278914
6	0.244738	0.405648	0.246759	0.239240	0.215135	0.359642	0.211579	0.226628	0.453200	0.208603	0.219215	0.114869	0.243621	0.222490	0.223271	0.207997	0.619386	0.140717	0.088103	0.174133	0.406887	0.251937	0.178156	0.208908	0.257910	0.277921	0.168595	0.192858	0.169132	0.132687	0.179110	0.371297	0.179925	0.302119	0.147503	0.164429	0.247289	0.113487	0.183469	0.182933	0.103741	0.073715	0.269816	0.275169	0.223971	0.317317	0.270876	0.301260	0.145821	0.147180	0.465514	0.449653	0.215415	0.229362	0.160548	0.437968	0.268029	0.195544	0.287354	0.316038	0.135817	0.219733	0.246887	0.251623
7	0.289708	0.431464	0.229519	0.234276	0.206353	0.344266	0.214361	0.224580	0.462852	0.206932	0.217860	0.117514	0.243941	0.205872	0.189862	0.225550	0.460662	0.161540	0.097636	0.169973	0.410622	0.255830	0.179275	0.212273	0.246970	0.277688	0.170082	0.194798	0.124424	0.139144	0.181019	0.371992	0.162639	0.300507	0.184677	0.143912	0.283048	0.107750	0.195599	0.272949	0.135923	0.072042	0.246647	0.284262	0.177614	0.304252	0.272814	0.298326	0.147331	0.146521	0.445715	0.450001	0.226496	0.236225	0.182103	0.395576	0.238238	0.161423	0.295982	0.312089	0.142253	0.225418	0.274945	0.250496
8	0.325898	0.440233	0.235147	0.284567	0.190719	0.311537	0.214173	0.213152	0.421040	0.206789	0.214074	0.117048	0.249466	0.199869	0.186161	0.234420	0.280169	0.195850	0.116513	0.167939	0.397752	0.259632	0.186718	0.234466	0.254822	0.276690	0.182820	0.189010	0.114689	0.138632	0.197246	0.377912	0.149383	0.300968	0.198122	0.149907	0.287094	0.105192	0.229661	0.288786	0.156835	0.074556	0.213710	0.292673	0.156807	0.262890	0.293339	0.262706	0.133519	0.148964	0.431232	0.450230	0.232266	0.235718	0.203301	0.357079	0.190387	0.144831	0.319118	0.279678	0.133455	0.227086	0.288522	0.258228
9	0.338985	0.441111	0.218668	0.341113	0.176093	0.275376	0.215759	0.177842	0.416269	0.210161	0.212460	0.118149	0.257199	0.210076	0.185858	0.331221	0.282382	0.229587	0.125648	0.167724	0.380173	0.263179	0.185247	0.257325	0.259517	0.283206	0.201932	0.187009	0.120083	0.139801	0.205212	0.396663	0.144876	0.300760	0.207456	0.248672	0.287535	0.111915	0.271929	0.348571	0.159466	0.085313	0.197184	0.294509	0.153580	0.237254	0.276857	0.261245	0.121205	0.146219	0.428711	0.452908	0.237043	0.230019	0.232522	0.330999	0.178007	0.142942	0.327702	0.253488	0.128060	0.226833	0.290915	0.282752
10	0.348316	0.441392	0.192124	0.349256	0.160791	0.235998	0.211124	0.149954	0.419760	0.199987	0.214597	0.115926	0.267701	0.230674	0.192456	0.442638	0.235068	0.256590	0.127972	0.164638	0.375741	0.265280	0.175133	0.277013	0.257745	0.300870	0.204439	0.208516	0.124632	0.141454	0.201790	0.412268	0.124375	0.275302	0.235605	0.328409	0.284146	0.119578	0.259563	0.434963	0.158290	0.098470	0.234906	0.316013	0.139978	0.238435	0.263608	0.252357	0.121997	0.142803	0.416471	0.453239	0.243637	0.216386	0.247579	0.322807	0.177366	0.141289	0.316120	0.232227	0.136566	0.227581	0.290778	0.332580
11	0.356949	0.425273	0.170201	0.342401	0.154226	0.217058	0.206425	0.151482	0.431543	0.201294	0.215940	0.110185	0.268734	0.237650	0.247334	0.470492	0.147449	0.270540	0.147071	0.165586	0.369700	0.265082	0.165555	0.289183	0.262971	0.315282	0.214467	0.228311	0.150759	0.154882	0.203308	0.419008	0.085832	0.183572	0.272895	0.356951	0.290403	0.120158	0.268938	0.470946	0.167587	0.101567	0.319609	0.345298	0.129843	0.213212	0.270115	0.250469	0.103084	0.119298	0.355370	0.454529	0.235540	0.189544	0.255241	0.336253	0.187019	0.140706	0.308541	0.223926	0.161256	0.233280	0.306115	0.360522
12	0.359028	0.358336	0.153859	0.342493	0.151156	0.202218	0.196070	0.159224	0.405439	0.180371	0.207804	0.128571	0.252398	0.237878	0.294858	0.464014	0.129799	0.269354	0.154984	0.194185	0.328722	0.256573	0.167059	0.293211	0.255707	0.322092	0.219430	0.223008	0.198229	0.159000	0.215819	0.422474	0.082811	0.114833	0.297911	0.358640	0.292874	0.119038	0.315781	0.480892	0.225509	0.112798	0.350188	0.349932	0.122957	0.156011	0.258289	0.249872	0.099295	0.101678	0.342399	0.455460	0.241903	0.167489	0.255554	0.353301	0.154283	0.114069	0.305782	0.222840	0.172728	0.230179	0.317924	0.367198
13	0.348936	0.265248	0.150250	0.352464	0.159618	0.201826	0.185299	0.161572	0.373736	0.152278	0.178423	0.160696	0.248902	0.234452	0.301999	0.462954	0.135733	0.261507	0.157511	0.187892	0.228081	0.232133	0.183583	0.285729	0.257198	0.328585	0.216862	0.208066	0.215549	0.149436	0.273712	0.423008	0.088709	0.079431	0.310265	0.368243	0.300553	0.122862	0.350467	0.482142	0.251081	0.118460	0.340156	0.348506	0.125891	0.148380	0.234477	0.255238	0.099234	0.096524	0.352572	0.378684	0.255620	0.159542	0.264615	0.360458	0.134919	0.088308	0.305740	0.201508	0.173528	0.221052	0.319167	0.369497
14	0.316227	0.252291	0.147905	0.359994	0.187838	0.234049	0.179853	0.148614	0.377331	0.151691	0.148191	0.159865	0.263258	0.228056	0.309200	0.483075	0.151174	0.258051	0.158655	0.194122	0.219325	0.214908	0.196283	0.273301	0.259443	0.316149	0.209432	0.193289	0.226682	0.156695	0.320591	0.421056	0.104767	0.075538	0.323720	0.405487	0.308788	0.125780	0.384427	0.482524	0.250732	0.125248	0.337941	0.357047	0.108968	0.168032	0.227507	0.262933	0.094364	0.096257	0.336701	0.280605	0.265487	0.154798	0.285157	0.338089	0.129932	0.080068	0.303287	0.143272	0.173756	0.217783	0.316198	0.370853
15	0.295605	0.234517	0.156489	0.360454	0.198679	0.256896	0.179131	0.124360	0.376621	0.153938	0.141651	0.154211	0.276563	0.217194	0.320813	0.530416	0.147398	0.257609	0.165400	0.215859	0.217337	0.188583	0.191972	0.268805	0.261542	0.293026	0.194301	0.185645	0.235291	0.170511	0.329351	0.399909	0.105083	0.080887	0.329429	0.441173	0.303432	0.121719	0.393664	0.486503	0.254811	0.151240	0.361344	0.363891	0.111496	0.199873	0.219787	0.272223	0.084948	0.094902	0.313070	0.253929	0.272859	0.151814	0.300308	0.301395	0.129927	0.075437	0.279912	0.087058	0.174179	0.199113	0.309318	0.370010
16	0.289376	0.213583	0.160154	0.357130	0.222389	0.273892	0.205716	0.121494	0.360438	0.140805	0.163772	0.160700	0.277811	0.217974	0.320596	0.593101	0.143153	0.275209	0.176063	0.227258	0.219264	0.166397	0.185740	0.264608	0.228927	0.263156	0.179457	0.193870	0.236850	0.171083	0.329714	0.399395	0.113812	0.107851	0.333996	0.452995	0.300645	0.133378	0.393492	0.511598	0.259673	0.174099	0.383657	0.361165	0.109410	0.203000	0.213896	0.277542	0.070508	0.091705	0.285821	0.256601	0.274088	0.150273	0.307753	0.282727	0.125585	0.071273	0.265279	0.058511	0.173902	0.168307	0.286573	0.355153
17	0.218701	0.153031	0.161174	0.355964	0.225283	0.275189	0.237757	0.136061	0.364022	0.138122	0.215428	0.173830	0.287004	0.236414	0.332422	0.630143	0.144939	0.298768	0.177917	0.230982	0.223426	0.141130	0.184430	0.270726	0.184310	0.219698	0.183355	0.195410	0.237755	0.174407	0.331808	0.402282	0.119112	0.138069	0.354008	0.454303	0.310779	0.149384	0.406948	0.532249	0.260399	0.183051	0.398965	0.365342	0.116516	0.231038	0.194630	0.281952	0.066521	0.087624	0.250062	0.239381	0.273929	0.155692	0.309214	0.272254	0.127869	0.070246	0.247642	0.055222	0.166013	0.145276	0.285065	0.330330
18	0.171606	0.129028	0.145216	0.303690	0.245749	0.275130	0.242498	0.199323	0.350986	0.135725	0.222648	0.184927	0.297536	0.244884	0.350822	0.641654	0.154023	0.304372	0.186945	0.230152	0.220707	0.131283	0.176873	0.279130	0.175528	0.202157	0.209657	0.194809	0.243585	0.175298	0.337864	0.353287	0.123661	0.156965	0.367773	0.452481	0.318003	0.159745	0.411291	0.536758	0.258716	0.184591	0.401822	0.369759	0.112832	0.251159	0.159488	0.275865	0.053453	0.090463	0.244458	0.203493	0.273896	0.165990	0.310790	0.263412	0.127606	0.069609	0.215099	0.043650	0.152122	0.125139	0.268443	0.329082
19	0.138937	0.131173	0.140905	0.214115	0.261772	0.274574	0.245080	0.242048	0.319535	0.121050	0.232534	0.189011	0.308874	0.239752	0.361253	0.639736	0.151210	0.303139	0.195211	0.228897	0.207447	0.130075	0.169220	0.286036	0.157291	0.200786	0.246269	0.192138	0.245784	0.172409	0.350030	0.266725	0.123054	0.160068	0.371647	0.452153	0.316232	0.160822	0.411250	0.534530	0.258667	0.184552	0.402081	0.366084	0.112777	0.250281	0.154478	0.255307	0.040691	0.092503	0.232724	0.152826	0.272028	0.172680	0.308354	0.257884	0.124304	0.066078	0.208949	0.043514	0.140819	0.121841	0.235938	0.342552
20	0.125409	0.166938	0.134513	0.169604	0.284480	0.271157	0.267451	0.262904	0.310617	0.116454	0.263854	0.194801	0.319171	0.241351	0.370448	0.637769	0.134552	0.290308	0.184614	0.230152	0.183739	0.124547	0.178590	0.287454	0.154797	0.201556	0.261789	0.188215	0.245169	0.164634	0.358173	0.269180	0.122629	0.159400	0.366460	0.452164	0.262779	0.151984	0.411638	0.513665	0.253061	0.184693	0.402193	0.351985	0.116392	0.253427	0.120053	0.237504	0.039490	0.099696	0.201566	0.119922	0.260146	0.171137	0.307740	0.256272	0.124408	0.064813	0.209200	0.053986	0.127946	0.179200	0.198467	0.348046
21	0.098818	0.182322	0.106416	0.167777	0.296192	0.259215	0.297196	0.268680	0.303213	0.116377	0.307012	0.208907	0.326015	0.238661	0.372734	0.631870	0.129099	0.271011	0.174349	0.241867	0.164334	0.117882	0.180876	0.279954	0.143926	0.205011	0.256287	0.201874	0.255017	0.163714	0.360655	0.267111	0.120768	0.158017	0.354213	0.453292	0.207075	0.146927	0.402601	0.483756	0.231560	0.185565	0.402109	0.339982	0.118889	0.283413	0.113445	0.231698	0.033320	0.099361	0.169719	0.092362	0.244455	0.211202	0.300066	0.255962	0.132551	0.065347	0.190322	0.055257	0.126400	0.218384	0.176643	0.333325
22	0.108664	0.213052	0.134683	0.157779	0.294483	0.234848	0.313150	0.270222	0.281327	0.113915	0.339582	0.220916	0.327371	0.225553	0.372554	0.628322	0.128128	0.245838	0.175181	0.258883	0.152185	0.110489	0.174267	0.276620	0.129334	0.202685	0.247763	0.234905	0.262208	0.173842	0.345273	0.256561	0.120711	0.156634	0.341476	0.455100	0.182720	0.145852	0.373593	0.467529	0.225233	0.225105	0.401444	0.337017	0.118864	0.294307	0.115080	0.230526	0.030514	0.106983	0.128963	0.081256	0.230751	0.313413	0.288683	0.255994	0.133116	0.067117	0.146075	0.052002	0.127687	0.222721	0.177508	0.289710
23	0.149743	0.225087	0.187378	0.122454	0.294785	0.218806	0.317864	0.286620	0.253065	0.106365	0.350728	0.231295	0.322693	0.205958	0.372654	0.578526	0.132068	0.226079	0.174399	0.265654	0.146673	0.104355	0.164380	0.259474	0.141766	0.193103	0.274790	0.250916	0.258927	0.188368	0.334305	0.235482	0.125552	0.158017	0.338459	0.425530	0.183364	0.138082	0.342316	0.396287	0.227994	0.343462	0.397752	0.327348	0.113760	0.277620	0.116030	0.198670	0.030237	0.111033	0.129104	0.083004	0.224287	0.378262	0.284140	0.254391	0.133451	0.115261	0.111881	0.057283	0.114632	0.219420	0.168793	0.232768
24	0.160471	0.255746	0.188621	0.121908	0.296266	0.214317	0.316746	0.305091	0.242799	0.096058	0.349815	0.237556	0.314790	0.187424	0.366396	0.505860	0.139521	0.237619	0.165490	0.235315	0.143567	0.104373	0.160283	0.263915	0.142480	0.199507	0.300444	0.255133	0.257434	0.213278	0.334194	0.232026	0.136477	0.165314	0.323980	0.352474	0.182034	0.135743	0.337968	0.326719	0.231659	0.402040	0.338109	0.287229	0.087132	0.241384	0.088330	0.158249	0.032132	0.103111	0.111558	0.084655	0.220250	0.384467	0.265520	0.261896	0.122135	0.167644	0.114680	0.076414	0.080327	0.216491	0.138922	0.196369
25	0.179196	0.299148	0.195207	0.128868	0.295070	0.215041	0.317641	0.312267	0.219042	0.086776	0.349373	0.237967	0.309553	0.188243	0.325475	0.484717	0.142352	0.281868	0.171191	0.220009	0.144384	0.119392	0.162539	0.273816	0.141293	0.219073	0.317201	0.259520	0.237179	0.216790	0.333050	0.236361	0.142616	0.173560	0.296740	0.309412	0.202777	0.153425	0.301584	0.303481	0.201632	0.402835	0.264199	0.253699	0.089973	0.237350	0.091588	0.120710	0.039120	0.119797	0.087401	0.087490	0.213026	0.464679	0.235757	0.290394	0.103597	0.182931	0.136432	0.091698	0.081448	0.234151	0.122639	0.188821
26	0.181653	0.314081	0.222281	0.128550	0.282244	0.208389	0.315124	0.305544	0.199754	0.091599	0.346431	0.216923	0.306094	0.207361	0.284022	0.487236	0.135252	0.297814	0.174046	0.215765	0.144375	0.144168	0.167112	0.274338	0.134330	0.217665	0.325309	0.257058	0.185844	0.211358	0.321975	0.238624	0.142853	0.176789	0.271843	0.300955	0.254170	0.179131	0.256364	0.306879	0.133044	0.408506	0.244695	0.245855	0.093985	0.263826	0.112405	0.112022	0.040643	0.221142	0.086964	0.110622	0.208643	0.504117	0.218366	0.303420	0.100517	0.193546	0.138709	0.095073	0.102604	0.252854	0.119902	0.193898
27	0.186078	0.315358	0.250033	0.123278	0.269883	0.219612	0.312384	0.301498	0.191644	0.097404	0.341348	0.197500	0.295967	0.229812	0.270050	0.483252	0.126638	0.299933	0.170889	0.198202	0.129643	0.159229	0.158835	0.270992	0.147977	0.210837	0.329397	0.253204	0.166349	0.216522	0.267522	0.241568	0.141641	0.176765	0.257217	0.294713	0.284919	0.205941	0.197230	0.315321	0.121405	0.412044	0.245646	0.244609	0.107597	0.265209	0.118884	0.097820	0.051127	0.234968	0.107523	0.115217	0.196834	0.506517	0.218084	0.294196	0.102646	0.209623	0.137258	0.099506	0.105880	0.265213	0.119696	0.198561
28	0.186215	0.313125	0.261750	0.113660	0.257924	0.232962	0.307427	0.301289	0.165293	0.103081	0.336669	0.194728	0.283311	0.247625	0.255654	0.469631	0.128857	0.297451	0.160367	0.190332	0.110754	0.161615	0.136298	0.273661	0.159365	0.208320	0.333350	0.253150	0.149970	0.215802	0.207712	0.245129	0.123177	0.176197	0.237983	0.252964	0.297869	0.213130	0.153799	0.318375	0.124980	0.411611	0.224138	0.222125	0.118121	0.261314	0.116198	0.090698	0.061270	0.271706	0.144483	0.196506	0.167087	0.505263	0.212710	0.276734	0.115646	0.215079	0.140193	0.108191	0.107244	0.277033	0.118426	0.198915
29	0.185575	0.296491	0.267259	0.110282	0.242478	0.224282	0.271225	0.300570	0.149351	0.110152	0.331222	0.196932	0.284428	0.251285	0.242174	0.429611	0.128845	0.278764	0.152274	0.186590	0.111274	0.170581	0.125672	0.276535	0.149342	0.208297	0.331332	0.249520	0.143047	0.207970	0.193984	0.245197	0.117718	0.174882	0.221864	0.170779	0.313968	0.212121	0.152769	0.294999	0.123750	0.427453	0.187258	0.171954	0.134378	0.266473	0.115640	0.130713	0.066217	0.274093	0.154223	0.310011	0.138476	0.504532	0.184919	0.255411	0.149551	0.257380	0.140327	0.109452	0.114201	0.288194	0.120812	0.199292
30	0.179387	0.274759	0.268822	0.110163	0.228838	0.224803	0.245406	0.289905	0.141374	0.111969	0.306882	0.199975	0.280597	0.245564	0.239816	0.361702	0.121457	0.300131	0.151763	0.187107	0.109497	0.183657	0.134533	0.281150	0.149601	0.209667	0.326235	0.248701	0.143364	0.206497	0.201751	0.238757	0.109395	0.160724	0.219736	0.114563	0.405694	0.205851	0.141551	0.247252	0.127758	0.463038	0.142532	0.120150	0.131041	0.268194	0.118591	0.248658	0.068106	0.348830	0.177242	0.331171	0.121066	0.504918	0.170665	0.244374	0.185346	0.407724	0.141302	0.116619	0.118703	0.297683	0.119602	0.194072
31	0.175156	0.272526	0.268272	0.121621	0.199983	0.236419	0.251231	0.254353	0.141050	0.112261	0.284875	0.212883	0.282313	0.236624	0.213656	0.306713	0.116776	0.488972	0.133546	0.189603	0.102676	0.185289	0.146217	0.280868	0.153127	0.214757	0.314701	0.251405	0.143044	0.204663	0.206505	0.225669	0.104386	0.136779	0.192739	0.094921	0.429247	0.197024	0.110002	0.213893	0.140691	0.508004	0.116612	0.091613	0.169612	0.273995	0.123173	0.339230	0.072933	0.459903	0.179461	0.334684	0.112797	0.505475	0.181210	0.242833	0.190785	0.446403	0.143640	0.131578	0.119941	0.300004	0.121471	0.166461
32	0.161611	0.252327	0.257577	0.127214	0.169689	0.240626	0.248923	0.249016	0.121602	0.110498	0.281764	0.230102	0.304027	0.263372	0.170358	0.284366	0.135619	0.509487	0.137631	0.193305	0.104636	0.184076	0.148864	0.266281	0.155972	0.221086	0.295545	0.253278	0.136921	0.205947	0.203394	0.206400	0.104013	0.108812	0.160933	0.093844	0.431527	0.222645	0.108571	0.193133	0.138621	0.530381	0.119215	0.079107	0.187742	0.286944	0.165330	0.357229	0.085393	0.502897	0.177760	0.346259	0.111912	0.504152	0.183920	0.246885	0.193121	0.449592	0.142361	0.151141	0.122324	0.290359	0.121912	0.138859
33	0.126504	0.251756	0.281879	0.160164	0.118882	0.236583	0.234080	0.241833	0.098269	0.109056	0.263684	0.237474	0.488423	0.343414	0.148302	0.277612	0.182321	0.791846	0.137358	0.191142	0.129027	0.194093	0.146452	0.250794	0.159076	0.227600	0.302959	0.259888	0.152204	0.210673	0.176009	0.192307	0.105655	0.104933	0.142858	0.112964	0.435611	0.252974	0.113531	0.191119	0.130784	0.545175	0.140075	0.073570	0.189124	0.291690	0.169499	0.370281	0.089339	0.599404	0.178889	0.366684	0.110638	0.501066	0.181566	0.251841	0.195493	0.451830	0.141068	0.172322	0.122401	0.252725	0.120774	0.125904
34	0.116035	0.205435	0.349681	0.205341	0.098450	0.234205	0.200876	0.238740	0.117507	0.122023	0.225974	0.227836	0.511855	0.372817	0.150465	0.282624	0.192192	0.864964	0.138691	0.170351	0.144875	0.214328	0.132963	0.241191	0.158489	0.228897	0.320486	0.255158	0.158635	0.220660	0.165688	0.189678	0.105789	0.104246	0.128396	0.144817	0.438104	0.287861	0.104879	0.193919	0.130361	0.550159	0.151271	0.075019	0.217990	0.293202	0.171162	0.429118	0.100131	0.612853	0.193934	0.375551	0.108515	0.498416	0.188305	0.259604	0.196734	0.473248	0.134139	0.174664	0.122276	0.229876	0.120129	0.136658
35	0.104979	0.160303	0.344055	0.379832	0.101294	0.234063	0.181286	0.237810	0.135281	0.151900	0.173395	0.216400	0.545938	0.399928	0.149232	0.290858	0.191290	0.865594	0.130678	0.148603	0.145660	0.260189	0.113875	0.237062	0.159581	0.231121	0.328613	0.230000	0.144491	0.235726	0.160397	0.191624	0.104743	0.106009	0.118388	0.151187	0.437950	0.305809	0.098749	0.196543	0.131274	0.599456	0.151953	0.090684	0.241265	0.311042	0.157566	0.483171	0.101396	0.611201	0.206506	0.368526	0.108101	0.498539	0.196606	0.269282	0.198433	0.491588	0.155022	0.227913	0.117840	0.232402	0.110846	0.152499
36	0.089833	0.175943	0.336448	0.486447	0.099701	0.236161	0.191407	0.226966	0.147326	0.183337	0.128542	0.207526	0.555589	0.408515	0.149206	0.296437	0.186820	0.864106	0.135305	0.135858	0.141454	0.276805	0.112579	0.236370	0.149780	0.241476	0.309763	0.196428	0.134097	0.253542	0.154168	0.193348	0.105695	0.117653	0.108512	0.143457	0.437828	0.317448	0.104915	0.196654	0.129300	0.626850	0.152841	0.100051	0.242726	0.308273	0.148211	0.501763	0.109888	0.608492	0.205128	0.373689	0.112072	0.491036	0.200930	0.279402	0.199524	0.492392	0.171449	0.333020	0.115340	0.262918	0.103545	0.163200
37	0.084880	0.186810	0.394901	0.504873	0.089484	0.236845	0.198307	0.215916	0.149140	0.202550	0.120523	0.203879	0.581886	0.407875	0.148414	0.298754	0.181185	0.854329	0.160478	0.139800	0.142971	0.278112	0.113645	0.236046	0.138177	0.231270	0.280492	0.164420	0.132748	0.246713	0.153279	0.178286	0.102197	0.131802	0.107676	0.148283	0.437640	0.326543	0.137638	0.202138	0.120731	0.611562	0.154122	0.102955	0.242633	0.294436	0.147944	0.504317	0.117594	0.589810	0.168662	0.382087	0.131401	0.437674	0.203340	0.292891	0.198366	0.480525	0.184165	0.401858	0.123557	0.329092	0.109387	0.170208
38	0.091623	0.192482	0.497073	0.523884	0.089323	0.237130	0.197213	0.252488	0.143981	0.210687	0.122260	0.205326	0.639552	0.409879	0.148013	0.300239	0.177497	0.843220	0.169731	0.141330	0.155617	0.279676	0.113675	0.226636	0.137974	0.205864	0.270529	0.146559	0.132575	0.224503	0.157978	0.150660	0.090741	0.127668	0.107374	0.157704	0.431953	0.347935	0.157160	0.216765	0.118334	0.600981	0.160822	0.106199	0.231044	0.289796	0.150012	0.503246	0.134366	0.591237	0.162801	0.316953	0.142182	0.372688	0.190591	0.298430	0.201332	0.510662	0.174172	0.428479	0.118788	0.336409	0.106062	0.164460
39	0.112233	0.203827	0.505206	0.605923	0.092851	0.228069	0.197194	0.297850	0.140938	0.212968	0.122414	0.210650	0.660838	0.411631	0.150156	0.298619	0.176504	0.843650	0.185464	0.159805	0.155356	0.279568	0.112795	0.187819	0.141723	0.192787	0.274234	0.143192	0.132624	0.212954	0.159965	0.130629	0.071337	0.116274	0.100149	0.162170	0.407965	0.340191	0.160884	0.232532	0.123518	0.603471	0.169973	0.119762	0.229657	0.290575	0.151116	0.480500	0.134995	0.564403	0.133190	0.312249	0.144220	0.356677	0.185804	0.291668	0.200101	0.596027	0.199208	0.428568	0.104467	0.324892	0.142688	0.151932
40	0.151713	0.219212	0.509150	0.658415	0.083505	0.177077	0.195058	0.301648	0.140717	0.209562	0.122264	0.217985	0.664100	0.417768	0.153955	0.293427	0.175829	0.841244	0.192441	0.182482	0.154188	0.276732	0.105173	0.146085	0.124833	0.194346	0.269265	0.143073	0.134240	0.212953	0.159712	0.117015	0.075549	0.109957	0.079612	0.162550	0.374863	0.324904	0.161332	0.240691	0.125011	0.602876	0.176972	0.123486	0.224037	0.275629	0.147106	0.419037	0.136171	0.479665	0.134412	0.334149	0.139352	0.272096	0.186095	0.264950	0.196037	0.615557	0.253725	0.443182	0.108582	0.315561	0.179141	0.146850
41	0.190818	0.230978	0.521288	0.686159	0.074702	0.172877	0.182063	0.301770	0.162276	0.230425	0.128296	0.228909	0.668606	0.412898	0.154430	0.283859	0.174098	0.844407	0.192956	0.176590	0.153285	0.266048	0.099890	0.137030	0.100827	0.194975	0.267281	0.141654	0.135949	0.209811	0.159406	0.109251	0.096684	0.105967	0.067876	0.166031	0.364761	0.313370	0.161505	0.239195	0.126836	0.641020	0.169249	0.126629	0.213724	0.270769	0.130022	0.371991	0.157492	0.443182	0.136327	0.328887	0.138252	0.123410	0.194639	0.230602	0.198589	0.637780	0.289362	0.482275	0.109807	0.305965	0.197444	0.147411
42	0.201196	0.237323	0.536541	0.695720	0.078332	0.274130	0.175113	0.305665	0.179008	0.252503	0.138180	0.230270	0.667825	0.403705	0.153148	0.262084	0.172171	0.847401	0.193625	0.173442	0.153175	0.258306	0.118661	0.149806	0.102180	0.213773	0.265616	0.171111	0.137632	0.203703	0.165179	0.104764	0.145592	0.106422	0.070234	0.166921	0.384549	0.317097	0.164227	0.235092	0.117759	0.646031	0.157547	0.139677	0.220428	0.277274	0.083034	0.369850	0.195188	0.275000	0.136300	0.324145	0.136544	0.104490	0.203158	0.211872	0.185667	0.644059	0.296338	0.515726	0.103889	0.297287	0.240007	0.157679
43	0.202718	0.237328	0.517493	0.689532	0.084655	0.313428	0.167625	0.304386	0.179580	0.252022	0.142043	0.289301	0.662920	0.405393	0.153561	0.223603	0.171461	0.776464	0.196909	0.173076	0.153775	0.255833	0.120881	0.156734	0.103191	0.272135	0.266498	0.193130	0.138715	0.204672	0.157006	0.219763	0.221110	0.107055	0.071891	0.165054	0.324866	0.324846	0.166877	0.231859	0.123294	0.626700	0.155799	0.150571	0.217323	0.277127	0.090322	0.342095	0.206585	0.251850	0.181083	0.306514	0.143137	0.111939	0.206674	0.210135	0.151396	0.591926	0.296804	0.537662	0.102552	0.288618	0.243294	0.174374
44	0.194304	0.242868	0.482567	0.663055	0.132094	0.328322	0.198375	0.295860	0.185246	0.275908	0.142476	0.376704	0.662925	0.414848	0.154122	0.187912	0.167738	0.730091	0.223261	0.171255	0.154158	0.247710	0.117107	0.145213	0.097786	0.279793	0.263996	0.195289	0.138633	0.205458	0.146038	0.278281	0.251476	0.110980	0.068855	0.164276	0.222746	0.348124	0.160108	0.234466	0.123818	0.603438	0.157090	0.176625	0.180986	0.264965	0.092457	0.252864	0.213087	0.200007	0.225582	0.306620	0.149155	0.123447	0.207229	0.225209	0.126094	0.526714	0.300976	0.543868	0.104551	0.288737	0.261767	0.178697
45	0.192530	0.235643	0.480674	0.575387	0.181090	0.404688	0.210260	0.300761	0.188352	0.296952	0.145785	0.403182	0.647796	0.416181	0.155246	0.185824	0.141888	0.612776	0.257288	0.169630	0.156459	0.238314	0.113351	0.135446	0.092735	0.308504	0.249647	0.190839	0.137418	0.208789	0.132775	0.287264	0.250751	0.116686	0.064985	0.164446	0.203755	0.347316	0.159804	0.242570	0.122904	0.588002	0.178823	0.198279	0.180129	0.218335	0.099018	0.179588	0.208989	0.181355	0.227260	0.310410	0.149490	0.133297	0.198101	0.260410	0.124305	0.522718	0.309927	0.540031	0.104261	0.288351	0.291514	0.188432
46	0.197687	0.209303	0.469870	0.499936	0.216439	0.427666	0.194997	0.331773	0.185811	0.310499	0.144298	0.399690	0.621010	0.410093	0.194660	0.197438	0.103279	0.190888	0.286163	0.176612	0.165951	0.239184	0.133826	0.129643	0.097327	0.329449	0.222131	0.181770	0.134626	0.216508	0.118274	0.307935	0.252195	0.128102	0.078692	0.175009	0.196685	0.332326	0.157355	0.245217	0.124924	0.593451	0.227287	0.212704	0.183266	0.214636	0.099888	0.192853	0.202269	0.177391	0.227278	0.311057	0.153461	0.143214	0.174005	0.282927	0.117692	0.523757	0.313782	0.533878	0.106191	0.286211	0.308769	0.194586
47	0.200872	0.200833	0.389071	0.491014	0.241908	0.485864	0.201088	0.356064	0.178656	0.311770	0.150365	0.397892	0.492919	0.372111	0.239702	0.329368	0.110643	0.210936	0.323944	0.217972	0.179564	0.241151	0.185549	0.130559	0.133472	0.344859	0.193654	0.176289	0.112845	0.215552	0.115397	0.317586	0.258149	0.135454	0.092331	0.229889	0.188532	0.325894	0.151221	0.239867	0.131927	0.614580	0.292156	0.218177	0.178349	0.216532	0.105922	0.210018	0.191443	0.169832	0.227239	0.328368	0.160872	0.171247	0.162862	0.283726	0.111405	0.513637	0.314427	0.529238	0.112583	0.294481	0.321557	0.182981
48	0.210329	0.199339	0.260630	0.477531	0.246169	0.508713	0.235703	0.358386	0.169715	0.304392	0.168571	0.417306	0.466214	0.347782	0.247450	0.431312	0.112088	0.213499	0.325670	0.289335	0.166311	0.242456	0.214063	0.145908	0.144164	0.357382	0.176241	0.170707	0.096695	0.215982	0.100709	0.317618	0.259052	0.143186	0.093233	0.324698	0.186872	0.303279	0.152699	0.244748	0.148674	0.763782	0.310646	0.223535	0.176896	0.216664	0.108950	0.213572	0.189945	0.165990	0.234046	0.315935	0.165584	0.190274	0.182160	0.277692	0.105509	0.495668	0.308734	0.524180	0.136210	0.295909	0.328230	0.194358
49	0.227556	0.192105	0.253185	0.394685	0.246516	0.516517	0.267057	0.347847	0.154719	0.288518	0.167221	0.454316	0.419513	0.318100	0.247717	0.477938	0.112025	0.223705	0.322493	0.306918	0.174264	0.223323	0.216329	0.171207	0.144316	0.351235	0.182539	0.165298	0.089276	0.197574	0.107060	0.316256	0.258937	0.175118	0.093361	0.438974	0.189957	0.292594	0.155807	0.294526	0.166324	0.814130	0.310480	0.245871	0.176325	0.206723	0.108225	0.213087	0.198417	0.162639	0.233470	0.288546	0.165114	0.190953	0.197306	0.270718	0.103853	0.496535	0.294708	0.480823	0.174833	0.259485	0.325749	0.208618
50	0.237632	0.301009	0.241994	0.347267	0.248445	0.517029	0.277611	0.339085	0.164569	0.292499	0.191494	0.462947	0.408292	0.312616	0.268262	0.487000	0.108444	0.249009	0.324534	0.307876	0.177219	0.174296	0.227655	0.185465	0.147400	0.342472	0.180012	0.173406	0.090133	0.168959	0.114993	0.315206	0.258677	0.178769	0.094560	0.555081	0.200858	0.284013	0.136555	0.351954	0.174572	0.774564	0.312415	0.283846	0.172111	0.190048	0.109953	0.212982	0.194233	0.156843	0.232743	0.279708	0.165093	0.190235	0.196033	0.261476	0.103884	0.491308	0.286098	0.415680	0.172214	0.220012	0.321664	0.216141
51	0.222340	0.324272	0.203189	0.300326	0.257877	0.521489	0.277022	0.291244	0.211414	0.513730	0.235349	0.465497	0.381913	0.318001	0.321716	0.485737	0.144086	0.255143	0.326940	0.323714	0.177146	0.159972	0.233660	0.190065	0.159252	0.339245	0.166416	0.209157	0.093794	0.163891	0.118076	0.314667	0.258795	0.188536	0.095993	0.589082	0.213975	0.255143	0.106980	0.376805	0.187122	0.763643	0.313925	0.334961	0.154352	0.158909	0.112890	0.209382	0.157253	0.143765	0.235390	0.281294	0.166887	0.191720	0.192282	0.251244	0.110640	0.485142	0.282910	0.362637	0.168586	0.277449	0.318387	0.220636
52	0.216367	0.332174	0.129368	0.287067	0.279741	0.539138	0.277298	0.262849	0.226548	0.652964	0.245543	0.469010	0.316595	0.315045	0.381935	0.526564	0.214776	0.312274	0.354665	0.355114	0.170075	0.154984	0.235038	0.189907	0.198790	0.337972	0.150761	0.220208	0.098838	0.164646	0.120501	0.314290	0.258820	0.203089	0.094771	0.588915	0.220241	0.238131	0.089128	0.363246	0.194543	0.758857	0.311479	0.374938	0.230665	0.207407	0.115668	0.203423	0.129023	0.114415	0.218393	0.278444	0.161780	0.182325	0.189537	0.237307	0.104680	0.391718	0.270265	0.351056	0.167537	0.299194	0.298674	0.222714
53	0.223781	0.331506	0.084890	0.301626	0.299706	0.551634	0.281166	0.275343	0.229772	0.668948	0.248068	0.466273	0.280527	0.308619	0.426007	0.597615	0.225932	0.314008	0.368889	0.404454	0.158312	0.148444	0.238637	0.220307	0.239394	0.348534	0.150211	0.223430	0.124897	0.161555	0.121496	0.312951	0.259579	0.203825	0.094561	0.607610	0.220120	0.238698	0.090299	0.358332	0.192656	0.756510	0.306092	0.400895	0.344060	0.276654	0.109269	0.182875	0.122063	0.069392	0.144947	0.278346	0.154111	0.178460	0.189791	0.223800	0.111998	0.337874	0.228388	0.346121	0.167906	0.300502	0.283495	0.223137
54	0.242340	0.327026	0.101925	0.326353	0.306062	0.541578	0.281622	0.285397	0.253482	0.779589	0.247697	0.471405	0.285421	0.289214	0.428775	0.639336	0.228312	0.296949	0.369950	0.436572	0.158535	0.140966	0.241912	0.282738	0.240146	0.367257	0.147166	0.224179	0.149303	0.159586	0.150021	0.313081	0.259223	0.244656	0.092558	0.637269	0.216342	0.234311	0.100007	0.357157	0.187370	0.737639	0.302450	0.414338	0.358492	0.286974	0.104077	0.177358	0.128120	0.039644	0.116407	0.278106	0.148019	0.178049	0.186035	0.222931	0.113595	0.373385	0.164184	0.301686	0.186641	0.328485	0.265598	0.222013
55	0.264080	0.326710	0.102837	0.350221	0.322742	0.517725	0.289009	0.285720	0.267519	0.800334	0.243874	0.494498	0.298971	0.283114	0.435076	0.656742	0.235087	0.295093	0.369350	0.449695	0.159358	0.133912	0.242850	0.315480	0.242062	0.369240	0.145347	0.210522	0.147440	0.168873	0.153431	0.318595	0.257980	0.293780	0.128676	0.665079	0.167408	0.233102	0.112588	0.353825	0.185978	0.714033	0.302053	0.413888	0.489135	0.326872	0.100594	0.148141	0.127201	0.036886	0.116389	0.255924	0.146002	0.179808	0.206394	0.225874	0.110267	0.332846	0.125430	0.227963	0.227151	0.363558	0.232694	0.209144
56	0.274296	0.327424	0.101742	0.352199	0.339179	0.542353	0.293780	0.287930	0.266967	0.804359	0.241384	0.519055	0.291252	0.280541	0.451869	0.659958	0.237964	0.304014	0.355328	0.450922	0.159424	0.137031	0.253925	0.327446	0.247588	0.368812	0.145800	0.203187	0.149926	0.175817	0.146508	0.326221	0.253910	0.294280	0.193026	0.689609	0.143534	0.224533	0.101341	0.363458	0.181407	0.717713	0.300090	0.410877	0.513356	0.324455	0.093875	0.140217	0.127767	0.038846	0.116531	0.197830	0.145392	0.180119	0.221635	0.226352	0.101880	0.376626	0.123531	0.156510	0.258627	0.385022	0.229701	0.196714
57	0.290836	0.330755	0.122903	0.361281	0.326399	0.513198	0.265871	0.309317	0.266362	0.805298	0.248883	0.484109	0.368489	0.280654	0.470397	0.660119	0.233816	0.296575	0.331892	0.451487	0.159545	0.159139	0.268919	0.321100	0.251157	0.392042	0.145379	0.198520	0.157884	0.175132	0.146445	0.248860	0.237830	0.299181	0.219337	0.714149	0.143648	0.220035	0.103718	0.390021	0.173546	0.704554	0.300478	0.403415	0.516541	0.331359	0.076733	0.166441	0.129305	0.040270	0.109724	0.167869	0.146157	0.178749	0.214508	0.226873	0.103535	0.400946	0.117588	0.107748	0.270627	0.388415	0.199374	0.191784
58	0.290906	0.330961	0.152078	0.354639	0.307102	0.478216	0.259080	0.348178	0.260885	0.799876	0.267565	0.431812	0.442486	0.267423	0.480551	0.658853	0.234167	0.295203	0.308188	0.452440	0.158754	0.161304	0.277728	0.329084	0.255826	0.389508	0.145242	0.198181	0.163313	0.174529	0.146546	0.207768	0.237019	0.304912	0.221360	0.729661	0.157252	0.258498	0.119067	0.408403	0.180179	0.703063	0.294468	0.391770	0.517814	0.335101	0.075604	0.167939	0.129437	0.082606	0.090932	0.176514	0.140160	0.176102	0.207916	0.241087	0.103930	0.398109	0.096737	0.170387	0.270757	0.390411	0.155583	0.182121
59	0.356479	0.323102	0.155667	0.315121	0.283240	0.491752	0.268222	0.358547	0.260249	0.799961	0.277266	0.423318	0.502756	0.272670	0.482159	0.655185	0.231173	0.284562	0.277669	0.446234	0.161564	0.165949	0.277723	0.368957	0.263445	0.384478	0.144359	0.197590	0.163475	0.171958	0.148328	0.191925	0.253741	0.304128	0.221383	0.736314	0.163165	0.325471	0.151473	0.406105	0.199197	0.730168	0.272660	0.382681	0.517709	0.339795	0.077522	0.176584	0.112253	0.095191	0.099740	0.187244	0.135266	0.169866	0.205642	0.255117	0.110210	0.393153	0.079193	0.231957	0.284837	0.388790	0.124003	0.179698
60	0.353468	0.205105	0.184957	0.281255	0.271288	0.439459	0.262516	0.365984	0.258372	0.800689	0.277058	0.450115	0.510260	0.229899	0.459942	0.649031	0.229630	0.300527	0.260329	0.412449	0.159153	0.164282	0.293626	0.391308	0.246619	0.381988	0.141897	0.196981	0.165654	0.163107	0.149285	0.164915	0.257954	0.309157	0.217025	0.740471	0.165849	0.326192	0.189107	0.407473	0.209402	0.795466	0.195410	0.376917	0.527442	0.351718	0.078082	0.191568	0.107287	0.098846	0.106747	0.175994	0.156700	0.162284	0.207512	0.241588	0.126512	0.410560	0.096940	0.245646	0.288538	0.381060	0.092903	0.184670
61	0.360054	0.157793	0.201516	0.273966	0.271627	0.422285	0.226089	0.374185	0.255531	0.800505	0.282534	0.478387	0.503071	0.196207	0.433852	0.587927	0.234074	0.383984	0.254962	0.382439	0.149217	0.163252	0.309132	0.395073	0.248481	0.398026	0.135751	0.208857	0.169951	0.159139	0.152846	0.171024	0.253307	0.313327	0.208470	0.735962	0.178895	0.340470	0.207010	0.418614	0.211024	0.736079	0.102293	0.378239	0.513937	0.338558	0.073962	0.193714	0.106482	0.129346	0.088165	0.166866	0.220087	0.159313	0.217688	0.218361	0.133694	0.429361	0.097548	0.246702	0.277131	0.380438	0.073974	0.170740
62	0.388969	0.184325	0.205836	0.274279	0.277535	0.418462	0.186877	0.377669	0.255548	0.806931	0.305194	0.464494	0.504961	0.191238	0.428510	0.518103	0.244017	0.431511	0.235543	0.380834	0.147151	0.160946	0.305935	0.394397	0.264512	0.489813	0.115138	0.221785	0.195607	0.142248	0.164841	0.190036	0.324027	0.346246	0.207502	0.706802	0.195562	0.421160	0.207290	0.414633	0.195647	0.543058	0.094875	0.372774	0.462778	0.291840	0.064531	0.195818	0.098374	0.136484	0.083358	0.168961	0.280605	0.148618	0.225321	0.208604	0.131819	0.426715	0.099096	0.250673	0.262551	0.376037	0.081421	0.148680
63	0.411515	0.349108	0.203826	0.260480	0.275842	0.417925	0.182140	0.377346	0.261524	0.878053	0.327377	0.439832	0.504456	0.184339	0.429743	0.478519	0.244349	0.607086	0.222671	0.371501	0.150013	0.170237	0.301059	0.400604	0.264346	0.501634	0.110334	0.219514	0.229652	0.135760	0.156131	0.192054	0.409919	0.353980	0.208907	0.648769	0.199507	0.472907	0.232867	0.381455	0.193637	0.494871	0.093757	0.362201	0.403989	0.242200	0.063648	0.200811	0.083910	0.137149	0.083615	0.161810	0.313076	0.119353	0.217544	0.208000	0.131209	0.422949	0.167598	0.250734	0.268618	0.351331	0.089319	0.131638
64	0.407897	0.422810	0.200223	0.229230	0.262685	0.404623	0.182960	0.378589	0.259175	0.970041	0.306731	0.442298	0.510831	0.179996	0.414360	0.472565	0.226859	0.595638	0.183857	0.338195	0.129663	0.168041	0.299978	0.399589	0.263800	0.658212	0.096249	0.190119	0.235730	0.134720	0.155183	0.190683	0.419669	0.355217	0.209065	0.551376	0.187072	0.474695	0.252662	0.335427	0.207993	0.494855	0.100091	0.345094	0.380908	0.243209	0.058212	0.209936	0.081854	0.138937	0.084545	0.172066	0.381114	0.114960	0.192270	0.208337	0.127674	0.422263	0.301935	0.287789	0.273264	0.316064	0.092533	0.125394
65	0.400131	0.460800	0.200458	0.197524	0.234273	0.376110	0.185450	0.388403	0.262234	0.938848	0.287983	0.443257	0.490609	0.167283	0.371861	0.467827	0.248048	0.602165	0.130053	0.269353	0.151601	0.172651	0.293016	0.395490	0.253205	0.674153	0.072598	0.175788	0.273830	0.132633	0.158106	0.189444	0.419681	0.367569	0.208231	0.490390	0.175859	0.475717	0.256923	0.321334	0.214955	0.516520	0.128041	0.309030	0.156325	0.195453	0.051803	0.214493	0.076710	0.148078	0.087306	0.216345	0.414820	0.117397	0.184624	0.208567	0.120028	0.422181	0.337453	0.318932	0.276536	0.324322	0.090842	0.122458
66	0.404022	0.484915	0.200369	0.204061	0.212628	0.364026	0.198686	0.405742	0.269927	0.919263	0.285616	0.447709	0.477331	0.166536	0.308149	0.408691	0.253754	0.605753	0.120149	0.200844	0.167478	0.175598	0.294899	0.394218	0.230155	0.684156	0.068395	0.172358	0.355435	0.136500	0.161085	0.188050	0.421357	0.402309	0.209002	0.484582	0.173680	0.476386	0.257101	0.312309	0.226907	0.520741	0.146318	0.272585	0.128578	0.222069	0.056818	0.180693	0.072691	0.152122	0.094602	0.240399	0.421500	0.110905	0.185548	0.208375	0.118051	0.406771	0.339229	0.330379	0.273350	0.321170	0.100467	0.130462
67	0.420427	0.652955	0.187645	0.183942	0.202514	0.352348	0.208161	0.422259	0.276675	0.868126	0.294356	0.444415	0.482567	0.175323	0.249827	0.295766	0.249765	0.616437	0.113349	0.152805	0.171131	0.176221	0.302147	0.397481	0.233422	0.692108	0.066219	0.173844	0.437426	0.148012	0.167850	0.187644	0.424334	0.415733	0.208897	0.469431	0.175391	0.476310	0.263881	0.300577	0.237374	0.538000	0.145833	0.243030	0.115094	0.219316	0.060668	0.171925	0.074290	0.229820	0.097332	0.249670	0.432033	0.116848	0.183766	0.207528	0.107147	0.347215	0.341076	0.330961	0.258029	0.288834	0.120821	0.147003
68	0.418026	0.706745	0.169273	0.157889	0.169021	0.297048	0.195051	0.428519	0.254661	0.817088	0.336634	0.437770	0.502103	0.195713	0.245918	0.202511	0.247741	0.623401	0.112293	0.159222	0.175451	0.178717	0.317636	0.380376	0.230703	0.705167	0.068454	0.172827	0.467931	0.146166	0.145324	0.190690	0.424475	0.411235	0.209321	0.432183	0.172980	0.476277	0.277720	0.298304	0.264336	0.546426	0.143006	0.225957	0.111542	0.235105	0.060221	0.193701	0.074627	0.232787	0.095371	0.244988	0.510129	0.128809	0.181964	0.209085	0.104484	0.329777	0.348127	0.337642	0.225268	0.283572	0.122246	0.150746
69	0.337980	0.724354	0.171572	0.152815	0.131930	0.253788	0.192092	0.424796	0.240810	0.820736	0.357638	0.461164	0.534451	0.208264	0.231291	0.147280	0.246398	0.622220	0.110045	0.170839	0.225544	0.188656	0.323498	0.350023	0.224373	0.693295	0.061916	0.165657	0.485070	0.155221	0.152615	0.188099	0.425315	0.368294	0.205680	0.387371	0.173918	0.478310	0.283980	0.296647	0.278335	0.570874	0.158753	0.221052	0.098489	0.238024	0.055359	0.193897	0.073818	0.270253	0.076582	0.278955	0.587595	0.143266	0.183115	0.209154	0.118948	0.297734	0.374590	0.370709	0.192074	0.291541	0.150344	0.150865
70	0.328869	0.729566	0.158341	0.152569	0.116455	0.253854	0.203947	0.392393	0.255087	0.870847	0.358068	0.521559	0.543849	0.207033	0.194292	0.140774	0.245123	0.623907	0.132222	0.179138	0.246079	0.196652	0.326148	0.330936	0.221301	0.671270	0.070681	0.177001	0.588831	0.202313	0.155565	0.190512	0.419137	0.370875	0.179333	0.338507	0.173787	0.474093	0.282467	0.271027	0.288488	0.635252	0.172815	0.221688	0.069078	0.315867	0.066471	0.215066	0.073401	0.267587	0.072170	0.336114	0.658677	0.163596	0.182866	0.205956	0.120236	0.246764	0.406184	0.424116	0.183413	0.285504	0.233914	0.150426
71	0.307612	0.729400	0.147442	0.144635	0.112648	0.212146	0.200750	0.335148	0.296830	0.991292	0.360964	0.548546	0.495733	0.200702	0.144624	0.154231	0.295192	0.631742	0.204468	0.197310	0.252067	0.189500	0.310914	0.325746	0.227186	0.668311	0.102008	0.178222	0.612801	0.215767	0.163372	0.197524	0.409428	0.372510	0.164769	0.283282	0.167394	0.458141	0.278253	0.231669	0.285454	0.672408	0.173533	0.224165	0.071025	0.365460	0.068262	0.220366	0.085916	0.311388	0.075411	0.356149	0.760670	0.200512	0.210848	0.211911	0.130683	0.235488	0.410674	0.455334	0.187852	0.306639	0.267784	0.145810
72	0.282316	0.706806	0.175664	0.134380	0.116736	0.117976	0.189246	0.296547	0.337402	1.095364	0.372862	0.548354	0.434062	0.198475	0.114553	0.164989	0.338494	0.633225	0.233481	0.191873	0.254824	0.174598	0.293806	0.329285	0.239662	0.658436	0.112904	0.180626	0.613802	0.229980	0.176799	0.196582	0.382227	0.366542	0.168260	0.227522	0.176069	0.417525	0.268826	0.211419	0.278986	0.652896	0.173084	0.226310	0.072429	0.405560	0.071279	0.221311	0.124991	0.375774	0.076013	0.355409	0.770924	0.209735	0.249528	0.223917	0.143696	0.271911	0.409993	0.447692	0.156329	0.310995	0.267634	0.140020
73	0.238172	0.643872	0.177493	0.145743	0.136014	0.159902	0.191559	0.268824	0.353364	1.176236	0.389258	0.542689	0.437012	0.195979	0.108321	0.178662	0.344167	0.588465	0.236329	0.188471	0.254603	0.172783	0.289448	0.308940	0.241451	0.651479	0.111510	0.182507	0.621590	0.232995	0.178165	0.196274	0.363500	0.370211	0.169639	0.200366	0.189738	0.396311	0.254914	0.210013	0.266859	0.567135	0.170268	0.226391	0.086831	0.410118	0.106446	0.218694	0.130062	0.382166	0.089910	0.351492	0.770942	0.209418	0.263034	0.217531	0.142656	0.367487	0.406201	0.438494	0.150463	0.316727	0.267250	0.119803
74	0.229338	0.605079	0.178096	0.164377	0.153685	0.251279	0.208720	0.255870	0.357650	1.228725	0.390293	0.549965	0.445681	0.192978	0.129882	0.194813	0.338849	0.570495	0.258776	0.197863	0.257267	0.168755	0.288056	0.257361	0.232395	0.639234	0.115450	0.172255	0.622144	0.236851	0.188135	0.190055	0.358921	0.368341	0.172550	0.191952	0.195597	0.396868	0.237789	0.191572	0.258785	0.489890	0.169372	0.224752	0.088945	0.410429	0.114571	0.212615	0.135649	0.443161	0.115376	0.338446	0.771771	0.208286	0.263754	0.194579	0.131775	0.401202	0.402891	0.439261	0.145836	0.321151	0.273233	0.103755
75	0.217948	0.585808	0.178628	0.170476	0.162974	0.276850	0.215634	0.253230	0.359369	1.232998	0.369671	0.581357	0.460293	0.196091	0.124448	0.216266	0.332261	0.377639	0.271104	0.221677	0.259177	0.171238	0.264210	0.232896	0.212847	0.560486	0.120956	0.151736	0.622962	0.249602	0.222681	0.173184	0.354901	0.362800	0.174932	0.194285	0.186780	0.353511	0.239300	0.161116	0.255198	0.479527	0.171269	0.216718	0.141757	0.411484	0.121221	0.202238	0.136525	0.462360	0.111527	0.320815	0.773850	0.207573	0.268732	0.168235	0.132153	0.409854	0.402217	0.436354	0.130320	0.310362	0.295805	0.114704
76	0.203774	0.552259	0.179365	0.155495	0.176318	0.280670	0.212254	0.260288	0.366846	1.229974	0.340527	0.625691	0.477552	0.207623	0.115147	0.221345	0.337617	0.296507	0.269204	0.234127	0.264499	0.165554	0.229224	0.229828	0.210349	0.552955	0.124034	0.144970	0.614356	0.254123	0.250015	0.162549	0.325737	0.334053	0.176989	0.221214	0.178289	0.257726	0.231610	0.125056	0.260324	0.481102	0.176229	0.200045	0.143672	0.403578	0.144019	0.195700	0.146776	0.463236	0.121371	0.312767	0.765701	0.204847	0.273372	0.153104	0.136657	0.460471	0.395318	0.434779	0.125487	0.307577	0.318396	0.147206
77	0.132314	0.313343	0.185580	0.143249	0.176602	0.284586	0.212547	0.264574	0.357765	1.148117	0.325250	0.653571	0.479429	0.209754	0.117592	0.211036	0.299247	0.286767	0.264758	0.241816	0.275384	0.158122	0.202801	0.224646	0.202480	0.363836	0.124962	0.138739	0.604368	0.253039	0.266857	0.163723	0.186834	0.308093	0.175579	0.251067	0.187300	0.243942	0.209671	0.108498	0.254538	0.494766	0.178080	0.163132	0.143442	0.400805	0.159539	0.180042	0.210212	0.479317	0.133472	0.310028	0.745586	0.195244	0.281017	0.148365	0.137739	0.476775	0.331798	0.423665	0.115010	0.289988	0.328328	0.179743
78	0.134537	0.218200	0.206890	0.171773	0.177435	0.289312	0.208699	0.242598	0.334193	1.054051	0.331884	0.656622	0.473986	0.206175	0.117135	0.209427	0.283722	0.269863	0.264504	0.239741	0.295789	0.133595	0.196765	0.195949	0.185897	0.319585	0.133516	0.138732	0.600785	0.254276	0.269419	0.163887	0.130661	0.292688	0.176307	0.260685	0.202981	0.286158	0.201141	0.111647	0.233877	0.507751	0.169867	0.129820	0.142918	0.383813	0.159434	0.163678	0.217414	0.466898	0.140694	0.289829	0.730906	0.191952	0.296656	0.148624	0.139037	0.477376	0.249232	0.396273	0.127716	0.290814	0.329971	0.201539
79	0.141432	0.143789	0.216654	0.229109	0.195032	0.286918	0.190771	0.194916	0.323023	1.065965	0.339900	0.651939	0.472488	0.204510	0.117461	0.232913	0.288737	0.267708	0.264751	0.271234	0.311949	0.128764	0.195067	0.183423	0.155348	0.304165	0.163365	0.168172	0.584168	0.257005	0.265579	0.167030	0.137893	0.281817	0.184138	0.263606	0.211513	0.331709	0.201786	0.117508	0.223395	0.521216	0.153045	0.112896	0.140272	0.364818	0.156548	0.138620	0.217334	0.463920	0.140360	0.221954	0.705894	0.194005	0.309582	0.149428	0.149957	0.474321	0.236299	0.380230	0.148937	0.290664	0.322287	0.204744
80	0.146546	0.124743	0.215976	0.263706	0.229276	0.318625	0.204869	0.152531	0.311498	1.078224	0.340220	0.649957	0.465875	0.203483	0.117914	0.251797	0.290516	0.250502	0.266366	0.331123	0.297678	0.122263	0.196742	0.185579	0.150594	0.282952	0.168791	0.199523	0.531088	0.252912	0.268607	0.171960	0.141309	0.210239	0.188674	0.263488	0.210928	0.355949	0.198392	0.121391	0.232668	0.558040	0.147862	0.113266	0.130906	0.264236	0.153499	0.113872	0.214214	0.444134	0.149100	0.170241	0.679386	0.193652	0.317817	0.148936	0.154235	0.479715	0.235722	0.379679	0.160571	0.371259	0.316990	0.195478
81	0.141656	0.124788	0.207123	0.268730	0.265742	0.494403	0.279109	0.143356	0.292608	1.071526	0.315396	0.648460	0.470270	0.186926	0.140700	0.254190	0.286973	0.237287	0.288182	0.344739	0.293817	0.119434	0.199026	0.196318	0.154888	0.230016	0.166951	0.220420	0.464085	0.247046	0.275030	0.177803	0.130964	0.155405	0.192143	0.261499	0.209342	0.361355	0.178600	0.121073	0.231065	0.572693	0.163691	0.117590	0.134281	0.211656	0.176461	0.105509	0.195012	0.382761	0.152854	0.165320	0.679293	0.205369	0.326643	0.148996	0.168380	0.558259	0.230676	0.381483	0.164712	0.431881	0.316931	0.193452
82	0.136944	0.119985	0.187369	0.264477	0.271227	0.554291	0.328441	0.147042	0.288957	1.051810	0.272968	0.623624	0.486011	0.167394	0.177677	0.253280	0.286538	0.236264	0.320890	0.340082	0.325605	0.130839	0.186202	0.202072	0.157822	0.210909	0.169560	0.215516	0.434611	0.246711	0.284582	0.173678	0.130594	0.149351	0.194016	0.266073	0.209681	0.368939	0.150876	0.117874	0.215109	0.576572	0.174689	0.120201	0.137939	0.180708	0.196847	0.099249	0.188133	0.369749	0.150116	0.160331	0.679255	0.208042	0.332034	0.149882	0.170575	0.622953	0.206423	0.369679	0.167401	0.424669	0.297461	0.193616
83	0.137981	0.118711	0.186916	0.251497	0.277109	0.569000	0.330463	0.161723	0.286111	1.043142	0.269053	0.556246	0.449223	0.154590	0.220342	0.258428	0.259678	0.219657	0.298996	0.339957	0.329576	0.137419	0.161772	0.215904	0.155935	0.210433	0.183876	0.202779	0.412629	0.223425	0.285744	0.169725	0.137498	0.133597	0.190919	0.270487	0.205925	0.385014	0.146155	0.112339	0.196871	0.524082	0.157265	0.120370	0.134377	0.215249	0.194804	0.095754	0.185090	0.322454	0.133309	0.141209	0.632959	0.201123	0.332655	0.149228	0.188400	0.651475	0.131810	0.322470	0.168046	0.465659	0.231390	0.194340
84	0.141911	0.122387	0.187094	0.245003	0.284130	0.639103	0.339614	0.176705	0.257045	0.941234	0.285765	0.492006	0.440194	0.156600	0.239633	0.266607	0.194997	0.207120	0.258907	0.364363	0.303551	0.125635	0.148899	0.240948	0.143389	0.198800	0.201658	0.203368	0.250975	0.175507	0.288869	0.163063	0.144901	0.136127	0.188961	0.271307	0.212944	0.391460	0.147963	0.102786	0.190798	0.504162	0.152811	0.117738	0.123255	0.199603	0.197424	0.117694	0.186083	0.287370	0.140444	0.124675	0.563616	0.194134	0.332242	0.148109	0.223955	0.764995	0.057621	0.243520	0.170304	0.467604	0.211952	0.196018
85	0.139904	0.126046	0.207048	0.246406	0.273376	0.658305	0.391428	0.188193	0.200807	0.815019	0.281096	0.494484	0.436003	0.185821	0.242377	0.268505	0.213055	0.216497	0.252778	0.404092	0.295763	0.118025	0.141594	0.252595	0.100222	0.197817	0.215219	0.203511	0.239698	0.159313	0.283234	0.150553	0.144002	0.121411	0.222939	0.272242	0.222489	0.391729	0.148337	0.098258	0.182512	0.537189	0.152854	0.111764	0.103486	0.184659	0.186595	0.146480	0.211476	0.265934	0.140262	0.137597	0.480958	0.177843	0.331734	0.149380	0.217087	0.786281	0.062277	0.179950	0.170847	0.545717	0.213471	0.199457
86	0.116653	0.124869	0.253264	0.254258	0.267122	0.699112	0.424425	0.198114	0.157199	0.703385	0.257219	0.512150	0.431989	0.254558	0.271253	0.264967	0.266649	0.226633	0.262723	0.427364	0.334609	0.131574	0.144157	0.250197	0.096648	0.207274	0.216087	0.201822	0.247011	0.153294	0.274557	0.148905	0.145602	0.120569	0.270667	0.282488	0.222742	0.397003	0.139116	0.111191	0.181125	0.576480	0.152775	0.110612	0.121622	0.181313	0.174768	0.166101	0.264837	0.260243	0.128070	0.121810	0.300476	0.141232	0.308078	0.141684	0.212466	0.754787	0.085894	0.139019	0.197558	0.568806	0.218068	0.207963
87	0.102447	0.122853	0.276440	0.267767	0.248527	0.720081	0.427250	0.202182	0.148185	0.571284	0.240141	0.506279	0.363698	0.252111	0.314388	0.254644	0.295551	0.228543	0.272811	0.427061	0.376038	0.140166	0.166214	0.246968	0.096488	0.237317	0.214498	0.199737	0.224652	0.155022	0.272146	0.148797	0.145018	0.112525	0.301586	0.308263	0.209859	0.397890	0.127350	0.117100	0.180989	0.588494	0.152754	0.110422	0.123388	0.178527	0.177845	0.173364	0.280895	0.253268	0.127810	0.121239	0.225017	0.118691	0.283751	0.120915	0.211071	0.714174	0.098265	0.125607	0.244461	0.666551	0.208990	0.216919
88	0.106848	0.122761	0.270785	0.260786	0.238436	0.714402	0.430032	0.200898	0.158051	0.563912	0.244201	0.460933	0.352771	0.251486	0.334864	0.237932	0.300927	0.221340	0.288169	0.419142	0.381548	0.140363	0.184634	0.256663	0.101952	0.240088	0.214283	0.198751	0.223774	0.159058	0.261020	0.148442	0.144615	0.089261	0.311739	0.338403	0.207964	0.391158	0.130434	0.118954	0.210184	0.592422	0.152080	0.115213	0.123365	0.176487	0.181799	0.173121	0.287461	0.253524	0.136335	0.110808	0.224913	0.117851	0.280425	0.102329	0.210941	0.706403	0.100176	0.123116	0.248422	0.700411	0.172556	0.214749
89	0.092376	0.127314	0.256961	0.216831	0.231847	0.712959	0.436891	0.194131	0.144320	0.538991	0.260285	0.389994	0.335848	0.246963	0.348708	0.230881	0.294527	0.208561	0.295811	0.413770	0.377911	0.141397	0.193197	0.272269	0.104158	0.238137	0.215215	0.198997	0.221083	0.163568	0.226614	0.148856	0.144150	0.089270	0.310668	0.353977	0.202449	0.371218	0.135135	0.129054	0.232191	0.621243	0.147716	0.130084	0.123374	0.174540	0.185094	0.161677	0.388388	0.280411	0.131224	0.109572	0.223210	0.117209	0.284162	0.083126	0.206029	0.677687	0.099829	0.137337	0.246242	0.702585	0.129667	0.205181
90	0.083033	0.136155	0.253855	0.181916	0.231873	0.711965	0.438862	0.185122	0.131344	0.513188	0.283809	0.321354	0.319958	0.235731	0.348848	0.247697	0.311856	0.208325	0.297772	0.410698	0.376622	0.141594	0.194055	0.284813	0.102479	0.280053	0.216425	0.204454	0.220637	0.160794	0.192576	0.144363	0.144137	0.088158	0.314439	0.345594	0.194371	0.368422	0.124370	0.132720	0.237406	0.629901	0.142582	0.130951	0.124363	0.172375	0.180808	0.161175	0.404694	0.295585	0.120720	0.114413	0.208011	0.117182	0.280187	0.076380	0.205871	0.658445	0.102828	0.171594	0.245151	0.731607	0.110816	0.193014
91	0.078442	0.142920	0.260252	0.180325	0.229792	0.712184	0.438353	0.177455	0.163490	0.513773	0.292081	0.291183	0.322746	0.234582	0.347421	0.266009	0.344396	0.216246	0.298899	0.406144	0.368592	0.146077	0.189434	0.291522	0.102535	0.343146	0.214504	0.226812	0.236868	0.178641	0.177536	0.144141	0.139399	0.090447	0.319747	0.321259	0.178009	0.347147	0.116731	0.138835	0.332274	0.636532	0.147639	0.136685	0.120290	0.161727	0.148394	0.169936	0.406592	0.296867	0.119820	0.121346	0.180596	0.115682	0.269652	0.075395	0.207978	0.654720	0.105450	0.207998	0.234580	0.746474	0.117144	0.173776
92	0.080419	0.145341	0.278050	0.184429	0.209694	0.711235	0.437373	0.174822	0.178011	0.417764	0.281006	0.298026	0.321427	0.234516	0.353499	0.263033	0.343858	0.207587	0.299473	0.358977	0.358845	0.151916	0.187596	0.293292	0.100671	0.347123	0.192292	0.234293	0.243253	0.208063	0.173100	0.143108	0.132526	0.090085	0.323057	0.307933	0.167652	0.300191	0.110474	0.141653	0.385248	0.650342	0.141645	0.183188	0.112459	0.137868	0.119201	0.180254	0.407543	0.287147	0.114891	0.125940	0.170270	0.112682	0.254267	0.073839	0.203874	0.654311	0.105568	0.256794	0.222201	0.750962	0.129204	0.166900
93	0.079413	0.146335	0.279599	0.190401	0.167170	0.690669	0.421520	0.172315	0.183511	0.337644	0.274992	0.311572	0.321911	0.234741	0.358319	0.239952	0.348737	0.209246	0.289952	0.322148	0.341861	0.155793	0.189086	0.293618	0.100198	0.351428	0.194373	0.220840	0.251784	0.230648	0.171933	0.139290	0.132869	0.088947	0.320790	0.304075	0.171756	0.264385	0.110303	0.140177	0.436511	0.652945	0.139455	0.256537	0.109895	0.073397	0.104944	0.180914	0.406836	0.279497	0.103507	0.127542	0.166099	0.113412	0.233538	0.075978	0.196856	0.656024	0.108406	0.286836	0.208666	0.692946	0.129177	0.166261
94	0.073687	0.147152	0.276122	0.186500	0.115746	0.570265	0.368459	0.171007	0.183511	0.327722	0.272730	0.319036	0.323095	0.234751	0.359893	0.222411	0.398398	0.223413	0.251928	0.322764	0.336149	0.158123	0.189527	0.292644	0.095611	0.370933	0.202757	0.196754	0.313403	0.233967	0.156250	0.133099	0.143574	0.089791	0.317866	0.303336	0.172298	0.240795	0.110967	0.137194	0.433699	0.650452	0.137234	0.297867	0.102167	0.080411	0.101906	0.163230	0.399258	0.260345	0.087548	0.117911	0.160372	0.115705	0.214503	0.095442	0.190717	0.636815	0.107735	0.298183	0.204320	0.663873	0.126369	0.168460
95	0.069719	0.160174	0.264338	0.189205	0.136956	0.564367	0.330284	0.163975	0.187247	0.335994	0.270766	0.321090	0.305605	0.236325	0.350726	0.220187	0.429186	0.232037	0.225720	0.322872	0.345081	0.156260	0.181644	0.289179	0.099431	0.373639	0.202695	0.187713	0.315606	0.236241	0.132822	0.126849	0.155554	0.092251	0.317145	0.303897	0.171662	0.233201	0.110538	0.134350	0.427721	0.704326	0.127676	0.312469	0.074191	0.093379	0.099011	0.137667	0.338395	0.205033	0.088493	0.103137	0.147871	0.133199	0.200694	0.139941	0.180125	0.561976	0.105564	0.293852	0.204700	0.659969	0.126575	0.168756
96	0.074116	0.159564	0.225136	0.176420	0.170907	0.548726	0.329551	0.144071	0.188069	0.346092	0.269255	0.320442	0.217527	0.284033	0.331992	0.219791	0.445464	0.235652	0.225008	0.304712	0.342357	0.153263	0.171407	0.279228	0.112667	0.375858	0.190091	0.187833	0.313678	0.243544	0.109163	0.127774	0.166309	0.094372	0.315734	0.299137	0.169665	0.207943	0.113268	0.133886	0.434449	0.795834	0.150181	0.319896	0.054402	0.098239	0.082332	0.119519	0.301120	0.176671	0.079296	0.098686	0.138031	0.139497	0.184887	0.168688	0.175081	0.544785	0.102457	0.299846	0.206787	0.628342	0.130540	0.169033
97	0.077070	0.159703	0.186590	0.153665	0.217490	0.485574	0.314676	0.120309	0.186950	0.358125	0.254250	0.316407	0.211743	0.491918	0.305668	0.211899	0.439893	0.229969	0.244127	0.259437	0.306563	0.139642	0.164738	0.264628	0.118321	0.372973	0.157167	0.184824	0.304168	0.242838	0.086818	0.114608	0.164816	0.086893	0.316569	0.294112	0.162858	0.179502	0.113379	0.134568	0.434120	0.784983	0.164592	0.320421	0.059836	0.105558	0.069527	0.115266	0.295942	0.172567	0.059299	0.098599	0.101696	0.128928	0.176924	0.175857	0.114807	0.414465	0.104013	0.335381	0.204708	0.616315	0.130585	0.170801
98	0.068861	0.155802	0.178864	0.124868	0.238702	0.474277	0.258946	0.098087	0.185523	0.367717	0.224292	0.298872	0.211945	0.580744	0.293898	0.197822	0.408313	0.219577	0.246204	0.210139	0.305032	0.128538	0.165070	0.233873	0.116307	0.367997	0.123049	0.183935	0.305189	0.243072	0.076924	0.095070	0.154784	0.070327	0.312544	0.293172	0.144391	0.158790	0.112405	0.135532	0.434663	0.746002	0.169356	0.323566	0.060004	0.116677	0.069788	0.115224	0.195945	0.138645	0.056413	0.097351	0.091078	0.130388	0.176784	0.175173	0.085902	0.260575	0.112382	0.378480	0.203516	0.548874	0.136005	0.176709
99	0.068968	0.151534	0.182076	0.120465	0.243949	0.361893	0.222811	0.099150	0.178941	0.348362	0.200831	0.264737	0.200776	0.575811	0.290266	0.184579	0.382714	0.209808	0.209941	0.180460	0.297305	0.122246	0.177447	0.194848	0.111343	0.363387	0.120965	0.185485	0.311257	0.248800	0.078707	0.091208	0.146012	0.065185	0.279638	0.294558	0.121799	0.129693	0.113948	0.132422	0.434823	0.715127	0.174060	0.334700	0.060373	0.138658	0.074417	0.113377	0.079282	0.076702	0.058874	0.098947	0.084163	0.141679	0.178321	0.174392	0.100767	0.254641	0.114773	0.405847	0.167311	0.543457	0.135801	0.177324
100	0.071743	0.142783	0.178325	0.117880	0.331570	0.302965	0.210735	0.101337	0.179352	0.310686	0.198463	0.225268	0.196831	0.552718	0.257098	0.181969	0.381991	0.207367	0.181856	0.170910	0.298568	0.121851	0.186481	0.177826	0.109847	0.343839	0.119870	0.187158	0.312725	0.246298	0.079507	0.091945	0.142082	0.080749	0.218549	0.289301	0.108976	0.156742	0.113703	0.123165	0.435072	0.692388	0.174539	0.348353	0.087097	0.143331	0.080556	0.105085	0.083721	0.072077	0.060298	0.095059	0.077332	0.148057	0.172708	0.173439	0.099700	0.256642	0.115135	0.415999	0.101295	0.397158	0.133685	0.170734
101	0.069490	0.181433	0.161299	0.114234	0.468347	0.328326	0.199466	0.200605	0.184350	0.272674	0.192770	0.193485	0.193263	0.551304	0.201015	0.182805	0.375475	0.206328	0.170191	0.170880	0.245620	0.109228	0.181464	0.177047	0.104204	0.341297	0.115119	0.188358	0.322051	0.242595	0.077683	0.091248	0.144573	0.097091	0.164513	0.267240	0.099196	0.183364	0.106376	0.122771	0.431247	0.693252	0.175888	0.367173	0.087143	0.147045	0.083652	0.089350	0.079854	0.066801	0.060180	0.091898	0.075713	0.146901	0.161523	0.173415	0.104603	0.248087	0.115434	0.421439	0.103107	0.378233	0.126264	0.159883
