	225_C_T1_sh_ND_02.c3d	225_C_T1_sh_ND_02.c3d	225_C_T1_sh_ND_02.c3d	225_C_T1_sh_ND_02.c3d	225_C_T1_sh_ND_02.c3d	225_C_T1_sh_ND_02.c3d	225_C_T1_sh_ND_02.c3d	225_C_T1_sh_ND_02.c3d	225_C_T1_sh_ND_03.c3d	225_C_T1_sh_ND_03.c3d	225_C_T1_sh_ND_03.c3d	225_C_T1_sh_ND_03.c3d	225_C_T1_sh_ND_03.c3d	225_C_T1_sh_ND_03.c3d	225_C_T1_sh_ND_03.c3d	225_C_T1_sh_ND_03.c3d	225_C_T1_sh_ND_04.c3d	225_C_T1_sh_ND_04.c3d	225_C_T1_sh_ND_04.c3d	225_C_T1_sh_ND_04.c3d	225_C_T1_sh_ND_04.c3d	225_C_T1_sh_ND_04.c3d	225_C_T1_sh_ND_04.c3d	225_C_T1_sh_ND_04.c3d	225_C_T1_sh_ND_05.c3d	225_C_T1_sh_ND_05.c3d	225_C_T1_sh_ND_05.c3d	225_C_T1_sh_ND_05.c3d	225_C_T1_sh_ND_05.c3d	225_C_T1_sh_ND_05.c3d	225_C_T1_sh_ND_05.c3d	225_C_T1_sh_ND_05.c3d	225_C_T1_sh_ND_06.c3d	225_C_T1_sh_ND_06.c3d	225_C_T1_sh_ND_06.c3d	225_C_T1_sh_ND_06.c3d	225_C_T1_sh_ND_06.c3d	225_C_T1_sh_ND_06.c3d	225_C_T1_sh_ND_06.c3d	225_C_T1_sh_ND_06.c3d	225_C_T1_sh_ND_07.c3d	225_C_T1_sh_ND_07.c3d	225_C_T1_sh_ND_07.c3d	225_C_T1_sh_ND_07.c3d	225_C_T1_sh_ND_07.c3d	225_C_T1_sh_ND_07.c3d	225_C_T1_sh_ND_07.c3d	225_C_T1_sh_ND_07.c3d	225_C_T1_sh_ND_08.c3d	225_C_T1_sh_ND_08.c3d	225_C_T1_sh_ND_08.c3d	225_C_T1_sh_ND_08.c3d	225_C_T1_sh_ND_08.c3d	225_C_T1_sh_ND_08.c3d	225_C_T1_sh_ND_08.c3d	225_C_T1_sh_ND_08.c3d	225_C_T1_sh_ND_09.c3d	225_C_T1_sh_ND_09.c3d	225_C_T1_sh_ND_09.c3d	225_C_T1_sh_ND_09.c3d	225_C_T1_sh_ND_09.c3d	225_C_T1_sh_ND_09.c3d	225_C_T1_sh_ND_09.c3d	225_C_T1_sh_ND_09.c3d	225_C_T1_sh_ND_10.c3d	225_C_T1_sh_ND_10.c3d	225_C_T1_sh_ND_10.c3d	225_C_T1_sh_ND_10.c3d	225_C_T1_sh_ND_10.c3d	225_C_T1_sh_ND_10.c3d	225_C_T1_sh_ND_10.c3d	225_C_T1_sh_ND_10.c3d
	Biceps femoris_lat	Semitendinosus_lat	Vastus lateralis_lat	Vastus medialis_lat	Biceps femoris_med	Semitendinosus_med	Vastus lateralis_med	Vastus medialis_med	Biceps femoris_lat	Semitendinosus_lat	Vastus lateralis_lat	Vastus medialis_lat	Biceps femoris_med	Semitendinosus_med	Vastus lateralis_med	Vastus medialis_med	Biceps femoris_lat	Semitendinosus_lat	Vastus lateralis_lat	Vastus medialis_lat	Biceps femoris_med	Semitendinosus_med	Vastus lateralis_med	Vastus medialis_med	Biceps femoris_lat	Semitendinosus_lat	Vastus lateralis_lat	Vastus medialis_lat	Biceps femoris_med	Semitendinosus_med	Vastus lateralis_med	Vastus medialis_med	Biceps femoris_lat	Semitendinosus_lat	Vastus lateralis_lat	Vastus medialis_lat	Biceps femoris_med	Semitendinosus_med	Vastus lateralis_med	Vastus medialis_med	Biceps femoris_lat	Semitendinosus_lat	Vastus lateralis_lat	Vastus medialis_lat	Biceps femoris_med	Semitendinosus_med	Vastus lateralis_med	Vastus medialis_med	Biceps femoris_lat	Semitendinosus_lat	Vastus lateralis_lat	Vastus medialis_lat	Biceps femoris_med	Semitendinosus_med	Vastus lateralis_med	Vastus medialis_med	Biceps femoris_lat	Semitendinosus_lat	Vastus lateralis_lat	Vastus medialis_lat	Biceps femoris_med	Semitendinosus_med	Vastus lateralis_med	Vastus medialis_med	Biceps femoris_lat	Semitendinosus_lat	Vastus lateralis_lat	Vastus medialis_lat	Biceps femoris_med	Semitendinosus_med	Vastus lateralis_med	Vastus medialis_med
	P2D	P2D	P2D	P2D	P2D	P2D	P2D	P2D	P2D	P2D	P2D	P2D	P2D	P2D	P2D	P2D	P2D	P2D	P2D	P2D	P2D	P2D	P2D	P2D	P2D	P2D	P2D	P2D	P2D	P2D	P2D	P2D	P2D	P2D	P2D	P2D	P2D	P2D	P2D	P2D	P2D	P2D	P2D	P2D	P2D	P2D	P2D	P2D	P2D	P2D	P2D	P2D	P2D	P2D	P2D	P2D	P2D	P2D	P2D	P2D	P2D	P2D	P2D	P2D	P2D	P2D	P2D	P2D	P2D	P2D	P2D	P2D
	EMG_lat	EMG_lat	EMG_lat	EMG_lat	EMG_med	EMG_med	EMG_med	EMG_med	EMG_lat	EMG_lat	EMG_lat	EMG_lat	EMG_med	EMG_med	EMG_med	EMG_med	EMG_lat	EMG_lat	EMG_lat	EMG_lat	EMG_med	EMG_med	EMG_med	EMG_med	EMG_lat	EMG_lat	EMG_lat	EMG_lat	EMG_med	EMG_med	EMG_med	EMG_med	EMG_lat	EMG_lat	EMG_lat	EMG_lat	EMG_med	EMG_med	EMG_med	EMG_med	EMG_lat	EMG_lat	EMG_lat	EMG_lat	EMG_med	EMG_med	EMG_med	EMG_med	EMG_lat	EMG_lat	EMG_lat	EMG_lat	EMG_med	EMG_med	EMG_med	EMG_med	EMG_lat	EMG_lat	EMG_lat	EMG_lat	EMG_med	EMG_med	EMG_med	EMG_med	EMG_lat	EMG_lat	EMG_lat	EMG_lat	EMG_med	EMG_med	EMG_med	EMG_med
ITEM	Y	Y	Y	Y	Y	Y	Y	Y	Y	Y	Y	Y	Y	Y	Y	Y	Y	Y	Y	Y	Y	Y	Y	Y	Y	Y	Y	Y	Y	Y	Y	Y	Y	Y	Y	Y	Y	Y	Y	Y	Y	Y	Y	Y	Y	Y	Y	Y	Y	Y	Y	Y	Y	Y	Y	Y	Y	Y	Y	Y	Y	Y	Y	Y	Y	Y	Y	Y	Y	Y	Y	Y
1	0.253857	0.134786	0.325485	0.191833	0.698789	0.355811	0.256912	0.065483	0.400083	0.311845	0.214690	0.106034	0.275570	0.159080	0.192602	0.250740	0.083328	0.229016	0.648312	0.224852	0.108434	0.095709	0.316352	0.296621	0.309843	0.261406	0.275142	0.290824	0.385910	0.316811	0.613054	0.225064	0.191638	0.119820	0.176114	0.113961	0.213548	0.100798	0.354290	0.255296	0.207139	0.250236	0.406768	0.268547	0.163495	0.204786	0.477870	0.220049	0.306405	0.341366	0.546285	0.216202	0.225466	0.209301	0.450479	0.249682	0.126024	0.222843	0.515039	0.225173	0.155987	0.152289	0.437534	0.190815	0.123674	0.089410	0.404535	0.243132	0.125103	0.116047	0.412645	0.283664
2	0.263998	0.145712	0.344352	0.190136	0.723646	0.331157	0.251745	0.067510	0.352635	0.260597	0.205575	0.172885	0.272892	0.158002	0.193128	0.252378	0.081164	0.214036	0.568617	0.224438	0.100824	0.096112	0.349095	0.297977	0.309905	0.262106	0.280393	0.325351	0.379942	0.326250	0.615001	0.227460	0.184747	0.080304	0.160800	0.116989	0.209777	0.102198	0.364899	0.257553	0.215369	0.235728	0.385350	0.254898	0.140505	0.202072	0.478939	0.217751	0.306381	0.337691	0.534207	0.245544	0.178203	0.172620	0.442261	0.234777	0.108720	0.223474	0.567520	0.224384	0.153392	0.155087	0.428818	0.237869	0.126642	0.081460	0.411425	0.260934	0.117952	0.128984	0.403140	0.288167
3	0.260647	0.152230	0.341101	0.178663	0.731849	0.361593	0.250953	0.068308	0.351595	0.238645	0.198749	0.235589	0.258616	0.157946	0.205436	0.240216	0.081041	0.198535	0.512335	0.226835	0.093038	0.092314	0.352179	0.303009	0.305116	0.261536	0.296333	0.338092	0.365635	0.331534	0.614632	0.227461	0.178532	0.072898	0.210239	0.195237	0.210885	0.102773	0.363280	0.245640	0.224659	0.227369	0.364080	0.253419	0.140070	0.202107	0.479354	0.214441	0.307728	0.337015	0.538013	0.267865	0.158480	0.154536	0.432108	0.227618	0.105811	0.232789	0.584345	0.219775	0.151695	0.158475	0.434911	0.301702	0.127393	0.066233	0.419449	0.266503	0.107933	0.128540	0.448154	0.294584
4	0.210090	0.151899	0.340090	0.170879	0.757406	0.382369	0.251426	0.069646	0.350634	0.227134	0.196874	0.248075	0.241816	0.157891	0.228528	0.219813	0.078631	0.178948	0.487474	0.230530	0.090815	0.089734	0.351223	0.310098	0.350562	0.279097	0.315029	0.325416	0.351762	0.334472	0.606468	0.226406	0.133786	0.071539	0.278055	0.300563	0.206967	0.105096	0.378424	0.228726	0.227472	0.225008	0.352305	0.251994	0.141121	0.203233	0.449952	0.211423	0.307855	0.336682	0.550712	0.269952	0.146896	0.138320	0.416964	0.226234	0.118536	0.252069	0.579866	0.199899	0.155202	0.159893	0.452685	0.336120	0.124788	0.061180	0.438298	0.267540	0.086709	0.129609	0.500883	0.281139
5	0.177161	0.152022	0.343181	0.180615	0.650871	0.370941	0.270139	0.069101	0.343095	0.228370	0.201684	0.249448	0.222859	0.157694	0.216047	0.205174	0.078174	0.160219	0.475178	0.231535	0.088488	0.082200	0.351691	0.304981	0.369608	0.292011	0.310204	0.322211	0.342907	0.335416	0.580552	0.217701	0.123799	0.083534	0.367216	0.334694	0.206868	0.110977	0.446795	0.230092	0.236374	0.235904	0.351117	0.242598	0.143866	0.208814	0.446918	0.211900	0.308431	0.336569	0.549335	0.270730	0.142557	0.117201	0.418469	0.230120	0.138124	0.284775	0.575030	0.180696	0.148835	0.147520	0.456344	0.339426	0.125260	0.061935	0.434086	0.267036	0.098231	0.134933	0.503256	0.263781
6	0.174910	0.152279	0.359635	0.215665	0.644180	0.355197	0.264921	0.069708	0.323895	0.234618	0.239018	0.252157	0.210913	0.155712	0.211536	0.190150	0.078181	0.146664	0.468398	0.231540	0.092339	0.073396	0.353613	0.303488	0.380962	0.300989	0.304638	0.323027	0.357449	0.337203	0.563097	0.206147	0.135554	0.087531	0.442411	0.335668	0.190931	0.128686	0.529165	0.230229	0.242098	0.243986	0.343661	0.229675	0.148231	0.218398	0.498859	0.240207	0.303510	0.340707	0.551774	0.270896	0.146880	0.116372	0.423602	0.226959	0.148700	0.301074	0.573088	0.179798	0.140522	0.130968	0.444034	0.346965	0.132209	0.068155	0.428021	0.263044	0.102721	0.135275	0.458527	0.260398
7	0.185433	0.151062	0.423016	0.243095	0.645606	0.329531	0.264362	0.068349	0.309345	0.240147	0.337778	0.250661	0.190205	0.157090	0.213200	0.185971	0.078453	0.142766	0.467887	0.234261	0.130075	0.077350	0.353724	0.304018	0.390110	0.329157	0.305484	0.327718	0.352423	0.334285	0.540217	0.212371	0.136589	0.087502	0.461583	0.341812	0.182720	0.139764	0.552837	0.227567	0.238783	0.244938	0.338270	0.202652	0.154521	0.231006	0.535120	0.310129	0.297734	0.335514	0.548524	0.268920	0.156954	0.124869	0.449637	0.210270	0.148282	0.296097	0.572879	0.178890	0.137469	0.132660	0.434313	0.382039	0.136893	0.064967	0.426478	0.262555	0.102778	0.135716	0.394856	0.270009
8	0.186926	0.161069	0.466790	0.242563	0.639641	0.308092	0.264324	0.094549	0.302785	0.265816	0.430962	0.249781	0.182437	0.160185	0.205446	0.186475	0.079823	0.143694	0.462783	0.248399	0.153459	0.075756	0.368673	0.303133	0.389059	0.347906	0.306364	0.334901	0.356713	0.337827	0.476511	0.226260	0.138439	0.086720	0.462585	0.369988	0.176260	0.142044	0.513931	0.241116	0.231225	0.237744	0.339786	0.155070	0.171955	0.252733	0.532419	0.344340	0.286385	0.278686	0.534866	0.245886	0.159521	0.126626	0.480029	0.189305	0.147204	0.293687	0.572466	0.174611	0.144412	0.171795	0.425622	0.419944	0.137084	0.066866	0.417375	0.260339	0.102954	0.143956	0.432421	0.264948
9	0.184656	0.150274	0.476392	0.246989	0.632837	0.302235	0.278321	0.121257	0.266329	0.285209	0.434676	0.252497	0.163696	0.150342	0.207021	0.186462	0.082053	0.145365	0.433673	0.269758	0.150945	0.091019	0.372259	0.279208	0.389175	0.355190	0.312531	0.330347	0.388374	0.351911	0.445556	0.225925	0.148529	0.092382	0.477149	0.420334	0.163630	0.128522	0.469088	0.241217	0.207245	0.219732	0.329811	0.121782	0.192478	0.267112	0.536029	0.346637	0.286203	0.278213	0.579991	0.224023	0.155598	0.127951	0.517385	0.175848	0.144925	0.292848	0.567905	0.160288	0.174475	0.230511	0.438613	0.440046	0.137641	0.073530	0.411801	0.256024	0.103149	0.153501	0.557427	0.228063
10	0.184098	0.145647	0.475252	0.271149	0.634047	0.301893	0.301323	0.159026	0.174382	0.281708	0.428661	0.253306	0.147660	0.144020	0.209379	0.191495	0.083199	0.146068	0.390786	0.289803	0.154516	0.120076	0.394914	0.231881	0.386170	0.352238	0.319432	0.327544	0.387370	0.350997	0.455283	0.224956	0.168069	0.098765	0.502457	0.454153	0.154195	0.112675	0.468582	0.214540	0.194679	0.201134	0.325791	0.126086	0.212242	0.274965	0.549561	0.355227	0.247975	0.285968	0.579765	0.224892	0.145403	0.125953	0.539519	0.173420	0.140383	0.290327	0.535702	0.124439	0.198437	0.277244	0.463388	0.447951	0.140542	0.081608	0.412549	0.259597	0.104965	0.156165	0.603087	0.215337
11	0.211576	0.149386	0.577297	0.285597	0.628542	0.303508	0.313123	0.270330	0.188978	0.286486	0.430775	0.255423	0.147057	0.144681	0.270045	0.216688	0.082996	0.147756	0.393457	0.302843	0.168883	0.152443	0.383861	0.223052	0.385184	0.345246	0.296042	0.325239	0.347880	0.324688	0.400307	0.234007	0.203121	0.116684	0.586392	0.470432	0.208248	0.107735	0.470884	0.185447	0.191604	0.191345	0.362747	0.137914	0.212904	0.272520	0.581004	0.380935	0.213395	0.281716	0.561795	0.239366	0.138360	0.124260	0.538253	0.173734	0.140304	0.287159	0.470332	0.114900	0.208242	0.302764	0.469292	0.450885	0.140759	0.081889	0.418493	0.261289	0.114520	0.153603	0.607280	0.220082
12	0.220088	0.151412	0.679647	0.287750	0.624766	0.299555	0.330229	0.347767	0.204360	0.297795	0.446796	0.263846	0.158628	0.162091	0.324506	0.228544	0.070795	0.148618	0.451383	0.309967	0.179462	0.171842	0.373302	0.221195	0.386379	0.336833	0.255334	0.319472	0.324337	0.302361	0.301528	0.251563	0.214734	0.118745	0.629353	0.478518	0.264225	0.109234	0.466586	0.168385	0.190621	0.191376	0.387845	0.155109	0.209234	0.266057	0.593302	0.419478	0.161395	0.268619	0.553916	0.250925	0.130043	0.123317	0.544563	0.179032	0.142289	0.279414	0.431821	0.124895	0.201936	0.309192	0.433932	0.449110	0.141841	0.081497	0.422668	0.244231	0.117896	0.147439	0.606559	0.235604
13	0.231800	0.157600	0.710043	0.277298	0.594861	0.286142	0.349183	0.359695	0.195843	0.289791	0.452928	0.268838	0.169777	0.168814	0.340284	0.226278	0.079173	0.144814	0.523665	0.304195	0.183960	0.181578	0.378460	0.207234	0.388689	0.328459	0.251067	0.317704	0.312961	0.304598	0.270335	0.268502	0.215411	0.118988	0.633165	0.480909	0.288712	0.111520	0.476591	0.174345	0.188113	0.200186	0.389203	0.161275	0.238883	0.261203	0.575532	0.448675	0.161354	0.261960	0.553750	0.255885	0.135529	0.123283	0.558920	0.183543	0.145577	0.263970	0.428910	0.129904	0.213723	0.309619	0.388117	0.438920	0.144043	0.081406	0.406070	0.237152	0.115905	0.156050	0.608718	0.252143
14	0.229700	0.184436	0.705188	0.287857	0.463286	0.283713	0.352001	0.365359	0.191160	0.280962	0.551387	0.267283	0.174371	0.159245	0.340553	0.220476	0.100142	0.126862	0.588626	0.284380	0.182849	0.183360	0.374462	0.203358	0.383725	0.320651	0.246586	0.316646	0.306490	0.264538	0.335446	0.256664	0.217994	0.118426	0.632737	0.480969	0.342731	0.122879	0.477498	0.172412	0.184890	0.204051	0.388150	0.161451	0.303778	0.273062	0.531927	0.458930	0.161425	0.261102	0.530805	0.247696	0.142202	0.119847	0.572113	0.185729	0.148895	0.241442	0.427009	0.139115	0.223840	0.309535	0.364585	0.424828	0.144726	0.083510	0.368134	0.253449	0.112113	0.158967	0.601768	0.261091
15	0.222668	0.209284	0.712954	0.286869	0.373348	0.276165	0.360177	0.388296	0.192060	0.281915	0.663152	0.268935	0.178313	0.143992	0.341957	0.229015	0.127700	0.107049	0.622711	0.266691	0.182686	0.182631	0.377852	0.223110	0.367463	0.314666	0.237287	0.308611	0.306286	0.215199	0.368798	0.244420	0.218583	0.118329	0.635776	0.479228	0.365274	0.127998	0.473585	0.172949	0.184392	0.210589	0.390306	0.164641	0.311219	0.285411	0.497407	0.468587	0.159450	0.247364	0.509841	0.244679	0.141861	0.113941	0.595362	0.169630	0.151510	0.237718	0.416183	0.136266	0.222632	0.309594	0.347093	0.422323	0.143613	0.085873	0.343960	0.281086	0.110233	0.152744	0.600682	0.263729
16	0.221335	0.220834	0.772596	0.287732	0.353756	0.239022	0.370385	0.427333	0.192607	0.280050	0.707630	0.244421	0.172078	0.143444	0.340173	0.247013	0.139335	0.086438	0.623704	0.259722	0.182859	0.184639	0.372547	0.243123	0.365745	0.313177	0.239391	0.287407	0.306990	0.202085	0.366167	0.250082	0.218624	0.117980	0.653353	0.478228	0.397691	0.138275	0.469274	0.182951	0.183274	0.219045	0.392807	0.174641	0.309408	0.290107	0.503245	0.472623	0.143968	0.229435	0.505601	0.226460	0.139173	0.104235	0.608032	0.146395	0.152822	0.238504	0.391811	0.132338	0.231261	0.308492	0.346978	0.406966	0.143226	0.085166	0.340208	0.308909	0.107274	0.139820	0.598211	0.263362
17	0.214189	0.222865	0.789450	0.299859	0.248413	0.179519	0.374750	0.445213	0.195175	0.279996	0.724095	0.179659	0.160272	0.150138	0.345782	0.272186	0.145721	0.078498	0.601416	0.258641	0.192811	0.195163	0.368428	0.261004	0.364495	0.313106	0.237425	0.248475	0.291420	0.188856	0.364716	0.254869	0.218811	0.118091	0.669418	0.475627	0.430390	0.146360	0.472512	0.212930	0.181197	0.225759	0.396554	0.183131	0.310737	0.293333	0.498582	0.471553	0.134725	0.218532	0.497028	0.191337	0.131889	0.092249	0.609224	0.141486	0.153954	0.237646	0.306989	0.143520	0.263696	0.307696	0.344804	0.364479	0.139992	0.087244	0.339509	0.324374	0.095254	0.128859	0.567998	0.245227
18	0.209850	0.238171	0.779745	0.329259	0.223553	0.185092	0.360464	0.450304	0.190958	0.278697	0.729374	0.147910	0.152017	0.158836	0.376828	0.285360	0.145591	0.078677	0.596981	0.261731	0.198970	0.204905	0.375470	0.269879	0.358488	0.313255	0.222909	0.211167	0.290985	0.181509	0.367181	0.257857	0.215059	0.117223	0.655531	0.433944	0.460751	0.151590	0.459521	0.236994	0.171114	0.232268	0.408067	0.175534	0.312442	0.294908	0.487689	0.470406	0.137148	0.218133	0.467204	0.185406	0.129097	0.088787	0.607977	0.146809	0.153306	0.237360	0.218429	0.158294	0.283376	0.310890	0.318025	0.321944	0.129694	0.084187	0.314785	0.317520	0.092112	0.126513	0.514335	0.236102
19	0.207000	0.256759	0.766652	0.343613	0.223965	0.189620	0.338560	0.458175	0.187864	0.272678	0.729030	0.149827	0.143960	0.162559	0.385539	0.280072	0.145490	0.079232	0.601950	0.275534	0.199566	0.208206	0.377692	0.255943	0.291565	0.295255	0.205265	0.206441	0.287402	0.180263	0.377295	0.256844	0.205077	0.111736	0.628183	0.376502	0.478257	0.152362	0.387809	0.244719	0.150908	0.239004	0.420529	0.168408	0.316560	0.295549	0.491653	0.470193	0.135315	0.218138	0.444731	0.191634	0.129044	0.088115	0.602504	0.153981	0.144433	0.226655	0.198255	0.173297	0.338486	0.346121	0.292997	0.310981	0.132697	0.082653	0.310740	0.305590	0.079616	0.122136	0.502829	0.234970
20	0.202112	0.261336	0.728080	0.356062	0.213671	0.185838	0.332749	0.468203	0.188673	0.262581	0.722554	0.144644	0.140563	0.162725	0.387673	0.273246	0.146660	0.081991	0.608007	0.293783	0.199572	0.210265	0.377585	0.257610	0.200995	0.267615	0.203362	0.206055	0.263308	0.171699	0.373062	0.259174	0.189263	0.103600	0.578428	0.358182	0.475236	0.139293	0.272265	0.246841	0.130398	0.240821	0.429033	0.170279	0.316553	0.294186	0.482327	0.467052	0.133570	0.215983	0.427635	0.196082	0.128925	0.087456	0.604361	0.161066	0.132711	0.201947	0.208620	0.182279	0.356611	0.357579	0.266407	0.307582	0.134640	0.083184	0.290106	0.301166	0.064543	0.120394	0.504169	0.234995
21	0.207411	0.250970	0.710303	0.369786	0.210029	0.191894	0.336330	0.479077	0.187227	0.260335	0.701150	0.144546	0.139028	0.162208	0.387566	0.275680	0.149917	0.086570	0.620611	0.306006	0.200463	0.210040	0.379420	0.258398	0.166337	0.250410	0.214760	0.202663	0.267426	0.171627	0.368284	0.253724	0.182162	0.104288	0.551730	0.358605	0.478040	0.151884	0.220433	0.241870	0.125305	0.237124	0.436659	0.173149	0.314568	0.290410	0.428218	0.444216	0.122439	0.193493	0.425814	0.193003	0.127477	0.087462	0.610195	0.168466	0.105249	0.146505	0.211659	0.184404	0.355272	0.356048	0.262258	0.274521	0.139414	0.085925	0.261036	0.300163	0.063707	0.125001	0.504470	0.225439
22	0.207502	0.249091	0.705715	0.361913	0.209396	0.194132	0.365847	0.483841	0.188502	0.245988	0.646662	0.142484	0.141270	0.159748	0.389670	0.280479	0.155672	0.090416	0.630358	0.317078	0.187612	0.206067	0.379293	0.258192	0.133905	0.209439	0.223298	0.185191	0.262175	0.160749	0.366552	0.246520	0.180320	0.110887	0.560247	0.350032	0.491880	0.185127	0.218178	0.226241	0.097715	0.224411	0.444424	0.176629	0.308929	0.279465	0.408399	0.396660	0.108265	0.154538	0.410841	0.183818	0.125199	0.087985	0.610140	0.163477	0.098371	0.127960	0.211955	0.184228	0.351027	0.343003	0.262636	0.207262	0.149970	0.112913	0.253553	0.300150	0.067660	0.137185	0.483162	0.206701
23	0.191967	0.244914	0.677174	0.341190	0.207688	0.196286	0.376476	0.481110	0.180376	0.216236	0.631383	0.134788	0.145460	0.154437	0.388863	0.284823	0.163384	0.092429	0.632668	0.328999	0.156885	0.204787	0.364965	0.256422	0.115503	0.149474	0.227423	0.145328	0.233324	0.133618	0.349810	0.246712	0.178628	0.122859	0.568985	0.309656	0.506173	0.233815	0.218346	0.222450	0.076377	0.212394	0.448428	0.181993	0.296862	0.262238	0.415467	0.378280	0.095656	0.125209	0.293167	0.181100	0.118652	0.093209	0.600439	0.156070	0.098219	0.130091	0.208969	0.183788	0.345097	0.313125	0.239249	0.156857	0.152425	0.183273	0.252024	0.299712	0.067945	0.171204	0.345842	0.192293
24	0.162185	0.240001	0.575618	0.331120	0.215095	0.202176	0.376908	0.454292	0.178846	0.211663	0.635406	0.129228	0.160203	0.154958	0.388388	0.282973	0.183274	0.096095	0.632575	0.336294	0.155471	0.200268	0.361265	0.252835	0.107017	0.125456	0.222373	0.126234	0.233839	0.137634	0.335764	0.237194	0.166254	0.126349	0.552473	0.236596	0.506818	0.266354	0.212825	0.237960	0.080244	0.209488	0.446172	0.189124	0.282009	0.250562	0.409886	0.378890	0.093994	0.101272	0.173134	0.181708	0.113627	0.107230	0.561124	0.154211	0.098680	0.130890	0.208809	0.183380	0.330660	0.273363	0.188055	0.129163	0.152353	0.225097	0.243367	0.299000	0.064842	0.214626	0.199476	0.193101
25	0.154776	0.245319	0.479403	0.330236	0.224603	0.194861	0.368056	0.382940	0.156295	0.205711	0.639133	0.127269	0.174979	0.160134	0.379432	0.267425	0.205247	0.100380	0.639381	0.332992	0.152087	0.187147	0.334559	0.244782	0.105185	0.128507	0.211033	0.128405	0.228396	0.136980	0.332066	0.211994	0.149010	0.119189	0.503992	0.175865	0.495286	0.274735	0.208539	0.247671	0.073828	0.209568	0.433399	0.198409	0.269813	0.262029	0.387553	0.365140	0.123346	0.166421	0.180121	0.169812	0.111367	0.124963	0.507773	0.158710	0.092580	0.145454	0.241121	0.183941	0.323368	0.237861	0.150359	0.127428	0.151902	0.239981	0.240962	0.298788	0.054818	0.224906	0.169727	0.191244
26	0.121536	0.240424	0.448137	0.329073	0.247622	0.188876	0.350601	0.348637	0.089419	0.174598	0.631075	0.110145	0.176576	0.161876	0.336072	0.245699	0.213696	0.099756	0.657606	0.312766	0.138574	0.165447	0.304424	0.240068	0.105569	0.131437	0.223426	0.110536	0.214929	0.121969	0.329618	0.180849	0.097438	0.100279	0.418275	0.127367	0.497671	0.274675	0.201789	0.256785	0.077957	0.211194	0.396344	0.206935	0.268611	0.287693	0.348151	0.326315	0.128214	0.228242	0.222928	0.144971	0.110221	0.134506	0.461160	0.174644	0.091951	0.177662	0.245575	0.182682	0.327155	0.224270	0.147665	0.138472	0.160851	0.264645	0.232786	0.292445	0.057475	0.224835	0.170710	0.176774
27	0.107855	0.215593	0.445741	0.316601	0.250501	0.187862	0.342619	0.346592	0.080764	0.167093	0.628531	0.089103	0.164308	0.140712	0.295151	0.238926	0.216954	0.098705	0.665583	0.290851	0.131707	0.151045	0.293384	0.238998	0.109823	0.135259	0.239373	0.088157	0.211712	0.105295	0.293878	0.153819	0.089388	0.101356	0.377617	0.096077	0.484214	0.275975	0.165795	0.294978	0.081225	0.213308	0.334602	0.207011	0.267119	0.310022	0.332360	0.268643	0.129209	0.259603	0.226589	0.122919	0.105475	0.149931	0.436642	0.186231	0.097132	0.188864	0.246599	0.176114	0.323746	0.221800	0.144846	0.144077	0.178554	0.337207	0.231321	0.269447	0.075285	0.225403	0.164981	0.150685
28	0.110120	0.189709	0.403358	0.334482	0.247747	0.191066	0.326263	0.330343	0.072347	0.165322	0.576625	0.073108	0.150136	0.130273	0.283070	0.240015	0.216699	0.096745	0.648411	0.273689	0.139157	0.144163	0.289673	0.239410	0.112029	0.135358	0.238822	0.083951	0.200170	0.104571	0.197954	0.155184	0.104421	0.108177	0.375941	0.096286	0.444403	0.277079	0.149138	0.342560	0.077948	0.210455	0.274185	0.198698	0.221846	0.310678	0.335169	0.210645	0.133716	0.260859	0.222973	0.114819	0.100772	0.172236	0.450870	0.190478	0.104890	0.189540	0.256738	0.167849	0.313323	0.223393	0.125410	0.143203	0.187094	0.374205	0.217631	0.248279	0.077082	0.224328	0.164503	0.131803
29	0.115807	0.177558	0.284467	0.356639	0.280101	0.193170	0.322073	0.286068	0.071798	0.154699	0.434587	0.059982	0.141474	0.142608	0.279537	0.236643	0.215869	0.095252	0.615844	0.264472	0.144233	0.151702	0.289914	0.239574	0.131158	0.135760	0.235247	0.084689	0.210616	0.113242	0.144172	0.174625	0.110672	0.110385	0.375851	0.108633	0.434186	0.300847	0.162952	0.366129	0.075601	0.198923	0.247149	0.185885	0.167754	0.308364	0.353810	0.164653	0.146560	0.293352	0.205127	0.115426	0.096454	0.185133	0.444532	0.187173	0.108443	0.221427	0.265158	0.158058	0.312272	0.223735	0.106593	0.145605	0.193871	0.402816	0.181539	0.248860	0.079944	0.225212	0.162898	0.124507
30	0.122601	0.177271	0.256907	0.358042	0.317838	0.181165	0.308294	0.235958	0.067488	0.147687	0.323960	0.058312	0.141009	0.153804	0.283345	0.228985	0.213951	0.094696	0.558912	0.283907	0.142670	0.163910	0.284134	0.237838	0.151220	0.134574	0.231983	0.084249	0.215360	0.125508	0.165200	0.224227	0.118215	0.119671	0.364686	0.134569	0.399640	0.318704	0.171727	0.364460	0.079136	0.180553	0.246697	0.197523	0.191792	0.319207	0.341715	0.148118	0.157684	0.322270	0.205249	0.114694	0.089896	0.193272	0.401444	0.182953	0.106343	0.259202	0.267825	0.145205	0.307975	0.224060	0.108866	0.155014	0.198122	0.419869	0.158874	0.248094	0.105714	0.238015	0.157593	0.127397
31	0.161007	0.159817	0.235437	0.322539	0.313599	0.152024	0.310393	0.220259	0.061169	0.144674	0.260567	0.057747	0.151791	0.153360	0.293517	0.224497	0.207341	0.091585	0.470637	0.284643	0.138267	0.169036	0.270795	0.222475	0.157599	0.133446	0.229374	0.080605	0.226182	0.136916	0.202873	0.265685	0.125554	0.134779	0.327851	0.165276	0.374626	0.329331	0.243080	0.347164	0.083547	0.165227	0.242753	0.226068	0.220863	0.332403	0.331900	0.157809	0.164702	0.340333	0.213809	0.115614	0.082076	0.197919	0.331382	0.176341	0.103226	0.267959	0.267522	0.144378	0.289208	0.223695	0.128016	0.171974	0.199364	0.422887	0.161241	0.227539	0.110984	0.250517	0.169722	0.143300
32	0.171267	0.161999	0.210244	0.282422	0.320044	0.144124	0.310077	0.207305	0.068802	0.153397	0.225952	0.052801	0.176980	0.151132	0.288858	0.227396	0.190252	0.084249	0.394320	0.283948	0.128544	0.161060	0.232334	0.207993	0.225223	0.144414	0.224830	0.076081	0.238270	0.151218	0.231048	0.291574	0.143747	0.136778	0.304100	0.177683	0.346395	0.340070	0.321530	0.336205	0.089149	0.148153	0.235989	0.243216	0.239359	0.349439	0.337476	0.166348	0.169554	0.353246	0.216315	0.116476	0.082033	0.199357	0.272495	0.175472	0.100827	0.282258	0.269018	0.140526	0.255011	0.220396	0.183911	0.192124	0.201271	0.422592	0.153873	0.192881	0.112851	0.262839	0.190482	0.162039
33	0.181266	0.154594	0.182016	0.250697	0.323443	0.145359	0.310281	0.187192	0.089289	0.156730	0.228471	0.044884	0.208608	0.179680	0.280867	0.268453	0.177126	0.086665	0.356968	0.283700	0.120759	0.159497	0.200988	0.193859	0.272503	0.146102	0.223401	0.077125	0.247494	0.159733	0.253041	0.305457	0.157187	0.138793	0.306634	0.177656	0.325470	0.342428	0.336511	0.336874	0.102447	0.133366	0.234177	0.249524	0.249719	0.364617	0.341211	0.175077	0.174218	0.356233	0.207973	0.110084	0.086678	0.204765	0.242974	0.173535	0.102827	0.285276	0.274448	0.126741	0.215482	0.172223	0.218350	0.217686	0.203050	0.423339	0.146314	0.157816	0.115426	0.272837	0.219570	0.174045
34	0.186395	0.154122	0.212773	0.234074	0.322952	0.139136	0.309731	0.157772	0.095215	0.162871	0.232130	0.045342	0.219887	0.198935	0.330727	0.326003	0.175114	0.104939	0.357173	0.283919	0.123955	0.165193	0.216587	0.182538	0.272355	0.141831	0.213097	0.080909	0.243797	0.161120	0.276932	0.305918	0.164385	0.145522	0.316658	0.178492	0.326343	0.340786	0.339400	0.338388	0.103549	0.120472	0.234404	0.270835	0.247561	0.373572	0.323941	0.181017	0.181062	0.358999	0.206175	0.099316	0.093950	0.244451	0.241365	0.168389	0.101248	0.285295	0.269515	0.110609	0.147729	0.124868	0.222215	0.227314	0.199895	0.425269	0.128059	0.163785	0.118012	0.278522	0.236224	0.175710
35	0.189800	0.164761	0.266055	0.251810	0.321646	0.132761	0.302562	0.139524	0.095184	0.179474	0.216690	0.048665	0.221773	0.216572	0.360714	0.331997	0.175944	0.138962	0.352910	0.284394	0.131831	0.166528	0.247209	0.176708	0.272695	0.138294	0.210238	0.083181	0.239812	0.161399	0.290733	0.300244	0.168172	0.148841	0.308905	0.179954	0.320599	0.330628	0.356854	0.353275	0.111788	0.110138	0.250764	0.306028	0.247353	0.373380	0.315939	0.181605	0.184623	0.360741	0.208294	0.096596	0.096330	0.276683	0.240055	0.164354	0.096458	0.283959	0.258891	0.099356	0.163952	0.124977	0.223921	0.228608	0.197717	0.426342	0.125706	0.200065	0.119055	0.279463	0.236383	0.182525
36	0.187227	0.166728	0.283324	0.260311	0.323139	0.132006	0.290131	0.173782	0.090310	0.178160	0.181845	0.052426	0.220368	0.224822	0.360462	0.329909	0.179329	0.189428	0.341693	0.278699	0.142883	0.172798	0.252897	0.174127	0.276681	0.140170	0.200114	0.087811	0.234836	0.166283	0.287606	0.300492	0.169847	0.149695	0.285046	0.181658	0.303262	0.312103	0.364081	0.362575	0.140828	0.100380	0.266125	0.328578	0.246706	0.371972	0.317396	0.179267	0.182163	0.358243	0.210403	0.096374	0.098162	0.298531	0.225123	0.158662	0.096645	0.285347	0.252660	0.101072	0.175075	0.124494	0.238932	0.249743	0.200947	0.428163	0.188152	0.229744	0.117616	0.273107	0.232994	0.217920
37	0.185099	0.168592	0.280119	0.265197	0.322160	0.127819	0.278701	0.205524	0.098171	0.177841	0.163973	0.076605	0.219595	0.228271	0.358493	0.327939	0.180639	0.213445	0.330495	0.262015	0.155422	0.181390	0.249627	0.174107	0.277997	0.142073	0.190698	0.092711	0.217084	0.169561	0.287784	0.306152	0.169999	0.147038	0.258637	0.182768	0.281826	0.274036	0.363610	0.363957	0.172505	0.096788	0.261533	0.333290	0.245825	0.369782	0.308045	0.198083	0.183636	0.377060	0.210248	0.095495	0.098633	0.309024	0.197757	0.151364	0.096400	0.284820	0.254803	0.109591	0.169197	0.114411	0.263659	0.290804	0.207263	0.428937	0.315248	0.257592	0.120731	0.257818	0.231284	0.254448
38	0.194436	0.160332	0.278944	0.285886	0.322682	0.130204	0.271822	0.221232	0.112160	0.185853	0.147752	0.084551	0.215554	0.229136	0.358028	0.331178	0.180174	0.212742	0.315563	0.242541	0.162773	0.184751	0.259410	0.174683	0.276796	0.146029	0.185840	0.089748	0.202096	0.169964	0.300296	0.312548	0.171922	0.142780	0.241648	0.184245	0.268317	0.248238	0.362604	0.365344	0.187423	0.095537	0.251725	0.331900	0.246429	0.365382	0.301227	0.200008	0.182734	0.417633	0.210616	0.095426	0.098018	0.318501	0.181505	0.145588	0.096527	0.281621	0.258806	0.110053	0.161732	0.107641	0.273986	0.319100	0.205038	0.428520	0.451759	0.270967	0.127868	0.227316	0.230455	0.281897
39	0.194163	0.158183	0.308576	0.299143	0.305985	0.129262	0.249575	0.223611	0.118359	0.189821	0.125994	0.087098	0.206294	0.225118	0.358364	0.341948	0.188493	0.214951	0.286624	0.225745	0.168518	0.189056	0.288476	0.177513	0.276880	0.142466	0.184606	0.084844	0.203061	0.174444	0.310799	0.318683	0.168956	0.135814	0.239953	0.184550	0.236196	0.242140	0.364526	0.374456	0.192814	0.094948	0.262111	0.331255	0.247056	0.354294	0.297876	0.207924	0.162623	0.418659	0.198836	0.093615	0.098275	0.328522	0.179907	0.166210	0.097186	0.278182	0.258693	0.111828	0.154880	0.111531	0.273145	0.329704	0.198155	0.423595	0.513859	0.271596	0.133169	0.229737	0.261268	0.292828
40	0.194425	0.155967	0.337366	0.298103	0.298607	0.127254	0.242478	0.224812	0.119384	0.190199	0.114718	0.094586	0.203707	0.220839	0.364660	0.351455	0.185377	0.220914	0.273705	0.207083	0.184249	0.200983	0.303946	0.194473	0.276899	0.143351	0.181609	0.082200	0.202989	0.180287	0.312143	0.343593	0.163402	0.133129	0.237308	0.189224	0.194833	0.243116	0.363156	0.371261	0.192613	0.108623	0.273026	0.331477	0.243790	0.324151	0.288897	0.223362	0.152294	0.389864	0.150243	0.096389	0.098282	0.337872	0.179437	0.221876	0.096865	0.271750	0.246866	0.112881	0.146772	0.120992	0.272875	0.327239	0.192462	0.410509	0.527690	0.277957	0.172224	0.268066	0.295548	0.295522
41	0.192190	0.158208	0.339751	0.273730	0.307213	0.122709	0.248501	0.243172	0.123205	0.191787	0.110222	0.099331	0.206658	0.218540	0.358655	0.359783	0.186468	0.235024	0.273542	0.196782	0.197509	0.208204	0.298252	0.203354	0.275139	0.147933	0.168344	0.088398	0.200021	0.185890	0.312810	0.381158	0.162779	0.133747	0.219531	0.200707	0.224219	0.250065	0.376284	0.338094	0.189967	0.274158	0.279378	0.333792	0.241482	0.287470	0.278505	0.235347	0.151086	0.364306	0.120261	0.121989	0.101392	0.345702	0.181405	0.265821	0.096684	0.258207	0.222862	0.110586	0.142425	0.131069	0.291536	0.323988	0.196328	0.430165	0.528657	0.306623	0.231250	0.292240	0.313923	0.292484
42	0.191186	0.172602	0.334593	0.243082	0.315934	0.129390	0.249132	0.290439	0.124366	0.192206	0.103943	0.101550	0.214228	0.216770	0.357405	0.371560	0.184800	0.239816	0.266202	0.220856	0.198568	0.203636	0.310580	0.202637	0.270863	0.143874	0.116709	0.091319	0.192387	0.191101	0.321911	0.400927	0.158402	0.131136	0.218505	0.210529	0.243589	0.258207	0.459166	0.295273	0.194710	0.473711	0.290671	0.347310	0.243866	0.269496	0.270708	0.243952	0.150348	0.364713	0.126005	0.216841	0.110052	0.342115	0.181021	0.290623	0.105089	0.261771	0.208066	0.106832	0.142138	0.137695	0.330474	0.325942	0.199157	0.444961	0.560366	0.338904	0.269889	0.325969	0.310516	0.294487
43	0.191424	0.189331	0.332452	0.222696	0.257660	0.162206	0.250869	0.371844	0.124051	0.197205	0.102844	0.102018	0.248840	0.210091	0.363140	0.381926	0.217760	0.261875	0.230323	0.294409	0.190295	0.201664	0.311888	0.205115	0.267090	0.155298	0.078653	0.090700	0.186067	0.190401	0.336792	0.392771	0.147354	0.126569	0.222690	0.207329	0.268999	0.223104	0.555738	0.268489	0.206527	0.504954	0.297779	0.357782	0.236166	0.275851	0.258939	0.251297	0.138936	0.354232	0.135122	0.256004	0.120321	0.338456	0.187386	0.317395	0.105822	0.274032	0.200819	0.108534	0.142488	0.138700	0.337406	0.325773	0.189490	0.420341	0.614190	0.367871	0.274675	0.330857	0.306007	0.334885
44	0.155076	0.180043	0.335688	0.221532	0.238831	0.174350	0.246504	0.389453	0.124108	0.195999	0.107300	0.130456	0.274639	0.198400	0.386740	0.384546	0.253343	0.316741	0.180176	0.352533	0.185036	0.203190	0.309454	0.211556	0.259420	0.169016	0.077642	0.093352	0.181050	0.188678	0.351038	0.362012	0.145627	0.134267	0.239037	0.205778	0.272869	0.194422	0.592713	0.261631	0.208721	0.505659	0.297734	0.363822	0.215706	0.258519	0.230385	0.260442	0.124311	0.332041	0.150494	0.275810	0.123423	0.335617	0.167448	0.334701	0.097709	0.272717	0.202378	0.110327	0.143360	0.139172	0.338534	0.327046	0.174442	0.367293	0.655567	0.385524	0.272319	0.354905	0.314742	0.386878
45	0.149603	0.173048	0.361843	0.227239	0.219667	0.168007	0.241939	0.467011	0.125081	0.188109	0.097069	0.186676	0.272249	0.191649	0.398067	0.376748	0.276463	0.343008	0.199149	0.389631	0.204931	0.193856	0.312317	0.208736	0.261400	0.190265	0.086830	0.099520	0.170324	0.197276	0.345295	0.331262	0.156167	0.144044	0.259374	0.209559	0.262829	0.194602	0.559756	0.260816	0.214027	0.535936	0.300681	0.370740	0.184544	0.237078	0.216921	0.263446	0.113880	0.315584	0.209283	0.311969	0.124630	0.335531	0.180627	0.333962	0.092359	0.236398	0.197977	0.107755	0.144186	0.141497	0.332269	0.329819	0.173291	0.330507	0.679079	0.393899	0.322840	0.421233	0.323937	0.402853
46	0.129648	0.175614	0.407283	0.232906	0.208894	0.173182	0.243890	0.556058	0.134011	0.180776	0.092436	0.204326	0.274770	0.206582	0.389797	0.362443	0.286738	0.353258	0.289144	0.411777	0.297555	0.193421	0.342528	0.202836	0.275237	0.205559	0.131066	0.105322	0.156645	0.196754	0.324447	0.307714	0.170684	0.153003	0.283928	0.214102	0.250035	0.210897	0.528418	0.254503	0.220208	0.547858	0.305093	0.379608	0.168671	0.229455	0.208385	0.261174	0.103289	0.299616	0.293973	0.332355	0.146007	0.337013	0.293949	0.349291	0.108494	0.259068	0.198406	0.128806	0.144074	0.141232	0.307809	0.321777	0.191562	0.308333	0.692961	0.395223	0.359270	0.437040	0.324676	0.395218
47	0.116151	0.172138	0.388498	0.230846	0.226492	0.207557	0.246210	0.632072	0.131280	0.169293	0.088583	0.208221	0.267105	0.228110	0.366865	0.339142	0.290678	0.357332	0.354917	0.400360	0.326972	0.192435	0.369189	0.191379	0.262773	0.215740	0.167898	0.111787	0.154545	0.191255	0.299487	0.296808	0.179964	0.171133	0.310253	0.227134	0.250135	0.227041	0.549580	0.246659	0.222153	0.551269	0.312910	0.381413	0.177469	0.207990	0.193267	0.257418	0.130743	0.295218	0.326860	0.332776	0.177851	0.340164	0.352041	0.382623	0.113156	0.275351	0.211077	0.177967	0.144877	0.149948	0.315130	0.305439	0.211706	0.335132	0.701743	0.392324	0.407302	0.432000	0.308026	0.396370
48	0.142363	0.183700	0.359316	0.214322	0.264796	0.254790	0.277172	0.672983	0.132692	0.177304	0.070386	0.207758	0.250857	0.235888	0.324646	0.285760	0.292823	0.363492	0.392246	0.387362	0.326906	0.199377	0.366622	0.193637	0.233478	0.239038	0.179516	0.110594	0.159780	0.193803	0.284747	0.297723	0.190690	0.184847	0.323291	0.232268	0.246562	0.231856	0.578041	0.245429	0.225112	0.556723	0.315999	0.372087	0.163807	0.188339	0.201787	0.250962	0.207574	0.306881	0.336418	0.332088	0.186615	0.338704	0.358301	0.407483	0.112211	0.265565	0.261450	0.217394	0.139099	0.167943	0.379313	0.293652	0.222018	0.398736	0.706969	0.397083	0.437315	0.431693	0.317243	0.416198
49	0.176778	0.248367	0.351821	0.266246	0.342886	0.305096	0.324901	0.675357	0.140223	0.237331	0.106875	0.206816	0.252601	0.224176	0.257889	0.265583	0.294807	0.367907	0.418051	0.391526	0.327517	0.213257	0.354355	0.211531	0.246296	0.252137	0.199851	0.107874	0.156564	0.194085	0.276040	0.315799	0.195501	0.194886	0.334436	0.234535	0.260876	0.240554	0.597863	0.224857	0.225781	0.585141	0.320179	0.363195	0.161946	0.179289	0.242320	0.280024	0.228277	0.309770	0.357430	0.338980	0.188387	0.339436	0.368614	0.422200	0.111160	0.277025	0.304071	0.259658	0.123778	0.175031	0.419962	0.293426	0.231444	0.424240	0.711522	0.413316	0.438027	0.435537	0.348360	0.441781
50	0.170527	0.289721	0.362201	0.319021	0.429262	0.337820	0.340299	0.665711	0.143403	0.248464	0.179061	0.206982	0.254690	0.234777	0.240861	0.369515	0.294994	0.370097	0.426626	0.410899	0.328875	0.253823	0.333024	0.229853	0.246473	0.254123	0.201687	0.102561	0.158498	0.192935	0.290071	0.347131	0.201438	0.205733	0.330958	0.261467	0.270625	0.248987	0.604799	0.224831	0.224279	0.592034	0.320102	0.351739	0.164356	0.181602	0.231152	0.379551	0.233647	0.313609	0.384314	0.373890	0.195926	0.336221	0.394550	0.435104	0.113144	0.298243	0.367941	0.292402	0.133735	0.184510	0.433051	0.282964	0.236853	0.424157	0.711519	0.427891	0.440094	0.435716	0.359350	0.436132
51	0.169936	0.309427	0.378470	0.320164	0.434282	0.335051	0.369749	0.681770	0.162830	0.249228	0.183964	0.218428	0.255765	0.266983	0.241691	0.428737	0.292848	0.367058	0.425575	0.442802	0.325569	0.254139	0.320991	0.260710	0.246803	0.250912	0.205121	0.100453	0.163645	0.208177	0.341694	0.385246	0.218509	0.244004	0.321402	0.322537	0.290317	0.275962	0.606088	0.218114	0.233591	0.600439	0.309000	0.328512	0.179325	0.211959	0.218157	0.458727	0.246814	0.307737	0.472797	0.427609	0.289427	0.314532	0.405365	0.440299	0.113865	0.317970	0.416390	0.298355	0.138403	0.204322	0.420132	0.248967	0.236704	0.421996	0.712009	0.418717	0.451742	0.435415	0.357899	0.416811
52	0.178386	0.309694	0.410321	0.310978	0.439277	0.342001	0.363904	0.712559	0.164245	0.248049	0.185491	0.270211	0.271312	0.269646	0.240049	0.443782	0.290635	0.360716	0.448349	0.474011	0.317641	0.248126	0.337386	0.282561	0.244058	0.249470	0.218310	0.096185	0.187346	0.269534	0.407041	0.395429	0.226944	0.247135	0.326378	0.369033	0.296943	0.282193	0.604946	0.196212	0.233021	0.606526	0.272668	0.296099	0.190338	0.223406	0.218235	0.491079	0.247569	0.254191	0.535473	0.464999	0.341217	0.294559	0.409146	0.441281	0.119100	0.332605	0.440070	0.293335	0.137764	0.222471	0.419027	0.201870	0.235479	0.422072	0.714603	0.398880	0.466830	0.431017	0.355899	0.395724
53	0.186831	0.321990	0.446254	0.310486	0.461004	0.377058	0.360286	0.753257	0.159222	0.246288	0.215136	0.331810	0.289505	0.279620	0.257058	0.439354	0.288510	0.341372	0.475506	0.501903	0.313861	0.244613	0.358933	0.287366	0.244355	0.248361	0.274233	0.138867	0.237760	0.302653	0.446476	0.394464	0.228097	0.249872	0.349706	0.386903	0.308767	0.305954	0.614510	0.166516	0.219839	0.607528	0.250203	0.280134	0.197622	0.223752	0.243047	0.503411	0.285038	0.213678	0.549399	0.484130	0.358851	0.284892	0.436926	0.440859	0.139929	0.334337	0.441015	0.292348	0.137721	0.220767	0.434451	0.170563	0.231764	0.443685	0.722369	0.383974	0.477711	0.422400	0.344703	0.392056
54	0.198585	0.334837	0.445416	0.327981	0.486626	0.405105	0.369386	0.767677	0.157595	0.245609	0.255714	0.348328	0.286616	0.279561	0.307490	0.437090	0.288546	0.322658	0.483449	0.525234	0.320444	0.244143	0.345318	0.288762	0.247935	0.247305	0.300977	0.228669	0.277500	0.317298	0.452053	0.370810	0.229497	0.270231	0.393325	0.387603	0.321281	0.347427	0.620514	0.157332	0.199448	0.607818	0.249332	0.292814	0.204029	0.227187	0.282489	0.498764	0.290699	0.208286	0.549139	0.487665	0.403913	0.292048	0.474489	0.442414	0.175513	0.342932	0.440290	0.300946	0.139978	0.220257	0.444597	0.159978	0.246804	0.522705	0.703058	0.373367	0.470254	0.402213	0.329915	0.394859
55	0.213515	0.328834	0.452883	0.337873	0.495662	0.411765	0.419633	0.756144	0.154756	0.248465	0.262239	0.351018	0.284342	0.280719	0.320324	0.447503	0.289034	0.318782	0.482658	0.540093	0.322476	0.237190	0.325862	0.287114	0.259066	0.242211	0.305785	0.290035	0.282748	0.315043	0.454415	0.339847	0.237832	0.283408	0.430305	0.388864	0.302937	0.351704	0.608237	0.149013	0.193402	0.618911	0.243491	0.316410	0.207069	0.242252	0.300964	0.510903	0.294820	0.240725	0.549086	0.486044	0.437543	0.299447	0.504052	0.446567	0.193521	0.343102	0.442953	0.325151	0.155379	0.215308	0.441522	0.159338	0.252236	0.554148	0.646881	0.372271	0.440912	0.380088	0.345311	0.397235
56	0.232911	0.321595	0.458392	0.337020	0.498979	0.413952	0.456819	0.731717	0.178398	0.250578	0.277368	0.389500	0.303287	0.310340	0.321126	0.447262	0.300436	0.368002	0.490095	0.548144	0.319127	0.231245	0.324357	0.296817	0.272784	0.241443	0.307144	0.310997	0.280673	0.319793	0.468592	0.332071	0.259976	0.286029	0.461840	0.387476	0.298538	0.345467	0.540531	0.137549	0.196497	0.639080	0.217185	0.327293	0.210118	0.265111	0.303477	0.544525	0.306522	0.266222	0.548212	0.457757	0.465647	0.319601	0.511518	0.437580	0.197028	0.342093	0.441329	0.361844	0.168205	0.213673	0.414195	0.153216	0.251246	0.549253	0.614034	0.376250	0.475893	0.364917	0.373567	0.397336
57	0.243356	0.324212	0.451913	0.334975	0.505883	0.406521	0.474678	0.719337	0.219766	0.261030	0.308698	0.462937	0.331136	0.360574	0.332847	0.436611	0.319771	0.449550	0.515346	0.550349	0.317484	0.253621	0.312802	0.324365	0.289907	0.264150	0.311145	0.311683	0.278038	0.327764	0.471486	0.337848	0.301478	0.298356	0.468051	0.386433	0.290210	0.346425	0.437992	0.137781	0.199921	0.640664	0.204431	0.336210	0.220147	0.290922	0.305751	0.575006	0.318651	0.273235	0.546247	0.430058	0.507533	0.373097	0.513893	0.410240	0.196613	0.339262	0.440140	0.387387	0.170155	0.222425	0.402496	0.155485	0.254705	0.537276	0.604075	0.372823	0.488836	0.373790	0.382078	0.376893
58	0.250127	0.329361	0.421446	0.331497	0.514015	0.404538	0.496280	0.690567	0.229679	0.262162	0.336802	0.546413	0.305060	0.363817	0.325458	0.427721	0.355105	0.487879	0.543335	0.549887	0.347200	0.281062	0.309566	0.352651	0.316158	0.314695	0.318641	0.334301	0.280797	0.333440	0.455620	0.348532	0.317178	0.308339	0.466859	0.392978	0.320242	0.345898	0.396653	0.150095	0.200601	0.571434	0.207707	0.351794	0.231065	0.296316	0.320867	0.584437	0.332282	0.267353	0.551485	0.417228	0.523838	0.414984	0.513383	0.386780	0.192884	0.319254	0.468009	0.402475	0.176780	0.221780	0.400798	0.157373	0.250141	0.504866	0.607620	0.349734	0.507304	0.363000	0.380030	0.321866
59	0.262115	0.347671	0.376948	0.335467	0.516503	0.404424	0.516100	0.624474	0.285378	0.292373	0.400550	0.590640	0.300419	0.372802	0.296525	0.423956	0.360901	0.489779	0.551416	0.546670	0.444349	0.344190	0.342469	0.369595	0.325259	0.322995	0.329287	0.385972	0.289904	0.325119	0.447173	0.354759	0.314811	0.302958	0.466917	0.394004	0.340489	0.329506	0.396653	0.194561	0.204043	0.445617	0.198126	0.357011	0.232680	0.311455	0.322082	0.585010	0.336646	0.269266	0.546439	0.394130	0.525481	0.414066	0.515464	0.365573	0.201754	0.311907	0.497620	0.411611	0.200649	0.220409	0.401398	0.139428	0.250277	0.492086	0.575954	0.321698	0.498505	0.279708	0.368801	0.289817
60	0.438012	0.430528	0.368280	0.349053	0.520840	0.394155	0.516412	0.545586	0.352646	0.306536	0.500950	0.608001	0.314186	0.383664	0.286390	0.427159	0.351784	0.491646	0.551552	0.530317	0.501846	0.370287	0.353070	0.374537	0.315696	0.324359	0.334609	0.433764	0.305730	0.330024	0.444302	0.360062	0.315971	0.302593	0.463961	0.386902	0.386671	0.309149	0.380381	0.239848	0.193889	0.424178	0.191349	0.348077	0.246235	0.324154	0.321378	0.586797	0.341169	0.270537	0.509562	0.369328	0.526607	0.416319	0.516800	0.334702	0.228167	0.313192	0.514161	0.415417	0.220254	0.221044	0.401361	0.123123	0.257269	0.492149	0.518750	0.291402	0.477510	0.211580	0.357932	0.284760
61	0.445490	0.431784	0.373260	0.350540	0.510373	0.372459	0.522852	0.473330	0.388551	0.321545	0.562878	0.619348	0.306901	0.375145	0.307646	0.433765	0.348031	0.522322	0.550510	0.499334	0.491143	0.371171	0.324682	0.371311	0.298798	0.315737	0.323107	0.456014	0.302652	0.333107	0.445372	0.364405	0.310355	0.298208	0.450020	0.377102	0.417555	0.295231	0.334658	0.265690	0.192747	0.422170	0.192176	0.341393	0.284258	0.356077	0.321886	0.587518	0.339647	0.273789	0.486255	0.365795	0.527658	0.419798	0.522029	0.315595	0.245452	0.308731	0.516192	0.415150	0.221634	0.224169	0.389625	0.122798	0.265602	0.492039	0.468325	0.271476	0.451256	0.206004	0.364660	0.279655
62	0.443645	0.406822	0.388218	0.300045	0.478228	0.379834	0.506275	0.438834	0.421393	0.360968	0.596659	0.626377	0.299091	0.356852	0.337532	0.444264	0.331933	0.550614	0.555318	0.484880	0.471937	0.369456	0.283260	0.370048	0.281854	0.322762	0.306332	0.459242	0.301154	0.332204	0.446397	0.363334	0.306057	0.296034	0.433961	0.377076	0.414882	0.292405	0.277384	0.274452	0.185927	0.377499	0.193712	0.339359	0.351979	0.372691	0.334578	0.587392	0.300768	0.268748	0.490783	0.365798	0.541026	0.424033	0.501597	0.314645	0.245384	0.260510	0.516189	0.406149	0.243079	0.211876	0.331787	0.122599	0.262009	0.492492	0.436285	0.259488	0.406692	0.200366	0.358694	0.251453
63	0.470450	0.380983	0.402362	0.249468	0.429535	0.371138	0.475557	0.435202	0.466808	0.340198	0.624888	0.628472	0.315662	0.375443	0.347633	0.450349	0.319129	0.543470	0.531194	0.473783	0.488562	0.367125	0.275324	0.367529	0.252965	0.328202	0.296501	0.459139	0.304141	0.357850	0.445377	0.344597	0.294533	0.300116	0.426717	0.382854	0.406552	0.285932	0.223327	0.268607	0.178404	0.366906	0.190482	0.341932	0.405469	0.371842	0.339627	0.586326	0.284333	0.277157	0.477982	0.363144	0.570615	0.426494	0.438788	0.292123	0.247179	0.246186	0.506052	0.387690	0.251765	0.216400	0.270535	0.121349	0.242088	0.484221	0.413882	0.256144	0.412663	0.191737	0.328804	0.197518
64	0.501316	0.370089	0.382749	0.227788	0.478460	0.377732	0.455677	0.420350	0.526721	0.315293	0.615344	0.628621	0.340266	0.430347	0.343656	0.421046	0.318217	0.547889	0.485171	0.472712	0.504283	0.364599	0.282264	0.362220	0.231676	0.319163	0.285068	0.459735	0.304817	0.390054	0.433828	0.309975	0.294645	0.293900	0.424025	0.380115	0.402651	0.291368	0.255711	0.262064	0.174397	0.360450	0.178461	0.347833	0.423934	0.389252	0.326642	0.561104	0.288006	0.279959	0.460107	0.337159	0.598758	0.432092	0.403001	0.245547	0.269412	0.285084	0.478455	0.367568	0.266304	0.228433	0.228967	0.119800	0.222497	0.451769	0.399865	0.255108	0.410767	0.195063	0.311147	0.166945
65	0.554579	0.369906	0.307501	0.226054	0.609871	0.447365	0.454996	0.381443	0.573141	0.316514	0.611773	0.629066	0.371115	0.425467	0.340699	0.325424	0.372591	0.567486	0.448446	0.475577	0.523256	0.345311	0.284127	0.361395	0.233588	0.317447	0.279406	0.459675	0.296226	0.374260	0.386596	0.270936	0.288377	0.277611	0.434376	0.350460	0.392290	0.304198	0.287010	0.263276	0.168204	0.344180	0.172570	0.360792	0.422939	0.398716	0.323322	0.493088	0.295250	0.275950	0.390510	0.272081	0.622802	0.446623	0.400072	0.205922	0.267612	0.280642	0.446550	0.342496	0.261213	0.222181	0.221111	0.112649	0.212391	0.397870	0.388905	0.242499	0.401946	0.196323	0.311419	0.159302
66	0.590032	0.356667	0.279151	0.210888	0.737005	0.540637	0.472855	0.325527	0.571636	0.317198	0.631233	0.621509	0.381665	0.408816	0.343462	0.262211	0.400962	0.580324	0.422628	0.474787	0.579414	0.354700	0.287603	0.347446	0.228502	0.332028	0.277527	0.459693	0.275486	0.329024	0.305444	0.267235	0.277828	0.254413	0.432944	0.291703	0.387639	0.336191	0.288157	0.267623	0.165729	0.298454	0.166495	0.372079	0.425860	0.396539	0.323328	0.433583	0.295217	0.287430	0.276455	0.186095	0.623189	0.446133	0.389357	0.173995	0.268607	0.260833	0.391848	0.317498	0.262472	0.195719	0.209804	0.098578	0.206372	0.388087	0.382499	0.210700	0.384230	0.199064	0.310969	0.157580
67	0.589236	0.385775	0.293825	0.182597	0.795554	0.640602	0.508196	0.287245	0.589284	0.320987	0.656011	0.603159	0.375101	0.403928	0.343119	0.242695	0.406094	0.580764	0.409282	0.467027	0.667074	0.369961	0.287578	0.329009	0.226852	0.346551	0.270869	0.463453	0.234993	0.301188	0.248998	0.263513	0.279037	0.253150	0.424758	0.234670	0.394256	0.331174	0.264010	0.269847	0.157449	0.286696	0.184037	0.378703	0.460470	0.404429	0.322199	0.403470	0.271767	0.293186	0.221387	0.110511	0.618024	0.445557	0.365525	0.141730	0.292482	0.234729	0.347414	0.313774	0.262473	0.200342	0.172741	0.092018	0.220708	0.401213	0.386600	0.182581	0.362571	0.221287	0.309500	0.145114
68	0.589799	0.403700	0.321062	0.177542	0.786138	0.703650	0.510121	0.287110	0.719092	0.376835	0.663600	0.603117	0.373517	0.400557	0.320782	0.241314	0.414486	0.580789	0.417545	0.446540	0.670327	0.374170	0.263642	0.321728	0.232100	0.349715	0.218069	0.461364	0.197507	0.285316	0.247425	0.263022	0.287473	0.245153	0.398896	0.217218	0.401385	0.316384	0.258906	0.268079	0.142581	0.267260	0.217509	0.379633	0.464722	0.405559	0.305950	0.402886	0.257921	0.295971	0.217951	0.073753	0.574023	0.439593	0.364036	0.127145	0.299258	0.218274	0.324999	0.315858	0.267639	0.207963	0.157232	0.087906	0.271786	0.442690	0.390267	0.198965	0.361525	0.224598	0.297380	0.121935
69	0.606153	0.407749	0.344869	0.190044	0.805550	0.699234	0.476665	0.284334	0.878456	0.406532	0.675064	0.616751	0.377511	0.410061	0.271144	0.219382	0.441926	0.592299	0.426664	0.418361	0.677928	0.396647	0.255348	0.320672	0.230439	0.355649	0.166175	0.432024	0.217878	0.283127	0.237094	0.249699	0.289767	0.226010	0.354541	0.215781	0.405715	0.310176	0.257800	0.263732	0.134301	0.253844	0.239148	0.381542	0.469564	0.406368	0.275781	0.399942	0.257606	0.275904	0.219025	0.084289	0.554262	0.438384	0.363128	0.122255	0.288021	0.213606	0.323844	0.315160	0.259913	0.222918	0.151841	0.086909	0.280073	0.449230	0.380764	0.218240	0.361280	0.246403	0.257583	0.109064
70	0.610650	0.401134	0.346775	0.200280	0.994694	0.733188	0.455794	0.268009	0.962790	0.409142	0.669314	0.604832	0.393746	0.425212	0.253900	0.186484	0.456784	0.601195	0.421493	0.387525	0.707385	0.459424	0.256457	0.314695	0.222547	0.369895	0.153148	0.391306	0.238627	0.276657	0.189574	0.227445	0.283248	0.213889	0.292978	0.203371	0.399783	0.307520	0.258182	0.258219	0.126539	0.251254	0.235056	0.382638	0.471504	0.403097	0.266353	0.366813	0.251613	0.243190	0.221623	0.093331	0.537393	0.429150	0.326500	0.121859	0.295595	0.206003	0.320266	0.304896	0.251541	0.240003	0.148157	0.087382	0.279710	0.419892	0.327205	0.227034	0.315851	0.247587	0.201914	0.106296
71	0.610957	0.402037	0.346359	0.205260	1.057540	0.750725	0.437588	0.265091	0.957032	0.423608	0.663473	0.560119	0.376916	0.396744	0.250369	0.180401	0.458282	0.605323	0.419381	0.354235	0.713998	0.498294	0.257215	0.299573	0.205775	0.388821	0.149263	0.368787	0.291179	0.280325	0.155910	0.209708	0.252339	0.207667	0.253472	0.198658	0.389996	0.305990	0.251611	0.256861	0.124887	0.252317	0.234695	0.373918	0.478114	0.407874	0.264753	0.298340	0.266896	0.227711	0.226311	0.101686	0.507667	0.418700	0.268069	0.110519	0.302846	0.207330	0.317466	0.273014	0.253131	0.230496	0.148161	0.086319	0.258929	0.311422	0.249951	0.221959	0.239563	0.210485	0.182699	0.108545
72	0.603584	0.385640	0.345533	0.192225	1.061609	0.750420	0.410231	0.266392	0.958540	0.484052	0.641202	0.479679	0.352503	0.367919	0.235354	0.183555	0.459530	0.605979	0.417746	0.328619	0.714268	0.488561	0.263947	0.271450	0.185136	0.393257	0.152215	0.370110	0.287783	0.270864	0.146081	0.193915	0.208282	0.188884	0.248993	0.193249	0.363530	0.307010	0.263601	0.249489	0.117475	0.214499	0.234984	0.358095	0.477285	0.389841	0.245362	0.242272	0.250343	0.225498	0.213444	0.105940	0.482536	0.404114	0.213022	0.087152	0.309482	0.226020	0.317471	0.223612	0.265752	0.266235	0.169624	0.077873	0.254241	0.273788	0.199978	0.218226	0.217262	0.204247	0.180154	0.102927
73	0.485758	0.309005	0.356116	0.164536	1.062004	0.752655	0.397646	0.268363	0.951359	0.503621	0.624418	0.393318	0.350295	0.370355	0.231043	0.184205	0.461393	0.595863	0.414335	0.311297	0.705040	0.475817	0.273287	0.231432	0.148611	0.380234	0.154897	0.361978	0.311547	0.275689	0.156265	0.185797	0.197210	0.176182	0.243007	0.181174	0.360050	0.310671	0.384676	0.229431	0.102100	0.157896	0.236811	0.350204	0.499699	0.387889	0.227051	0.215909	0.238943	0.226048	0.179913	0.106161	0.457519	0.378932	0.195584	0.085314	0.310322	0.239458	0.297836	0.182718	0.262534	0.278433	0.187499	0.068698	0.252065	0.271832	0.184216	0.214327	0.162421	0.203994	0.183011	0.087539
74	0.480413	0.309470	0.362803	0.139488	1.063079	0.765194	0.389511	0.266264	0.934571	0.503610	0.548207	0.342709	0.342206	0.365502	0.233147	0.181745	0.448264	0.540875	0.392156	0.305390	0.656372	0.434693	0.247744	0.191028	0.121877	0.376940	0.138632	0.315758	0.376388	0.276060	0.172524	0.177211	0.206776	0.174436	0.232269	0.176179	0.300754	0.310373	0.471131	0.215359	0.094963	0.138390	0.232309	0.339912	0.499388	0.373690	0.226564	0.197713	0.235379	0.231472	0.169548	0.106520	0.411508	0.301310	0.190007	0.088085	0.307802	0.236250	0.234283	0.152411	0.240255	0.283488	0.191776	0.074091	0.248840	0.272813	0.183411	0.209210	0.127476	0.205664	0.182188	0.077461
75	0.476621	0.302400	0.346169	0.132811	1.066844	0.776289	0.361856	0.264238	0.917563	0.497236	0.473730	0.314511	0.331192	0.363738	0.226403	0.168657	0.426372	0.485284	0.349998	0.305520	0.602540	0.407034	0.226427	0.154760	0.174863	0.373895	0.119290	0.240214	0.385263	0.273711	0.166062	0.166648	0.219409	0.153848	0.224197	0.177526	0.277106	0.311444	0.476345	0.198003	0.092047	0.138372	0.232872	0.317651	0.488845	0.358224	0.225194	0.177275	0.236249	0.269952	0.147369	0.106221	0.397386	0.242659	0.189442	0.081109	0.296351	0.239606	0.147888	0.134948	0.239474	0.285030	0.190853	0.086035	0.251185	0.276940	0.159388	0.207183	0.116568	0.206468	0.178454	0.074507
76	0.452301	0.304485	0.317494	0.134333	1.066605	0.780902	0.345438	0.267240	0.918190	0.485768	0.431494	0.295826	0.344600	0.370018	0.196479	0.148866	0.398314	0.463091	0.320708	0.304676	0.570813	0.406291	0.233642	0.134191	0.192339	0.372741	0.117283	0.181164	0.391140	0.273333	0.152825	0.164354	0.221494	0.151386	0.219575	0.172003	0.301747	0.321075	0.477025	0.193879	0.061451	0.113274	0.249770	0.294894	0.447012	0.309021	0.222500	0.166183	0.232833	0.273858	0.124331	0.106124	0.391402	0.239725	0.181305	0.079180	0.275189	0.240233	0.079129	0.140294	0.219295	0.289321	0.189443	0.093357	0.260281	0.287713	0.159242	0.211159	0.112357	0.207814	0.165357	0.072351
77	0.426296	0.321245	0.329929	0.136908	1.046136	0.826619	0.335246	0.269135	0.895141	0.482870	0.384741	0.288933	0.345528	0.365362	0.149605	0.115431	0.395404	0.461520	0.317277	0.293919	0.564818	0.411039	0.237684	0.131010	0.194000	0.386800	0.117621	0.160836	0.393977	0.228265	0.154576	0.168374	0.228611	0.145347	0.201006	0.150510	0.334409	0.333350	0.477169	0.209471	0.055914	0.117442	0.266618	0.290956	0.387405	0.300485	0.194923	0.163986	0.223323	0.259709	0.151047	0.106657	0.385699	0.233996	0.171830	0.083605	0.260648	0.238359	0.070209	0.152619	0.209062	0.281917	0.192495	0.093350	0.258841	0.309730	0.178508	0.218664	0.072259	0.202293	0.149429	0.070104
78	0.365581	0.337285	0.355006	0.145197	0.995383	0.837526	0.327098	0.261466	0.871171	0.518391	0.367225	0.288147	0.331116	0.310778	0.144923	0.099158	0.370693	0.429712	0.317835	0.273810	0.547700	0.410387	0.230958	0.130022	0.193353	0.367265	0.115140	0.160016	0.402247	0.177873	0.151686	0.168082	0.254274	0.128478	0.182988	0.135472	0.357027	0.327462	0.506103	0.213085	0.052675	0.117881	0.274497	0.289714	0.352667	0.289036	0.151295	0.164201	0.213483	0.245840	0.160941	0.109094	0.382932	0.216767	0.153213	0.085506	0.255459	0.238430	0.064737	0.162087	0.167175	0.265091	0.212523	0.093969	0.252762	0.325074	0.180520	0.225416	0.068321	0.197501	0.146768	0.069612
79	0.315679	0.331053	0.361577	0.148140	0.903073	0.790347	0.321422	0.234461	0.831885	0.532212	0.364954	0.285655	0.323171	0.242871	0.149791	0.129839	0.356985	0.333359	0.314273	0.259635	0.532697	0.405949	0.221340	0.119793	0.193596	0.363279	0.120017	0.157960	0.403444	0.178543	0.147893	0.140191	0.305024	0.135580	0.157601	0.132958	0.365368	0.302175	0.605833	0.220932	0.049019	0.113991	0.269331	0.282328	0.358204	0.264684	0.128397	0.164681	0.183259	0.246094	0.161412	0.139401	0.357982	0.194699	0.138482	0.081803	0.251308	0.231372	0.058620	0.173015	0.173593	0.264283	0.234325	0.094150	0.250462	0.331829	0.180726	0.235372	0.078966	0.193921	0.153296	0.071264
80	0.313361	0.281914	0.347974	0.148311	0.810600	0.702253	0.317039	0.187893	0.825161	0.532289	0.342991	0.271969	0.304532	0.233859	0.145208	0.187010	0.354323	0.303641	0.294794	0.248858	0.511137	0.396390	0.217581	0.088924	0.205591	0.362270	0.139110	0.161446	0.403548	0.177986	0.146491	0.111833	0.335781	0.131920	0.164708	0.132968	0.368640	0.265096	0.673016	0.248735	0.048986	0.113126	0.264566	0.266349	0.363673	0.247832	0.119617	0.159151	0.171574	0.229955	0.168176	0.178750	0.294891	0.187298	0.136900	0.078845	0.237070	0.184171	0.060114	0.172911	0.178625	0.282745	0.249134	0.093899	0.250429	0.329908	0.181232	0.245403	0.084825	0.214653	0.154727	0.076626
81	0.284704	0.258136	0.310684	0.140247	0.786367	0.589489	0.298545	0.149132	0.821408	0.531220	0.290936	0.249728	0.293657	0.239178	0.141761	0.226325	0.354295	0.297434	0.293372	0.244491	0.474943	0.386630	0.218672	0.054363	0.206180	0.354557	0.168081	0.170620	0.413210	0.196054	0.134804	0.101432	0.337195	0.125785	0.179707	0.132620	0.376453	0.244524	0.678146	0.267631	0.048320	0.113139	0.267854	0.252945	0.345591	0.226620	0.134210	0.136614	0.170820	0.220471	0.185909	0.197282	0.207525	0.177018	0.142077	0.077604	0.245655	0.195002	0.079777	0.171371	0.195523	0.308634	0.251306	0.088879	0.252318	0.331668	0.179738	0.251832	0.086169	0.203117	0.164519	0.083336
82	0.248819	0.253781	0.336741	0.136516	0.777764	0.570611	0.269234	0.137595	0.743256	0.508717	0.232435	0.218932	0.281618	0.242579	0.151311	0.246410	0.330579	0.267817	0.296946	0.247049	0.297179	0.368793	0.216566	0.037452	0.206381	0.338856	0.188928	0.172646	0.431522	0.228285	0.141288	0.101156	0.329966	0.123273	0.187562	0.134420	0.380355	0.216669	0.676379	0.274641	0.045566	0.112944	0.271768	0.248181	0.292314	0.212086	0.161960	0.109495	0.171511	0.210098	0.200649	0.205302	0.138441	0.162156	0.143482	0.077591	0.243583	0.208716	0.096237	0.176807	0.202099	0.326186	0.243628	0.085761	0.251290	0.329689	0.178420	0.256200	0.091923	0.219170	0.169762	0.083918
83	0.244119	0.250070	0.389059	0.156207	0.668195	0.610889	0.266031	0.137884	0.562899	0.496674	0.175062	0.172136	0.274062	0.245201	0.166146	0.248294	0.254185	0.216073	0.301066	0.254446	0.293671	0.370594	0.207299	0.039882	0.205367	0.345239	0.204518	0.165770	0.435075	0.285777	0.141305	0.100807	0.322420	0.119818	0.192484	0.140176	0.379667	0.211900	0.676890	0.284391	0.044107	0.122838	0.269504	0.252944	0.286514	0.211279	0.158314	0.104383	0.176097	0.212194	0.201176	0.203529	0.132513	0.165065	0.141970	0.077521	0.210661	0.207405	0.114704	0.177984	0.202743	0.334677	0.242388	0.089175	0.244661	0.331539	0.174240	0.257101	0.117249	0.259094	0.171889	0.080106
84	0.240708	0.231995	0.411645	0.181712	0.307784	0.850702	0.300231	0.137042	0.310383	0.516873	0.157866	0.150933	0.262505	0.229673	0.184558	0.265112	0.248766	0.196781	0.295202	0.274477	0.288419	0.356522	0.205659	0.052328	0.204663	0.343427	0.211531	0.158073	0.439583	0.316342	0.153041	0.104227	0.338243	0.122772	0.216221	0.154469	0.456313	0.238433	0.677412	0.296061	0.050057	0.146214	0.255014	0.253699	0.274259	0.201450	0.157640	0.116035	0.176154	0.214225	0.200169	0.204592	0.128798	0.163190	0.134403	0.077602	0.202815	0.207033	0.133043	0.174537	0.201225	0.317747	0.258481	0.099893	0.218438	0.307022	0.164514	0.247853	0.192806	0.324953	0.181177	0.074047
85	0.238924	0.210234	0.412130	0.197328	0.283323	0.936059	0.354489	0.142750	0.290451	0.512394	0.157731	0.148425	0.255092	0.237618	0.214873	0.307733	0.228061	0.196793	0.285292	0.277513	0.187859	0.285894	0.216471	0.071633	0.204062	0.336616	0.213235	0.152471	0.416599	0.308179	0.167473	0.106043	0.348313	0.128505	0.219037	0.167676	0.500107	0.260017	0.683414	0.305059	0.052986	0.159217	0.235859	0.255591	0.263822	0.176927	0.166300	0.118739	0.119014	0.216307	0.195820	0.226072	0.128082	0.158282	0.114623	0.077717	0.200371	0.207483	0.135272	0.172346	0.199953	0.316514	0.275271	0.111592	0.153100	0.261050	0.151536	0.227547	0.298943	0.369445	0.182572	0.069681
86	0.236348	0.186268	0.401955	0.206780	0.272526	0.953209	0.395357	0.148968	0.292231	0.460969	0.154096	0.147622	0.283408	0.349524	0.237415	0.362314	0.215306	0.180916	0.267086	0.268573	0.127462	0.177775	0.222381	0.079682	0.202577	0.319199	0.213823	0.152769	0.416276	0.311090	0.170628	0.101760	0.349667	0.129183	0.219931	0.170287	0.514809	0.264476	0.677744	0.306973	0.053949	0.168904	0.241570	0.250255	0.254619	0.156716	0.179249	0.118649	0.113372	0.210430	0.193316	0.261604	0.125501	0.156115	0.107571	0.077820	0.137867	0.207164	0.140876	0.169528	0.180239	0.296520	0.274490	0.121006	0.145344	0.252032	0.137711	0.210238	0.391121	0.383156	0.180221	0.067042
87	0.232527	0.167020	0.389192	0.213443	0.266412	0.986259	0.417226	0.160739	0.295673	0.442470	0.148939	0.141662	0.330436	0.440106	0.238794	0.398175	0.137088	0.131858	0.222838	0.270996	0.123324	0.172905	0.215165	0.080026	0.203373	0.300162	0.218254	0.144617	0.431923	0.300832	0.159054	0.097190	0.350937	0.129260	0.231575	0.173542	0.571148	0.260977	0.610950	0.294595	0.052311	0.172840	0.247497	0.237590	0.246590	0.213234	0.191846	0.120597	0.113880	0.203547	0.198974	0.299686	0.124388	0.161747	0.106065	0.078476	0.122188	0.213443	0.143824	0.167739	0.163876	0.290006	0.272223	0.127235	0.141199	0.254024	0.129290	0.197494	0.435359	0.383330	0.176914	0.064768
88	0.227043	0.164778	0.386345	0.215445	0.314188	0.985090	0.422523	0.194461	0.292612	0.470544	0.149032	0.132854	0.405718	0.474737	0.253474	0.408375	0.126504	0.101408	0.170445	0.285310	0.119411	0.176157	0.202936	0.081815	0.195721	0.274804	0.222799	0.131742	0.417877	0.294190	0.142448	0.092798	0.349752	0.128082	0.267719	0.169996	0.586499	0.262444	0.561842	0.273047	0.044871	0.172906	0.245832	0.228454	0.225323	0.207561	0.194499	0.122747	0.131908	0.202370	0.198646	0.325587	0.114657	0.187680	0.105150	0.079303	0.105591	0.231376	0.144364	0.173201	0.159536	0.294752	0.274876	0.127712	0.139992	0.253943	0.129181	0.189258	0.440499	0.392084	0.176576	0.062035
89	0.199085	0.154666	0.383344	0.214282	0.347099	0.984924	0.422277	0.216110	0.287961	0.503513	0.170025	0.131525	0.421858	0.478780	0.274161	0.411150	0.127884	0.081320	0.156791	0.302678	0.117089	0.177079	0.210033	0.085758	0.196675	0.238572	0.220256	0.120995	0.409857	0.292778	0.144603	0.091955	0.338929	0.129497	0.281716	0.169101	0.657606	0.285049	0.562832	0.264870	0.041321	0.170653	0.249832	0.223691	0.226303	0.208391	0.201622	0.127675	0.134928	0.172737	0.210399	0.339367	0.115280	0.240314	0.107479	0.079642	0.118067	0.299713	0.147262	0.187208	0.161820	0.298449	0.276979	0.122421	0.139143	0.253584	0.124247	0.183974	0.558523	0.493550	0.171153	0.063656
90	0.170547	0.112836	0.365482	0.211714	0.372550	0.962165	0.421102	0.221274	0.241809	0.533976	0.221871	0.193048	0.422757	0.485943	0.278354	0.411806	0.106317	0.089507	0.161807	0.313899	0.118198	0.164272	0.224529	0.093494	0.161416	0.228487	0.219151	0.117680	0.418227	0.305773	0.145857	0.086640	0.322533	0.130453	0.280165	0.181134	0.652173	0.277933	0.562673	0.257929	0.042371	0.168606	0.256948	0.219912	0.226149	0.275972	0.218661	0.131044	0.139637	0.144204	0.220002	0.344710	0.117750	0.279549	0.115505	0.075824	0.134798	0.335929	0.147861	0.201094	0.181923	0.347889	0.272259	0.114524	0.139346	0.254336	0.120140	0.181952	0.627520	0.544762	0.159471	0.064587
91	0.160558	0.075297	0.332009	0.206269	0.422709	0.924748	0.420338	0.218924	0.235593	0.573492	0.247783	0.308144	0.421093	0.495981	0.277089	0.411593	0.091192	0.102335	0.162200	0.322570	0.125001	0.166461	0.222083	0.104878	0.137920	0.230815	0.218794	0.122416	0.415541	0.324982	0.147301	0.077293	0.315784	0.135343	0.295538	0.196925	0.638433	0.264664	0.551224	0.244397	0.041764	0.165737	0.267508	0.215556	0.226887	0.305524	0.230558	0.132672	0.145806	0.171760	0.195457	0.346013	0.122105	0.316225	0.129456	0.067630	0.140372	0.332902	0.148900	0.206294	0.188903	0.402257	0.271474	0.115696	0.139047	0.255249	0.119240	0.183965	0.632407	0.568334	0.155560	0.065288
92	0.159092	0.064192	0.311542	0.205790	0.439384	0.912357	0.419178	0.216019	0.222463	0.548902	0.243918	0.357153	0.449983	0.506815	0.273263	0.409939	0.090911	0.115365	0.161451	0.328557	0.136832	0.168545	0.217623	0.114685	0.134113	0.200026	0.217408	0.138368	0.405994	0.330644	0.149412	0.065424	0.312511	0.157320	0.322049	0.217007	0.622429	0.253026	0.488834	0.242382	0.044426	0.161577	0.257718	0.207530	0.229536	0.330995	0.230401	0.134102	0.144276	0.178544	0.181157	0.345549	0.143570	0.352482	0.147036	0.059617	0.142981	0.359048	0.152812	0.206045	0.187275	0.420963	0.263539	0.118467	0.133537	0.256324	0.117448	0.183716	0.640768	0.608820	0.150637	0.064085
93	0.162280	0.066618	0.312994	0.205001	0.430880	0.915129	0.404396	0.214859	0.225233	0.528911	0.263421	0.372474	0.477062	0.669230	0.268804	0.406012	0.095667	0.127277	0.156978	0.330388	0.148429	0.164273	0.216960	0.120357	0.141505	0.186135	0.224567	0.155691	0.405750	0.329589	0.148728	0.060528	0.276666	0.244596	0.361945	0.231236	0.638921	0.249423	0.331452	0.229436	0.046793	0.155106	0.236779	0.204829	0.210023	0.335676	0.233779	0.136003	0.144032	0.181252	0.179857	0.338962	0.157838	0.396323	0.159426	0.055990	0.145113	0.379468	0.155709	0.202590	0.179521	0.418956	0.263470	0.119436	0.111890	0.258605	0.096026	0.175918	0.674948	0.655299	0.150886	0.068982
94	0.163561	0.086806	0.305515	0.209738	0.433522	0.919078	0.367133	0.212389	0.237752	0.529445	0.315516	0.372147	0.470933	0.757706	0.265625	0.391310	0.103321	0.136880	0.156104	0.330807	0.150293	0.160459	0.217757	0.122863	0.149091	0.188738	0.228327	0.166490	0.403738	0.326240	0.143713	0.058889	0.218821	0.304542	0.370817	0.236889	0.638068	0.251065	0.196258	0.200517	0.051591	0.149215	0.218549	0.207224	0.189123	0.334172	0.237482	0.137191	0.147148	0.219173	0.177826	0.319096	0.159387	0.404842	0.157886	0.063643	0.147010	0.382308	0.158411	0.194020	0.161519	0.412049	0.266742	0.117576	0.097029	0.235650	0.058544	0.164889	0.697965	0.668074	0.158645	0.099553
95	0.162966	0.089880	0.240078	0.201797	0.453829	0.936020	0.355207	0.209525	0.258424	0.533002	0.356800	0.370970	0.466115	0.778799	0.265028	0.367888	0.110250	0.142004	0.159129	0.330851	0.160745	0.172714	0.219222	0.124271	0.135457	0.202530	0.218891	0.168279	0.389381	0.328225	0.139106	0.058902	0.190196	0.309953	0.362720	0.238821	0.622933	0.243663	0.194169	0.214127	0.054518	0.146093	0.214730	0.207132	0.186516	0.331293	0.240118	0.137453	0.147284	0.232377	0.163800	0.304708	0.160797	0.404617	0.155922	0.075365	0.143895	0.392616	0.161015	0.185261	0.144800	0.397511	0.265184	0.116656	0.096361	0.217548	0.054527	0.155381	0.700807	0.662581	0.151318	0.126780
96	0.155281	0.090101	0.156626	0.182377	0.469314	0.973031	0.355656	0.216114	0.276502	0.562221	0.386056	0.382867	0.469962	0.779051	0.262186	0.348871	0.119789	0.145570	0.155308	0.327249	0.181733	0.184812	0.221608	0.125767	0.137074	0.216773	0.199322	0.159433	0.365816	0.314601	0.126224	0.058065	0.190606	0.315219	0.356238	0.239034	0.614052	0.240540	0.198081	0.266530	0.054583	0.151588	0.229318	0.206199	0.190299	0.328735	0.230836	0.136592	0.143734	0.235177	0.144067	0.295990	0.161341	0.403186	0.158874	0.079779	0.132558	0.386004	0.159249	0.180582	0.121865	0.383241	0.265456	0.119030	0.105867	0.207314	0.051104	0.139609	0.701904	0.659215	0.162377	0.146674
97	0.157680	0.090603	0.119797	0.154834	0.479174	0.892651	0.341875	0.221489	0.280629	0.578398	0.396104	0.419513	0.475889	0.782782	0.255549	0.341501	0.132647	0.146633	0.144470	0.311888	0.211346	0.190734	0.216042	0.126384	0.138272	0.223187	0.178492	0.146112	0.354577	0.276541	0.123987	0.059432	0.191613	0.329731	0.354338	0.236927	0.614855	0.241599	0.200338	0.336789	0.055441	0.155646	0.247260	0.201532	0.191227	0.329066	0.206260	0.129370	0.128734	0.236088	0.141533	0.292544	0.167506	0.401596	0.158721	0.081554	0.118530	0.378908	0.146507	0.175113	0.115562	0.371672	0.272871	0.123316	0.130488	0.206057	0.053549	0.124042	0.700780	0.643060	0.200778	0.157837
98	0.160192	0.115409	0.123055	0.136919	0.484892	0.696501	0.293044	0.221103	0.280176	0.558777	0.401852	0.448071	0.503687	0.782756	0.245018	0.340259	0.144378	0.146919	0.134682	0.295731	0.242047	0.194556	0.210189	0.125519	0.133788	0.223852	0.159205	0.137616	0.345006	0.244256	0.106415	0.070544	0.187322	0.330602	0.348179	0.232452	0.547213	0.208438	0.195481	0.404143	0.056141	0.185561	0.266402	0.184750	0.191066	0.330471	0.204253	0.110904	0.124675	0.244209	0.139213	0.292580	0.177512	0.401058	0.154303	0.081540	0.114437	0.376224	0.134384	0.170441	0.118771	0.375067	0.279190	0.136194	0.161767	0.199337	0.066939	0.117541	0.690388	0.610374	0.207403	0.158929
99	0.197626	0.132595	0.142842	0.123283	0.490425	0.678226	0.217389	0.211831	0.269941	0.561143	0.411622	0.465330	0.520186	0.784612	0.228223	0.322176	0.150689	0.146719	0.124910	0.280773	0.269333	0.206075	0.204656	0.122602	0.131545	0.222685	0.145803	0.133996	0.347149	0.242012	0.081641	0.101477	0.144412	0.327023	0.335207	0.222225	0.519872	0.187914	0.178782	0.425195	0.060153	0.289679	0.278338	0.146176	0.194082	0.338016	0.197069	0.095857	0.124820	0.254897	0.138160	0.280332	0.185593	0.406302	0.151079	0.082390	0.115694	0.379089	0.117152	0.170561	0.124832	0.392096	0.271695	0.158120	0.186004	0.196689	0.073993	0.116035	0.656709	0.578318	0.213107	0.161254
100	0.249743	0.133342	0.178495	0.115865	0.496587	0.605189	0.161756	0.210360	0.256136	0.558264	0.417542	0.477908	0.515806	0.769998	0.193950	0.275021	0.153908	0.144189	0.111664	0.271314	0.271383	0.202808	0.190970	0.118859	0.132291	0.213556	0.142126	0.132829	0.346265	0.238148	0.080382	0.118637	0.129861	0.327639	0.334106	0.214868	0.492517	0.178758	0.180449	0.423933	0.074857	0.430410	0.283000	0.098260	0.195101	0.344069	0.188462	0.093739	0.131541	0.266816	0.137993	0.254351	0.195919	0.422716	0.149024	0.090313	0.122244	0.383477	0.115855	0.173921	0.126343	0.395297	0.275375	0.163131	0.192484	0.201276	0.073901	0.115495	0.606842	0.566414	0.217443	0.169497
101	0.314981	0.136779	0.184850	0.117646	0.475080	0.593234	0.133301	0.186175	0.246111	0.544598	0.424026	0.483250	0.498988	0.714540	0.182560	0.200198	0.152401	0.141210	0.105302	0.255938	0.347285	0.223025	0.181552	0.119271	0.132566	0.220647	0.141277	0.131334	0.252341	0.237838	0.092490	0.123859	0.128131	0.330835	0.331660	0.209661	0.421291	0.193799	0.194434	0.435484	0.078558	0.527421	0.281450	0.072576	0.187148	0.321454	0.175960	0.091896	0.144823	0.277226	0.129621	0.226299	0.202660	0.437717	0.149969	0.111141	0.133599	0.382805	0.114588	0.175388	0.129609	0.391889	0.265834	0.157393	0.191084	0.243137	0.073232	0.118031	0.566574	0.570491	0.222980	0.171184
