	226_C_T1_sh_L_ND_01.c3d	226_C_T1_sh_L_ND_01.c3d	226_C_T1_sh_L_ND_01.c3d	226_C_T1_sh_L_ND_01.c3d	226_C_T1_sh_L_ND_01.c3d	226_C_T1_sh_L_ND_01.c3d	226_C_T1_sh_L_ND_01.c3d	226_C_T1_sh_L_ND_01.c3d	226_C_T1_sh_L_ND_02.c3d	226_C_T1_sh_L_ND_02.c3d	226_C_T1_sh_L_ND_02.c3d	226_C_T1_sh_L_ND_02.c3d	226_C_T1_sh_L_ND_02.c3d	226_C_T1_sh_L_ND_02.c3d	226_C_T1_sh_L_ND_02.c3d	226_C_T1_sh_L_ND_02.c3d	226_C_T1_sh_L_ND_03.c3d	226_C_T1_sh_L_ND_03.c3d	226_C_T1_sh_L_ND_03.c3d	226_C_T1_sh_L_ND_03.c3d	226_C_T1_sh_L_ND_03.c3d	226_C_T1_sh_L_ND_03.c3d	226_C_T1_sh_L_ND_03.c3d	226_C_T1_sh_L_ND_03.c3d	226_C_T1_sh_L_ND_04.c3d	226_C_T1_sh_L_ND_04.c3d	226_C_T1_sh_L_ND_04.c3d	226_C_T1_sh_L_ND_04.c3d	226_C_T1_sh_L_ND_04.c3d	226_C_T1_sh_L_ND_04.c3d	226_C_T1_sh_L_ND_04.c3d	226_C_T1_sh_L_ND_04.c3d	226_C_T1_sh_L_ND_05.c3d	226_C_T1_sh_L_ND_05.c3d	226_C_T1_sh_L_ND_05.c3d	226_C_T1_sh_L_ND_05.c3d	226_C_T1_sh_L_ND_05.c3d	226_C_T1_sh_L_ND_05.c3d	226_C_T1_sh_L_ND_05.c3d	226_C_T1_sh_L_ND_05.c3d	226_C_T1_sh_L_ND_06.c3d	226_C_T1_sh_L_ND_06.c3d	226_C_T1_sh_L_ND_06.c3d	226_C_T1_sh_L_ND_06.c3d	226_C_T1_sh_L_ND_06.c3d	226_C_T1_sh_L_ND_06.c3d	226_C_T1_sh_L_ND_06.c3d	226_C_T1_sh_L_ND_06.c3d	226_C_T1_sh_L_ND_07.c3d	226_C_T1_sh_L_ND_07.c3d	226_C_T1_sh_L_ND_07.c3d	226_C_T1_sh_L_ND_07.c3d	226_C_T1_sh_L_ND_07.c3d	226_C_T1_sh_L_ND_07.c3d	226_C_T1_sh_L_ND_07.c3d	226_C_T1_sh_L_ND_07.c3d	226_C_T1_sh_L_ND_08.c3d	226_C_T1_sh_L_ND_08.c3d	226_C_T1_sh_L_ND_08.c3d	226_C_T1_sh_L_ND_08.c3d	226_C_T1_sh_L_ND_08.c3d	226_C_T1_sh_L_ND_08.c3d	226_C_T1_sh_L_ND_08.c3d	226_C_T1_sh_L_ND_08.c3d	226_C_T1_sh_L_ND_09.c3d	226_C_T1_sh_L_ND_09.c3d	226_C_T1_sh_L_ND_09.c3d	226_C_T1_sh_L_ND_09.c3d	226_C_T1_sh_L_ND_09.c3d	226_C_T1_sh_L_ND_09.c3d	226_C_T1_sh_L_ND_09.c3d	226_C_T1_sh_L_ND_09.c3d	226_C_T1_sh_L_ND_10.c3d	226_C_T1_sh_L_ND_10.c3d	226_C_T1_sh_L_ND_10.c3d	226_C_T1_sh_L_ND_10.c3d	226_C_T1_sh_L_ND_10.c3d	226_C_T1_sh_L_ND_10.c3d	226_C_T1_sh_L_ND_10.c3d	226_C_T1_sh_L_ND_10.c3d
	Biceps femoris_lat	Semitendinosus_lat	Vastus lateralis_lat	Vastus medialis_lat	Biceps femoris_med	Semitendinosus_med	Vastus lateralis_med	Vastus medialis_med	Biceps femoris_lat	Semitendinosus_lat	Vastus lateralis_lat	Vastus medialis_lat	Biceps femoris_med	Semitendinosus_med	Vastus lateralis_med	Vastus medialis_med	Biceps femoris_lat	Semitendinosus_lat	Vastus lateralis_lat	Vastus medialis_lat	Biceps femoris_med	Semitendinosus_med	Vastus lateralis_med	Vastus medialis_med	Biceps femoris_lat	Semitendinosus_lat	Vastus lateralis_lat	Vastus medialis_lat	Biceps femoris_med	Semitendinosus_med	Vastus lateralis_med	Vastus medialis_med	Biceps femoris_lat	Semitendinosus_lat	Vastus lateralis_lat	Vastus medialis_lat	Biceps femoris_med	Semitendinosus_med	Vastus lateralis_med	Vastus medialis_med	Biceps femoris_lat	Semitendinosus_lat	Vastus lateralis_lat	Vastus medialis_lat	Biceps femoris_med	Semitendinosus_med	Vastus lateralis_med	Vastus medialis_med	Biceps femoris_lat	Semitendinosus_lat	Vastus lateralis_lat	Vastus medialis_lat	Biceps femoris_med	Semitendinosus_med	Vastus lateralis_med	Vastus medialis_med	Biceps femoris_lat	Semitendinosus_lat	Vastus lateralis_lat	Vastus medialis_lat	Biceps femoris_med	Semitendinosus_med	Vastus lateralis_med	Vastus medialis_med	Biceps femoris_lat	Semitendinosus_lat	Vastus lateralis_lat	Vastus medialis_lat	Biceps femoris_med	Semitendinosus_med	Vastus lateralis_med	Vastus medialis_med	Biceps femoris_lat	Semitendinosus_lat	Vastus lateralis_lat	Vastus medialis_lat	Biceps femoris_med	Semitendinosus_med	Vastus lateralis_med	Vastus medialis_med
	P2D	P2D	P2D	P2D	P2D	P2D	P2D	P2D	P2D	P2D	P2D	P2D	P2D	P2D	P2D	P2D	P2D	P2D	P2D	P2D	P2D	P2D	P2D	P2D	P2D	P2D	P2D	P2D	P2D	P2D	P2D	P2D	P2D	P2D	P2D	P2D	P2D	P2D	P2D	P2D	P2D	P2D	P2D	P2D	P2D	P2D	P2D	P2D	P2D	P2D	P2D	P2D	P2D	P2D	P2D	P2D	P2D	P2D	P2D	P2D	P2D	P2D	P2D	P2D	P2D	P2D	P2D	P2D	P2D	P2D	P2D	P2D	P2D	P2D	P2D	P2D	P2D	P2D	P2D	P2D
	EMG_lat	EMG_lat	EMG_lat	EMG_lat	EMG_med	EMG_med	EMG_med	EMG_med	EMG_lat	EMG_lat	EMG_lat	EMG_lat	EMG_med	EMG_med	EMG_med	EMG_med	EMG_lat	EMG_lat	EMG_lat	EMG_lat	EMG_med	EMG_med	EMG_med	EMG_med	EMG_lat	EMG_lat	EMG_lat	EMG_lat	EMG_med	EMG_med	EMG_med	EMG_med	EMG_lat	EMG_lat	EMG_lat	EMG_lat	EMG_med	EMG_med	EMG_med	EMG_med	EMG_lat	EMG_lat	EMG_lat	EMG_lat	EMG_med	EMG_med	EMG_med	EMG_med	EMG_lat	EMG_lat	EMG_lat	EMG_lat	EMG_med	EMG_med	EMG_med	EMG_med	EMG_lat	EMG_lat	EMG_lat	EMG_lat	EMG_med	EMG_med	EMG_med	EMG_med	EMG_lat	EMG_lat	EMG_lat	EMG_lat	EMG_med	EMG_med	EMG_med	EMG_med	EMG_lat	EMG_lat	EMG_lat	EMG_lat	EMG_med	EMG_med	EMG_med	EMG_med
ITEM	Y	Y	Y	Y	Y	Y	Y	Y	Y	Y	Y	Y	Y	Y	Y	Y	Y	Y	Y	Y	Y	Y	Y	Y	Y	Y	Y	Y	Y	Y	Y	Y	Y	Y	Y	Y	Y	Y	Y	Y	Y	Y	Y	Y	Y	Y	Y	Y	Y	Y	Y	Y	Y	Y	Y	Y	Y	Y	Y	Y	Y	Y	Y	Y	Y	Y	Y	Y	Y	Y	Y	Y	Y	Y	Y	Y	Y	Y	Y	Y
1	0.203101	0.113994	0.340301	0.265110	0.350702	0.183061	0.159138	0.081201	0.086889	0.059750	0.153269	0.111921	0.455426	0.256898	0.301663	0.096382	0.139204	0.129218	0.117449	0.148577	0.149694	0.214244	0.270482	0.204573	0.099825	0.128706	0.132322	0.067708	0.711359	0.265539	0.072024	0.066608	0.085013	0.077113	0.215893	0.219083	0.053155	0.058325	0.477807	0.095798	0.202388	0.160844	0.215267	0.147148	0.058348	0.028401	0.258188	0.218936	0.147788	0.071858	0.155749	0.118755	0.057698	0.091400	0.286668	0.213444	0.226237	0.103236	0.342704	0.173859	0.269613	0.283968	0.120701	0.188932	0.099853	0.076185	0.262888	0.251108	0.227971	0.122940	0.358281	0.122180	0.167826	0.092283	0.211697	0.216758	0.060328	0.031033	0.669120	0.145500
2	0.202782	0.113289	0.340312	0.171959	0.347981	0.179518	0.144527	0.091431	0.070744	0.050012	0.165141	0.147557	0.451863	0.225216	0.307672	0.096997	0.139193	0.093079	0.127780	0.158353	0.236412	0.218354	0.361149	0.203862	0.102070	0.138555	0.122555	0.080993	0.633705	0.225528	0.080222	0.061826	0.084662	0.103801	0.235655	0.220667	0.054015	0.060498	0.486873	0.098031	0.208678	0.144328	0.211740	0.146392	0.056479	0.032008	0.377562	0.212483	0.125404	0.066757	0.172752	0.117339	0.055557	0.090670	0.311588	0.201348	0.165285	0.091527	0.421459	0.177851	0.316484	0.287627	0.121230	0.159779	0.080343	0.066735	0.311344	0.277675	0.231754	0.126685	0.445776	0.127822	0.157930	0.089616	0.211720	0.238076	0.056726	0.025870	0.587373	0.115317
3	0.204211	0.130496	0.319356	0.152313	0.294894	0.176216	0.222846	0.092496	0.043788	0.027472	0.168713	0.164797	0.483963	0.225645	0.309276	0.095540	0.142935	0.084925	0.149075	0.180945	0.259445	0.228863	0.371639	0.189339	0.110844	0.142171	0.132093	0.093486	0.584123	0.205816	0.078840	0.055507	0.080685	0.112796	0.260474	0.213748	0.058774	0.060538	0.487513	0.101194	0.213331	0.147946	0.211106	0.136933	0.065969	0.034566	0.472124	0.206851	0.064399	0.053063	0.173176	0.112138	0.057196	0.083785	0.279975	0.183316	0.107224	0.077543	0.445771	0.178612	0.362522	0.290220	0.145538	0.127584	0.079774	0.051506	0.336901	0.271945	0.230938	0.126573	0.512681	0.120678	0.148956	0.081642	0.185572	0.254753	0.055101	0.025088	0.520838	0.112328
4	0.195244	0.170615	0.264087	0.135904	0.185985	0.131280	0.275287	0.093370	0.040822	0.024303	0.181678	0.225000	0.440588	0.190169	0.309390	0.098690	0.143000	0.071145	0.142104	0.181976	0.273667	0.186654	0.339837	0.181562	0.133992	0.140144	0.134599	0.096509	0.485393	0.184999	0.080820	0.051449	0.078202	0.114673	0.261437	0.222179	0.065468	0.060600	0.465656	0.097144	0.226868	0.158964	0.218810	0.122883	0.060441	0.034372	0.473336	0.212189	0.060003	0.054879	0.185000	0.109827	0.058269	0.079283	0.316932	0.168993	0.094709	0.066039	0.434095	0.178205	0.404235	0.275769	0.143654	0.101163	0.080682	0.050154	0.336335	0.269554	0.235798	0.122921	0.518293	0.126058	0.122756	0.070205	0.139326	0.248321	0.063887	0.024237	0.531224	0.094543
5	0.149582	0.170972	0.232705	0.190712	0.095495	0.069978	0.280513	0.094119	0.036587	0.021427	0.174454	0.224365	0.489684	0.284514	0.306616	0.094826	0.137787	0.069337	0.126745	0.180895	0.293055	0.188385	0.335191	0.191479	0.128522	0.125405	0.131851	0.093850	0.493931	0.182356	0.079782	0.067717	0.074524	0.114606	0.244136	0.219272	0.064301	0.062069	0.409854	0.116616	0.206091	0.160232	0.232352	0.131934	0.071121	0.043168	0.561151	0.197679	0.054245	0.056067	0.261563	0.101993	0.043232	0.040347	0.319557	0.187432	0.089235	0.056909	0.459494	0.181040	0.397949	0.218039	0.152464	0.106063	0.079116	0.051130	0.360536	0.269639	0.216737	0.119337	0.520010	0.127027	0.119618	0.059084	0.157688	0.250618	0.065229	0.024276	0.444406	0.091845
6	0.201088	0.173234	0.201808	0.200511	0.077704	0.074635	0.353408	0.095652	0.033682	0.028670	0.172440	0.225626	0.495358	0.348696	0.282283	0.084158	0.120175	0.070737	0.127652	0.183526	0.302870	0.168791	0.431154	0.159016	0.119317	0.089804	0.134707	0.128663	0.320404	0.181277	0.259890	0.123557	0.072396	0.114693	0.231959	0.205990	0.063352	0.061300	0.454326	0.119867	0.193570	0.164631	0.253572	0.148533	0.071140	0.045081	0.626326	0.197851	0.055226	0.053991	0.305521	0.143231	0.070190	0.056030	0.343315	0.329944	0.081772	0.055607	0.474981	0.213865	0.396830	0.208543	0.179133	0.106013	0.081116	0.052095	0.413334	0.287774	0.193619	0.116622	0.521209	0.128015	0.115919	0.051971	0.211988	0.254256	0.050100	0.028562	0.276261	0.115077
7	0.277362	0.190290	0.225732	0.207819	0.071547	0.071149	0.360169	0.093085	0.045611	0.039178	0.247813	0.216901	0.458694	0.354365	0.288909	0.167570	0.051967	0.065319	0.136933	0.185444	0.298367	0.155498	0.448073	0.151277	0.118372	0.087212	0.199834	0.315337	0.411786	0.180334	0.446149	0.146553	0.069277	0.112405	0.245853	0.192701	0.061041	0.052991	0.405170	0.118035	0.187770	0.163294	0.261485	0.145402	0.071632	0.045989	0.636027	0.207621	0.073058	0.062386	0.297393	0.194046	0.076531	0.067683	0.356977	0.429452	0.074053	0.062008	0.475592	0.219787	0.395592	0.152823	0.197703	0.104302	0.081411	0.052080	0.440014	0.307632	0.185104	0.104403	0.538074	0.145828	0.111796	0.051792	0.273871	0.246425	0.048567	0.061091	0.236052	0.114459
8	0.291890	0.201343	0.258546	0.213215	0.068897	0.067757	0.360877	0.088453	0.054257	0.059873	0.257444	0.215084	0.505522	0.401374	0.333945	0.187398	0.050488	0.052987	0.136146	0.181107	0.297407	0.154661	0.408335	0.119445	0.114359	0.102147	0.260854	0.326374	0.440977	0.178857	0.462780	0.149113	0.053778	0.093104	0.246941	0.219336	0.055944	0.039280	0.341968	0.131605	0.186903	0.156784	0.252948	0.180355	0.076141	0.051898	0.650658	0.205758	0.077661	0.069207	0.303100	0.194911	0.075714	0.066901	0.321829	0.527656	0.076971	0.064925	0.475173	0.214850	0.349684	0.094666	0.222779	0.127589	0.067978	0.045244	0.459354	0.322869	0.175022	0.075153	0.530282	0.175479	0.088374	0.057761	0.329792	0.237487	0.049539	0.084215	0.250661	0.126165
9	0.325340	0.214074	0.256963	0.219385	0.077889	0.084137	0.392885	0.061377	0.053526	0.064647	0.271536	0.190949	0.538597	0.480761	0.416871	0.192338	0.050623	0.056897	0.169390	0.174055	0.218095	0.143720	0.344495	0.156996	0.111761	0.097022	0.265854	0.346745	0.441209	0.194886	0.550016	0.202076	0.037908	0.085793	0.254547	0.220406	0.046920	0.031008	0.316645	0.150612	0.181524	0.124002	0.254918	0.281829	0.075622	0.049808	0.645675	0.202233	0.077728	0.069275	0.322331	0.195643	0.075829	0.065770	0.325098	0.571696	0.081028	0.067108	0.458810	0.244900	0.318811	0.089848	0.248384	0.132918	0.051024	0.038916	0.463310	0.330302	0.168752	0.072346	0.468802	0.173820	0.061640	0.053654	0.347688	0.231042	0.056057	0.089650	0.289543	0.129879
10	0.337851	0.214381	0.279589	0.222161	0.081469	0.085525	0.449535	0.056052	0.054513	0.064122	0.314923	0.190743	0.597717	0.520364	0.423602	0.194001	0.041973	0.055967	0.247068	0.165399	0.201614	0.122338	0.350207	0.182675	0.113680	0.090525	0.307752	0.367899	0.432711	0.200535	0.578406	0.216934	0.036256	0.035683	0.238975	0.233429	0.046552	0.048672	0.321338	0.211513	0.168930	0.106452	0.252373	0.295656	0.066679	0.047635	0.584210	0.229645	0.078149	0.070839	0.328503	0.223031	0.072780	0.066198	0.339151	0.586256	0.071473	0.060992	0.389657	0.279300	0.276229	0.080262	0.268053	0.161814	0.047476	0.037844	0.458721	0.327213	0.137983	0.073990	0.471994	0.159846	0.058101	0.052628	0.344487	0.197860	0.058662	0.095358	0.315474	0.129078
11	0.340847	0.215690	0.278781	0.219384	0.080959	0.083414	0.425247	0.072582	0.053405	0.064116	0.341268	0.127933	0.765638	0.766192	0.426701	0.202377	0.023134	0.049745	0.252466	0.130433	0.165362	0.101609	0.358423	0.185302	0.115545	0.088276	0.325989	0.377305	0.422105	0.209440	0.581463	0.278125	0.029665	0.032131	0.221533	0.203560	0.035641	0.052147	0.373998	0.240023	0.152943	0.111290	0.257196	0.307996	0.059530	0.053047	0.525177	0.227914	0.076990	0.070125	0.371358	0.264949	0.071059	0.065118	0.298652	0.593522	0.070263	0.069803	0.318469	0.296657	0.244323	0.078228	0.275992	0.175057	0.046906	0.031249	0.443280	0.339482	0.089209	0.054640	0.450487	0.161798	0.058904	0.052581	0.386865	0.179201	0.056938	0.095781	0.311278	0.132404
12	0.341492	0.216640	0.316081	0.221178	0.088521	0.090747	0.433011	0.082898	0.058474	0.066706	0.359189	0.117258	0.800740	0.798374	0.435083	0.217271	0.022916	0.047294	0.260119	0.106048	0.116655	0.064060	0.352247	0.209754	0.084157	0.090904	0.327756	0.382500	0.400252	0.200524	0.582929	0.355448	0.033450	0.029970	0.249593	0.163817	0.036111	0.050693	0.377931	0.244547	0.145428	0.120793	0.256147	0.333086	0.056685	0.051375	0.515454	0.221273	0.076279	0.071013	0.464300	0.291955	0.075878	0.067034	0.293237	0.588617	0.065171	0.069037	0.310436	0.297404	0.119951	0.058299	0.322211	0.176774	0.043200	0.025274	0.406845	0.340329	0.092068	0.039159	0.349913	0.159176	0.062233	0.052757	0.433752	0.179783	0.046671	0.096855	0.299039	0.154836
13	0.349957	0.203322	0.331521	0.217748	0.097246	0.103357	0.478103	0.088548	0.062996	0.067088	0.348090	0.113043	0.824951	0.777495	0.514804	0.231156	0.021940	0.049495	0.267005	0.172523	0.085385	0.026430	0.222142	0.257348	0.082587	0.092047	0.329159	0.384777	0.375300	0.168141	0.560903	0.396919	0.035026	0.030071	0.299709	0.164725	0.034899	0.049586	0.295923	0.241610	0.128095	0.120982	0.253565	0.349281	0.040651	0.044668	0.392431	0.220215	0.081941	0.077022	0.485482	0.347105	0.055089	0.049710	0.278523	0.494246	0.056382	0.065242	0.269523	0.290381	0.140536	0.062175	0.338318	0.168267	0.037547	0.021749	0.390965	0.339205	0.069820	0.040557	0.327165	0.184041	0.069660	0.053819	0.445678	0.132013	0.040164	0.097370	0.271914	0.174693
14	0.346473	0.168213	0.343676	0.212477	0.096519	0.102791	0.432555	0.101724	0.054647	0.060099	0.291929	0.112767	0.805351	0.768789	0.562515	0.235359	0.018230	0.050085	0.262263	0.164742	0.077018	0.018634	0.189918	0.342177	0.078795	0.091513	0.329620	0.382325	0.270456	0.149889	0.444340	0.397638	0.027934	0.026811	0.326746	0.159935	0.033462	0.048133	0.247925	0.239564	0.111431	0.120658	0.286987	0.364735	0.042424	0.043855	0.324189	0.206401	0.082226	0.080232	0.485401	0.382718	0.050871	0.039882	0.269225	0.436580	0.053708	0.064891	0.203478	0.297274	0.140082	0.062674	0.339696	0.176997	0.042562	0.022942	0.469554	0.344839	0.064661	0.042824	0.337206	0.234432	0.072853	0.053862	0.453723	0.131526	0.038232	0.095790	0.327578	0.150101
15	0.325908	0.168072	0.379958	0.148560	0.092016	0.100169	0.465329	0.107332	0.045840	0.042254	0.284616	0.113363	0.794889	0.756519	0.525131	0.211353	0.024490	0.050973	0.260776	0.163404	0.203731	0.059889	0.194465	0.386250	0.081887	0.089642	0.319461	0.277950	0.124815	0.139711	0.420404	0.397661	0.032008	0.028919	0.322088	0.148192	0.029525	0.047557	0.246796	0.383474	0.094455	0.110000	0.303864	0.365445	0.041369	0.041123	0.284580	0.203673	0.080542	0.079185	0.478802	0.406738	0.054912	0.043584	0.358100	0.349424	0.052538	0.065987	0.222579	0.375024	0.139724	0.062057	0.327293	0.177935	0.041967	0.022305	0.526283	0.340641	0.084771	0.064495	0.350398	0.269133	0.074071	0.055964	0.457775	0.130965	0.038787	0.085491	0.321255	0.152990
16	0.291390	0.162104	0.393498	0.139413	0.105001	0.100264	0.491741	0.111514	0.049198	0.049265	0.255035	0.099925	0.774977	0.704451	0.437228	0.209436	0.035797	0.056659	0.261613	0.168822	0.280832	0.105488	0.194301	0.380670	0.090675	0.080332	0.334072	0.264590	0.109837	0.102169	0.299977	0.384507	0.034953	0.032919	0.297107	0.119922	0.028580	0.053387	0.241666	0.446809	0.080737	0.109536	0.300732	0.365700	0.046152	0.036796	0.269547	0.264425	0.080296	0.081823	0.438160	0.418438	0.057053	0.049657	0.484872	0.330527	0.051504	0.058340	0.241021	0.449831	0.138192	0.061652	0.330552	0.166935	0.038003	0.020944	0.497263	0.322836	0.098199	0.083963	0.346394	0.274924	0.074820	0.051321	0.443642	0.127262	0.038848	0.055585	0.312306	0.174625
17	0.219413	0.142685	0.366869	0.129702	0.107644	0.089641	0.471411	0.148557	0.048238	0.063772	0.206425	0.077980	0.698412	0.698569	0.425567	0.206187	0.040478	0.059876	0.247482	0.173837	0.315040	0.122786	0.193967	0.382632	0.092440	0.084295	0.343572	0.240460	0.091673	0.098949	0.251468	0.387727	0.036977	0.036059	0.286275	0.139170	0.028097	0.048898	0.264469	0.438757	0.076753	0.107432	0.285661	0.361949	0.143179	0.044196	0.200840	0.309860	0.073343	0.078705	0.418749	0.396946	0.059082	0.053990	0.494741	0.305065	0.034632	0.055709	0.228562	0.473460	0.138335	0.061270	0.307863	0.181743	0.037388	0.028081	0.499576	0.306766	0.100534	0.093099	0.346312	0.251178	0.072623	0.043512	0.412046	0.124912	0.027977	0.048017	0.292923	0.172655
18	0.200855	0.130128	0.351874	0.126962	0.111649	0.101374	0.412187	0.184870	0.050231	0.072062	0.193733	0.121806	0.554205	0.468348	0.424730	0.198219	0.048552	0.076762	0.190160	0.179727	0.474821	0.150963	0.195929	0.381763	0.094441	0.090824	0.371314	0.204474	0.090829	0.067883	0.249346	0.430722	0.036163	0.035530	0.286415	0.158201	0.024593	0.038840	0.236902	0.418466	0.070017	0.097931	0.267407	0.370032	0.231990	0.054636	0.150691	0.299287	0.053996	0.070095	0.426980	0.392116	0.059428	0.056431	0.627499	0.297619	0.027756	0.054870	0.235109	0.500260	0.113573	0.057084	0.299603	0.164028	0.044997	0.039876	0.498467	0.291897	0.100412	0.093151	0.323857	0.258035	0.059421	0.034807	0.369015	0.125556	0.023531	0.034491	0.276488	0.186969
19	0.139612	0.118780	0.361209	0.234466	0.113643	0.112414	0.404618	0.178632	0.053835	0.071827	0.213097	0.208026	0.405882	0.287965	0.430068	0.190194	0.048243	0.093774	0.220523	0.191361	0.477449	0.152756	0.216824	0.363481	0.082579	0.091006	0.362384	0.179553	0.087193	0.068201	0.246844	0.383493	0.045269	0.032231	0.310347	0.167823	0.021951	0.047567	0.258741	0.422352	0.070591	0.097295	0.263864	0.372919	0.255960	0.061188	0.138553	0.347700	0.047828	0.066300	0.433828	0.398492	0.046907	0.052524	0.662381	0.302007	0.028071	0.053624	0.312083	0.522917	0.089354	0.060847	0.285386	0.156345	0.053806	0.048881	0.492769	0.300281	0.100495	0.115773	0.298212	0.265434	0.072056	0.029478	0.335503	0.158612	0.030676	0.036953	0.290409	0.189384
20	0.118476	0.117637	0.396378	0.269573	0.108701	0.113034	0.364539	0.174711	0.054164	0.069305	0.234359	0.216986	0.227045	0.242020	0.349139	0.168376	0.048503	0.104126	0.217621	0.176945	0.478047	0.169561	0.228249	0.400538	0.080010	0.105550	0.356995	0.170826	0.230807	0.163836	0.226637	0.343358	0.050653	0.036952	0.272976	0.219179	0.028145	0.050498	0.290932	0.434016	0.121860	0.103443	0.268445	0.321613	0.328540	0.066356	0.112453	0.364583	0.047706	0.065924	0.436602	0.405384	0.042118	0.050842	0.656640	0.308729	0.038453	0.058311	0.322217	0.571822	0.088265	0.048201	0.226389	0.146307	0.055818	0.052117	0.503623	0.309408	0.099459	0.117406	0.239649	0.274116	0.076093	0.037494	0.333064	0.314431	0.036733	0.045456	0.291923	0.180922
21	0.112874	0.120868	0.410189	0.278688	0.097700	0.101220	0.280904	0.180095	0.057364	0.073330	0.243657	0.225360	0.194918	0.230313	0.231084	0.105368	0.051168	0.103623	0.229160	0.137263	0.476610	0.179955	0.270080	0.381354	0.078700	0.108621	0.355898	0.166835	0.410102	0.359988	0.146307	0.343395	0.064984	0.041078	0.239483	0.261232	0.027464	0.055022	0.380042	0.440683	0.171916	0.108801	0.277300	0.270871	0.424113	0.080302	0.212497	0.387467	0.049566	0.069811	0.441329	0.383089	0.041900	0.054717	0.652201	0.296108	0.045196	0.069186	0.377075	0.606780	0.040652	0.044158	0.194758	0.175393	0.057846	0.052226	0.517513	0.293722	0.098332	0.118925	0.231029	0.277295	0.080111	0.045146	0.328846	0.329552	0.037790	0.054582	0.290676	0.184654
22	0.112993	0.127100	0.379803	0.296763	0.090365	0.111489	0.271599	0.194907	0.056981	0.074308	0.319065	0.274560	0.188655	0.223656	0.152858	0.116452	0.051107	0.103246	0.233664	0.139937	0.432682	0.169987	0.318843	0.350330	0.079719	0.108315	0.373674	0.149959	0.451575	0.401824	0.149095	0.356987	0.073732	0.046621	0.184008	0.272662	0.031433	0.061523	0.443873	0.407318	0.208619	0.104983	0.266097	0.276624	0.434272	0.090857	0.397240	0.385622	0.049461	0.075568	0.373418	0.371274	0.038900	0.057218	0.577300	0.278382	0.049526	0.071842	0.401632	0.632416	0.037648	0.043845	0.170757	0.168600	0.066812	0.055298	0.520499	0.243472	0.093014	0.118845	0.229964	0.264407	0.079561	0.069274	0.259834	0.328623	0.047882	0.087875	0.231231	0.184828
23	0.086250	0.131238	0.372842	0.326775	0.091208	0.113144	0.212722	0.238939	0.054308	0.069465	0.414511	0.298956	0.186032	0.211999	0.146479	0.174484	0.043639	0.098392	0.231060	0.139838	0.387200	0.147970	0.320303	0.361494	0.075678	0.109423	0.371916	0.099808	0.707861	0.530147	0.197149	0.372387	0.072556	0.047700	0.186116	0.315066	0.034476	0.058531	0.449002	0.212880	0.218032	0.109048	0.246591	0.272433	0.440817	0.102192	0.504085	0.393065	0.043031	0.076909	0.291888	0.370976	0.045147	0.060408	0.544117	0.315059	0.050379	0.070373	0.393102	0.628312	0.038420	0.043979	0.175033	0.169774	0.069875	0.056014	0.512047	0.220141	0.093679	0.120283	0.213472	0.225344	0.091506	0.088736	0.222504	0.326525	0.048825	0.101195	0.236862	0.202290
24	0.073786	0.132121	0.371553	0.391666	0.082013	0.112419	0.123997	0.287338	0.055543	0.052659	0.422533	0.310499	0.202462	0.196600	0.134944	0.175041	0.041400	0.097007	0.193128	0.140821	0.356801	0.139721	0.311930	0.459945	0.062502	0.102837	0.328722	0.098179	0.725086	0.558241	0.196259	0.366363	0.075145	0.044411	0.215654	0.652341	0.033197	0.055124	0.442450	0.198427	0.218291	0.173063	0.251558	0.246430	0.438599	0.105890	0.560772	0.379033	0.033745	0.076688	0.295774	0.412198	0.064703	0.066914	0.563381	0.453637	0.052056	0.073430	0.373947	0.568495	0.044923	0.043768	0.152789	0.192814	0.067290	0.055407	0.467401	0.227309	0.078792	0.112689	0.188349	0.194592	0.099799	0.089013	0.223342	0.332645	0.049793	0.100463	0.273947	0.180904
25	0.072020	0.121558	0.340990	0.393752	0.074837	0.111625	0.175245	0.288747	0.056163	0.048210	0.552101	0.353048	0.257989	0.202157	0.153158	0.200538	0.030617	0.082224	0.254435	0.155346	0.082779	0.108027	0.336224	0.552661	0.057658	0.099885	0.345565	0.091076	0.727089	0.566793	0.196923	0.269749	0.075904	0.050006	0.396430	0.686051	0.032820	0.055060	0.423485	0.206488	0.223248	0.193670	0.244939	0.228768	0.408280	0.101747	0.682139	0.377753	0.033967	0.073638	0.300400	0.401510	0.087274	0.070763	0.409615	0.573057	0.056916	0.083538	0.371153	0.546709	0.045022	0.043443	0.194170	0.185499	0.064231	0.056542	0.368040	0.232510	0.054620	0.098913	0.178536	0.196107	0.125119	0.088665	0.227535	0.456727	0.051358	0.101486	0.317926	0.231631
26	0.072225	0.118445	0.362087	0.429527	0.064246	0.102875	0.184761	0.298687	0.049264	0.051192	0.821704	0.424833	0.286099	0.228669	0.265884	0.288849	0.047065	0.078557	0.261041	0.176556	0.077606	0.108371	0.389751	0.568589	0.050050	0.085736	0.285031	0.113440	0.728240	0.567133	0.196890	0.251141	0.087104	0.073320	0.516441	0.718309	0.034729	0.045240	0.404357	0.317568	0.224490	0.195931	0.236340	0.230962	0.373100	0.095814	0.778482	0.375850	0.035914	0.069018	0.295408	0.483032	0.096971	0.073596	0.393007	0.578985	0.058113	0.087234	0.405665	0.500272	0.069321	0.043043	0.260295	0.194892	0.065578	0.068480	0.337028	0.233723	0.046251	0.090276	0.177389	0.194704	0.188398	0.099410	0.307111	0.516591	0.053038	0.101450	0.397367	0.247162
27	0.072593	0.107071	0.372791	0.474723	0.063601	0.090216	0.201327	0.308463	0.058531	0.051702	0.833880	0.491844	0.286355	0.233042	0.289384	0.317922	0.059824	0.044897	0.268996	0.336808	0.074287	0.075590	0.430947	0.602966	0.056638	0.082980	0.283945	0.203810	0.705532	0.554103	0.199445	0.223365	0.097547	0.081634	0.525546	0.769998	0.033468	0.044973	0.356951	0.351138	0.226721	0.193316	0.280204	0.231955	0.365486	0.089908	0.800793	0.327212	0.032848	0.066133	0.291837	0.535300	0.101447	0.073472	0.406206	0.601051	0.063681	0.092415	0.436231	0.499028	0.186069	0.033880	0.293133	0.218512	0.066581	0.067960	0.313443	0.228292	0.047738	0.088198	0.179312	0.190421	0.203983	0.100903	0.329287	0.539393	0.051899	0.100496	0.404125	0.332815
28	0.072892	0.094203	0.373729	0.489433	0.065160	0.091757	0.211046	0.309121	0.064919	0.048369	0.973446	0.623958	0.290372	0.233694	0.300853	0.386928	0.062714	0.043335	0.258501	0.362281	0.072845	0.052649	0.409416	0.592728	0.049109	0.060452	0.288822	0.324440	0.613948	0.458924	0.211991	0.236195	0.096702	0.082927	0.571004	0.821527	0.034409	0.044875	0.383184	0.363951	0.230105	0.191181	0.290458	0.228362	0.228876	0.085891	0.803378	0.400420	0.045343	0.070021	0.288750	0.538861	0.118894	0.080903	0.431089	0.741181	0.071560	0.090268	0.419258	0.459701	0.209368	0.035249	0.298014	0.219423	0.064746	0.064262	0.240765	0.311168	0.043645	0.058684	0.167842	0.178388	0.210760	0.102994	0.334497	0.583616	0.059732	0.103415	0.412192	0.334581
29	0.072318	0.090554	0.358595	0.446907	0.072818	0.099155	0.217813	0.345894	0.109768	0.083176	1.056856	0.668634	0.298232	0.237311	0.326274	0.404677	0.064221	0.049776	0.314234	0.385178	0.071421	0.050136	0.462889	0.768507	0.066013	0.056773	0.297251	0.382760	0.586675	0.412764	0.297463	0.205639	0.086011	0.089706	0.595713	0.845632	0.046313	0.042831	0.358332	0.407276	0.249736	0.200240	0.301110	0.215131	0.132002	0.073672	0.769876	0.532276	0.057316	0.093703	0.269705	0.530547	0.119531	0.086015	0.434858	0.827043	0.070021	0.080602	0.424452	0.413513	0.222837	0.035382	0.339660	0.199234	0.057878	0.060436	0.304220	0.532342	0.041008	0.045620	0.201459	0.180130	0.208620	0.103057	0.335545	0.629359	0.063217	0.102709	0.425933	0.360951
30	0.071495	0.090122	0.324388	0.434774	0.082616	0.132690	0.241471	0.374615	0.125871	0.103037	1.046000	0.669951	0.281661	0.232439	0.334629	0.388547	0.071046	0.058301	0.337376	0.389052	0.097231	0.042293	0.517686	0.781370	0.070011	0.057425	0.279558	0.510921	0.216355	0.236448	0.342188	0.256484	0.084896	0.095960	0.627234	0.849408	0.063984	0.053190	0.378173	0.408247	0.268883	0.208607	0.322630	0.212795	0.099617	0.063452	0.707092	0.532952	0.057752	0.093802	0.244191	0.532314	0.125183	0.097141	0.538095	0.849143	0.070582	0.074175	0.423511	0.423015	0.245582	0.044286	0.366042	0.309375	0.052894	0.063124	0.353637	0.634932	0.040238	0.045986	0.221930	0.179295	0.212704	0.104797	0.348979	0.616824	0.056727	0.082398	0.440810	0.367504
31	0.062233	0.081219	0.316084	0.496327	0.080479	0.134451	0.250770	0.363310	0.128667	0.108117	1.044533	0.659552	0.261454	0.220774	0.342323	0.388091	0.072214	0.066643	0.336914	0.405188	0.152164	0.036246	0.521835	0.718349	0.071387	0.057202	0.312133	0.593305	0.096054	0.120862	0.347104	0.293938	0.087740	0.100053	0.626142	0.855700	0.126157	0.081861	0.432315	0.419882	0.278721	0.225519	0.333912	0.234741	0.077440	0.046155	0.691315	0.644991	0.056744	0.094488	0.235478	0.551422	0.118065	0.104430	0.592600	0.757461	0.075616	0.075093	0.411982	0.429313	0.250064	0.046623	0.394215	0.346932	0.054596	0.066248	0.400332	0.769852	0.041142	0.045446	0.226750	0.189994	0.220940	0.103875	0.361741	0.592400	0.054382	0.057056	0.441527	0.371476
32	0.058367	0.068875	0.326153	0.618788	0.075453	0.134896	0.247910	0.406865	0.126033	0.105809	0.927633	0.626901	0.236749	0.206385	0.351433	0.387559	0.073562	0.066538	0.324577	0.441964	0.183524	0.048338	0.542102	0.712451	0.072177	0.067566	0.348288	0.625586	0.085933	0.071534	0.339430	0.295527	0.085924	0.100670	0.627300	0.974842	0.128072	0.084706	0.530145	0.514073	0.270140	0.248112	0.325171	0.276400	0.087976	0.047310	0.620798	0.682919	0.063956	0.089884	0.311040	0.561182	0.104442	0.105969	0.604157	0.705583	0.076478	0.075757	0.416987	0.419295	0.249114	0.049345	0.476110	0.373466	0.054193	0.065910	0.416826	0.781465	0.044337	0.041866	0.226643	0.240588	0.221863	0.101628	0.404823	0.592955	0.055825	0.058378	0.455768	0.431584
33	0.075079	0.083572	0.381445	0.663850	0.080775	0.137924	0.266416	0.437257	0.127472	0.106218	0.742455	0.597271	0.120923	0.099601	0.392623	0.326945	0.074862	0.066472	0.293171	0.470723	0.183020	0.043856	0.538772	0.748072	0.072991	0.073302	0.318549	0.628596	0.078319	0.069893	0.351511	0.313073	0.087370	0.092478	0.509927	0.976639	0.130589	0.090541	0.580767	0.524431	0.253868	0.251031	0.327931	0.294810	0.086744	0.047478	0.484841	0.728106	0.073568	0.088461	0.398519	0.560249	0.099347	0.104450	0.599090	0.693951	0.082047	0.074761	0.425236	0.711498	0.249013	0.056257	0.490464	0.418122	0.059617	0.064606	0.427308	0.840225	0.043536	0.040890	0.227661	0.231178	0.219387	0.073332	0.432912	0.594500	0.059003	0.056136	0.481974	0.431527
34	0.086251	0.093920	0.411959	0.638933	0.082103	0.135802	0.280111	0.420181	0.123060	0.106670	0.735903	0.555901	0.122628	0.061566	0.366585	0.332842	0.068954	0.060471	0.301474	0.430531	0.188895	0.070427	0.627485	0.689961	0.073607	0.085236	0.328173	0.626980	0.084164	0.079237	0.441521	0.331277	0.070324	0.076411	0.490553	0.961724	0.131712	0.099083	0.716800	0.475453	0.238780	0.257160	0.341066	0.309229	0.073998	0.044670	0.399435	0.769093	0.086335	0.091838	0.425175	0.577947	0.097598	0.104830	0.590144	0.671486	0.084131	0.067014	0.424736	0.804673	0.249587	0.058950	0.594149	0.431741	0.063575	0.067735	0.450568	0.885127	0.054370	0.046319	0.221509	0.222508	0.210880	0.075428	0.440892	0.633407	0.057674	0.055866	0.408342	0.428407
35	0.091499	0.095256	0.442370	0.659823	0.079530	0.134651	0.294057	0.480739	0.122488	0.105795	0.529520	0.400584	0.175082	0.111978	0.373287	0.271176	0.067842	0.057311	0.316805	0.477348	0.191781	0.086863	0.784949	0.680070	0.064808	0.081984	0.411808	0.608738	0.080438	0.078641	0.523060	0.338100	0.056673	0.077558	0.509154	0.965231	0.141213	0.104496	0.802680	0.476673	0.264053	0.246516	0.333442	0.336783	0.087170	0.054259	0.382724	0.801210	0.087217	0.089831	0.429304	0.560891	0.078109	0.096281	0.572743	0.510719	0.082529	0.059605	0.352262	0.812071	0.191104	0.057124	0.698761	0.517398	0.068801	0.077711	0.461610	0.892614	0.061151	0.041264	0.196428	0.223904	0.212032	0.083782	0.492171	0.632860	0.075943	0.055478	0.441174	0.372409
36	0.107819	0.104495	0.471941	0.656911	0.080592	0.129723	0.306257	0.486931	0.087886	0.083617	0.366915	0.310717	0.180525	0.185469	0.482482	0.305132	0.063777	0.054813	0.328847	0.478670	0.192017	0.104229	0.763366	0.463650	0.063823	0.081961	0.447739	0.570986	0.081609	0.095199	0.491701	0.360204	0.063910	0.077539	0.472723	0.957458	0.143796	0.105426	0.749869	0.427693	0.269133	0.216728	0.334219	0.336507	0.088402	0.062805	0.383413	0.745586	0.087032	0.089360	0.432697	0.538595	0.082245	0.098898	0.551731	0.355514	0.082232	0.058706	0.329366	0.830374	0.226955	0.061221	0.734738	0.596888	0.073783	0.081083	0.501062	0.915046	0.067945	0.042333	0.215771	0.226246	0.153707	0.080209	0.513421	0.528856	0.072699	0.043327	0.441589	0.367689
37	0.117395	0.111445	0.487710	0.647343	0.084440	0.125537	0.307045	0.470258	0.071168	0.061488	0.333604	0.303464	0.285629	0.186337	0.503110	0.283575	0.063690	0.048872	0.292723	0.489835	0.182314	0.124360	0.725947	0.432581	0.045855	0.080800	0.450882	0.540658	0.082834	0.106057	0.448004	0.334184	0.064231	0.068304	0.429704	0.949422	0.136516	0.097693	0.740633	0.437982	0.266654	0.208772	0.331703	0.323949	0.086861	0.071900	0.415293	0.704808	0.086609	0.087284	0.445594	0.457505	0.073903	0.085273	0.347450	0.319034	0.077070	0.060641	0.354154	0.832007	0.239860	0.073413	0.724357	0.638163	0.075220	0.077745	0.519360	0.931942	0.068194	0.042464	0.231627	0.236417	0.141230	0.071198	0.510230	0.516530	0.071864	0.028095	0.421470	0.341360
38	0.121359	0.113977	0.530960	0.658997	0.074458	0.063646	0.288929	0.441167	0.071473	0.055879	0.330431	0.310975	0.360183	0.196577	0.501246	0.282562	0.057218	0.030990	0.282293	0.492674	0.128966	0.125306	0.719038	0.428344	0.042391	0.085565	0.504448	0.451913	0.112878	0.105870	0.435178	0.266887	0.066860	0.060247	0.406959	0.946952	0.089353	0.087271	0.701712	0.436803	0.277441	0.208133	0.289160	0.321605	0.084759	0.068452	0.437937	0.700339	0.088956	0.088673	0.510011	0.453881	0.073121	0.080154	0.220938	0.338809	0.072279	0.059451	0.339432	0.945843	0.220012	0.108507	0.749575	0.636663	0.078744	0.077472	0.519236	0.931741	0.091374	0.048513	0.397188	0.405201	0.115182	0.071563	0.509781	0.474045	0.082854	0.024268	0.402477	0.334387
39	0.121472	0.114056	0.634910	0.673030	0.074609	0.049275	0.292323	0.447363	0.071585	0.056491	0.344413	0.301609	0.366908	0.218033	0.496509	0.279280	0.054886	0.026171	0.297628	0.462558	0.093574	0.122627	0.686360	0.315109	0.040447	0.085475	0.490787	0.372973	0.122849	0.102624	0.431842	0.266769	0.077499	0.063764	0.399579	0.746162	0.080114	0.075398	0.673423	0.347018	0.286800	0.208056	0.262348	0.384310	0.087532	0.070363	0.430850	0.530244	0.093201	0.087723	0.563980	0.534709	0.069660	0.075284	0.229141	0.349342	0.067958	0.066230	0.330459	1.005644	0.226710	0.140783	0.753228	0.625095	0.128324	0.081549	0.496889	0.849273	0.161395	0.074822	0.568598	0.411672	0.120553	0.082403	0.533202	0.419349	0.093571	0.027851	0.401984	0.334226
40	0.122189	0.113678	0.708908	0.677816	0.074785	0.046216	0.310463	0.380530	0.066462	0.058869	0.336571	0.466287	0.367714	0.291374	0.423869	0.277336	0.055205	0.038180	0.288783	0.568690	0.101453	0.139528	0.659257	0.201382	0.040731	0.080490	0.463642	0.331200	0.120354	0.099546	0.434663	0.258567	0.077558	0.075440	0.346382	0.545021	0.078648	0.072222	0.607082	0.242936	0.278884	0.202722	0.272726	0.507561	0.074182	0.067525	0.431456	0.487085	0.101479	0.081952	0.612784	0.558550	0.069009	0.075044	0.231898	0.358245	0.063206	0.070384	0.354348	1.020429	0.248958	0.182813	0.695303	0.623593	0.167607	0.090048	0.451800	0.760637	0.200514	0.093794	0.605834	0.436826	0.117428	0.087412	0.568796	0.358891	0.096975	0.027696	0.382342	0.258415
41	0.123181	0.114959	0.734562	0.616124	0.063529	0.037528	0.343757	0.340415	0.061192	0.058578	0.373092	0.565920	0.443263	0.371051	0.397845	0.261075	0.037700	0.040507	0.291886	0.690771	0.092197	0.138990	0.545046	0.241620	0.038485	0.075691	0.462810	0.325944	0.119001	0.094319	0.360400	0.245248	0.079093	0.087717	0.316663	0.604411	0.105060	0.062900	0.636070	0.175377	0.269731	0.197306	0.278139	0.521699	0.074163	0.067265	0.399359	0.381139	0.106833	0.088608	0.627245	0.553573	0.061630	0.076792	0.234141	0.348372	0.060970	0.069234	0.476472	1.003471	0.258600	0.197930	0.678906	0.600757	0.173666	0.088800	0.403206	0.625695	0.206162	0.097700	0.630491	0.450969	0.095090	0.084825	0.589047	0.355045	0.116503	0.033225	0.327828	0.211876
42	0.116780	0.109493	0.728199	0.554807	0.056570	0.028412	0.326481	0.333344	0.050575	0.053649	0.323378	0.594201	0.465558	0.473483	0.394304	0.240064	0.036702	0.041166	0.346465	0.667884	0.088747	0.132738	0.301943	0.254445	0.030768	0.060288	0.462022	0.358162	0.121486	0.095440	0.210631	0.224303	0.090717	0.089803	0.234430	0.555650	0.171419	0.068561	0.453791	0.153045	0.266697	0.193704	0.257646	0.524345	0.071429	0.066591	0.358786	0.306980	0.112815	0.095484	0.618240	0.533273	0.063930	0.078337	0.265288	0.344385	0.058050	0.070587	0.527911	0.768734	0.370168	0.218765	0.569335	0.584916	0.174593	0.087864	0.344436	0.547158	0.216801	0.098189	0.674600	0.477877	0.084469	0.082999	0.563541	0.450199	0.118429	0.033319	0.318075	0.200263
43	0.098195	0.083746	0.717098	0.791772	0.059003	0.031711	0.385954	0.253654	0.042071	0.048011	0.328354	0.682957	0.456407	0.472268	0.260821	0.143871	0.038939	0.042701	0.398181	0.622120	0.098481	0.122793	0.224561	0.255630	0.036405	0.067394	0.449661	0.444541	0.138685	0.094912	0.186440	0.180366	0.089878	0.081402	0.119544	0.456932	0.168855	0.065408	0.469610	0.157398	0.250732	0.161590	0.282003	0.509940	0.053468	0.056707	0.351435	0.214776	0.110329	0.098882	0.588655	0.529759	0.057148	0.067772	0.266633	0.357738	0.056802	0.074951	0.535053	0.757735	0.455760	0.282076	0.401627	0.511050	0.202580	0.089453	0.348922	0.504347	0.239770	0.099365	0.673918	0.496073	0.081678	0.084032	0.534003	0.459460	0.110373	0.033337	0.242097	0.165134
44	0.117367	0.078327	0.758997	0.973988	0.064002	0.033487	0.473232	0.237561	0.036583	0.060468	0.329482	0.722084	0.413318	0.470049	0.094690	0.120149	0.032391	0.044163	0.393334	0.648949	0.087703	0.123431	0.227812	0.269585	0.048035	0.081893	0.474661	0.475138	0.146485	0.087120	0.183251	0.172487	0.088055	0.086403	0.117539	0.414274	0.167988	0.071747	0.494581	0.101805	0.232713	0.136766	0.305901	0.505017	0.074720	0.062978	0.353563	0.155659	0.103102	0.095842	0.529990	0.614950	0.044493	0.057890	0.385206	0.459941	0.056031	0.076722	0.523460	0.721885	0.461818	0.338050	0.304886	0.404202	0.245422	0.088750	0.398279	0.380946	0.255075	0.105368	0.683053	0.503315	0.083619	0.082466	0.541314	0.481514	0.108897	0.035484	0.193211	0.164013
45	0.148230	0.103223	0.782654	0.962844	0.068199	0.047229	0.502414	0.249260	0.048264	0.072330	0.335975	0.734614	0.349553	0.471970	0.092412	0.123188	0.035475	0.055275	0.406431	0.689848	0.082298	0.146140	0.228840	0.274750	0.062962	0.094887	0.490908	0.469022	0.147345	0.095293	0.184446	0.172569	0.085711	0.093017	0.102807	0.409391	0.169180	0.076014	0.498189	0.085570	0.226141	0.133382	0.300173	0.504783	0.091605	0.064485	0.304921	0.395175	0.097235	0.089239	0.512443	0.617048	0.038213	0.044905	0.557710	0.483985	0.045149	0.070890	0.503221	0.717668	0.626772	0.356419	0.294875	0.391796	0.256288	0.102764	0.441118	0.322698	0.257351	0.107769	0.753334	0.504472	0.081342	0.071303	0.513871	0.416233	0.107692	0.038184	0.202593	0.170221
46	0.156556	0.111384	0.760318	0.950350	0.064530	0.048754	0.501883	0.264172	0.057476	0.089527	0.330088	0.729951	0.413701	0.504452	0.120830	0.138167	0.040135	0.065285	0.407676	0.698148	0.086127	0.148252	0.219616	0.273810	0.061934	0.092415	0.499827	0.437666	0.156165	0.100342	0.177439	0.174922	0.076874	0.089892	0.092309	0.409571	0.172123	0.076476	0.498896	0.179602	0.208609	0.103356	0.293290	0.482565	0.089781	0.076028	0.240642	0.472708	0.104650	0.088835	0.539731	0.612957	0.039994	0.047788	0.581322	0.547947	0.046392	0.070875	0.472425	0.682075	0.791352	0.465505	0.178916	0.342489	0.258773	0.103548	0.425313	0.278123	0.256745	0.110031	0.796296	0.502589	0.077696	0.066352	0.490291	0.429180	0.102638	0.036959	0.246159	0.229614
47	0.156058	0.106233	0.763321	1.042625	0.063991	0.051121	0.497233	0.277429	0.056661	0.088719	0.332915	0.582047	0.436418	0.553068	0.189567	0.163935	0.042439	0.069663	0.401971	0.675916	0.076143	0.135869	0.198869	0.264139	0.063909	0.100953	0.481481	0.425678	0.172361	0.122344	0.161578	0.163751	0.075507	0.084169	0.085170	0.442130	0.172822	0.072902	0.489387	0.238014	0.184311	0.081002	0.294359	0.490934	0.086331	0.076757	0.279633	0.516356	0.112722	0.093755	0.582522	0.624451	0.046889	0.051039	0.685945	0.650500	0.048659	0.066683	0.463468	0.566000	0.812150	0.518655	0.090491	0.334242	0.257912	0.100420	0.414725	0.177259	0.254372	0.109696	0.759115	0.395853	0.066367	0.064841	0.477141	0.464630	0.096221	0.037992	0.245184	0.233513
48	0.156613	0.103680	0.752060	1.128199	0.062041	0.052000	0.484919	0.347162	0.056543	0.093186	0.405696	0.511842	0.458445	0.542046	0.210787	0.167097	0.044405	0.066942	0.389720	0.503237	0.074259	0.148828	0.131727	0.656834	0.067420	0.124858	0.477692	0.446437	0.170738	0.123459	0.150925	0.159376	0.074753	0.070500	0.199745	0.442150	0.170823	0.075774	0.420640	0.258772	0.193999	0.080498	0.293811	0.494762	0.085887	0.082577	0.388529	0.530434	0.113434	0.097052	0.581435	0.621201	0.076849	0.067822	0.760453	0.709576	0.077844	0.064740	0.690631	0.543718	0.809733	0.518084	0.086273	0.293580	0.257152	0.100573	0.474537	0.150803	0.222555	0.098272	0.619821	0.356102	0.065359	0.066136	0.464688	0.480473	0.109434	0.047466	0.240022	0.272272
49	0.169586	0.108904	0.658304	1.150392	0.070766	0.054098	0.437762	0.336404	0.063897	0.098431	0.682137	0.464233	0.549821	0.454010	0.212143	0.154531	0.058367	0.099376	0.356930	0.567240	0.076035	0.166777	0.107944	0.819449	0.068785	0.128240	0.476106	0.460409	0.174671	0.138812	0.143623	0.150756	0.074852	0.064089	0.547275	0.427374	0.072085	0.067802	0.423784	0.260783	0.199858	0.082516	0.292043	0.501339	0.088768	0.083195	0.412560	0.563514	0.115103	0.093943	0.528821	0.603740	0.088440	0.079181	0.764805	0.719756	0.110648	0.095368	0.851152	0.547222	0.809421	0.508995	0.093520	0.282955	0.251070	0.099975	0.509797	0.144278	0.182691	0.077412	0.554907	0.331104	0.056840	0.058415	0.452955	0.485011	0.094023	0.049061	0.212846	0.302376
50	0.173854	0.112645	0.575876	1.157987	0.083830	0.062753	0.425789	0.338857	0.094661	0.108075	0.701741	0.332483	0.549633	0.419162	0.245649	0.162268	0.056115	0.102803	0.290238	0.657840	0.076801	0.172217	0.242539	0.877265	0.074592	0.128389	0.463477	0.435531	0.155461	0.132225	0.161763	0.173983	0.075814	0.067655	0.637397	0.449324	0.062808	0.058983	0.415170	0.274232	0.192113	0.089115	0.288690	0.495547	0.088527	0.084383	0.512998	0.565801	0.107314	0.084194	0.471287	0.570835	0.089748	0.077863	0.767196	0.761686	0.115126	0.100645	0.803792	0.535308	0.774366	0.503265	0.095665	0.291743	0.222417	0.090378	0.521920	0.136592	0.171284	0.068301	0.545393	0.275917	0.047025	0.043852	0.407202	0.479362	0.089754	0.050694	0.220593	0.357642
51	0.190223	0.113785	0.564378	1.164397	0.083591	0.065997	0.373522	0.336147	0.117529	0.104376	0.822708	0.243834	0.554524	0.429447	0.276321	0.206094	0.092902	0.106223	0.426385	0.683795	0.085054	0.156625	0.296397	0.940965	0.076136	0.124564	0.394998	0.338106	0.149245	0.130723	0.216617	0.511496	0.074463	0.073920	0.680941	0.506197	0.062666	0.058330	0.405744	0.386689	0.194039	0.095618	0.293744	0.407601	0.080896	0.080413	0.561204	0.585424	0.098668	0.078495	0.451186	0.584127	0.091275	0.078867	0.701999	0.668263	0.113663	0.096370	0.830351	0.528780	0.727301	0.478697	0.186112	0.360776	0.208657	0.081800	0.519534	0.141145	0.153597	0.067248	0.476696	0.220971	0.055466	0.040550	0.347487	0.466755	0.085021	0.050770	0.233927	0.396842
52	0.210869	0.126929	0.606607	1.126498	0.079677	0.069229	0.234504	0.357302	0.136419	0.094514	0.928268	0.204798	0.554567	0.470776	0.318505	0.212389	0.157801	0.106602	0.563587	0.676180	0.096170	0.145121	0.484303	0.958704	0.071201	0.115748	0.316624	0.260152	0.131707	0.121761	0.222246	0.690455	0.086082	0.059327	0.863774	0.516776	0.062387	0.046746	0.416716	0.453610	0.198148	0.096529	0.295859	0.309106	0.061956	0.075821	0.573392	0.610427	0.093898	0.071431	0.472905	0.587322	0.107163	0.084386	0.574710	0.651884	0.120435	0.100018	0.899643	0.559536	0.704988	0.439034	0.270230	0.360036	0.208722	0.082269	0.519116	0.171903	0.136528	0.065390	0.480741	0.171767	0.061073	0.040781	0.329937	0.406616	0.090209	0.050343	0.233784	0.400699
53	0.220349	0.134327	0.593774	0.896263	0.064046	0.061509	0.161554	0.347875	0.165413	0.084896	0.941980	0.221806	0.516904	0.444362	0.351354	0.206463	0.168571	0.102584	0.595602	0.715739	0.098671	0.151212	0.539527	0.968738	0.063163	0.103839	0.282670	0.367948	0.102766	0.118628	0.266281	0.817237	0.093380	0.066438	0.910373	0.514976	0.046661	0.043300	0.422607	0.478852	0.249822	0.078258	0.304576	0.321009	0.036333	0.062030	0.569197	0.531171	0.085052	0.060944	0.474811	0.585691	0.111829	0.087630	0.548791	0.578592	0.127360	0.107002	0.935793	0.594336	0.600602	0.425906	0.317909	0.340468	0.206492	0.081482	0.518724	0.170108	0.059308	0.046891	0.493942	0.137107	0.062232	0.043342	0.324498	0.360351	0.093456	0.059485	0.254632	0.395861
54	0.206454	0.131450	0.500109	0.767361	0.063204	0.068042	0.158024	0.336418	0.203829	0.091832	0.942922	0.233502	0.486284	0.342504	0.387614	0.244430	0.222951	0.114370	0.816546	0.764141	0.098527	0.147917	0.543409	0.971378	0.062464	0.101214	0.230097	0.456190	0.065296	0.095655	0.292479	0.876911	0.088196	0.066607	0.911584	0.491498	0.034600	0.042868	0.432935	0.530320	0.272538	0.065790	0.305760	0.477353	0.049547	0.062957	0.557161	0.543468	0.083871	0.057345	0.459581	0.566143	0.109564	0.085608	0.414211	0.453019	0.140743	0.116802	0.955207	0.583389	0.280940	0.307570	0.333512	0.332581	0.157861	0.080793	0.485769	0.169999	0.052967	0.042949	0.414869	0.121701	0.065548	0.044449	0.304999	0.382548	0.093504	0.061776	0.234169	0.359575
55	0.189093	0.120349	0.491461	0.836401	0.062545	0.069019	0.158031	0.319619	0.217446	0.089739	0.848753	0.226057	0.459986	0.292194	0.398236	0.262909	0.269210	0.122317	0.904715	0.780243	0.099595	0.124703	0.542754	0.700253	0.075986	0.092607	0.280292	0.444388	0.063257	0.093286	0.328219	0.894171	0.086636	0.069972	0.911881	0.426188	0.038504	0.039952	0.423991	0.583524	0.276732	0.080145	0.356582	0.527872	0.061376	0.062691	0.519499	0.517724	0.085039	0.057177	0.457698	0.443122	0.094583	0.066664	0.315820	0.359870	0.151673	0.125979	0.964058	0.519662	0.174320	0.151840	0.458513	0.338217	0.108164	0.065889	0.411909	0.166893	0.056653	0.033613	0.270391	0.121592	0.066378	0.046275	0.321306	0.439996	0.088575	0.060126	0.253420	0.392800
56	0.175023	0.130861	0.561402	0.902913	0.072392	0.068827	0.164820	0.239219	0.214794	0.082788	0.670094	0.256926	0.265576	0.241488	0.431982	0.349393	0.278805	0.113940	0.927877	0.698608	0.098656	0.096717	0.593891	0.542469	0.103458	0.056834	0.316168	0.428584	0.045200	0.072771	0.388988	0.892510	0.085694	0.071742	0.854402	0.362069	0.052529	0.045054	0.345163	0.587647	0.276805	0.095179	0.451097	0.517851	0.062705	0.058635	0.446837	0.506448	0.082654	0.057355	0.437344	0.393763	0.085222	0.057019	0.301178	0.257120	0.154724	0.129594	0.924065	0.442869	0.151046	0.098859	0.502822	0.389517	0.110753	0.040599	0.381973	0.168299	0.056592	0.032444	0.227235	0.121525	0.096915	0.067685	0.320112	0.438189	0.066751	0.058170	0.256188	0.426284
57	0.172586	0.140540	0.581027	0.763314	0.073750	0.071337	0.175249	0.231327	0.200898	0.066402	0.721137	0.548305	0.190725	0.239223	0.719541	0.395277	0.279112	0.096784	0.926936	0.703625	0.097314	0.084783	0.611804	0.440698	0.110286	0.048152	0.322638	0.417552	0.045384	0.065040	0.472455	0.898119	0.072504	0.074352	0.723259	0.358190	0.066556	0.053455	0.324384	0.604763	0.277479	0.101186	0.494048	0.511682	0.058233	0.058091	0.423591	0.477559	0.072930	0.054807	0.382567	0.384888	0.088237	0.059509	0.299050	0.091579	0.137380	0.119642	0.693903	0.352699	0.141612	0.103804	0.512393	0.393977	0.115962	0.023552	0.372923	0.175663	0.065780	0.027631	0.226142	0.122529	0.127604	0.081683	0.281337	0.404934	0.051276	0.052390	0.250232	0.403946
58	0.194804	0.146050	0.547709	0.633600	0.056830	0.065159	0.179278	0.223808	0.197057	0.065354	0.618073	0.560214	0.187633	0.238645	0.794880	0.385627	0.277819	0.107064	0.899409	0.673093	0.104941	0.083422	0.603255	0.287814	0.118184	0.044598	0.352851	0.412572	0.045218	0.054956	0.463723	0.806846	0.064894	0.075317	0.698967	0.292031	0.076046	0.055403	0.288415	0.604469	0.292912	0.104535	0.502002	0.494459	0.059018	0.058401	0.276688	0.470081	0.061111	0.045622	0.331471	0.364317	0.093920	0.066255	0.294034	0.080334	0.117897	0.103842	0.571335	0.348136	0.130132	0.103621	0.523373	0.397516	0.120659	0.023301	0.282071	0.168485	0.064031	0.038526	0.225782	0.139189	0.127553	0.081546	0.276741	0.378267	0.054422	0.053629	0.295974	0.376940
59	0.290117	0.166480	0.546582	0.597723	0.054607	0.062906	0.179901	0.235588	0.197258	0.080551	0.480216	0.561004	0.169632	0.134015	0.811882	0.496432	0.259488	0.113804	0.829625	0.679173	0.104135	0.065799	0.505510	0.267266	0.178059	0.041187	0.361615	0.412924	0.045129	0.050636	0.474199	0.612772	0.062625	0.071070	0.572743	0.197837	0.086922	0.060239	0.253241	0.548960	0.289259	0.129072	0.496286	0.486016	0.065162	0.060607	0.205681	0.470512	0.059771	0.040121	0.311616	0.345186	0.076163	0.060459	0.298634	0.108657	0.128093	0.112037	0.556102	0.353624	0.094889	0.078215	0.530368	0.452239	0.119272	0.021996	0.188639	0.171785	0.061809	0.043251	0.219634	0.171458	0.128667	0.080766	0.279474	0.360570	0.054713	0.053759	0.302451	0.329324
60	0.350680	0.198318	0.545659	0.597744	0.055316	0.064850	0.168909	0.208755	0.163946	0.080554	0.489956	0.563525	0.168433	0.119829	0.799020	0.519074	0.251868	0.118337	0.806892	0.616927	0.110509	0.048197	0.457179	0.239515	0.197900	0.039983	0.471224	0.412313	0.047896	0.053723	0.454827	0.465973	0.052990	0.062283	0.315549	0.201186	0.093407	0.060299	0.231536	0.556003	0.283073	0.139650	0.501656	0.482129	0.078848	0.060250	0.245075	0.407764	0.046299	0.040907	0.309640	0.293797	0.070057	0.054717	0.291341	0.117879	0.134854	0.118993	0.450036	0.410541	0.074442	0.066820	0.547819	0.488726	0.118171	0.020621	0.100862	0.169440	0.061729	0.044106	0.214151	0.275193	0.137489	0.080478	0.283988	0.357089	0.046200	0.053576	0.341371	0.324043
61	0.341778	0.200665	0.536318	0.596667	0.058577	0.065911	0.162556	0.322080	0.124187	0.084481	0.492113	0.580879	0.162729	0.125748	0.807551	0.505408	0.240288	0.115166	0.684999	0.563670	0.112204	0.039696	0.457641	0.235716	0.210040	0.040102	0.556548	0.317915	0.070554	0.058299	0.448024	0.325534	0.056060	0.057323	0.297707	0.200440	0.134632	0.074573	0.237689	0.511380	0.276833	0.136798	0.502262	0.486787	0.117376	0.075151	0.407609	0.317143	0.043258	0.038585	0.297845	0.228988	0.075834	0.065912	0.219202	0.124729	0.132483	0.117463	0.315136	0.390738	0.077521	0.070960	0.559995	0.475368	0.113192	0.019507	0.099905	0.184451	0.062378	0.046265	0.206187	0.275431	0.138125	0.079727	0.287996	0.361765	0.029818	0.041543	0.353588	0.324673
62	0.334352	0.193985	0.521257	0.618899	0.072437	0.061740	0.165862	0.334673	0.107992	0.083716	0.505237	0.605023	0.159593	0.129543	0.805397	0.516643	0.173025	0.119537	0.486778	0.566059	0.110405	0.033992	0.481210	0.241102	0.213080	0.050791	0.539037	0.186262	0.075929	0.052083	0.447824	0.262486	0.070948	0.064806	0.399309	0.200329	0.205528	0.107634	0.228208	0.389103	0.280338	0.132060	0.503057	0.480347	0.122453	0.078089	0.486848	0.257503	0.043219	0.036587	0.231542	0.196052	0.069170	0.071879	0.193976	0.128039	0.121570	0.113273	0.374893	0.418567	0.076487	0.068289	0.550502	0.471540	0.110540	0.017374	0.156980	0.194599	0.063088	0.048566	0.176247	0.302623	0.135364	0.077255	0.296279	0.361916	0.030116	0.037125	0.337088	0.325610
63	0.332089	0.192296	0.512573	0.627353	0.092258	0.055082	0.203477	0.328821	0.108522	0.083553	0.505086	0.573383	0.326219	0.160138	0.797894	0.470860	0.143478	0.131385	0.458655	0.578496	0.108454	0.034951	0.426060	0.248691	0.214175	0.064069	0.513042	0.200199	0.076803	0.044029	0.455004	0.250685	0.077087	0.059303	0.420327	0.200411	0.305580	0.225418	0.223724	0.374292	0.317564	0.129033	0.503956	0.478080	0.130707	0.076954	0.515801	0.228863	0.042534	0.035853	0.172208	0.245731	0.067141	0.071006	0.153765	0.138185	0.108298	0.101614	0.518044	0.428819	0.070616	0.058538	0.490051	0.457988	0.110922	0.017779	0.277480	0.237260	0.058293	0.049107	0.168904	0.311147	0.137788	0.076382	0.294238	0.367136	0.034918	0.039145	0.319444	0.290221
64	0.339835	0.192517	0.511635	0.620225	0.103140	0.071978	0.461564	0.327853	0.107364	0.083886	0.360682	0.355606	0.378480	0.156539	0.611801	0.428512	0.138795	0.133853	0.447250	0.575634	0.099011	0.044353	0.343687	0.256659	0.202855	0.062632	0.490399	0.208117	0.076178	0.052893	0.351191	0.219908	0.075419	0.059514	0.363583	0.208416	0.447366	0.334051	0.219458	0.413016	0.334933	0.136091	0.501269	0.479442	0.149486	0.081708	0.614825	0.227784	0.044100	0.035818	0.196892	0.271648	0.062924	0.069138	0.134082	0.245722	0.096069	0.094165	0.558367	0.446105	0.068370	0.054995	0.431595	0.412229	0.088246	0.025391	0.322471	0.255824	0.049123	0.054640	0.213586	0.312690	0.142162	0.074005	0.291400	0.372588	0.052976	0.031435	0.298140	0.174597
65	0.348320	0.183253	0.446960	0.494107	0.098430	0.067691	0.531935	0.332721	0.088867	0.085614	0.253779	0.344519	0.377122	0.168071	0.428510	0.415391	0.139680	0.130291	0.433557	0.439964	0.086686	0.051414	0.309075	0.280666	0.199566	0.062758	0.488976	0.201154	0.117912	0.067110	0.330689	0.214772	0.076229	0.055280	0.350266	0.185358	0.460209	0.350968	0.182285	0.358832	0.325902	0.152409	0.514470	0.412215	0.150722	0.082798	0.641045	0.228689	0.053892	0.048026	0.217324	0.271439	0.058383	0.059786	0.164003	0.354285	0.090551	0.092437	0.567990	0.475933	0.060077	0.044672	0.422495	0.405764	0.092226	0.033611	0.322936	0.266494	0.047107	0.054571	0.215353	0.326301	0.141138	0.073854	0.278853	0.251697	0.061988	0.033445	0.331786	0.153441
66	0.356113	0.167320	0.343165	0.381067	0.118397	0.066878	0.635114	0.367824	0.055072	0.076161	0.351070	0.564658	0.383682	0.175769	0.394604	0.322801	0.140553	0.127561	0.394735	0.381890	0.075092	0.052268	0.247215	0.279488	0.193446	0.066270	0.467938	0.202424	0.228853	0.096642	0.309588	0.175899	0.076883	0.051275	0.463846	0.165558	0.560389	0.367911	0.189994	0.325570	0.324454	0.162365	0.500848	0.199962	0.150390	0.082022	0.644607	0.218010	0.082362	0.054215	0.227534	0.267793	0.069097	0.065252	0.251378	0.392015	0.100575	0.099839	0.649626	0.496847	0.051253	0.036768	0.408450	0.399743	0.098095	0.037482	0.331603	0.289981	0.046684	0.055105	0.262889	0.400877	0.136451	0.069021	0.335085	0.280473	0.063391	0.028602	0.313913	0.093788
67	0.363717	0.171981	0.279662	0.458350	0.148780	0.070236	0.781550	0.459018	0.054531	0.070111	0.576150	0.628606	0.400207	0.220296	0.394118	0.216256	0.134928	0.124416	0.331012	0.391524	0.059809	0.049382	0.250973	0.294183	0.138342	0.066867	0.465614	0.202122	0.398940	0.224394	0.298564	0.169934	0.078467	0.054897	0.622589	0.139286	0.603680	0.377977	0.193174	0.304355	0.333553	0.158462	0.413361	0.181405	0.166951	0.087036	0.638863	0.180132	0.124136	0.057243	0.245692	0.270507	0.070444	0.078903	0.274460	0.474103	0.108227	0.111371	0.681317	0.496050	0.057481	0.035851	0.384354	0.278141	0.084606	0.040559	0.343129	0.291552	0.047943	0.050223	0.277076	0.411348	0.095099	0.045539	0.378693	0.339240	0.077567	0.029177	0.298687	0.087347
68	0.357824	0.191060	0.276935	0.670759	0.157790	0.069287	0.800441	0.488416	0.081846	0.100643	0.651151	0.618258	0.397759	0.230966	0.346934	0.223900	0.135718	0.129270	0.382275	0.439850	0.058992	0.049857	0.318691	0.309249	0.105631	0.064943	0.355936	0.220528	0.466708	0.443919	0.292911	0.116995	0.074726	0.056064	0.639564	0.149792	0.657490	0.418124	0.181818	0.254543	0.344436	0.156591	0.334350	0.234602	0.179711	0.100983	0.590225	0.162525	0.124367	0.058069	0.250174	0.278698	0.082441	0.076714	0.322527	0.529762	0.091940	0.113685	0.712688	0.493598	0.056735	0.037006	0.304121	0.155694	0.077607	0.046412	0.477786	0.298657	0.050315	0.043108	0.279329	0.450784	0.088084	0.044328	0.370091	0.401462	0.085486	0.032005	0.272351	0.083536
69	0.273177	0.165014	0.281814	0.692531	0.162682	0.067425	0.798808	0.428765	0.105438	0.111106	0.691060	0.594070	0.396595	0.229028	0.295593	0.171896	0.138441	0.139831	0.526469	0.395525	0.066095	0.054376	0.372781	0.311508	0.075787	0.065197	0.192107	0.460684	0.553236	0.492591	0.242964	0.146139	0.067251	0.058678	0.745761	0.169040	0.755844	0.527021	0.168512	0.252697	0.342975	0.192294	0.347451	0.421847	0.165015	0.118427	0.477212	0.203496	0.134311	0.055833	0.286836	0.317563	0.088226	0.077401	0.387278	0.539336	0.087297	0.108468	0.731767	0.430274	0.051249	0.032346	0.207583	0.133345	0.072552	0.049202	0.622533	0.296809	0.065882	0.049379	0.279490	0.426632	0.093461	0.054082	0.371372	0.405818	0.092257	0.050564	0.227102	0.080450
70	0.223045	0.166399	0.336369	0.707857	0.253535	0.124319	0.804323	0.409350	0.105328	0.115790	0.730597	0.609302	0.286323	0.210350	0.290969	0.163577	0.153270	0.141205	0.519220	0.360408	0.069922	0.053724	0.362933	0.331436	0.080251	0.068838	0.178799	0.491398	0.808834	0.623904	0.160564	0.198090	0.066349	0.055964	0.858373	0.185111	0.729768	0.528950	0.155791	0.310444	0.351709	0.229719	0.467057	0.527348	0.163152	0.119780	0.487445	0.211816	0.158525	0.060982	0.285318	0.348936	0.088034	0.075029	0.388180	0.534546	0.089515	0.105432	0.721951	0.385713	0.050596	0.029555	0.209818	0.124620	0.075580	0.049772	0.651247	0.299795	0.077491	0.054764	0.274670	0.438855	0.093624	0.058393	0.375021	0.411885	0.093834	0.053577	0.226488	0.096645
71	0.226351	0.190916	0.323176	0.746943	0.265516	0.138289	0.800684	0.432137	0.123278	0.148987	0.770795	0.714313	0.208571	0.205299	0.282725	0.163621	0.159061	0.145161	0.507300	0.363156	0.098856	0.062417	0.413754	0.340606	0.096214	0.059185	0.311865	0.486405	0.832223	0.702079	0.163797	0.196476	0.059631	0.056932	0.884352	0.201994	0.669865	0.477348	0.189909	0.283443	0.393491	0.249454	0.619704	0.562045	0.234197	0.171347	0.482843	0.218235	0.177133	0.067038	0.349999	0.351190	0.085845	0.075154	0.388665	0.494375	0.089091	0.104544	0.616665	0.352949	0.052854	0.032039	0.142961	0.119445	0.075796	0.051656	0.696110	0.367722	0.079961	0.054347	0.270038	0.431327	0.085561	0.058538	0.371171	0.419724	0.091435	0.051636	0.229127	0.103751
72	0.219804	0.194871	0.275807	0.750848	0.273269	0.139829	0.708057	0.451434	0.135532	0.160555	0.796178	0.771415	0.192862	0.191193	0.254140	0.174278	0.163359	0.152315	0.548962	0.383167	0.181434	0.088076	0.511559	0.338424	0.133577	0.059296	0.565342	0.476047	0.838403	0.735576	0.167501	0.282860	0.063267	0.050509	0.894101	0.251086	0.633085	0.443351	0.319304	0.238654	0.397940	0.258100	0.702858	0.559862	0.258657	0.188270	0.390650	0.227659	0.189935	0.076177	0.412715	0.348785	0.079319	0.076017	0.382816	0.481912	0.088245	0.105301	0.521580	0.354115	0.055657	0.042555	0.116351	0.116127	0.076355	0.059622	0.846227	0.455756	0.079716	0.054081	0.265701	0.428752	0.085907	0.064108	0.373509	0.497235	0.083040	0.050811	0.226688	0.103987
73	0.230548	0.194346	0.313849	0.751942	0.285886	0.169395	0.652040	0.462729	0.145447	0.161050	0.745366	0.636174	0.172807	0.173792	0.204091	0.185421	0.184128	0.169505	0.655245	0.405389	0.206607	0.099012	0.577696	0.307367	0.160805	0.083062	0.698606	0.495070	0.826455	0.739052	0.152251	0.296800	0.074927	0.054751	0.892417	0.369546	0.616120	0.442250	0.328458	0.273173	0.397000	0.260054	0.711003	0.579000	0.283626	0.226409	0.434564	0.270968	0.196612	0.078582	0.419474	0.411558	0.072761	0.065797	0.348604	0.437317	0.096565	0.109367	0.581133	0.324700	0.056500	0.042215	0.114947	0.114793	0.084163	0.070525	0.972304	0.462173	0.077144	0.049365	0.221068	0.432508	0.098965	0.078700	0.374268	0.563252	0.075580	0.048641	0.182947	0.104008
74	0.219921	0.193555	0.363527	0.782085	0.299812	0.239068	0.575407	0.453635	0.145271	0.158462	0.572413	0.574908	0.115844	0.085686	0.189402	0.249786	0.171188	0.162646	0.709202	0.398705	0.261457	0.107362	0.578176	0.353800	0.220884	0.097040	0.744115	0.501609	0.765295	0.717760	0.153743	0.299179	0.099176	0.058543	0.790572	0.395235	0.525825	0.434003	0.399417	0.317409	0.387998	0.261654	0.777312	0.639042	0.288787	0.241532	0.439490	0.284104	0.197410	0.078511	0.446893	0.470650	0.068820	0.053364	0.338778	0.345809	0.110055	0.110593	0.658166	0.287933	0.064407	0.041446	0.102428	0.118263	0.101470	0.079981	1.022688	0.457085	0.077635	0.054737	0.225068	0.430889	0.120977	0.098393	0.380678	0.575811	0.071995	0.048639	0.155052	0.113702
75	0.207901	0.201190	0.356587	0.804313	0.370166	0.323096	0.339844	0.329256	0.121256	0.140253	0.513901	0.611110	0.149512	0.039405	0.172376	0.243674	0.164772	0.162879	0.706921	0.343580	0.350924	0.119945	0.537076	0.429184	0.306346	0.122161	0.955368	0.504327	0.721118	0.615867	0.153802	0.326746	0.098286	0.059064	0.721810	0.410825	0.507333	0.430225	0.433102	0.323226	0.359545	0.260457	0.901926	0.699412	0.309539	0.282969	0.447647	0.275590	0.196784	0.077799	0.439328	0.466007	0.044145	0.038263	0.274673	0.260780	0.100552	0.093274	0.613365	0.273022	0.057567	0.040322	0.087740	0.128591	0.143459	0.098850	1.035332	0.461977	0.079756	0.053961	0.187450	0.360112	0.136465	0.108271	0.379448	0.565026	0.059748	0.047818	0.178250	0.122139
76	0.197035	0.203463	0.448241	0.800641	0.395488	0.333979	0.265378	0.285342	0.108816	0.136663	0.462453	0.781442	0.206221	0.065039	0.234048	0.228961	0.178178	0.153555	0.625412	0.473505	0.354628	0.144096	0.482897	0.473354	0.315642	0.128285	1.003424	0.538808	0.700469	0.572376	0.155001	0.360577	0.094463	0.061070	0.748846	0.424631	0.275780	0.296185	0.445648	0.323277	0.316737	0.259305	0.969516	0.721029	0.314471	0.283336	0.470926	0.304107	0.192854	0.069769	0.434438	0.466145	0.037680	0.038107	0.217322	0.252559	0.106720	0.068151	0.588119	0.275956	0.076929	0.042156	0.084300	0.136848	0.184257	0.112059	1.034192	0.458975	0.079841	0.062714	0.238461	0.348312	0.164859	0.114097	0.346876	0.553382	0.048050	0.046453	0.177917	0.124522
77	0.182382	0.198815	0.479677	0.731607	0.422174	0.357846	0.300539	0.289268	0.109669	0.133293	0.492422	0.761857	0.213602	0.132646	0.244097	0.307623	0.165074	0.127949	0.572665	0.533941	0.359463	0.168834	0.516117	0.455003	0.316266	0.139130	1.005607	0.411059	0.354586	0.457060	0.201230	0.344472	0.092737	0.056916	0.570486	0.432344	0.240765	0.211961	0.445094	0.300270	0.318670	0.270508	0.978987	0.761651	0.312579	0.273736	0.465472	0.284107	0.174588	0.065637	0.433054	0.478088	0.039474	0.040220	0.223283	0.265119	0.112677	0.062648	0.569282	0.289684	0.089672	0.039267	0.084326	0.133750	0.207105	0.113739	1.032854	0.460468	0.082144	0.068953	0.290440	0.289166	0.211561	0.128244	0.235616	0.536315	0.033735	0.028931	0.180694	0.136650
78	0.151405	0.180833	0.479620	0.569251	0.398370	0.349473	0.299051	0.296888	0.092577	0.091860	0.440202	0.672464	0.205299	0.133347	0.318322	0.309238	0.139481	0.110166	0.571706	0.594917	0.350696	0.165291	0.498549	0.428600	0.317312	0.135795	0.999117	0.440476	0.311565	0.328591	0.250062	0.356391	0.092679	0.057286	0.420855	0.516738	0.239511	0.181398	0.463487	0.286889	0.326486	0.288778	0.985379	0.793918	0.311577	0.268671	0.387987	0.275911	0.157917	0.067033	0.434942	0.492058	0.042021	0.039395	0.337422	0.213958	0.108361	0.057059	0.590267	0.304138	0.094087	0.039709	0.065661	0.128042	0.208076	0.121391	1.010596	0.494576	0.077391	0.065619	0.298100	0.229223	0.233698	0.136447	0.185771	0.546905	0.031032	0.017825	0.180156	0.181597
79	0.139304	0.177840	0.472763	0.553009	0.402209	0.350118	0.292092	0.271378	0.080880	0.080743	0.402063	0.631488	0.204433	0.133932	0.329085	0.312367	0.157947	0.107250	0.558381	0.596528	0.322695	0.152462	0.388120	0.470292	0.332131	0.135757	0.970088	0.439398	0.293778	0.298846	0.244682	0.296968	0.089807	0.068724	0.455493	0.554826	0.241229	0.208158	0.442070	0.290129	0.328536	0.302492	0.984663	0.796424	0.231942	0.233104	0.365796	0.276577	0.157152	0.072070	0.428109	0.542098	0.040265	0.036740	0.353276	0.169682	0.108104	0.078172	0.621545	0.315650	0.099172	0.039795	0.058792	0.129948	0.237998	0.140641	0.947458	0.564747	0.065586	0.059727	0.297552	0.198729	0.237673	0.137961	0.211907	0.570894	0.035405	0.020594	0.208141	0.176006
80	0.131264	0.137356	0.433388	0.498336	0.445641	0.372620	0.278364	0.230278	0.074635	0.091932	0.389604	0.636019	0.204103	0.133919	0.389818	0.309641	0.140380	0.075118	0.475753	0.595224	0.347502	0.161261	0.288942	0.513566	0.337992	0.155818	0.858622	0.436969	0.299759	0.357492	0.245610	0.300334	0.096300	0.079736	0.487751	0.561946	0.216898	0.203318	0.421698	0.297226	0.321495	0.306650	0.977378	0.753844	0.215362	0.221543	0.410575	0.279231	0.144453	0.072407	0.416080	0.593286	0.040198	0.034465	0.340482	0.158941	0.108875	0.081679	0.624085	0.296391	0.098402	0.026717	0.083244	0.125220	0.284044	0.166871	0.920431	0.616313	0.061282	0.056853	0.295699	0.131772	0.263349	0.160258	0.300466	0.565468	0.046924	0.034059	0.240249	0.186277
81	0.122848	0.105701	0.432213	0.453569	0.436955	0.361799	0.225599	0.192107	0.074147	0.088344	0.399169	0.639035	0.203816	0.138084	0.391628	0.315601	0.137310	0.071133	0.331001	0.601830	0.360725	0.225700	0.280319	0.480835	0.327946	0.151238	0.777615	0.430804	0.329264	0.468198	0.271725	0.314231	0.079765	0.076479	0.489429	0.561075	0.184469	0.203749	0.387715	0.253354	0.317396	0.286611	0.943735	0.671135	0.189239	0.189621	0.366406	0.260644	0.115547	0.067713	0.418345	0.622902	0.053732	0.034643	0.363581	0.160598	0.106934	0.079759	0.598307	0.276138	0.098798	0.028707	0.093820	0.115654	0.313668	0.184508	0.930116	0.640340	0.070280	0.058420	0.294274	0.116906	0.497273	0.205325	0.346661	0.565064	0.078851	0.059857	0.269465	0.198085
82	0.121424	0.097079	0.432628	0.470371	0.428579	0.329748	0.221405	0.181110	0.073996	0.083507	0.404444	0.575677	0.178696	0.149136	0.416698	0.344378	0.139847	0.066951	0.275836	0.598624	0.335364	0.275830	0.297259	0.392509	0.294365	0.142007	0.943063	0.433678	0.330713	0.531663	0.300628	0.295535	0.064182	0.078775	0.494185	0.567279	0.158023	0.214244	0.307281	0.295002	0.269650	0.255716	0.866765	0.664687	0.162502	0.147833	0.379639	0.262243	0.090529	0.059734	0.353425	0.630853	0.054401	0.032179	0.359371	0.249723	0.093718	0.079498	0.474220	0.277498	0.096657	0.035807	0.131847	0.128907	0.333934	0.195344	0.855776	0.575501	0.081915	0.063529	0.301790	0.090271	0.553967	0.243794	0.341285	0.531957	0.101586	0.064472	0.264815	0.436771
83	0.084179	0.095758	0.392161	0.486337	0.377577	0.241381	0.222286	0.183952	0.074655	0.084201	0.333552	0.318102	0.150611	0.149793	0.391389	0.358495	0.129993	0.062189	0.268968	0.565135	0.391588	0.299173	0.401951	0.349326	0.206096	0.120739	0.892259	0.433738	0.319698	0.528368	0.306289	0.226455	0.064492	0.086153	0.489363	0.573668	0.130336	0.202151	0.327515	0.326374	0.236638	0.239317	0.772659	0.702193	0.090034	0.066084	0.490964	0.280992	0.062554	0.050817	0.304624	0.645161	0.058904	0.030712	0.350134	0.264354	0.075788	0.084188	0.393187	0.284576	0.092228	0.037029	0.173322	0.266763	0.341555	0.197993	0.707740	0.532425	0.083440	0.060267	0.341035	0.090542	0.558744	0.247088	0.399027	0.447470	0.114267	0.069245	0.255541	0.466510
84	0.072695	0.094113	0.366753	0.440244	0.361421	0.221844	0.225089	0.179178	0.074151	0.080334	0.223631	0.300288	0.105689	0.093050	0.379848	0.318236	0.117232	0.073456	0.235464	0.402189	0.461107	0.337624	0.379726	0.377886	0.192895	0.114696	0.918989	0.433551	0.293548	0.518239	0.293754	0.213029	0.064913	0.090120	0.593007	0.582817	0.105367	0.192950	0.416546	0.326701	0.236576	0.238348	0.772859	0.697898	0.062264	0.049854	0.604081	0.231490	0.053238	0.050447	0.289039	0.574203	0.082221	0.051860	0.333068	0.272721	0.070365	0.089585	0.408015	0.300947	0.077081	0.033367	0.213507	0.305535	0.341844	0.195765	0.540643	0.534040	0.136032	0.061230	0.351091	0.081705	0.573677	0.281261	0.444031	0.412601	0.182627	0.075756	0.242639	0.508183
85	0.061275	0.086419	0.379692	0.417587	0.340673	0.179252	0.200171	0.204645	0.088660	0.103049	0.221898	0.350775	0.114409	0.089109	0.317537	0.300571	0.116297	0.075730	0.197649	0.344759	0.463565	0.339531	0.495210	0.395684	0.197401	0.105806	1.045180	0.439604	0.252724	0.503574	0.233058	0.192300	0.070836	0.091522	0.680223	0.571844	0.098526	0.186925	0.474891	0.305168	0.238177	0.247632	0.800244	0.662668	0.049644	0.070216	0.632440	0.240350	0.053349	0.050468	0.250952	0.534606	0.093425	0.062874	0.208058	0.265857	0.048261	0.090037	0.395839	0.385208	0.068154	0.034389	0.237253	0.329041	0.335095	0.192889	0.480832	0.537891	0.178635	0.060944	0.321226	0.079181	0.585536	0.338611	0.463655	0.449730	0.214503	0.080720	0.247031	0.557455
86	0.057338	0.082283	0.264052	0.423958	0.311352	0.168266	0.190094	0.215133	0.104310	0.102001	0.221789	0.337786	0.116962	0.099722	0.306559	0.319757	0.101811	0.076777	0.191226	0.326457	0.459532	0.338842	0.529678	0.318902	0.235695	0.194684	1.055999	0.535281	0.242682	0.470478	0.219226	0.195536	0.089599	0.089056	0.671235	0.491585	0.095562	0.157692	0.462475	0.306449	0.225364	0.251291	0.688214	0.593488	0.056111	0.079109	0.669475	0.243254	0.057036	0.052493	0.257928	0.560195	0.095514	0.063447	0.167867	0.279045	0.044021	0.088910	0.362500	0.414546	0.077384	0.039441	0.252255	0.378920	0.313538	0.182575	0.479988	0.531846	0.184193	0.070507	0.273840	0.077761	0.595068	0.376650	0.466680	0.451918	0.215893	0.083827	0.262140	0.575432
87	0.087767	0.075252	0.368907	0.432857	0.296139	0.156433	0.336408	0.202359	0.096800	0.095999	0.219603	0.396727	0.131592	0.138027	0.232083	0.320504	0.081281	0.080615	0.319027	0.395567	0.434571	0.330295	0.531029	0.247814	0.252724	0.258823	1.065949	0.548758	0.206559	0.405039	0.228101	0.167065	0.099322	0.077850	0.669997	0.444157	0.083171	0.153367	0.512563	0.300128	0.225243	0.251166	0.532587	0.551833	0.057626	0.077594	0.650905	0.239423	0.094530	0.061303	0.254985	0.576998	0.095799	0.064442	0.241013	0.305434	0.041708	0.083585	0.296857	0.397662	0.073981	0.040108	0.418148	0.403564	0.287992	0.180284	0.534174	0.530754	0.183689	0.086874	0.261502	0.079934	0.581203	0.387867	0.495518	0.443659	0.228561	0.084061	0.268070	0.582060
88	0.099806	0.073923	0.472691	0.425106	0.198629	0.075555	0.363861	0.216291	0.096794	0.098746	0.384369	0.400963	0.138917	0.148653	0.243136	0.286080	0.099546	0.089198	0.514271	0.401831	0.382496	0.283928	0.532197	0.228968	0.290478	0.268965	1.061939	0.554574	0.144719	0.319149	0.200757	0.100310	0.094404	0.071575	0.686221	0.427018	0.120589	0.143565	0.530158	0.286930	0.208037	0.235881	0.485975	0.518319	0.055994	0.074518	0.603619	0.231525	0.134251	0.074125	0.241607	0.713291	0.087442	0.063357	0.241373	0.318410	0.039984	0.071976	0.256860	0.396287	0.080704	0.045306	0.483805	0.407520	0.285282	0.179413	0.575321	0.511645	0.186449	0.092479	0.259552	0.088093	0.572820	0.387396	0.506019	0.442708	0.229053	0.080699	0.250229	0.579833
89	0.104011	0.075915	0.498805	0.416959	0.198885	0.079880	0.373773	0.246070	0.104309	0.099824	0.428275	0.489367	0.139128	0.139992	0.208592	0.230082	0.129536	0.096936	0.564284	0.479874	0.343913	0.236012	0.525219	0.235124	0.302700	0.303133	1.044826	0.706185	0.115218	0.083734	0.146717	0.099030	0.093512	0.074065	0.692127	0.339599	0.152159	0.137721	0.531714	0.267390	0.173346	0.207441	0.485337	0.461367	0.056572	0.073807	0.614819	0.184183	0.184496	0.080462	0.321045	0.773760	0.089115	0.064244	0.317148	0.257240	0.033481	0.070046	0.259612	0.380351	0.080089	0.048365	0.487276	0.420776	0.278143	0.169681	0.573629	0.465595	0.245065	0.133976	0.258965	0.080518	0.567266	0.391098	0.506694	0.449811	0.221040	0.066813	0.224592	0.579211
90	0.156686	0.088850	0.502512	0.416737	0.202522	0.081806	0.371978	0.250201	0.104506	0.116980	0.551642	0.565909	0.126397	0.141050	0.176729	0.198730	0.129996	0.099370	0.596480	0.516099	0.260088	0.175284	0.445968	0.227123	0.342556	0.316214	0.862678	0.809418	0.066732	0.055039	0.141640	0.098887	0.104715	0.065574	0.693178	0.327170	0.161691	0.171200	0.524387	0.168526	0.149612	0.182066	0.495132	0.432361	0.059355	0.073405	0.618860	0.177554	0.221994	0.088002	0.470639	0.728918	0.085621	0.061389	0.366491	0.254720	0.037081	0.065910	0.263926	0.378790	0.077034	0.045340	0.495140	0.417213	0.229938	0.147749	0.643601	0.383451	0.334945	0.222113	0.253866	0.082491	0.565103	0.405169	0.476104	0.507184	0.210264	0.060532	0.294204	0.468649
91	0.264665	0.116986	0.556521	0.400699	0.189947	0.085895	0.372802	0.251631	0.114539	0.121107	0.627402	0.586254	0.129639	0.140605	0.175634	0.199595	0.129725	0.092291	0.673501	0.538977	0.125916	0.062465	0.416159	0.306445	0.351979	0.317396	0.705513	0.827595	0.063780	0.055834	0.126830	0.098526	0.116062	0.054326	0.647877	0.356279	0.241313	0.203508	0.472731	0.175908	0.130092	0.164637	0.507350	0.431066	0.056140	0.070215	0.474760	0.139323	0.238137	0.091823	0.497179	0.716502	0.113116	0.053470	0.370271	0.232207	0.056297	0.082084	0.251479	0.389592	0.077509	0.045146	0.500610	0.355958	0.187594	0.119256	0.724070	0.310548	0.371457	0.301012	0.246645	0.216162	0.503280	0.434154	0.425461	0.515341	0.205716	0.056271	0.325870	0.425760
92	0.288964	0.121591	0.604085	0.377081	0.115541	0.085410	0.416419	0.282566	0.112968	0.111940	0.620635	0.597444	0.124558	0.141984	0.196676	0.202273	0.138492	0.092621	0.708828	0.558504	0.123659	0.069442	0.297607	0.371596	0.362581	0.317883	0.593651	0.816891	0.055825	0.057442	0.121113	0.127695	0.118587	0.056998	0.472907	0.385232	0.275442	0.275544	0.378283	0.202913	0.119655	0.141562	0.508642	0.453263	0.056335	0.064151	0.374893	0.134192	0.241577	0.094741	0.506914	0.752658	0.154986	0.070616	0.380940	0.223447	0.060151	0.106180	0.220950	0.363947	0.079800	0.045429	0.487705	0.313350	0.149428	0.091841	0.739796	0.339135	0.403565	0.312033	0.188156	0.245116	0.333982	0.441150	0.422507	0.517211	0.158464	0.047649	0.334991	0.382584
93	0.310595	0.161421	0.606202	0.353040	0.100061	0.082678	0.451639	0.285374	0.100275	0.107877	0.624956	0.594009	0.123468	0.136684	0.218766	0.147222	0.163913	0.101279	0.737677	0.601373	0.117404	0.079030	0.352602	0.377307	0.362208	0.316669	0.358582	0.831154	0.055346	0.055897	0.121119	0.183665	0.124472	0.062337	0.463996	0.571289	0.288465	0.290547	0.386118	0.221852	0.119503	0.131876	0.515414	0.723499	0.057327	0.042050	0.287062	0.118201	0.257662	0.096552	0.559593	0.813886	0.196899	0.117446	0.372267	0.210438	0.072863	0.103778	0.235497	0.363911	0.077846	0.048437	0.478307	0.300073	0.115851	0.071256	0.727008	0.352390	0.445476	0.387390	0.144078	0.254056	0.347038	0.463128	0.404204	0.516531	0.093827	0.035611	0.409919	0.301278
94	0.318655	0.211513	0.613022	0.335907	0.094905	0.080079	0.447767	0.282666	0.098669	0.100218	0.609086	0.543422	0.162111	0.155123	0.212741	0.143562	0.172515	0.099877	0.738460	0.563960	0.121443	0.119139	0.375355	0.378874	0.334157	0.271673	0.359309	0.766209	0.060199	0.046338	0.131936	0.185661	0.139567	0.071357	0.518174	0.587365	0.288144	0.293238	0.284042	0.249610	0.117380	0.127816	0.563205	0.840909	0.051860	0.037617	0.226275	0.116431	0.312236	0.118164	0.616853	0.826727	0.281253	0.136093	0.314188	0.213097	0.074937	0.103417	0.246894	0.271180	0.084896	0.071954	0.471827	0.234763	0.107869	0.067855	0.713404	0.343646	0.453546	0.450238	0.129202	0.256429	0.323153	0.464011	0.354780	0.531376	0.093197	0.025056	0.467843	0.254331
95	0.319626	0.213569	0.601381	0.404337	0.075677	0.076144	0.357848	0.289327	0.143486	0.101656	0.515240	0.560760	0.285748	0.198314	0.178766	0.206384	0.166726	0.089877	0.643043	0.527492	0.116763	0.126832	0.493903	0.405278	0.299340	0.212920	0.354529	0.757762	0.070878	0.064205	0.169477	0.195434	0.206462	0.115921	0.463922	0.585940	0.283722	0.292549	0.280279	0.256449	0.111673	0.123972	0.695431	0.830557	0.047024	0.037975	0.223750	0.137695	0.347926	0.145674	0.642175	0.827932	0.366284	0.200208	0.299389	0.207830	0.074607	0.103327	0.278583	0.238459	0.151239	0.118979	0.354452	0.190381	0.088843	0.071215	0.714047	0.378778	0.463483	0.460768	0.094159	0.269959	0.290845	0.431408	0.319598	0.580405	0.084462	0.024525	0.466242	0.253344
96	0.320248	0.213147	0.603787	0.550028	0.083265	0.074071	0.315411	0.281543	0.141462	0.097199	0.499801	0.473047	0.374840	0.237456	0.155290	0.313292	0.144419	0.073594	0.599945	0.465526	0.117729	0.139125	0.524584	0.434084	0.243834	0.183934	0.358073	0.765424	0.072222	0.065033	0.177606	0.201897	0.225668	0.121307	0.454692	0.627789	0.262321	0.287934	0.406124	0.261533	0.091012	0.113799	0.790390	0.877812	0.055381	0.049796	0.219784	0.199415	0.358335	0.156201	0.634330	0.836568	0.371122	0.211263	0.198029	0.199536	0.074695	0.104602	0.285985	0.245941	0.212197	0.128783	0.221530	0.187328	0.083456	0.064379	0.716499	0.389603	0.463234	0.457610	0.089895	0.304047	0.255097	0.385956	0.316829	0.633044	0.106930	0.029174	0.464447	0.259356
97	0.310319	0.210939	0.538593	0.621351	0.098087	0.063535	0.303356	0.278362	0.147635	0.073329	0.326639	0.402362	0.515263	0.306606	0.151987	0.317845	0.133659	0.073324	0.727227	0.473213	0.118758	0.141708	0.525366	0.441590	0.230195	0.112607	0.361317	0.631176	0.073329	0.066020	0.182502	0.204216	0.272552	0.131727	0.465536	0.664819	0.248315	0.260380	0.426924	0.311845	0.060520	0.094772	0.790277	0.976200	0.061452	0.068575	0.150256	0.207709	0.359434	0.156860	0.634901	0.825378	0.369606	0.210450	0.148518	0.217812	0.074621	0.110315	0.332073	0.299112	0.214720	0.155507	0.208312	0.164683	0.085096	0.065246	0.714917	0.398444	0.463824	0.457166	0.090797	0.327488	0.243173	0.362775	0.298594	0.665131	0.109707	0.034141	0.500781	0.258400
98	0.308913	0.210933	0.533489	0.623359	0.100426	0.050910	0.306939	0.334318	0.153200	0.073411	0.321547	0.438890	0.550796	0.365327	0.223650	0.339794	0.146436	0.077076	0.686400	0.434761	0.119231	0.141021	0.523975	0.344782	0.191439	0.089658	0.353426	0.504885	0.069766	0.066479	0.177079	0.202877	0.316986	0.142045	0.568713	0.664353	0.212565	0.253503	0.540207	0.356396	0.064360	0.090868	0.805046	1.034700	0.058708	0.069296	0.126150	0.221405	0.348487	0.156183	0.639941	0.799586	0.356258	0.207845	0.149217	0.219498	0.079850	0.110149	0.376142	0.345540	0.215138	0.155972	0.190896	0.164420	0.088724	0.058071	0.674267	0.404450	0.446005	0.450912	0.107857	0.348651	0.244753	0.353291	0.241691	0.671380	0.118425	0.041723	0.479525	0.234329
99	0.307255	0.209920	0.540877	0.627514	0.147616	0.058477	0.307470	0.344429	0.144862	0.059366	0.358995	0.406354	0.550129	0.368145	0.238115	0.358179	0.151408	0.077098	0.632053	0.496801	0.116083	0.133067	0.477550	0.271767	0.249824	0.131791	0.332984	0.478027	0.063286	0.063159	0.178048	0.203692	0.343181	0.143576	0.540893	0.713744	0.147922	0.175623	0.582461	0.376027	0.129814	0.098188	0.855277	1.046731	0.058379	0.069393	0.192595	0.229132	0.334253	0.151713	0.647034	0.651136	0.338215	0.198252	0.148912	0.219600	0.076667	0.104898	0.376300	0.336388	0.217142	0.156416	0.125112	0.179025	0.103413	0.059548	0.662676	0.403960	0.387446	0.423754	0.125074	0.358947	0.244655	0.351285	0.238590	0.639590	0.137130	0.056841	0.443656	0.218105
100	0.273792	0.202010	0.560104	0.691351	0.165642	0.076534	0.257446	0.324043	0.143594	0.060791	0.353723	0.395692	0.549884	0.368158	0.217158	0.375150	0.131971	0.062866	0.605598	0.513015	0.110770	0.127840	0.412694	0.258689	0.287271	0.256848	0.355030	0.472891	0.056367	0.058205	0.173121	0.156539	0.362998	0.137702	0.527433	0.629943	0.205672	0.154176	0.572854	0.353803	0.154776	0.109150	0.895816	1.045218	0.060000	0.068742	0.206382	0.279180	0.308083	0.148268	0.581005	0.622666	0.321000	0.176805	0.152815	0.278070	0.067966	0.077842	0.364173	0.331259	0.217160	0.161104	0.113658	0.189401	0.243228	0.137238	0.628373	0.386055	0.330945	0.368348	0.123838	0.317876	0.244600	0.338318	0.239204	0.611889	0.146055	0.062488	0.437810	0.233943
101	0.188638	0.189974	0.578089	0.704170	0.176613	0.079208	0.180398	0.357064	0.142690	0.066801	0.485276	0.638324	0.543768	0.356603	0.236183	0.374470	0.106909	0.064713	0.597243	0.546943	0.077930	0.089701	0.386009	0.257648	0.329507	0.321167	0.326953	0.468236	0.059149	0.057464	0.166739	0.168563	0.376341	0.136551	0.475823	0.543472	0.306707	0.181595	0.569879	0.352880	0.167546	0.110885	0.897039	1.044302	0.061451	0.069479	0.242829	0.344055	0.290542	0.146163	0.478052	0.607978	0.209839	0.154312	0.156813	0.277225	0.065288	0.052132	0.333539	0.298742	0.217728	0.161884	0.104906	0.182489	0.425275	0.296034	0.477069	0.402154	0.305515	0.354838	0.133701	0.321320	0.229132	0.299373	0.238983	0.609229	0.146216	0.063144	0.373442	0.237604
