	227_C_T1_sh_ND_02.c3d	227_C_T1_sh_ND_02.c3d	227_C_T1_sh_ND_02.c3d	227_C_T1_sh_ND_02.c3d	227_C_T1_sh_ND_02.c3d	227_C_T1_sh_ND_02.c3d	227_C_T1_sh_ND_02.c3d	227_C_T1_sh_ND_02.c3d	227_C_T1_sh_ND_03.c3d	227_C_T1_sh_ND_03.c3d	227_C_T1_sh_ND_03.c3d	227_C_T1_sh_ND_03.c3d	227_C_T1_sh_ND_03.c3d	227_C_T1_sh_ND_03.c3d	227_C_T1_sh_ND_03.c3d	227_C_T1_sh_ND_03.c3d	227_C_T1_sh_ND_04.c3d	227_C_T1_sh_ND_04.c3d	227_C_T1_sh_ND_04.c3d	227_C_T1_sh_ND_04.c3d	227_C_T1_sh_ND_04.c3d	227_C_T1_sh_ND_04.c3d	227_C_T1_sh_ND_04.c3d	227_C_T1_sh_ND_04.c3d	227_C_T1_sh_ND_06.c3d	227_C_T1_sh_ND_06.c3d	227_C_T1_sh_ND_06.c3d	227_C_T1_sh_ND_06.c3d	227_C_T1_sh_ND_06.c3d	227_C_T1_sh_ND_06.c3d	227_C_T1_sh_ND_06.c3d	227_C_T1_sh_ND_06.c3d	227_C_T1_sh_ND_07.c3d	227_C_T1_sh_ND_07.c3d	227_C_T1_sh_ND_07.c3d	227_C_T1_sh_ND_07.c3d	227_C_T1_sh_ND_07.c3d	227_C_T1_sh_ND_07.c3d	227_C_T1_sh_ND_07.c3d	227_C_T1_sh_ND_07.c3d	227_C_T1_sh_ND_08.c3d	227_C_T1_sh_ND_08.c3d	227_C_T1_sh_ND_08.c3d	227_C_T1_sh_ND_08.c3d	227_C_T1_sh_ND_08.c3d	227_C_T1_sh_ND_08.c3d	227_C_T1_sh_ND_08.c3d	227_C_T1_sh_ND_08.c3d	227_C_T1_sh_ND_10.c3d	227_C_T1_sh_ND_10.c3d	227_C_T1_sh_ND_10.c3d	227_C_T1_sh_ND_10.c3d	227_C_T1_sh_ND_10.c3d	227_C_T1_sh_ND_10.c3d	227_C_T1_sh_ND_10.c3d	227_C_T1_sh_ND_10.c3d
	Biceps femoris_lat	Semitendinosus_lat	Vastus lateralis_lat	Vastus medialis_lat	Biceps femoris_med	Semitendinosus_med	Vastus lateralis_med	Vastus medialis_med	Biceps femoris_lat	Semitendinosus_lat	Vastus lateralis_lat	Vastus medialis_lat	Biceps femoris_med	Semitendinosus_med	Vastus lateralis_med	Vastus medialis_med	Biceps femoris_lat	Semitendinosus_lat	Vastus lateralis_lat	Vastus medialis_lat	Biceps femoris_med	Semitendinosus_med	Vastus lateralis_med	Vastus medialis_med	Biceps femoris_lat	Semitendinosus_lat	Vastus lateralis_lat	Vastus medialis_lat	Biceps femoris_med	Semitendinosus_med	Vastus lateralis_med	Vastus medialis_med	Biceps femoris_lat	Semitendinosus_lat	Vastus lateralis_lat	Vastus medialis_lat	Biceps femoris_med	Semitendinosus_med	Vastus lateralis_med	Vastus medialis_med	Biceps femoris_lat	Semitendinosus_lat	Vastus lateralis_lat	Vastus medialis_lat	Biceps femoris_med	Semitendinosus_med	Vastus lateralis_med	Vastus medialis_med	Biceps femoris_lat	Semitendinosus_lat	Vastus lateralis_lat	Vastus medialis_lat	Biceps femoris_med	Semitendinosus_med	Vastus lateralis_med	Vastus medialis_med
	P2D	P2D	P2D	P2D	P2D	P2D	P2D	P2D	P2D	P2D	P2D	P2D	P2D	P2D	P2D	P2D	P2D	P2D	P2D	P2D	P2D	P2D	P2D	P2D	P2D	P2D	P2D	P2D	P2D	P2D	P2D	P2D	P2D	P2D	P2D	P2D	P2D	P2D	P2D	P2D	P2D	P2D	P2D	P2D	P2D	P2D	P2D	P2D	P2D	P2D	P2D	P2D	P2D	P2D	P2D	P2D
	EMG_lat	EMG_lat	EMG_lat	EMG_lat	EMG_med	EMG_med	EMG_med	EMG_med	EMG_lat	EMG_lat	EMG_lat	EMG_lat	EMG_med	EMG_med	EMG_med	EMG_med	EMG_lat	EMG_lat	EMG_lat	EMG_lat	EMG_med	EMG_med	EMG_med	EMG_med	EMG_lat	EMG_lat	EMG_lat	EMG_lat	EMG_med	EMG_med	EMG_med	EMG_med	EMG_lat	EMG_lat	EMG_lat	EMG_lat	EMG_med	EMG_med	EMG_med	EMG_med	EMG_lat	EMG_lat	EMG_lat	EMG_lat	EMG_med	EMG_med	EMG_med	EMG_med	EMG_lat	EMG_lat	EMG_lat	EMG_lat	EMG_med	EMG_med	EMG_med	EMG_med
ITEM	Y	Y	Y	Y	Y	Y	Y	Y	Y	Y	Y	Y	Y	Y	Y	Y	Y	Y	Y	Y	Y	Y	Y	Y	Y	Y	Y	Y	Y	Y	Y	Y	Y	Y	Y	Y	Y	Y	Y	Y	Y	Y	Y	Y	Y	Y	Y	Y	Y	Y	Y	Y	Y	Y	Y	Y
1	0.180530	0.119873	0.459105	0.428848	0.085212	0.085416	0.162451	0.163043	0.204980	0.211990	0.386755	0.273201	0.155337	0.166897	0.352030	0.313697	0.119862	0.109782	0.122537	0.382274	0.114148	0.125857	0.192569	0.342234	0.172113	0.197615	0.271518	0.223290	0.291701	0.211243	0.224742	0.257375	0.300256	0.247154	0.147717	0.173043	0.215289	0.237331	0.387146	0.202867	0.222283	0.203026	0.191938	0.163794	0.064827	0.040491	0.151181	0.213322	0.167889	0.280935	0.107142	0.181636	0.149840	0.119110	0.191334	0.358311
2	0.177553	0.119012	0.480543	0.440414	0.067595	0.085504	0.126522	0.162037	0.182044	0.193871	0.376041	0.253859	0.147376	0.170047	0.337060	0.307619	0.139128	0.130402	0.118994	0.458295	0.115079	0.125322	0.202217	0.341998	0.195337	0.223213	0.260851	0.240242	0.250554	0.172548	0.252924	0.267434	0.274127	0.240987	0.152040	0.194259	0.214236	0.236437	0.387574	0.212335	0.221457	0.200946	0.197707	0.173162	0.063760	0.040454	0.192876	0.207985	0.163338	0.282545	0.131187	0.182585	0.175742	0.106439	0.167828	0.345467
3	0.175247	0.119333	0.508499	0.461512	0.073309	0.097364	0.105469	0.183783	0.175482	0.188267	0.364583	0.216341	0.148987	0.171073	0.323438	0.263873	0.139202	0.127967	0.119050	0.515204	0.117105	0.122682	0.230363	0.343180	0.196745	0.227232	0.256252	0.259894	0.213799	0.141800	0.257269	0.285612	0.180138	0.193780	0.169626	0.205174	0.218883	0.242584	0.388058	0.231132	0.215893	0.194956	0.199240	0.180977	0.063864	0.040550	0.199653	0.208295	0.160851	0.283731	0.170869	0.163944	0.215136	0.104462	0.174555	0.321998
4	0.201000	0.139345	0.503139	0.492122	0.084144	0.114220	0.131118	0.227714	0.170113	0.182749	0.367477	0.172850	0.149064	0.169581	0.311927	0.254827	0.144513	0.124348	0.131007	0.541707	0.123346	0.137379	0.248683	0.327733	0.202731	0.231167	0.264513	0.264549	0.185275	0.138840	0.238652	0.319966	0.164784	0.161208	0.157259	0.222564	0.209180	0.241853	0.381296	0.244901	0.194672	0.174164	0.225045	0.182065	0.063560	0.037828	0.203196	0.192472	0.164014	0.283900	0.257553	0.354330	0.258674	0.113852	0.203364	0.294952
5	0.225457	0.154339	0.502123	0.496398	0.098177	0.125339	0.136934	0.262424	0.126991	0.153098	0.371781	0.171083	0.146111	0.162616	0.311786	0.263515	0.143745	0.122142	0.138929	0.554957	0.154773	0.149412	0.255530	0.301212	0.207930	0.232311	0.304951	0.264985	0.175452	0.138286	0.227907	0.366279	0.191647	0.220749	0.157647	0.223703	0.204489	0.236950	0.316200	0.279953	0.168466	0.151824	0.227833	0.176384	0.068590	0.041838	0.223154	0.164936	0.170822	0.286034	0.268156	0.378504	0.267704	0.114445	0.228814	0.415056
6	0.224062	0.153736	0.495963	0.489974	0.140494	0.157059	0.134216	0.266893	0.096150	0.134676	0.357645	0.161310	0.145187	0.150105	0.312480	0.292710	0.146422	0.128975	0.129224	0.545070	0.171952	0.150011	0.300338	0.300472	0.204682	0.212233	0.296376	0.261125	0.173777	0.142502	0.238588	0.363621	0.191810	0.217588	0.158559	0.219468	0.203844	0.237217	0.279333	0.336527	0.151189	0.138258	0.232382	0.172032	0.071190	0.044139	0.239859	0.180235	0.169455	0.272373	0.327680	0.385769	0.272850	0.120660	0.250902	0.518750
7	0.221323	0.152430	0.503925	0.486464	0.176664	0.182882	0.125898	0.325781	0.094340	0.117941	0.336320	0.136376	0.123765	0.125735	0.307043	0.284194	0.147455	0.134593	0.123437	0.554577	0.168095	0.138241	0.331737	0.277229	0.233698	0.231569	0.310878	0.227775	0.160092	0.147023	0.239301	0.322775	0.162091	0.205049	0.160363	0.209236	0.191864	0.231399	0.267425	0.348120	0.149129	0.135188	0.215556	0.189842	0.072323	0.044954	0.240957	0.184146	0.170112	0.225673	0.402134	0.383031	0.328821	0.151622	0.252794	0.522943
8	0.218293	0.155950	0.453164	0.493119	0.181799	0.187735	0.127895	0.408969	0.102691	0.111911	0.318368	0.116333	0.108742	0.116631	0.258985	0.244099	0.148114	0.135113	0.122993	0.590692	0.170279	0.137377	0.328563	0.240299	0.235431	0.231465	0.362056	0.231972	0.109132	0.145878	0.222851	0.331183	0.154241	0.205313	0.160650	0.207470	0.161167	0.201749	0.207124	0.347201	0.146694	0.131914	0.201932	0.191296	0.088205	0.057113	0.242027	0.203672	0.188758	0.232536	0.404679	0.382754	0.414582	0.174763	0.275088	0.564918
9	0.227487	0.165391	0.388350	0.459488	0.189717	0.190747	0.133491	0.418265	0.115992	0.126434	0.316088	0.085190	0.105554	0.107741	0.243722	0.249078	0.145421	0.134977	0.115847	0.605302	0.175679	0.142368	0.302371	0.233918	0.264914	0.238260	0.354966	0.235228	0.096561	0.146192	0.209089	0.330077	0.155074	0.203967	0.154775	0.188986	0.148294	0.188586	0.133774	0.345250	0.142861	0.123941	0.228841	0.177690	0.094427	0.061253	0.256846	0.255375	0.186933	0.203120	0.398683	0.402630	0.440756	0.175215	0.329273	0.570414
10	0.236850	0.168438	0.355038	0.362846	0.211632	0.197249	0.141535	0.423635	0.123734	0.137731	0.257608	0.073249	0.098472	0.087697	0.252731	0.265940	0.139204	0.136099	0.123236	0.592640	0.176452	0.142754	0.301430	0.231849	0.279899	0.227581	0.346213	0.216927	0.098344	0.138056	0.210092	0.329003	0.157938	0.203618	0.154591	0.200306	0.155084	0.191142	0.100979	0.333725	0.104845	0.088666	0.246136	0.163743	0.091880	0.058163	0.290605	0.250543	0.183510	0.161543	0.398396	0.412154	0.443732	0.176452	0.397945	0.584655
11	0.239038	0.167043	0.375535	0.349516	0.213299	0.198190	0.142771	0.433202	0.128972	0.142654	0.228951	0.074212	0.098428	0.082060	0.241263	0.296115	0.137677	0.141058	0.144733	0.562718	0.178059	0.139506	0.345210	0.264143	0.267720	0.207324	0.339206	0.188992	0.096165	0.111660	0.211368	0.327856	0.189212	0.217869	0.156550	0.183842	0.158923	0.183133	0.119291	0.372121	0.081046	0.062997	0.243915	0.162381	0.093166	0.058737	0.317392	0.271495	0.184131	0.158351	0.392717	0.409536	0.443740	0.181029	0.444975	0.579304
12	0.228769	0.165087	0.358477	0.358659	0.212145	0.196326	0.178611	0.440772	0.125519	0.141358	0.217878	0.077512	0.107991	0.088887	0.226008	0.312094	0.139243	0.141999	0.141676	0.542338	0.184028	0.144609	0.370820	0.320898	0.265581	0.203583	0.337592	0.139553	0.095662	0.106285	0.210039	0.332951	0.205737	0.222020	0.151881	0.169698	0.164428	0.188967	0.120991	0.388815	0.079382	0.088536	0.243688	0.139705	0.113966	0.077983	0.341502	0.309351	0.188224	0.157641	0.367781	0.380814	0.444629	0.188011	0.447668	0.591427
13	0.232375	0.172907	0.333833	0.358497	0.213020	0.188891	0.205365	0.456065	0.126222	0.136871	0.218087	0.088923	0.112193	0.097980	0.249372	0.323596	0.139103	0.129696	0.143557	0.539552	0.185141	0.144014	0.370641	0.298702	0.259449	0.196244	0.331959	0.124080	0.080139	0.088516	0.183359	0.411907	0.216356	0.219216	0.143538	0.164837	0.168684	0.193144	0.133810	0.388444	0.092382	0.160645	0.225957	0.136522	0.137411	0.095313	0.331226	0.331293	0.184864	0.153333	0.319659	0.204508	0.432055	0.187683	0.455252	0.612219
14	0.235592	0.185372	0.300468	0.341440	0.220139	0.189337	0.210037	0.457188	0.127334	0.139710	0.222951	0.083725	0.110700	0.092952	0.269832	0.322901	0.123821	0.100586	0.160424	0.495153	0.184540	0.149021	0.364875	0.285262	0.255823	0.197490	0.291530	0.119859	0.078032	0.079559	0.166060	0.476564	0.187810	0.150752	0.129123	0.179778	0.157845	0.165106	0.135754	0.372816	0.099820	0.167117	0.215555	0.132545	0.149092	0.101798	0.311256	0.350007	0.180406	0.154041	0.313972	0.182805	0.413100	0.183312	0.456840	0.627751
15	0.234428	0.185192	0.266306	0.295715	0.220398	0.187832	0.209414	0.459790	0.127357	0.137321	0.209166	0.081976	0.107176	0.088240	0.283923	0.321877	0.098896	0.086235	0.176479	0.422186	0.190758	0.150831	0.355074	0.289832	0.244708	0.193834	0.256318	0.113452	0.072365	0.079490	0.168975	0.480939	0.168592	0.116041	0.126921	0.181833	0.151651	0.151761	0.127835	0.376002	0.116146	0.175876	0.232379	0.129121	0.156011	0.104437	0.308475	0.356446	0.189019	0.157518	0.213317	0.162547	0.384609	0.174938	0.444806	0.631751
16	0.204949	0.166293	0.314388	0.252952	0.217887	0.179553	0.197706	0.465617	0.127943	0.144622	0.206515	0.079624	0.106696	0.081334	0.297439	0.311559	0.084660	0.084005	0.184158	0.376562	0.200690	0.157500	0.338165	0.297543	0.207975	0.141582	0.241893	0.111558	0.066085	0.081564	0.165404	0.449564	0.179890	0.124842	0.174503	0.170093	0.154786	0.156938	0.130954	0.338112	0.115006	0.176760	0.225134	0.105119	0.158831	0.105419	0.318946	0.352641	0.217830	0.202957	0.080678	0.161664	0.373527	0.174459	0.423996	0.568667
17	0.189605	0.156793	0.321002	0.247671	0.216983	0.173139	0.187535	0.458139	0.173321	0.213092	0.218210	0.080386	0.126761	0.086384	0.295619	0.310572	0.084581	0.085521	0.183543	0.347736	0.197251	0.144133	0.337937	0.300792	0.269646	0.136047	0.158719	0.108294	0.073942	0.084578	0.177069	0.429920	0.181794	0.122484	0.225760	0.174019	0.156220	0.160948	0.131669	0.283438	0.128412	0.177845	0.224739	0.072180	0.156133	0.103553	0.323603	0.351986	0.206708	0.188518	0.069226	0.154311	0.370066	0.166868	0.405805	0.440435
18	0.194114	0.157349	0.310973	0.242479	0.206684	0.157188	0.190000	0.457348	0.255154	0.259882	0.215285	0.070483	0.128544	0.088638	0.304776	0.293392	0.080712	0.084042	0.187987	0.329299	0.176142	0.137248	0.325514	0.305806	0.253643	0.133047	0.098773	0.116530	0.072513	0.077045	0.196415	0.426604	0.197091	0.164955	0.238228	0.209071	0.162219	0.165163	0.131622	0.247775	0.132742	0.185382	0.198599	0.089088	0.151110	0.101058	0.313969	0.343901	0.223284	0.187148	0.084550	0.143209	0.337891	0.147478	0.396816	0.408340
19	0.195365	0.151241	0.324141	0.236705	0.168936	0.116938	0.190230	0.464938	0.372114	0.254576	0.211822	0.093435	0.121335	0.086910	0.328467	0.287689	0.071104	0.103388	0.188165	0.324098	0.160269	0.131216	0.282560	0.306860	0.246984	0.138651	0.156733	0.216227	0.070044	0.071868	0.199449	0.417778	0.207397	0.185325	0.246352	0.203666	0.163137	0.164886	0.131172	0.250741	0.142414	0.200610	0.168313	0.098660	0.149978	0.101404	0.319857	0.339673	0.254547	0.215020	0.154273	0.241029	0.208239	0.104079	0.385863	0.332397
20	0.245918	0.146309	0.373935	0.216197	0.151670	0.096113	0.195458	0.403138	0.416001	0.253522	0.229357	0.199972	0.120849	0.086784	0.338816	0.295706	0.076295	0.150406	0.189949	0.253762	0.159215	0.130995	0.258382	0.305840	0.445021	0.139891	0.164012	0.249181	0.077961	0.089260	0.200281	0.415448	0.188740	0.184288	0.249618	0.204992	0.150935	0.150423	0.125940	0.252092	0.161885	0.231496	0.161132	0.095387	0.144162	0.104254	0.334527	0.332168	0.326098	0.292686	0.187631	0.325403	0.108021	0.103872	0.340870	0.322473
21	0.392872	0.202434	0.398923	0.213207	0.150585	0.095089	0.195331	0.361653	0.498133	0.325962	0.222367	0.294259	0.123540	0.086911	0.319983	0.289720	0.074163	0.179748	0.194498	0.178025	0.155207	0.129545	0.269055	0.297370	0.447933	0.162638	0.198214	0.251756	0.095773	0.113467	0.200154	0.412892	0.177032	0.198457	0.285698	0.228806	0.139594	0.139241	0.111052	0.245946	0.162761	0.235444	0.159591	0.089948	0.135572	0.100998	0.353467	0.294596	0.385055	0.345606	0.207094	0.342639	0.083511	0.115205	0.263944	0.288137
22	0.477633	0.259632	0.394342	0.172155	0.119528	0.082200	0.190822	0.367452	0.603129	0.432354	0.208705	0.333471	0.122999	0.089702	0.311686	0.299487	0.095716	0.214281	0.195991	0.158414	0.149543	0.123570	0.270593	0.296396	0.451671	0.167853	0.240319	0.261584	0.094032	0.132514	0.196586	0.414809	0.172830	0.204312	0.346365	0.346990	0.117854	0.119046	0.096814	0.165336	0.159912	0.201367	0.157712	0.090969	0.143014	0.118690	0.337888	0.270199	0.387782	0.350668	0.315448	0.454400	0.149817	0.112726	0.144142	0.285211
23	0.486203	0.272177	0.371643	0.166312	0.106760	0.084326	0.190449	0.361838	0.671917	0.468678	0.270113	0.343534	0.118262	0.090089	0.326923	0.304521	0.308040	0.294894	0.182912	0.140006	0.149286	0.118794	0.256072	0.295839	0.451668	0.175230	0.250289	0.269822	0.093135	0.135534	0.195191	0.427934	0.182084	0.213279	0.345391	0.448963	0.103153	0.103906	0.087892	0.147485	0.168899	0.193721	0.145987	0.121751	0.160274	0.146642	0.311874	0.252766	0.395134	0.352272	0.377413	0.604860	0.211129	0.131262	0.134342	0.266883
24	0.535800	0.276640	0.370918	0.140738	0.107669	0.119719	0.178306	0.361159	0.674842	0.473144	0.321630	0.494571	0.107013	0.083466	0.328350	0.288433	0.452116	0.320117	0.176906	0.095359	0.143559	0.115679	0.206685	0.232983	0.451581	0.206533	0.257155	0.317909	0.120790	0.182979	0.202782	0.384020	0.198949	0.223199	0.396915	0.454501	0.097617	0.098908	0.067905	0.131134	0.162369	0.197715	0.108453	0.203964	0.161794	0.148026	0.283754	0.213098	0.400413	0.362373	0.382040	0.665747	0.226258	0.143432	0.154765	0.241076
25	0.543400	0.278114	0.374592	0.125594	0.105450	0.120716	0.130554	0.348128	0.693258	0.492610	0.371560	0.581537	0.101388	0.075926	0.313364	0.273296	0.489220	0.340853	0.176791	0.087409	0.137164	0.112444	0.195319	0.188143	0.467253	0.244761	0.277284	0.325514	0.141081	0.214268	0.206617	0.275548	0.191413	0.218298	0.467645	0.555939	0.097692	0.102002	0.053400	0.134672	0.165308	0.206368	0.071740	0.270661	0.138280	0.138225	0.275811	0.170234	0.403325	0.388237	0.383299	0.678037	0.232149	0.145506	0.193858	0.264100
26	0.548431	0.277213	0.395905	0.213630	0.093385	0.133367	0.118703	0.339918	0.695717	0.493416	0.407806	0.592541	0.103210	0.077330	0.293209	0.272630	0.534610	0.435259	0.173678	0.159588	0.140583	0.113281	0.194877	0.195042	0.443104	0.288852	0.322823	0.374120	0.141224	0.217098	0.195428	0.204404	0.203580	0.231192	0.457304	0.667431	0.089839	0.086759	0.087206	0.141590	0.159891	0.207040	0.069827	0.285005	0.120973	0.131212	0.279197	0.152192	0.393392	0.413678	0.385422	0.679133	0.291216	0.182854	0.197836	0.303842
27	0.553497	0.295914	0.401268	0.324149	0.087220	0.130680	0.121207	0.341535	0.686442	0.468479	0.407467	0.595518	0.109810	0.080679	0.278459	0.274423	0.746945	0.545092	0.166602	0.274508	0.140921	0.108970	0.195051	0.195021	0.436243	0.286698	0.333500	0.477466	0.145103	0.216991	0.242405	0.195771	0.204289	0.226829	0.449736	0.704637	0.098972	0.083137	0.112896	0.149406	0.154303	0.221427	0.101338	0.284788	0.114456	0.130596	0.272619	0.165146	0.380441	0.420171	0.381539	0.663463	0.334786	0.193033	0.224172	0.313222
28	0.605403	0.345330	0.364400	0.352677	0.088773	0.135475	0.121796	0.308031	0.659583	0.442717	0.404306	0.599674	0.110328	0.083261	0.262939	0.271865	0.821868	0.571385	0.158032	0.357398	0.129355	0.106464	0.195526	0.183077	0.447129	0.282978	0.310918	0.527881	0.143176	0.214479	0.318798	0.218270	0.189068	0.208222	0.475641	0.706560	0.111583	0.098446	0.155087	0.151090	0.208041	0.276817	0.153664	0.283920	0.112706	0.133329	0.263604	0.171687	0.373950	0.477407	0.358324	0.625648	0.340744	0.193685	0.277114	0.323374
29	0.680360	0.408689	0.357914	0.356869	0.081552	0.134669	0.121322	0.278427	0.599337	0.437948	0.404070	0.599197	0.093690	0.096993	0.259286	0.257379	0.837637	0.579769	0.162887	0.404358	0.114945	0.108470	0.188337	0.171379	0.270217	0.278518	0.332850	0.530011	0.143459	0.213247	0.322165	0.242321	0.193232	0.252466	0.578146	0.729857	0.114452	0.104310	0.159244	0.158015	0.217087	0.286226	0.448641	0.303090	0.112346	0.134929	0.246482	0.186734	0.301159	0.461080	0.407581	0.638240	0.339670	0.190487	0.288897	0.385958
30	0.743667	0.451403	0.369375	0.359564	0.084088	0.146158	0.119915	0.261167	0.564700	0.432067	0.402098	0.575669	0.087164	0.127908	0.247864	0.244466	0.853522	0.589265	0.172375	0.414879	0.111328	0.117315	0.176513	0.164044	0.250340	0.271383	0.556008	0.529751	0.150092	0.215608	0.322513	0.254345	0.187291	0.248577	0.619621	0.839250	0.112625	0.104845	0.194589	0.150574	0.220686	0.290572	0.584692	0.347775	0.122239	0.142239	0.230341	0.192609	0.334452	0.544835	0.518440	0.782599	0.338671	0.185018	0.295403	0.475737
31	0.747799	0.453655	0.361558	0.379337	0.108395	0.185230	0.114101	0.229344	0.493393	0.380979	0.405498	0.547943	0.088270	0.132039	0.214417	0.239631	0.860765	0.591584	0.179203	0.417476	0.120568	0.131368	0.176122	0.154118	0.243366	0.271646	0.652737	0.563834	0.149601	0.212014	0.366766	0.255647	0.246618	0.349022	0.590910	0.910993	0.173031	0.143928	0.235766	0.148955	0.243299	0.317529	0.602320	0.360637	0.146812	0.156232	0.234927	0.195637	0.349930	0.605511	0.480962	0.705413	0.338592	0.184350	0.295245	0.529049
32	0.725651	0.452384	0.341684	0.426144	0.113370	0.192037	0.122494	0.189683	0.363334	0.260097	0.425415	0.537708	0.093764	0.159992	0.182997	0.249673	0.860640	0.581951	0.179185	0.421705	0.122926	0.133891	0.176918	0.146244	0.244718	0.272175	0.657381	0.572173	0.139591	0.202083	0.392463	0.258334	0.302186	0.418890	0.635195	0.865175	0.323194	0.220226	0.253754	0.149800	0.263815	0.328864	0.708862	0.464864	0.176919	0.178114	0.254544	0.196881	0.349499	0.627422	0.546620	0.602593	0.339341	0.176308	0.294138	0.557402
33	0.654365	0.431064	0.366899	0.437262	0.117389	0.192299	0.124681	0.196369	0.222407	0.194736	0.397979	0.537629	0.090739	0.165673	0.180716	0.314913	0.861880	0.575341	0.199447	0.454663	0.122783	0.134296	0.164981	0.130202	0.262865	0.257163	0.704325	0.552053	0.147227	0.217054	0.396758	0.266460	0.296724	0.418038	0.702597	0.895973	0.416833	0.260252	0.256160	0.148977	0.265155	0.323989	0.819687	0.608983	0.182717	0.180291	0.236212	0.199001	0.337598	0.613318	0.723078	0.600460	0.333789	0.177607	0.294017	0.568600
34	0.608597	0.410725	0.380303	0.436928	0.116799	0.191717	0.120295	0.209190	0.231502	0.192941	0.391078	0.409242	0.091893	0.163653	0.208976	0.354386	0.862839	0.567469	0.276741	0.501013	0.123127	0.133804	0.160016	0.145669	0.244165	0.239825	0.779667	0.554189	0.154737	0.236639	0.395811	0.320821	0.310298	0.420414	0.669238	0.887031	0.429990	0.262957	0.256334	0.162688	0.278632	0.321836	0.856238	0.617754	0.200704	0.185057	0.222781	0.229214	0.386738	0.593990	0.732556	0.602850	0.295781	0.160212	0.292310	0.568213
35	0.603101	0.413607	0.437541	0.440161	0.115174	0.191200	0.117493	0.195454	0.170395	0.137408	0.490665	0.266209	0.096163	0.167893	0.204153	0.358189	0.842904	0.542943	0.341125	0.582839	0.121561	0.133698	0.174702	0.148375	0.247751	0.178136	0.800150	0.536136	0.146954	0.228554	0.392649	0.338011	0.315613	0.418959	0.653650	0.807759	0.503344	0.291540	0.260023	0.175052	0.286680	0.323116	0.856978	0.610743	0.211818	0.181667	0.285226	0.266832	0.395621	0.587832	0.731035	0.618677	0.274184	0.141123	0.283510	0.561991
36	0.559714	0.409001	0.496447	0.443670	0.115166	0.174916	0.115378	0.182581	0.192796	0.160253	0.516844	0.254287	0.111496	0.180175	0.193858	0.378111	0.769604	0.515730	0.383047	0.678621	0.115280	0.134470	0.169193	0.147529	0.253437	0.166966	0.796202	0.461231	0.123553	0.200660	0.384043	0.341328	0.319848	0.418008	0.653881	0.777011	0.526832	0.299663	0.278932	0.166540	0.287672	0.317799	0.853298	0.627483	0.214296	0.178912	0.301392	0.272002	0.393030	0.571744	0.729817	0.633730	0.271349	0.141417	0.303507	0.541246
37	0.554777	0.405218	0.536157	0.454094	0.113376	0.165587	0.118256	0.171474	0.264827	0.212614	0.514340	0.270545	0.119512	0.186663	0.211651	0.395089	0.736118	0.520777	0.389373	0.738764	0.111070	0.134306	0.154783	0.137016	0.235076	0.164714	0.796149	0.361647	0.142225	0.212497	0.387937	0.360706	0.318102	0.416291	0.640256	0.776226	0.536557	0.301911	0.292286	0.156961	0.258646	0.272062	0.852052	0.641140	0.216052	0.178703	0.300676	0.283439	0.376005	0.501995	0.731712	0.632722	0.228013	0.105368	0.352350	0.509208
38	0.554344	0.403908	0.522558	0.432613	0.111282	0.157593	0.125861	0.188075	0.290297	0.232941	0.535400	0.274746	0.117259	0.185738	0.251582	0.447020	0.738237	0.489424	0.390549	0.758642	0.120811	0.133640	0.201730	0.116162	0.208653	0.151948	0.793112	0.324390	0.151194	0.222682	0.376446	0.367110	0.314901	0.392415	0.557615	0.767787	0.541118	0.304614	0.281785	0.202885	0.233372	0.219039	0.773013	0.642395	0.219731	0.184002	0.305680	0.279270	0.348933	0.466311	0.682409	0.520451	0.139488	0.071002	0.359702	0.510147
39	0.554347	0.391495	0.549730	0.365311	0.112216	0.148421	0.132646	0.185563	0.294394	0.238371	0.549131	0.309526	0.116383	0.185632	0.279386	0.495203	0.592010	0.366813	0.422467	0.735297	0.117257	0.129260	0.254396	0.103818	0.181980	0.127300	0.687146	0.337343	0.150495	0.225651	0.303462	0.358465	0.316714	0.381984	0.479680	0.674022	0.540242	0.297647	0.269397	0.206393	0.290251	0.229013	0.649458	0.621542	0.239035	0.198651	0.304627	0.252121	0.353154	0.341052	0.605233	0.349840	0.110491	0.069186	0.322615	0.515954
40	0.493542	0.350578	0.628622	0.350564	0.109703	0.146258	0.161211	0.183494	0.294528	0.239270	0.548476	0.311443	0.120162	0.185595	0.292625	0.529380	0.385577	0.278125	0.497035	0.707423	0.121902	0.130611	0.258594	0.098725	0.180319	0.124166	0.535398	0.282308	0.150803	0.229716	0.265747	0.349795	0.317825	0.332501	0.464918	0.496423	0.538067	0.294775	0.270687	0.227587	0.342652	0.200666	0.634933	0.625061	0.256805	0.209823	0.301107	0.240144	0.371053	0.253418	0.595720	0.349464	0.134233	0.073801	0.352499	0.483861
41	0.370765	0.269091	0.660831	0.351066	0.115998	0.143533	0.163138	0.186478	0.295074	0.239619	0.552612	0.290051	0.128272	0.179047	0.295424	0.552040	0.328223	0.257174	0.537842	0.698904	0.123641	0.129323	0.274101	0.120190	0.178887	0.118623	0.517147	0.251032	0.144764	0.230653	0.262203	0.338062	0.270102	0.202414	0.441077	0.475730	0.537629	0.302270	0.240536	0.272925	0.342551	0.171507	0.549612	0.579682	0.267999	0.218543	0.301387	0.238100	0.395007	0.214681	0.440304	0.337061	0.156359	0.074914	0.388316	0.408554
42	0.256336	0.216023	0.669003	0.370854	0.114830	0.141304	0.162098	0.199148	0.288014	0.232523	0.545680	0.267796	0.135811	0.163061	0.304404	0.555509	0.288227	0.235823	0.551666	0.712646	0.124526	0.121738	0.285014	0.132609	0.161518	0.131073	0.472586	0.245233	0.144232	0.230019	0.219567	0.337505	0.268767	0.176195	0.278821	0.408102	0.506148	0.293608	0.205194	0.316092	0.426248	0.203150	0.343527	0.387691	0.277073	0.220571	0.302808	0.238003	0.489553	0.240128	0.174065	0.266773	0.162135	0.080632	0.424336	0.326578
43	0.250899	0.215271	0.699272	0.342991	0.093619	0.094564	0.163029	0.207025	0.271721	0.220193	0.539696	0.254555	0.147160	0.164514	0.313302	0.556724	0.266669	0.224651	0.549583	0.744366	0.126970	0.120235	0.299442	0.150659	0.188027	0.140796	0.327476	0.227812	0.166319	0.229822	0.162378	0.339430	0.255383	0.187191	0.181539	0.329339	0.417117	0.241130	0.193291	0.323568	0.445487	0.221362	0.175866	0.286964	0.273190	0.213251	0.299019	0.246181	0.448868	0.202821	0.177810	0.314377	0.169595	0.083985	0.447601	0.278245
44	0.236061	0.197667	0.696636	0.301415	0.095467	0.059993	0.161062	0.204124	0.255840	0.210426	0.509286	0.251605	0.149430	0.141588	0.317561	0.549976	0.287717	0.236601	0.580574	0.757944	0.138745	0.122291	0.301663	0.164330	0.171956	0.136834	0.175198	0.207178	0.165729	0.211024	0.148149	0.338443	0.286648	0.319878	0.173383	0.313171	0.368104	0.268229	0.206889	0.322325	0.443525	0.491452	0.150275	0.275849	0.256848	0.200097	0.279235	0.247739	0.446033	0.197727	0.180097	0.282948	0.163432	0.170791	0.449775	0.248764
45	0.226767	0.180631	0.682227	0.299995	0.114845	0.063951	0.189175	0.191107	0.254518	0.209116	0.373295	0.248575	0.151398	0.132450	0.316552	0.516536	0.301544	0.240986	0.655314	0.758418	0.163262	0.129181	0.312904	0.176007	0.157461	0.136431	0.115730	0.204100	0.155757	0.171661	0.148481	0.293097	0.342421	0.368970	0.185362	0.277632	0.384633	0.281662	0.216419	0.315027	0.443916	0.534294	0.148440	0.239716	0.250085	0.190618	0.279600	0.252330	0.447060	0.197696	0.269221	0.323382	0.198741	0.437681	0.450572	0.248499
46	0.203036	0.152502	0.695711	0.313245	0.134269	0.090982	0.190114	0.181116	0.232969	0.186529	0.278014	0.233486	0.150006	0.135058	0.312539	0.473085	0.301002	0.239529	0.674499	0.751606	0.167230	0.128931	0.315057	0.178408	0.186934	0.144219	0.173406	0.188667	0.209260	0.190716	0.153063	0.222432	0.527089	0.474651	0.228698	0.232381	0.298369	0.256659	0.207810	0.311843	0.464498	0.649484	0.145926	0.183480	0.251742	0.190381	0.276078	0.254274	0.454064	0.207873	0.538764	0.423097	0.207288	0.506578	0.459115	0.273145
47	0.192653	0.140039	0.744920	0.331412	0.144855	0.106479	0.193296	0.169637	0.149739	0.121967	0.272813	0.206968	0.172041	0.146219	0.308308	0.443880	0.310767	0.245322	0.648508	0.704720	0.204777	0.151527	0.314148	0.166845	0.231395	0.158206	0.310164	0.278135	0.312194	0.210464	0.162312	0.284261	0.552390	0.499494	0.307014	0.231329	0.270499	0.268513	0.180843	0.326646	0.472613	0.682265	0.148665	0.252023	0.282521	0.191066	0.232016	0.229156	0.464252	0.221773	0.641033	0.579989	0.230728	0.535316	0.473895	0.319577
48	0.192750	0.138943	0.783778	0.331502	0.147530	0.113621	0.206349	0.188416	0.098655	0.074029	0.269811	0.196098	0.191837	0.143314	0.307423	0.423477	0.326471	0.253748	0.620790	0.627748	0.220237	0.161825	0.336216	0.178684	0.280646	0.201121	0.345524	0.352466	0.319146	0.204664	0.173328	0.288371	0.572476	0.526383	0.324960	0.233414	0.268246	0.281117	0.163927	0.333885	0.478195	0.730177	0.146882	0.302809	0.288212	0.182434	0.177823	0.219350	0.427262	0.212507	0.698987	0.665756	0.265622	0.560616	0.469208	0.367917
49	0.193328	0.137154	0.797963	0.317024	0.148340	0.118615	0.209823	0.223242	0.085765	0.053819	0.280376	0.145554	0.195675	0.132599	0.294973	0.426329	0.332962	0.254475	0.610001	0.549416	0.220454	0.159698	0.355177	0.207654	0.350691	0.293525	0.373546	0.417173	0.313858	0.187005	0.167250	0.279818	0.564116	0.522048	0.407444	0.250645	0.299987	0.309845	0.165943	0.319056	0.449623	0.746861	0.163199	0.315006	0.285740	0.178918	0.177256	0.208063	0.411897	0.212987	0.849498	0.679809	0.311413	0.593592	0.472303	0.386139
50	0.174944	0.124333	0.804637	0.320039	0.148725	0.119386	0.204790	0.243465	0.131964	0.078837	0.289987	0.154541	0.200771	0.134357	0.277867	0.389965	0.317164	0.232010	0.617151	0.503028	0.221877	0.163795	0.350977	0.218347	0.392383	0.357945	0.525371	0.444389	0.313654	0.191659	0.164066	0.272436	0.546842	0.518130	0.501600	0.238293	0.311255	0.321885	0.162182	0.317568	0.420192	0.749220	0.162679	0.342688	0.285365	0.179833	0.168712	0.209027	0.355872	0.210535	0.929472	0.719231	0.345364	0.620272	0.471940	0.372612
51	0.145930	0.103716	0.778323	0.334393	0.151920	0.122054	0.196086	0.227052	0.186930	0.107512	0.290113	0.231427	0.199009	0.132926	0.281163	0.329999	0.301830	0.211981	0.613834	0.515814	0.218611	0.163041	0.311813	0.228000	0.406148	0.354007	0.576016	0.465704	0.325137	0.256816	0.165064	0.264797	0.543819	0.522122	0.540450	0.237206	0.311953	0.322362	0.155862	0.292373	0.370151	0.742455	0.176283	0.381670	0.274975	0.167012	0.178477	0.225419	0.282366	0.243827	0.937528	0.735920	0.349707	0.637809	0.455272	0.377347
52	0.128341	0.084956	0.747864	0.335983	0.153476	0.125670	0.197192	0.237398	0.206142	0.122628	0.334700	0.236244	0.205578	0.146406	0.281168	0.273264	0.292246	0.201841	0.557885	0.522657	0.217367	0.163116	0.281835	0.257151	0.432204	0.368209	0.582659	0.470261	0.332229	0.293725	0.173911	0.262134	0.548042	0.525690	0.541886	0.237258	0.311344	0.307332	0.153629	0.241061	0.287105	0.738572	0.177458	0.413446	0.254754	0.152897	0.198892	0.236957	0.311570	0.355114	0.939860	0.735803	0.342203	0.638936	0.423501	0.403475
53	0.129516	0.088393	0.736521	0.328763	0.150445	0.125735	0.196764	0.243053	0.207972	0.125183	0.398152	0.238981	0.207795	0.153064	0.283506	0.222367	0.292211	0.203325	0.508711	0.493801	0.215091	0.162668	0.278164	0.293774	0.435888	0.375139	0.584898	0.470500	0.332460	0.300013	0.174029	0.261455	0.535315	0.461102	0.546377	0.240775	0.311137	0.297219	0.155537	0.196928	0.291869	0.633194	0.180932	0.507208	0.239212	0.135460	0.208499	0.240665	0.315171	0.381348	0.943186	0.744164	0.354455	0.639499	0.404094	0.440403
54	0.145170	0.102193	0.712318	0.304835	0.150962	0.124850	0.218815	0.249492	0.207477	0.126685	0.439659	0.260706	0.204856	0.149282	0.279717	0.210823	0.291533	0.204222	0.472064	0.460029	0.221107	0.162788	0.262845	0.312624	0.437007	0.377359	0.587547	0.470143	0.323504	0.304538	0.162041	0.260684	0.526353	0.441522	0.603405	0.255357	0.309146	0.286888	0.154791	0.189316	0.308098	0.572843	0.190909	0.518405	0.224920	0.123945	0.218402	0.237327	0.324226	0.440879	0.897008	0.720491	0.354214	0.639432	0.386682	0.461374
55	0.186162	0.142794	0.693390	0.333103	0.171425	0.135035	0.222027	0.243353	0.208040	0.126423	0.449539	0.290702	0.203036	0.142943	0.270448	0.207900	0.283587	0.200373	0.465113	0.403531	0.256248	0.162207	0.247057	0.323108	0.427491	0.375131	0.587295	0.472265	0.317943	0.305544	0.154672	0.251717	0.326812	0.296340	0.647907	0.252689	0.275190	0.233840	0.131246	0.187348	0.288975	0.466359	0.210121	0.562510	0.217182	0.121837	0.250521	0.222198	0.311844	0.441658	0.746259	0.652679	0.355318	0.632452	0.392273	0.464795
56	0.186593	0.145395	0.696752	0.372900	0.229494	0.158590	0.232306	0.243915	0.206070	0.124035	0.453446	0.316417	0.201037	0.143126	0.261658	0.213333	0.265127	0.185844	0.453366	0.351419	0.266408	0.152459	0.235374	0.313736	0.409853	0.373955	0.529341	0.449339	0.317139	0.306021	0.153480	0.251626	0.249232	0.243687	0.620854	0.311216	0.231794	0.223439	0.127788	0.187021	0.280727	0.424870	0.260642	0.570630	0.213993	0.120187	0.258012	0.218465	0.284593	0.437262	0.703874	0.499615	0.338149	0.511998	0.394777	0.468559
57	0.183492	0.145486	0.694693	0.416870	0.302077	0.172395	0.220850	0.250455	0.203589	0.124370	0.560229	0.342273	0.199366	0.144403	0.259077	0.216237	0.243703	0.168540	0.377841	0.341248	0.260966	0.139044	0.231037	0.319742	0.380643	0.357836	0.496295	0.345306	0.311781	0.297964	0.148796	0.250584	0.204262	0.171084	0.627274	0.351708	0.212739	0.214197	0.139376	0.185278	0.235938	0.348587	0.291645	0.522509	0.212754	0.113168	0.236071	0.221942	0.274000	0.438419	0.601869	0.439677	0.351563	0.407581	0.387951	0.460438
58	0.185479	0.147365	0.656369	0.432078	0.333424	0.167911	0.223617	0.256974	0.199195	0.124516	0.597227	0.402220	0.216033	0.152230	0.243213	0.210410	0.241320	0.166485	0.279248	0.299866	0.272337	0.145991	0.218407	0.310069	0.327299	0.302985	0.494682	0.291532	0.222229	0.263959	0.143543	0.192105	0.181982	0.143072	0.623184	0.338540	0.211719	0.192938	0.124049	0.154003	0.185519	0.269388	0.297180	0.534966	0.206139	0.117266	0.232013	0.207258	0.266807	0.433304	0.367666	0.413503	0.381644	0.388669	0.341773	0.422579
59	0.198676	0.154863	0.565839	0.429852	0.333894	0.171286	0.273383	0.267947	0.202856	0.130037	0.583552	0.401387	0.218628	0.144253	0.230822	0.208547	0.232478	0.154850	0.244183	0.276415	0.340131	0.174090	0.258992	0.311962	0.257087	0.199437	0.364209	0.213258	0.226116	0.258410	0.116878	0.103111	0.180271	0.140396	0.562839	0.336528	0.181783	0.162245	0.105135	0.125700	0.180861	0.256394	0.296599	0.523288	0.159754	0.100883	0.247966	0.188999	0.228803	0.418090	0.195783	0.376163	0.372333	0.351191	0.280290	0.371227
60	0.209623	0.163980	0.498288	0.427456	0.439912	0.243562	0.331179	0.261665	0.182214	0.119554	0.583570	0.405005	0.192412	0.209893	0.229683	0.225605	0.211167	0.126370	0.237525	0.272932	0.331679	0.162074	0.300842	0.314278	0.243474	0.186045	0.187016	0.187107	0.231056	0.259133	0.173934	0.161577	0.183940	0.133800	0.496670	0.328998	0.092445	0.087286	0.101146	0.126075	0.179802	0.253757	0.305229	0.507187	0.099766	0.092142	0.253068	0.178279	0.231150	0.386940	0.297546	0.345790	0.335461	0.287407	0.240999	0.328026
61	0.210001	0.164998	0.471464	0.418088	0.515545	0.267136	0.384737	0.247045	0.125564	0.094781	0.612428	0.422246	0.181783	0.271824	0.226042	0.238257	0.187203	0.088968	0.237115	0.251395	0.326966	0.159422	0.297869	0.304713	0.167312	0.137216	0.167680	0.177527	0.258046	0.267875	0.224896	0.251122	0.175183	0.111678	0.498976	0.335773	0.096012	0.071309	0.097039	0.128556	0.178761	0.252678	0.319987	0.473022	0.104884	0.095939	0.252686	0.177458	0.225453	0.321342	0.533750	0.589066	0.297541	0.223499	0.241630	0.323136
62	0.200708	0.161863	0.488523	0.427340	0.525808	0.267026	0.391260	0.247931	0.098199	0.081175	0.597241	0.483709	0.181018	0.289249	0.209622	0.229339	0.160551	0.060745	0.228216	0.259968	0.330960	0.164084	0.293998	0.300467	0.121586	0.110669	0.176329	0.183085	0.305875	0.234922	0.227402	0.276951	0.162062	0.108463	0.506565	0.332310	0.123970	0.079975	0.092121	0.129876	0.167945	0.240543	0.329332	0.396162	0.111529	0.097199	0.248801	0.166695	0.247837	0.306148	0.612570	0.928719	0.284627	0.158129	0.232492	0.321909
63	0.197433	0.162539	0.481545	0.474654	0.533490	0.270973	0.399867	0.249470	0.109098	0.092637	0.554711	0.483862	0.180286	0.300448	0.172032	0.253704	0.156449	0.071119	0.220264	0.226572	0.337867	0.168751	0.298472	0.299712	0.114791	0.149207	0.219867	0.184082	0.342112	0.177220	0.222420	0.301820	0.137734	0.077145	0.454422	0.322392	0.130196	0.079356	0.098299	0.128253	0.127153	0.205558	0.324665	0.364553	0.115780	0.097481	0.238611	0.154337	0.405506	0.324898	0.653162	0.964232	0.285856	0.141985	0.222151	0.283788
64	0.206010	0.168480	0.440955	0.505629	0.538784	0.274448	0.437263	0.244726	0.112253	0.097232	0.522667	0.498171	0.170873	0.304423	0.152588	0.267693	0.161466	0.100463	0.214041	0.216638	0.339694	0.168075	0.298124	0.317794	0.118863	0.206308	0.203294	0.230044	0.363594	0.173258	0.216846	0.361768	0.137530	0.070386	0.356030	0.344911	0.135422	0.082979	0.108308	0.164049	0.116363	0.186083	0.333529	0.311408	0.120381	0.102132	0.222817	0.155197	0.436893	0.336510	0.811654	1.065657	0.338798	0.174901	0.199387	0.224231
65	0.215971	0.173382	0.433622	0.506052	0.540155	0.281454	0.485738	0.247121	0.115045	0.101167	0.513193	0.531190	0.164151	0.302428	0.141927	0.275095	0.199572	0.135359	0.218130	0.244566	0.339464	0.168818	0.298458	0.314149	0.125664	0.220449	0.204220	0.277314	0.367345	0.158206	0.232678	0.381918	0.141644	0.070604	0.345267	0.324524	0.146344	0.088750	0.163520	0.301527	0.091523	0.119923	0.294618	0.254470	0.129443	0.116194	0.213118	0.152001	0.440663	0.338409	0.912967	1.259159	0.459766	0.219294	0.159306	0.144233
66	0.213059	0.163535	0.429451	0.507561	0.545077	0.293284	0.498970	0.238719	0.140080	0.125668	0.522986	0.599745	0.163792	0.341109	0.129012	0.311491	0.291294	0.180796	0.236049	0.244272	0.339455	0.168271	0.321934	0.278862	0.130093	0.242413	0.208282	0.274137	0.369122	0.172321	0.249190	0.392669	0.141710	0.064395	0.424602	0.309671	0.149623	0.092936	0.187201	0.386818	0.066817	0.052519	0.261869	0.245232	0.129573	0.117109	0.209294	0.146300	0.491721	0.394857	0.921635	1.377428	0.495829	0.225094	0.129274	0.104312
67	0.193363	0.140737	0.395284	0.482163	0.546143	0.295164	0.495155	0.234635	0.144261	0.129847	0.412438	0.591188	0.157709	0.357303	0.129570	0.322936	0.315560	0.194914	0.238937	0.275649	0.329236	0.167498	0.387921	0.257617	0.123968	0.242091	0.230681	0.307141	0.370843	0.188463	0.292329	0.460326	0.168546	0.087678	0.391414	0.321947	0.152143	0.105260	0.180176	0.396669	0.062180	0.048828	0.231248	0.227385	0.129832	0.119090	0.201985	0.146232	0.527914	0.462326	0.924537	1.398100	0.497496	0.223555	0.117651	0.075192
68	0.192319	0.144614	0.377510	0.437099	0.533770	0.284337	0.492154	0.241378	0.146090	0.131451	0.337729	0.559826	0.158138	0.356379	0.125822	0.319589	0.320248	0.202150	0.272629	0.296773	0.308893	0.174759	0.430219	0.250192	0.124361	0.243923	0.274478	0.332838	0.371097	0.236715	0.336739	0.549119	0.192854	0.122998	0.376288	0.356935	0.152713	0.103561	0.182301	0.396027	0.071167	0.058931	0.233983	0.206099	0.131644	0.118871	0.204464	0.147633	0.527867	0.485642	0.923912	1.394998	0.484944	0.214682	0.125574	0.104166
69	0.191316	0.147752	0.380494	0.399408	0.496679	0.273711	0.488191	0.244437	0.143228	0.130055	0.340947	0.573506	0.165373	0.355913	0.119794	0.316527	0.315516	0.202290	0.329809	0.316703	0.302596	0.181743	0.439692	0.257365	0.132041	0.261835	0.276582	0.498493	0.367123	0.253965	0.345244	0.609290	0.186700	0.121477	0.427678	0.377442	0.156220	0.137380	0.183130	0.423733	0.075033	0.060614	0.212162	0.202774	0.128229	0.118234	0.248080	0.141426	0.500844	0.493181	0.885778	1.391026	0.465342	0.203399	0.147345	0.147385
70	0.184049	0.144123	0.389015	0.375136	0.457914	0.271959	0.485008	0.234964	0.147824	0.126961	0.341004	0.595713	0.150891	0.352477	0.114462	0.315836	0.316533	0.208584	0.330101	0.325157	0.304330	0.185308	0.438706	0.266540	0.145800	0.280147	0.313570	0.527235	0.344382	0.271994	0.345090	0.619524	0.213137	0.196910	0.461197	0.413889	0.167431	0.178388	0.187640	0.432569	0.087107	0.066689	0.205358	0.268711	0.128271	0.115798	0.281632	0.157913	0.498656	0.495017	0.798245	1.266907	0.474481	0.206748	0.155319	0.162683
71	0.169741	0.141798	0.401249	0.365880	0.451554	0.273508	0.468745	0.216718	0.147339	0.125065	0.281560	0.564414	0.116984	0.349455	0.112404	0.317486	0.333734	0.223321	0.324567	0.336160	0.263417	0.169677	0.435618	0.290322	0.142374	0.285860	0.370861	0.634051	0.333443	0.282708	0.326409	0.610663	0.247277	0.258110	0.460778	0.444409	0.183513	0.234387	0.191142	0.431736	0.111400	0.074980	0.197113	0.287476	0.146657	0.120538	0.277616	0.189844	0.458113	0.467700	0.776026	1.120297	0.493158	0.213347	0.142225	0.166875
72	0.178434	0.148727	0.385019	0.363525	0.401464	0.231745	0.433980	0.216178	0.145285	0.123933	0.259308	0.516701	0.118284	0.315948	0.111895	0.305114	0.337404	0.232612	0.325735	0.336197	0.178106	0.139602	0.401615	0.303738	0.151712	0.274326	0.363881	0.852742	0.323974	0.275777	0.279920	0.581034	0.245336	0.265092	0.469638	0.446783	0.183741	0.270897	0.226862	0.435589	0.139661	0.088271	0.269737	0.357964	0.183537	0.140502	0.270701	0.221436	0.356380	0.439831	0.711548	1.109591	0.494404	0.213436	0.142805	0.166588
73	0.183603	0.152370	0.348376	0.422932	0.244563	0.164036	0.371135	0.218613	0.147002	0.139591	0.262456	0.514365	0.118365	0.254811	0.110433	0.277337	0.335044	0.237973	0.331498	0.339984	0.167529	0.132119	0.366843	0.304195	0.169478	0.228295	0.362073	0.961402	0.277402	0.277488	0.274157	0.564939	0.244566	0.268103	0.480789	0.428521	0.168288	0.273299	0.272515	0.438035	0.145124	0.096347	0.345203	0.547872	0.190374	0.151765	0.277766	0.234361	0.335913	0.432675	0.515944	0.979722	0.497788	0.212981	0.158439	0.172326
74	0.182830	0.153314	0.329383	0.418532	0.188609	0.159230	0.348422	0.190446	0.157554	0.158432	0.309089	0.501216	0.117203	0.239646	0.109787	0.257342	0.339104	0.244158	0.331433	0.320180	0.160588	0.126197	0.348682	0.301286	0.217711	0.241983	0.382499	0.950511	0.214071	0.309446	0.274619	0.555543	0.243311	0.278140	0.474861	0.429138	0.166247	0.273194	0.284363	0.447670	0.170201	0.114298	0.359686	0.724921	0.201163	0.155892	0.278850	0.237476	0.320019	0.418033	0.394100	0.698765	0.497736	0.212846	0.160950	0.195533
75	0.188376	0.156490	0.324317	0.365302	0.169626	0.156295	0.346675	0.181797	0.155021	0.155869	0.335722	0.464703	0.140530	0.227004	0.091635	0.227553	0.343156	0.246643	0.324174	0.318993	0.150337	0.116380	0.338200	0.292893	0.225890	0.223776	0.411991	0.946853	0.164256	0.307775	0.287025	0.523887	0.240900	0.291999	0.430490	0.404409	0.157845	0.271628	0.275256	0.440957	0.189518	0.127541	0.361689	0.756830	0.198406	0.153351	0.284145	0.240346	0.294366	0.480788	0.378416	0.494020	0.486515	0.203963	0.224084	0.213368
76	0.193396	0.151542	0.323402	0.370831	0.147141	0.152726	0.323153	0.179327	0.132508	0.137626	0.316459	0.355919	0.178656	0.219064	0.078089	0.203766	0.350959	0.243787	0.347376	0.331729	0.133737	0.106596	0.335085	0.286596	0.226067	0.236574	0.404560	0.958759	0.162120	0.348135	0.291655	0.500220	0.223976	0.298772	0.424600	0.385639	0.151165	0.270368	0.249474	0.350132	0.199264	0.133523	0.377031	0.753836	0.207960	0.159673	0.287367	0.248189	0.360717	0.560521	0.364737	0.447804	0.366879	0.147731	0.384547	0.213905
77	0.181068	0.150189	0.324129	0.427533	0.131929	0.127870	0.245296	0.172551	0.158133	0.146722	0.314109	0.349976	0.201069	0.216676	0.156282	0.198854	0.353828	0.241046	0.380934	0.313590	0.132655	0.106048	0.344269	0.253964	0.225698	0.261888	0.382100	0.963722	0.163228	0.357688	0.281031	0.500845	0.197120	0.291464	0.435212	0.357274	0.150067	0.266628	0.241798	0.288020	0.197577	0.131752	0.384171	0.747103	0.203406	0.146725	0.286625	0.296096	0.375337	0.617607	0.364990	0.465491	0.302509	0.135548	0.486488	0.216529
78	0.161394	0.140285	0.344136	0.472311	0.122223	0.113619	0.154265	0.163315	0.200186	0.170826	0.352019	0.333669	0.200226	0.153945	0.289366	0.279566	0.309676	0.217738	0.386191	0.322545	0.133043	0.106894	0.350756	0.262594	0.220867	0.253886	0.384362	0.900136	0.158080	0.349103	0.249658	0.460266	0.225781	0.360594	0.388721	0.350157	0.146813	0.263720	0.237661	0.283066	0.196799	0.129982	0.381946	0.746382	0.204128	0.143970	0.287040	0.333805	0.403019	0.620740	0.314097	0.470254	0.290406	0.136586	0.502455	0.224849
79	0.152396	0.140672	0.431739	0.491105	0.092375	0.088741	0.138759	0.162262	0.199554	0.170298	0.440900	0.353598	0.262806	0.130948	0.334516	0.409307	0.273376	0.199307	0.397465	0.310342	0.138558	0.110145	0.317414	0.315573	0.213254	0.247984	0.367683	0.861061	0.150450	0.324897	0.174279	0.357565	0.227343	0.358642	0.342013	0.390440	0.145751	0.264212	0.233729	0.269776	0.193827	0.129862	0.370640	0.735933	0.213229	0.143072	0.278682	0.349650	0.428897	0.625440	0.231874	0.407700	0.290032	0.136089	0.509879	0.220491
80	0.160181	0.134465	0.484230	0.490977	0.073930	0.086367	0.140578	0.155735	0.199913	0.181143	0.453485	0.357904	0.317228	0.157963	0.336603	0.444438	0.259765	0.190238	0.398604	0.297061	0.145199	0.110567	0.233769	0.370702	0.205886	0.235818	0.299724	0.823173	0.123263	0.301741	0.143923	0.227564	0.165021	0.299649	0.320135	0.379490	0.131198	0.234804	0.232829	0.214759	0.183588	0.128476	0.372499	0.726284	0.214903	0.142885	0.258037	0.349950	0.434506	0.627984	0.245561	0.603345	0.282335	0.130857	0.560248	0.205151
81	0.164249	0.160286	0.498778	0.490475	0.062084	0.081266	0.140966	0.153250	0.202474	0.187619	0.447811	0.350113	0.338092	0.174539	0.371855	0.447555	0.260321	0.190039	0.349720	0.276704	0.138882	0.104260	0.166439	0.438799	0.202424	0.231515	0.270219	0.611021	0.117987	0.292770	0.143538	0.167383	0.181867	0.301937	0.313140	0.355966	0.121979	0.219706	0.231671	0.206761	0.160358	0.122109	0.337799	0.724098	0.214904	0.142867	0.224189	0.348625	0.441785	0.632459	0.265580	0.678262	0.275946	0.164144	0.599836	0.212358
82	0.210036	0.256332	0.487409	0.507169	0.062174	0.074281	0.130790	0.155075	0.201404	0.185786	0.456319	0.337949	0.343857	0.176980	0.451417	0.492756	0.265019	0.188713	0.301954	0.286427	0.156602	0.117045	0.161369	0.527908	0.176953	0.227987	0.260667	0.326468	0.153425	0.277188	0.143245	0.172617	0.213993	0.306340	0.312260	0.360718	0.087969	0.127652	0.224795	0.203424	0.148425	0.206738	0.273273	0.654327	0.215157	0.144276	0.195798	0.347668	0.454014	0.635920	0.280097	0.690959	0.323161	0.241266	0.611415	0.212603
83	0.216002	0.265366	0.490543	0.507913	0.061713	0.050801	0.124741	0.155634	0.192894	0.170974	0.472549	0.353286	0.350049	0.196956	0.486018	0.566599	0.252108	0.174189	0.294417	0.302354	0.154610	0.117349	0.181039	0.536201	0.112653	0.209214	0.242542	0.278259	0.234823	0.288387	0.142879	0.172896	0.222135	0.302997	0.426127	0.401178	0.120068	0.097912	0.173572	0.197424	0.132662	0.304252	0.224687	0.513007	0.211325	0.140247	0.190534	0.349770	0.452377	0.631675	0.351114	0.699032	0.416904	0.296294	0.611837	0.213826
84	0.198461	0.264566	0.561747	0.513461	0.062551	0.044606	0.131262	0.154093	0.180714	0.148113	0.448649	0.365652	0.380267	0.270661	0.485954	0.601143	0.235562	0.165728	0.292579	0.380260	0.159399	0.120658	0.233932	0.540035	0.099575	0.243525	0.178892	0.290521	0.273893	0.281694	0.142636	0.172894	0.257994	0.320152	0.446957	0.457486	0.176086	0.107226	0.108000	0.189139	0.098890	0.321618	0.225274	0.446550	0.178226	0.117103	0.187612	0.334984	0.368765	0.472435	0.429183	0.701778	0.454257	0.313192	0.605097	0.211299
85	0.211252	0.271964	0.588154	0.456443	0.062484	0.051753	0.132538	0.169239	0.184624	0.152874	0.430592	0.359148	0.392578	0.320513	0.486047	0.606202	0.251604	0.176118	0.291907	0.475184	0.194305	0.133917	0.276876	0.615376	0.141524	0.300881	0.204843	0.248656	0.273889	0.245782	0.145662	0.169402	0.334779	0.349188	0.429976	0.491661	0.196718	0.119346	0.083766	0.162658	0.073301	0.356228	0.199942	0.451855	0.148198	0.096658	0.179532	0.322330	0.322194	0.393275	0.443344	0.726086	0.455251	0.315076	0.611426	0.192573
86	0.217011	0.273362	0.577775	0.439959	0.061545	0.056152	0.144618	0.169044	0.199233	0.155507	0.431684	0.350598	0.394368	0.345741	0.491203	0.617837	0.280431	0.193446	0.289329	0.571439	0.199137	0.137596	0.280465	0.647549	0.150181	0.285905	0.234850	0.180458	0.325739	0.261352	0.135006	0.165593	0.368683	0.366803	0.446182	0.497435	0.199989	0.123481	0.076747	0.118617	0.105360	0.377560	0.183034	0.455450	0.121777	0.079661	0.197152	0.323240	0.315983	0.278245	0.441651	0.781766	0.489026	0.337369	0.603154	0.168940
87	0.205510	0.273090	0.580866	0.430891	0.057810	0.057902	0.169015	0.173088	0.217052	0.153497	0.431314	0.349722	0.387223	0.345110	0.501824	0.642346	0.324055	0.212368	0.323159	0.588824	0.221766	0.159923	0.332341	0.646767	0.200650	0.342338	0.226766	0.220631	0.373804	0.243051	0.109761	0.164781	0.357012	0.309706	0.447008	0.483711	0.246609	0.157164	0.055200	0.111021	0.111129	0.389390	0.263871	0.459370	0.134465	0.080670	0.206288	0.336554	0.310879	0.263547	0.438323	0.805219	0.505358	0.356536	0.533297	0.167611
88	0.200751	0.275219	0.585368	0.395786	0.049430	0.055460	0.175131	0.170641	0.215610	0.128628	0.392690	0.348846	0.375794	0.369703	0.507558	0.649025	0.320118	0.209240	0.404988	0.586660	0.229914	0.169011	0.367788	0.647583	0.272172	0.418374	0.272263	0.259729	0.401731	0.201490	0.108193	0.159959	0.362704	0.284617	0.451828	0.430733	0.317755	0.166240	0.052704	0.108794	0.151764	0.410363	0.272597	0.458052	0.133295	0.067830	0.202427	0.331690	0.293642	0.248437	0.434353	0.781875	0.500513	0.368613	0.439451	0.176499
89	0.210458	0.276430	0.587553	0.374137	0.071292	0.084314	0.166212	0.187637	0.269442	0.159241	0.275007	0.304130	0.370828	0.404744	0.493310	0.649142	0.309514	0.200527	0.415216	0.621419	0.228181	0.168773	0.367201	0.651537	0.284184	0.423395	0.288234	0.345953	0.407435	0.201603	0.108532	0.144707	0.373058	0.286375	0.462475	0.395532	0.337314	0.172982	0.052050	0.108966	0.190779	0.420532	0.272727	0.458136	0.124604	0.064059	0.215048	0.293961	0.283086	0.229149	0.468562	0.665998	0.506030	0.372608	0.427798	0.170190
90	0.215886	0.278660	0.566469	0.345792	0.088559	0.100244	0.163728	0.225001	0.293316	0.161367	0.236234	0.234120	0.370040	0.409762	0.434757	0.609868	0.295372	0.187678	0.410328	0.746692	0.228165	0.168768	0.367993	0.651473	0.290877	0.429585	0.313724	0.375841	0.413549	0.201338	0.117334	0.128764	0.367222	0.281651	0.479054	0.394866	0.345283	0.194362	0.049978	0.106658	0.235821	0.428099	0.262123	0.530198	0.125115	0.069398	0.214677	0.236946	0.258365	0.207112	0.533809	0.665334	0.509980	0.372197	0.427839	0.162073
91	0.218037	0.281154	0.522441	0.325085	0.089641	0.100387	0.166992	0.227812	0.304712	0.153753	0.233083	0.236790	0.331706	0.402761	0.405558	0.535652	0.284732	0.183926	0.407007	0.802042	0.227854	0.167257	0.374926	0.671502	0.293182	0.429502	0.315285	0.376237	0.413430	0.201026	0.157344	0.117030	0.346245	0.270312	0.479674	0.398589	0.348608	0.195720	0.043910	0.096473	0.244827	0.406460	0.248659	0.617786	0.130048	0.086895	0.211821	0.207652	0.248690	0.200688	0.521050	0.668262	0.512277	0.372516	0.365795	0.164959
92	0.213866	0.281371	0.487767	0.334787	0.095583	0.118537	0.166494	0.233592	0.308418	0.159701	0.204567	0.258490	0.274549	0.392458	0.405393	0.525650	0.291372	0.186880	0.430906	0.814452	0.226198	0.169598	0.373685	0.692009	0.294804	0.428855	0.322924	0.378883	0.413351	0.199101	0.196764	0.108971	0.340839	0.267150	0.400757	0.365343	0.348362	0.193488	0.042267	0.090989	0.248485	0.347758	0.288372	0.628657	0.130879	0.094586	0.213002	0.219461	0.255649	0.202498	0.561799	0.662018	0.502705	0.361628	0.275359	0.149730
93	0.211135	0.259739	0.477350	0.330902	0.098326	0.130312	0.166274	0.271769	0.357074	0.189758	0.175394	0.323455	0.241833	0.384805	0.377480	0.528533	0.328241	0.196899	0.456041	0.818635	0.230664	0.171395	0.373624	0.689210	0.288627	0.411029	0.321930	0.386335	0.406625	0.199368	0.208631	0.106095	0.340071	0.247812	0.405390	0.282319	0.341951	0.185867	0.041733	0.095041	0.260802	0.326360	0.312792	0.633434	0.140422	0.098325	0.215993	0.242154	0.274478	0.219834	0.530522	0.656722	0.489107	0.319854	0.237042	0.143518
94	0.227346	0.196493	0.477900	0.306347	0.099611	0.130846	0.176282	0.321822	0.431516	0.214024	0.222048	0.321650	0.229106	0.383242	0.280196	0.493354	0.374713	0.210479	0.465310	0.817872	0.251316	0.171716	0.373946	0.638863	0.273393	0.366360	0.318510	0.386658	0.369228	0.185124	0.209701	0.099828	0.311149	0.196591	0.449339	0.217294	0.325358	0.174683	0.042340	0.090361	0.271809	0.298503	0.313053	0.642417	0.140467	0.100283	0.204080	0.245866	0.266238	0.213567	0.524691	0.638972	0.605558	0.299087	0.231744	0.141425
95	0.287991	0.215627	0.420132	0.314540	0.106438	0.133013	0.205186	0.344005	0.453531	0.217148	0.243968	0.347314	0.221863	0.376462	0.200759	0.402787	0.395252	0.213818	0.471909	0.809172	0.290729	0.174638	0.368997	0.574750	0.270959	0.346735	0.278430	0.376834	0.330726	0.176652	0.217554	0.099291	0.261342	0.138204	0.453521	0.345298	0.298450	0.166216	0.033533	0.083417	0.286370	0.278183	0.324986	0.636315	0.144609	0.135299	0.174669	0.231006	0.231208	0.191680	0.530505	0.584217	0.599133	0.280169	0.233164	0.138974
96	0.327674	0.224607	0.328153	0.307679	0.108112	0.133682	0.217490	0.346380	0.451054	0.225716	0.327041	0.365479	0.163160	0.329095	0.202440	0.343625	0.398189	0.210474	0.477274	0.789459	0.308637	0.176432	0.358588	0.570229	0.255854	0.324719	0.266672	0.364119	0.325993	0.170823	0.224507	0.097040	0.272817	0.143310	0.451418	0.433370	0.315252	0.170872	0.032227	0.069222	0.282952	0.265286	0.333791	0.648176	0.154040	0.233371	0.172092	0.211136	0.190596	0.173287	0.530753	0.541128	0.595540	0.278035	0.217666	0.130502
97	0.327420	0.218150	0.302871	0.300726	0.108719	0.131348	0.228226	0.341681	0.445584	0.267528	0.407269	0.364509	0.126828	0.279204	0.202988	0.331166	0.416545	0.213152	0.476462	0.746438	0.301187	0.171978	0.318845	0.538464	0.164999	0.153067	0.230219	0.367410	0.289265	0.130517	0.224533	0.113936	0.330334	0.170725	0.449829	0.510760	0.330876	0.170979	0.032305	0.056806	0.274095	0.238374	0.406424	0.754968	0.157034	0.261589	0.168908	0.204481	0.170391	0.176094	0.516149	0.541190	0.567633	0.253126	0.204685	0.129436
98	0.362232	0.226970	0.298939	0.304411	0.108683	0.128515	0.233450	0.335430	0.440018	0.271087	0.449175	0.368627	0.114448	0.243069	0.193340	0.316377	0.431171	0.203852	0.478683	0.673145	0.296777	0.172175	0.294341	0.447837	0.129766	0.114839	0.204360	0.301384	0.224607	0.102265	0.217393	0.126562	0.338832	0.170386	0.489862	0.525990	0.296653	0.150636	0.032714	0.050255	0.258914	0.217006	0.443753	0.915435	0.165696	0.278308	0.151717	0.201337	0.159380	0.163786	0.457534	0.419270	0.540332	0.215845	0.204568	0.127478
99	0.375148	0.224792	0.287317	0.297930	0.108122	0.127427	0.224078	0.334833	0.413062	0.256359	0.465844	0.398670	0.114664	0.237325	0.164414	0.262219	0.397956	0.174705	0.481571	0.628421	0.364271	0.193203	0.282980	0.425335	0.107621	0.085639	0.160501	0.252987	0.181626	0.103823	0.209161	0.127675	0.345688	0.169172	0.519094	0.606445	0.238189	0.145753	0.033825	0.049466	0.220765	0.203270	0.455052	0.946373	0.169974	0.322014	0.112890	0.181312	0.199294	0.174180	0.395908	0.440761	0.544259	0.194978	0.179070	0.117153
100	0.374860	0.221897	0.278257	0.299439	0.106530	0.125749	0.208942	0.333157	0.390946	0.248913	0.464007	0.472637	0.102826	0.200604	0.142607	0.244535	0.388438	0.164896	0.452454	0.626574	0.358680	0.177260	0.198192	0.430024	0.104865	0.085097	0.184152	0.289823	0.276946	0.135519	0.209861	0.118249	0.346506	0.171470	0.516938	0.670664	0.259288	0.144026	0.034131	0.059502	0.230245	0.209149	0.468289	0.872460	0.154259	0.322073	0.109181	0.167514	0.219168	0.179583	0.397191	0.453785	0.546050	0.184715	0.118184	0.113622
101	0.370655	0.215306	0.270830	0.251830	0.104758	0.118070	0.196670	0.337474	0.382133	0.249141	0.473643	0.472814	0.061952	0.096221	0.140895	0.248076	0.387322	0.163500	0.394236	0.602856	0.361613	0.177767	0.158981	0.429235	0.104309	0.104204	0.358451	0.290467	0.385877	0.171030	0.218624	0.121236	0.346573	0.175115	0.514766	0.680973	0.267538	0.128290	0.034750	0.062445	0.232599	0.208292	0.474310	0.856684	0.155238	0.321579	0.082896	0.170473	0.212152	0.176742	0.246462	0.475578	0.543845	0.189533	0.092397	0.113662
