	228_C_T2_sh_ND_L_01.c3d	228_C_T2_sh_ND_L_01.c3d	228_C_T2_sh_ND_L_01.c3d	228_C_T2_sh_ND_L_01.c3d	228_C_T2_sh_ND_L_01.c3d	228_C_T2_sh_ND_L_01.c3d	228_C_T2_sh_ND_L_01.c3d	228_C_T2_sh_ND_L_01.c3d	228_C_T2_sh_ND_L_02.c3d	228_C_T2_sh_ND_L_02.c3d	228_C_T2_sh_ND_L_02.c3d	228_C_T2_sh_ND_L_02.c3d	228_C_T2_sh_ND_L_02.c3d	228_C_T2_sh_ND_L_02.c3d	228_C_T2_sh_ND_L_02.c3d	228_C_T2_sh_ND_L_02.c3d	228_C_T2_sh_ND_L_03.c3d	228_C_T2_sh_ND_L_03.c3d	228_C_T2_sh_ND_L_03.c3d	228_C_T2_sh_ND_L_03.c3d	228_C_T2_sh_ND_L_03.c3d	228_C_T2_sh_ND_L_03.c3d	228_C_T2_sh_ND_L_03.c3d	228_C_T2_sh_ND_L_03.c3d	228_C_T2_sh_ND_L_04.c3d	228_C_T2_sh_ND_L_04.c3d	228_C_T2_sh_ND_L_04.c3d	228_C_T2_sh_ND_L_04.c3d	228_C_T2_sh_ND_L_04.c3d	228_C_T2_sh_ND_L_04.c3d	228_C_T2_sh_ND_L_04.c3d	228_C_T2_sh_ND_L_04.c3d	228_C_T2_sh_ND_L_05.c3d	228_C_T2_sh_ND_L_05.c3d	228_C_T2_sh_ND_L_05.c3d	228_C_T2_sh_ND_L_05.c3d	228_C_T2_sh_ND_L_05.c3d	228_C_T2_sh_ND_L_05.c3d	228_C_T2_sh_ND_L_05.c3d	228_C_T2_sh_ND_L_05.c3d	228_C_T2_sh_ND_L_06.c3d	228_C_T2_sh_ND_L_06.c3d	228_C_T2_sh_ND_L_06.c3d	228_C_T2_sh_ND_L_06.c3d	228_C_T2_sh_ND_L_06.c3d	228_C_T2_sh_ND_L_06.c3d	228_C_T2_sh_ND_L_06.c3d	228_C_T2_sh_ND_L_06.c3d	228_C_T2_sh_ND_L_07.c3d	228_C_T2_sh_ND_L_07.c3d	228_C_T2_sh_ND_L_07.c3d	228_C_T2_sh_ND_L_07.c3d	228_C_T2_sh_ND_L_07.c3d	228_C_T2_sh_ND_L_07.c3d	228_C_T2_sh_ND_L_07.c3d	228_C_T2_sh_ND_L_07.c3d	228_C_T2_sh_ND_L_08.c3d	228_C_T2_sh_ND_L_08.c3d	228_C_T2_sh_ND_L_08.c3d	228_C_T2_sh_ND_L_08.c3d	228_C_T2_sh_ND_L_08.c3d	228_C_T2_sh_ND_L_08.c3d	228_C_T2_sh_ND_L_08.c3d	228_C_T2_sh_ND_L_08.c3d	228_C_T2_sh_ND_L_09.c3d	228_C_T2_sh_ND_L_09.c3d	228_C_T2_sh_ND_L_09.c3d	228_C_T2_sh_ND_L_09.c3d	228_C_T2_sh_ND_L_09.c3d	228_C_T2_sh_ND_L_09.c3d	228_C_T2_sh_ND_L_09.c3d	228_C_T2_sh_ND_L_09.c3d	228_C_T2_sh_ND_L_10.c3d	228_C_T2_sh_ND_L_10.c3d	228_C_T2_sh_ND_L_10.c3d	228_C_T2_sh_ND_L_10.c3d	228_C_T2_sh_ND_L_10.c3d	228_C_T2_sh_ND_L_10.c3d	228_C_T2_sh_ND_L_10.c3d	228_C_T2_sh_ND_L_10.c3d
	Biceps femoris_lat	Semitendinosus_lat	Vastus lateralis_lat	Vastus medialis_lat	Biceps femoris_med	Semitendinosus_med	Vastus lateralis_med	Vastus medialis_med	Biceps femoris_lat	Semitendinosus_lat	Vastus lateralis_lat	Vastus medialis_lat	Biceps femoris_med	Semitendinosus_med	Vastus lateralis_med	Vastus medialis_med	Biceps femoris_lat	Semitendinosus_lat	Vastus lateralis_lat	Vastus medialis_lat	Biceps femoris_med	Semitendinosus_med	Vastus lateralis_med	Vastus medialis_med	Biceps femoris_lat	Semitendinosus_lat	Vastus lateralis_lat	Vastus medialis_lat	Biceps femoris_med	Semitendinosus_med	Vastus lateralis_med	Vastus medialis_med	Biceps femoris_lat	Semitendinosus_lat	Vastus lateralis_lat	Vastus medialis_lat	Biceps femoris_med	Semitendinosus_med	Vastus lateralis_med	Vastus medialis_med	Biceps femoris_lat	Semitendinosus_lat	Vastus lateralis_lat	Vastus medialis_lat	Biceps femoris_med	Semitendinosus_med	Vastus lateralis_med	Vastus medialis_med	Biceps femoris_lat	Semitendinosus_lat	Vastus lateralis_lat	Vastus medialis_lat	Biceps femoris_med	Semitendinosus_med	Vastus lateralis_med	Vastus medialis_med	Biceps femoris_lat	Semitendinosus_lat	Vastus lateralis_lat	Vastus medialis_lat	Biceps femoris_med	Semitendinosus_med	Vastus lateralis_med	Vastus medialis_med	Biceps femoris_lat	Semitendinosus_lat	Vastus lateralis_lat	Vastus medialis_lat	Biceps femoris_med	Semitendinosus_med	Vastus lateralis_med	Vastus medialis_med	Biceps femoris_lat	Semitendinosus_lat	Vastus lateralis_lat	Vastus medialis_lat	Biceps femoris_med	Semitendinosus_med	Vastus lateralis_med	Vastus medialis_med
	P2D	P2D	P2D	P2D	P2D	P2D	P2D	P2D	P2D	P2D	P2D	P2D	P2D	P2D	P2D	P2D	P2D	P2D	P2D	P2D	P2D	P2D	P2D	P2D	P2D	P2D	P2D	P2D	P2D	P2D	P2D	P2D	P2D	P2D	P2D	P2D	P2D	P2D	P2D	P2D	P2D	P2D	P2D	P2D	P2D	P2D	P2D	P2D	P2D	P2D	P2D	P2D	P2D	P2D	P2D	P2D	P2D	P2D	P2D	P2D	P2D	P2D	P2D	P2D	P2D	P2D	P2D	P2D	P2D	P2D	P2D	P2D	P2D	P2D	P2D	P2D	P2D	P2D	P2D	P2D
	EMG_lat	EMG_lat	EMG_lat	EMG_lat	EMG_med	EMG_med	EMG_med	EMG_med	EMG_lat	EMG_lat	EMG_lat	EMG_lat	EMG_med	EMG_med	EMG_med	EMG_med	EMG_lat	EMG_lat	EMG_lat	EMG_lat	EMG_med	EMG_med	EMG_med	EMG_med	EMG_lat	EMG_lat	EMG_lat	EMG_lat	EMG_med	EMG_med	EMG_med	EMG_med	EMG_lat	EMG_lat	EMG_lat	EMG_lat	EMG_med	EMG_med	EMG_med	EMG_med	EMG_lat	EMG_lat	EMG_lat	EMG_lat	EMG_med	EMG_med	EMG_med	EMG_med	EMG_lat	EMG_lat	EMG_lat	EMG_lat	EMG_med	EMG_med	EMG_med	EMG_med	EMG_lat	EMG_lat	EMG_lat	EMG_lat	EMG_med	EMG_med	EMG_med	EMG_med	EMG_lat	EMG_lat	EMG_lat	EMG_lat	EMG_med	EMG_med	EMG_med	EMG_med	EMG_lat	EMG_lat	EMG_lat	EMG_lat	EMG_med	EMG_med	EMG_med	EMG_med
ITEM	Y	Y	Y	Y	Y	Y	Y	Y	Y	Y	Y	Y	Y	Y	Y	Y	Y	Y	Y	Y	Y	Y	Y	Y	Y	Y	Y	Y	Y	Y	Y	Y	Y	Y	Y	Y	Y	Y	Y	Y	Y	Y	Y	Y	Y	Y	Y	Y	Y	Y	Y	Y	Y	Y	Y	Y	Y	Y	Y	Y	Y	Y	Y	Y	Y	Y	Y	Y	Y	Y	Y	Y	Y	Y	Y	Y	Y	Y	Y	Y
1	0.189066	0.294254	0.295049	0.215776	0.180637	0.205786	0.097566	0.056624	0.169129	0.335038	0.126893	0.084734	0.169039	0.183155	0.096578	0.086853	0.100890	0.214488	0.162867	0.140918	0.075803	0.197527	0.145981	0.121859	0.132391	0.375985	0.252198	0.196595	0.114350	0.307707	0.140090	0.105481	0.109621	0.445788	0.100530	0.076283	0.112611	0.261079	0.159138	0.059129	0.158361	0.500229	0.131241	0.053222	0.083949	0.353770	0.121533	0.091499	0.144255	0.239452	0.101203	0.054540	0.190085	0.385294	0.076075	0.066140	0.053710	0.250084	0.078537	0.051915	0.145979	0.344103	0.145917	0.064340	0.099405	0.298517	0.234885	0.149590	0.071819	0.301795	0.141072	0.109258	0.185381	0.385352	0.159171	0.194097	0.096035	0.401146	0.142384	0.066382
2	0.180818	0.303146	0.290515	0.224317	0.204062	0.211744	0.095962	0.049184	0.185107	0.346523	0.139251	0.089157	0.161208	0.192643	0.097887	0.098863	0.094884	0.215474	0.154197	0.126217	0.068129	0.195297	0.148501	0.121349	0.132444	0.306940	0.249919	0.198232	0.115693	0.304515	0.142285	0.115140	0.146566	0.609273	0.100873	0.086089	0.110446	0.255062	0.157721	0.059421	0.155739	0.478402	0.185688	0.065115	0.084164	0.347373	0.131800	0.095114	0.121289	0.235792	0.093988	0.058236	0.195450	0.383813	0.076058	0.060065	0.048722	0.270580	0.081021	0.062339	0.148129	0.344407	0.138292	0.074913	0.096929	0.297977	0.258884	0.148109	0.071526	0.311152	0.120385	0.120630	0.192691	0.397405	0.186302	0.214146	0.095425	0.396022	0.134105	0.083866
3	0.174573	0.320283	0.285112	0.224920	0.209019	0.213724	0.115387	0.050587	0.193697	0.350474	0.155670	0.091354	0.159780	0.208559	0.091243	0.104034	0.082499	0.213921	0.160071	0.110210	0.069834	0.199570	0.158913	0.121809	0.131620	0.279199	0.261060	0.203515	0.124173	0.306044	0.153089	0.120140	0.146793	0.658691	0.116886	0.103337	0.111273	0.235703	0.158902	0.056469	0.148072	0.472456	0.210570	0.071672	0.074249	0.294167	0.133462	0.097571	0.103473	0.243237	0.089206	0.058375	0.199353	0.372604	0.077700	0.056631	0.041606	0.297648	0.093315	0.088961	0.167458	0.334368	0.151233	0.072020	0.088788	0.280902	0.257995	0.155675	0.072290	0.311924	0.116486	0.124380	0.195928	0.397107	0.228503	0.237638	0.096081	0.396920	0.135601	0.097335
4	0.174612	0.332362	0.266915	0.219760	0.208967	0.217289	0.127341	0.059498	0.263081	0.377173	0.155657	0.104051	0.152928	0.170866	0.090129	0.106205	0.064366	0.229530	0.158474	0.114357	0.081817	0.205246	0.155766	0.124518	0.121665	0.331114	0.246818	0.222227	0.129830	0.300891	0.157914	0.126109	0.139511	0.639793	0.128031	0.115767	0.104220	0.189401	0.161051	0.054369	0.104421	0.406264	0.206607	0.073901	0.063513	0.266939	0.132542	0.099939	0.086673	0.273400	0.085821	0.056814	0.197120	0.350781	0.078815	0.050547	0.039145	0.310121	0.222949	0.241685	0.159802	0.213825	0.156001	0.073857	0.074033	0.248184	0.250374	0.175017	0.072968	0.314881	0.114602	0.124210	0.198484	0.390802	0.292302	0.271632	0.097639	0.393787	0.147892	0.101636
5	0.175945	0.335107	0.243105	0.192118	0.210365	0.259850	0.123415	0.064097	0.281589	0.368774	0.166820	0.108862	0.152426	0.172493	0.090965	0.108033	0.068697	0.241065	0.159322	0.152504	0.081458	0.207604	0.152369	0.124669	0.104480	0.310632	0.215140	0.243033	0.135394	0.301950	0.151534	0.133046	0.136018	0.592756	0.269616	0.154797	0.118707	0.173678	0.169532	0.058008	0.100080	0.369972	0.215525	0.097637	0.062547	0.260471	0.132179	0.097554	0.081399	0.316049	0.102503	0.069395	0.190143	0.280477	0.078218	0.046297	0.063973	0.316461	0.241598	0.276309	0.157293	0.195085	0.186117	0.101480	0.069983	0.223819	0.240899	0.191312	0.068080	0.311444	0.126387	0.123344	0.201312	0.449014	0.298383	0.302023	0.100838	0.375500	0.148266	0.099871
6	0.156921	0.320764	0.241311	0.177263	0.210074	0.324238	0.112492	0.069404	0.280330	0.342607	0.173253	0.114224	0.154281	0.200712	0.098558	0.105840	0.094577	0.467795	0.184023	0.212893	0.078861	0.215089	0.176353	0.122074	0.093231	0.284150	0.222310	0.245323	0.142366	0.312751	0.154228	0.168073	0.144147	0.607558	0.338038	0.176991	0.140368	0.187765	0.165735	0.065768	0.092527	0.369869	0.244488	0.124914	0.063013	0.261542	0.138158	0.110698	0.081477	0.318051	0.156608	0.128598	0.192693	0.257155	0.070283	0.055759	0.074535	0.257030	0.262103	0.279275	0.148017	0.211226	0.190074	0.156400	0.071733	0.220060	0.231055	0.202927	0.057065	0.284202	0.195913	0.121033	0.192690	0.464322	0.296337	0.306632	0.100897	0.345999	0.150992	0.100749
7	0.117157	0.308632	0.221895	0.175465	0.207899	0.341559	0.112662	0.077822	0.277132	0.326377	0.295922	0.195238	0.154521	0.215854	0.105010	0.107431	0.112787	0.562952	0.168739	0.237495	0.077222	0.215901	0.220820	0.116960	0.065813	0.271561	0.229045	0.257454	0.143622	0.303825	0.151148	0.191628	0.148367	0.602429	0.361801	0.177898	0.146235	0.192358	0.146286	0.075650	0.084549	0.370520	0.262327	0.168903	0.055437	0.249888	0.142551	0.118770	0.081117	0.298286	0.167302	0.157491	0.195220	0.258047	0.101395	0.094529	0.074815	0.247796	0.285486	0.290043	0.145669	0.194394	0.219244	0.160631	0.070373	0.231199	0.217633	0.203907	0.055765	0.277089	0.250144	0.121199	0.171929	0.427316	0.288419	0.297416	0.102415	0.339659	0.156440	0.108177
8	0.111261	0.357390	0.161081	0.145227	0.189012	0.333420	0.116546	0.085535	0.277902	0.370728	0.322053	0.271407	0.163752	0.217192	0.102334	0.126194	0.113195	0.568322	0.166933	0.238972	0.075416	0.224964	0.233793	0.108615	0.060372	0.267983	0.239941	0.220579	0.136192	0.275589	0.157982	0.216313	0.148688	0.602894	0.446792	0.182876	0.143361	0.177163	0.117540	0.142948	0.086378	0.365585	0.298267	0.173756	0.056685	0.246964	0.139065	0.119162	0.079885	0.295426	0.172934	0.165821	0.189357	0.261493	0.138002	0.177984	0.077923	0.264428	0.305093	0.301055	0.146580	0.206502	0.223189	0.162914	0.084686	0.206056	0.181212	0.222577	0.056374	0.272178	0.265340	0.116818	0.122833	0.359587	0.291787	0.309923	0.094161	0.267121	0.160878	0.110494
9	0.111529	0.452538	0.096930	0.114271	0.179332	0.335791	0.120006	0.089682	0.268209	0.369369	0.319494	0.282697	0.163440	0.254852	0.123761	0.143536	0.115245	0.571337	0.200313	0.274529	0.072958	0.243541	0.234606	0.110991	0.090097	0.273215	0.254921	0.218070	0.121831	0.260497	0.259831	0.265056	0.148065	0.604302	0.476621	0.200967	0.139871	0.168215	0.124194	0.160506	0.090438	0.310955	0.361274	0.183560	0.057796	0.247598	0.138735	0.115427	0.080204	0.299780	0.176514	0.168367	0.194535	0.274459	0.151156	0.204246	0.077029	0.271750	0.305530	0.317597	0.139190	0.216299	0.215144	0.169342	0.084622	0.164206	0.180309	0.258724	0.058506	0.259403	0.262836	0.111894	0.121150	0.356415	0.304466	0.343224	0.074680	0.187894	0.178932	0.111371
10	0.113275	0.445841	0.098627	0.088122	0.177741	0.330602	0.120285	0.086012	0.251461	0.367012	0.367354	0.290528	0.164986	0.269867	0.130929	0.152758	0.118051	0.573632	0.268434	0.327248	0.072735	0.235411	0.235166	0.105686	0.095372	0.264275	0.267339	0.216904	0.120077	0.256658	0.309177	0.269544	0.134710	0.529120	0.473708	0.202452	0.141734	0.172308	0.131537	0.161426	0.091091	0.309625	0.365105	0.214062	0.064911	0.251615	0.125015	0.101470	0.095034	0.396379	0.209432	0.177335	0.217428	0.298940	0.147437	0.208270	0.074866	0.225824	0.306199	0.327100	0.123131	0.223022	0.217543	0.172513	0.087430	0.160084	0.178405	0.284447	0.059629	0.262967	0.265997	0.109910	0.117919	0.376933	0.314749	0.355389	0.068264	0.159437	0.182773	0.107744
11	0.116636	0.436703	0.119863	0.080939	0.170983	0.327610	0.119140	0.085228	0.257469	0.365314	0.434212	0.308445	0.157621	0.270949	0.130427	0.153573	0.120229	0.577009	0.281194	0.362535	0.074223	0.234717	0.222267	0.079010	0.098227	0.169917	0.259470	0.212353	0.125748	0.246344	0.329599	0.269940	0.122428	0.391324	0.475245	0.198230	0.157665	0.172421	0.144560	0.160368	0.068808	0.288431	0.349697	0.263556	0.072009	0.259447	0.114403	0.100049	0.109267	0.549023	0.233504	0.195389	0.259463	0.342751	0.157497	0.220328	0.075222	0.207826	0.276144	0.306857	0.132049	0.243444	0.257340	0.173223	0.096305	0.165481	0.152428	0.292072	0.055155	0.250372	0.299966	0.111959	0.106463	0.371806	0.325752	0.356790	0.070473	0.159826	0.174936	0.109713
12	0.116649	0.429871	0.162913	0.079464	0.127836	0.322636	0.125264	0.095057	0.240860	0.380468	0.439079	0.373637	0.135144	0.271045	0.121038	0.159652	0.129148	0.593806	0.276466	0.373486	0.078659	0.243649	0.228587	0.071465	0.092848	0.148466	0.265639	0.200655	0.125427	0.231992	0.341585	0.274419	0.122551	0.387680	0.478550	0.188054	0.205307	0.187383	0.144503	0.157645	0.055759	0.197410	0.349974	0.283670	0.068451	0.255531	0.114595	0.101456	0.105765	0.569572	0.236716	0.207704	0.262023	0.327172	0.158502	0.225121	0.099450	0.233754	0.206778	0.223471	0.130828	0.257802	0.294742	0.172738	0.099264	0.164403	0.159394	0.290174	0.044257	0.179024	0.319876	0.105364	0.094699	0.364245	0.320041	0.352780	0.070783	0.182553	0.174859	0.110653
13	0.116400	0.425313	0.167063	0.090144	0.093264	0.328539	0.124845	0.102868	0.177508	0.367522	0.449989	0.467554	0.164802	0.286701	0.142208	0.167534	0.137314	0.602143	0.275469	0.373429	0.085067	0.253933	0.232398	0.071388	0.099155	0.128088	0.263484	0.210875	0.130396	0.257712	0.346783	0.278837	0.122253	0.365703	0.454868	0.177689	0.289257	0.245915	0.142152	0.157823	0.061738	0.180893	0.342165	0.286292	0.067152	0.246648	0.109324	0.106100	0.106086	0.566499	0.241888	0.212802	0.261264	0.320361	0.160835	0.227125	0.096956	0.238133	0.195705	0.214199	0.110200	0.269346	0.294804	0.182064	0.099153	0.162796	0.149949	0.268410	0.044905	0.144702	0.331899	0.090261	0.096006	0.370735	0.286568	0.342595	0.074556	0.216588	0.176896	0.116515
14	0.110889	0.426069	0.172721	0.094647	0.095796	0.337563	0.138065	0.104033	0.210374	0.406004	0.455128	0.498181	0.174396	0.264591	0.180184	0.164830	0.129522	0.564925	0.272272	0.353146	0.086987	0.253537	0.247383	0.072030	0.107357	0.122546	0.244954	0.173544	0.131049	0.301552	0.415031	0.286758	0.115242	0.312965	0.377489	0.178877	0.330075	0.273416	0.153295	0.166837	0.063158	0.151697	0.335723	0.280143	0.063860	0.245331	0.108925	0.102785	0.109529	0.553965	0.243259	0.212814	0.256096	0.320940	0.178465	0.237006	0.102149	0.277024	0.159815	0.204107	0.109069	0.267083	0.294521	0.212719	0.097128	0.157454	0.135509	0.250146	0.045732	0.142006	0.343345	0.095225	0.092853	0.354989	0.232625	0.315716	0.078597	0.247667	0.176290	0.123598
15	0.102912	0.425058	0.174503	0.103536	0.095412	0.335399	0.199173	0.099506	0.249380	0.428860	0.450142	0.495645	0.171817	0.258842	0.208995	0.166453	0.111749	0.375218	0.254374	0.318922	0.079197	0.237508	0.245239	0.072920	0.107216	0.126162	0.209606	0.169592	0.125854	0.336694	0.521422	0.288294	0.102081	0.302542	0.369128	0.214207	0.328203	0.271478	0.183572	0.196777	0.061731	0.134174	0.316349	0.256710	0.067323	0.239834	0.108564	0.103128	0.110339	0.513256	0.242498	0.210893	0.251463	0.320911	0.199903	0.242306	0.101956	0.354756	0.112950	0.186818	0.112232	0.235975	0.284645	0.197194	0.093887	0.144428	0.139962	0.244699	0.048719	0.133238	0.366076	0.150281	0.081286	0.274776	0.230073	0.297128	0.078209	0.252648	0.175402	0.128113
16	0.090343	0.401840	0.198263	0.142216	0.094091	0.302488	0.202892	0.097032	0.260381	0.368272	0.398337	0.456334	0.170471	0.263751	0.218995	0.175952	0.101482	0.303872	0.264157	0.301158	0.061923	0.218408	0.261446	0.070555	0.086505	0.147764	0.178108	0.171090	0.139226	0.335894	0.554006	0.291692	0.099889	0.283415	0.287649	0.226562	0.330387	0.260874	0.179581	0.213686	0.059689	0.134459	0.312484	0.245457	0.071665	0.222762	0.113571	0.097919	0.110807	0.507427	0.212520	0.188602	0.258143	0.326422	0.208822	0.248768	0.105245	0.367554	0.082721	0.162321	0.149261	0.241639	0.280150	0.192356	0.085192	0.103131	0.139840	0.247466	0.048729	0.143033	0.375094	0.227544	0.082898	0.275058	0.231150	0.293675	0.080576	0.253096	0.175152	0.118390
17	0.079824	0.317154	0.241565	0.179763	0.096361	0.228347	0.210081	0.095095	0.253803	0.327187	0.404876	0.431691	0.173417	0.253089	0.260477	0.179786	0.101105	0.327169	0.264313	0.296530	0.061185	0.223065	0.275045	0.070522	0.074130	0.177664	0.151372	0.169358	0.153081	0.356595	0.559712	0.289890	0.099541	0.260537	0.181735	0.213674	0.345849	0.265177	0.173420	0.215251	0.062569	0.182772	0.237361	0.248941	0.073991	0.219858	0.109177	0.096604	0.110754	0.506918	0.194516	0.180884	0.256794	0.327304	0.228631	0.269445	0.108517	0.400459	0.077104	0.132720	0.158134	0.239577	0.259538	0.193962	0.071129	0.067241	0.131807	0.219883	0.063737	0.181800	0.358973	0.291482	0.084500	0.259271	0.233264	0.293251	0.081024	0.251975	0.170033	0.107962
18	0.083065	0.213340	0.260760	0.187266	0.097172	0.197304	0.225351	0.091915	0.247845	0.356665	0.400055	0.424506	0.173840	0.235151	0.285211	0.179591	0.094785	0.324328	0.211463	0.251220	0.061685	0.219146	0.254416	0.091203	0.082705	0.221535	0.129143	0.161269	0.164551	0.393555	0.566170	0.292301	0.086163	0.249030	0.174962	0.226801	0.374235	0.313515	0.166624	0.227758	0.087727	0.276171	0.193574	0.233275	0.072338	0.188849	0.109472	0.095216	0.111059	0.518595	0.182133	0.182789	0.263821	0.342905	0.227107	0.295623	0.110270	0.400238	0.079853	0.100314	0.158589	0.233592	0.259944	0.201530	0.069662	0.069364	0.147898	0.183708	0.095858	0.231520	0.313543	0.308127	0.082411	0.247278	0.213214	0.300340	0.075770	0.249922	0.155988	0.105241
19	0.082931	0.215931	0.260262	0.184250	0.088873	0.211294	0.229035	0.111432	0.228801	0.434052	0.295427	0.426674	0.168720	0.241698	0.316252	0.183631	0.094417	0.336803	0.158244	0.177775	0.062719	0.218968	0.237102	0.109544	0.095977	0.264480	0.129450	0.160901	0.168730	0.416548	0.565177	0.306946	0.054560	0.183755	0.193283	0.279605	0.376357	0.321438	0.168377	0.212088	0.092041	0.295538	0.168471	0.187293	0.072645	0.183033	0.117185	0.138293	0.112185	0.546760	0.189810	0.182382	0.266035	0.354292	0.206816	0.290223	0.104419	0.387956	0.081545	0.078147	0.157842	0.230772	0.256718	0.194108	0.063231	0.069973	0.195218	0.177867	0.108209	0.252732	0.287865	0.309381	0.079172	0.244196	0.184683	0.369655	0.065358	0.244089	0.153707	0.113174
20	0.085722	0.225942	0.246255	0.213464	0.091713	0.256124	0.228151	0.160527	0.225450	0.444539	0.252214	0.411551	0.161179	0.252261	0.314278	0.209850	0.085196	0.317518	0.177958	0.137900	0.069004	0.232066	0.248770	0.118439	0.091117	0.262866	0.129888	0.157937	0.169550	0.425095	0.530929	0.282380	0.044223	0.130701	0.185354	0.319562	0.377214	0.319224	0.174759	0.202761	0.095771	0.321650	0.166154	0.136690	0.074787	0.184304	0.118852	0.180673	0.104379	0.535777	0.166032	0.178956	0.265390	0.342821	0.196047	0.260009	0.077094	0.360694	0.075542	0.083963	0.152955	0.213193	0.249058	0.196913	0.042587	0.074737	0.198227	0.180336	0.110062	0.256372	0.284895	0.309497	0.076980	0.206828	0.177521	0.421781	0.061009	0.243706	0.154315	0.120113
21	0.087274	0.213203	0.250942	0.230568	0.094938	0.283757	0.231470	0.212154	0.235577	0.499648	0.240516	0.334630	0.172229	0.301698	0.345853	0.236407	0.066293	0.278588	0.196333	0.224386	0.079034	0.263979	0.261065	0.118753	0.083094	0.259961	0.124090	0.160194	0.163682	0.429999	0.500236	0.271593	0.050062	0.110473	0.171290	0.324294	0.376099	0.321796	0.170091	0.200981	0.102442	0.348310	0.180666	0.115861	0.086212	0.205110	0.148255	0.193584	0.087047	0.389543	0.119664	0.170094	0.261209	0.325218	0.197853	0.260086	0.065676	0.349155	0.139924	0.124483	0.145389	0.190405	0.189965	0.202251	0.042148	0.077934	0.192683	0.176623	0.109320	0.250701	0.289508	0.311639	0.075361	0.205500	0.170068	0.425936	0.058833	0.248905	0.150016	0.114726
22	0.089421	0.207613	0.280655	0.228900	0.095521	0.282017	0.261482	0.256500	0.246265	0.548230	0.208870	0.217370	0.177849	0.340697	0.366739	0.252036	0.052622	0.238616	0.213733	0.267806	0.079448	0.278044	0.263571	0.112768	0.079356	0.261329	0.118137	0.192475	0.154128	0.446791	0.483432	0.272325	0.063339	0.127193	0.178960	0.323381	0.371906	0.326200	0.159978	0.199347	0.103213	0.350621	0.171536	0.107645	0.088301	0.235498	0.155882	0.194206	0.083302	0.316851	0.115636	0.176824	0.224442	0.281724	0.204387	0.269811	0.064791	0.285159	0.151668	0.172659	0.141814	0.172138	0.143978	0.206502	0.058427	0.093254	0.256573	0.198810	0.108739	0.240942	0.274114	0.318550	0.075329	0.206538	0.156530	0.424343	0.060551	0.253147	0.145530	0.115247
23	0.114432	0.229531	0.298545	0.231324	0.094546	0.267614	0.280854	0.274667	0.210216	0.556057	0.199520	0.193640	0.186027	0.361484	0.367385	0.250760	0.067081	0.258943	0.236097	0.269431	0.074902	0.263448	0.265449	0.112355	0.099200	0.258214	0.120092	0.198991	0.153147	0.456479	0.470571	0.269677	0.066124	0.127019	0.180926	0.318858	0.360411	0.316962	0.161723	0.199451	0.103171	0.349632	0.166777	0.115703	0.084289	0.248552	0.154871	0.194424	0.077394	0.316358	0.107015	0.187346	0.210354	0.251773	0.202262	0.301510	0.063013	0.230932	0.156597	0.186791	0.140691	0.159661	0.140759	0.196876	0.065513	0.104547	0.290803	0.230094	0.109596	0.240135	0.241407	0.328183	0.071998	0.200836	0.165245	0.450015	0.059342	0.260924	0.124313	0.118546
24	0.136340	0.255848	0.338780	0.245388	0.082699	0.268398	0.282479	0.275622	0.182614	0.555408	0.152302	0.191334	0.158936	0.347827	0.361507	0.240382	0.065064	0.256377	0.270865	0.309075	0.066682	0.235876	0.258188	0.114335	0.107641	0.229076	0.155027	0.198616	0.153485	0.447021	0.469455	0.269803	0.069012	0.113300	0.167678	0.324016	0.324709	0.278948	0.163038	0.199678	0.103459	0.349472	0.187485	0.149373	0.084870	0.249756	0.156653	0.207033	0.075619	0.318145	0.110665	0.188310	0.215304	0.237827	0.220582	0.337079	0.080221	0.159045	0.183947	0.193715	0.137304	0.158920	0.124608	0.182441	0.064528	0.107434	0.299080	0.251516	0.111913	0.242457	0.222871	0.341107	0.068488	0.193855	0.164391	0.477051	0.057695	0.273924	0.117349	0.122603
25	0.141869	0.259936	0.320805	0.254019	0.065353	0.274846	0.267072	0.276045	0.174396	0.552673	0.091351	0.209121	0.138602	0.346185	0.344985	0.238232	0.066554	0.235478	0.272666	0.389563	0.058459	0.226589	0.256758	0.119951	0.103798	0.203740	0.163055	0.348735	0.149459	0.410968	0.430185	0.267599	0.069420	0.099307	0.172853	0.332975	0.311662	0.263539	0.165098	0.197027	0.102271	0.344047	0.213377	0.163670	0.084014	0.245524	0.154350	0.213247	0.083446	0.328004	0.131812	0.192663	0.224866	0.231333	0.267966	0.357762	0.095434	0.164586	0.260091	0.227187	0.109026	0.147236	0.101167	0.172648	0.071076	0.107364	0.299293	0.246858	0.114279	0.241945	0.208709	0.354123	0.067236	0.183004	0.164808	0.488748	0.055531	0.279312	0.110011	0.126547
26	0.141007	0.272947	0.293665	0.258650	0.064105	0.280824	0.248365	0.309290	0.180630	0.550734	0.143892	0.211034	0.144469	0.353840	0.327551	0.240972	0.087721	0.210426	0.274073	0.414935	0.063199	0.244604	0.263864	0.146518	0.091015	0.130046	0.146908	0.386730	0.148208	0.404781	0.283987	0.271434	0.068360	0.096065	0.171561	0.330473	0.315737	0.267479	0.176388	0.205249	0.085178	0.299022	0.290444	0.166434	0.083960	0.239689	0.144834	0.213780	0.090658	0.337580	0.139531	0.204310	0.228449	0.228684	0.293129	0.357164	0.122888	0.190392	0.308623	0.234932	0.061836	0.132394	0.081989	0.163064	0.078904	0.106349	0.310827	0.244069	0.115149	0.245760	0.188673	0.355153	0.064711	0.147749	0.170753	0.491912	0.055981	0.264119	0.106495	0.127905
27	0.140967	0.312244	0.288133	0.265403	0.064025	0.289088	0.285907	0.369777	0.180494	0.506545	0.166095	0.217753	0.157335	0.355591	0.325734	0.242073	0.097090	0.203527	0.303679	0.432422	0.075614	0.278982	0.265951	0.184776	0.087503	0.124118	0.137497	0.381057	0.134055	0.428467	0.176431	0.307385	0.068949	0.098782	0.161179	0.316512	0.303487	0.261570	0.186108	0.214800	0.069245	0.248160	0.373788	0.166243	0.080179	0.220446	0.142065	0.214530	0.096270	0.340056	0.141955	0.230128	0.214470	0.241065	0.325261	0.356101	0.126569	0.189794	0.469306	0.262585	0.048853	0.130175	0.084706	0.158717	0.080556	0.104116	0.337994	0.291110	0.118100	0.256833	0.165621	0.324767	0.070854	0.124578	0.167242	0.489765	0.054480	0.235574	0.104713	0.121962
28	0.144984	0.343188	0.286856	0.266871	0.073500	0.319951	0.308688	0.394371	0.177358	0.451009	0.168310	0.212592	0.163454	0.352172	0.300071	0.243368	0.096068	0.191374	0.356747	0.521838	0.089447	0.306409	0.250881	0.278378	0.107077	0.155620	0.199300	0.489516	0.115016	0.411474	0.183767	0.339805	0.067863	0.114599	0.213722	0.291515	0.274521	0.240347	0.186052	0.227995	0.068527	0.284239	0.380250	0.171597	0.074962	0.217465	0.135844	0.213982	0.098227	0.325727	0.145531	0.229232	0.251962	0.325670	0.323275	0.356405	0.127402	0.193358	0.690824	0.350958	0.046758	0.104982	0.082072	0.166780	0.080792	0.097350	0.348846	0.329681	0.119825	0.258622	0.157961	0.264590	0.078066	0.112384	0.179329	0.454976	0.052432	0.206237	0.107301	0.121219
29	0.143437	0.335935	0.300210	0.259863	0.087205	0.360864	0.312956	0.398937	0.172134	0.433998	0.169760	0.201804	0.164668	0.352206	0.274863	0.248594	0.098155	0.183849	0.416148	0.598667	0.094264	0.302737	0.238714	0.294072	0.112750	0.153931	0.255306	0.563555	0.113925	0.446849	0.197308	0.371264	0.070707	0.142194	0.291867	0.386551	0.233131	0.172823	0.207009	0.234853	0.050955	0.233163	0.377312	0.168362	0.072510	0.230108	0.135934	0.216153	0.102199	0.278831	0.145624	0.245891	0.325481	0.368278	0.349627	0.334939	0.145757	0.211028	0.695383	0.365931	0.048231	0.094590	0.089386	0.172343	0.088121	0.123982	0.374401	0.359316	0.100142	0.223448	0.155559	0.217752	0.077750	0.122081	0.188310	0.365876	0.052158	0.202453	0.123831	0.123840
30	0.145763	0.337826	0.294370	0.280850	0.092293	0.363452	0.314166	0.396734	0.140512	0.330344	0.198744	0.187278	0.174527	0.375374	0.235791	0.254703	0.126506	0.227539	0.419035	0.610837	0.094647	0.303409	0.243092	0.305314	0.108876	0.147672	0.383147	0.583603	0.122408	0.485240	0.223326	0.360535	0.094625	0.176406	0.307914	0.410534	0.237363	0.165597	0.226504	0.261198	0.044198	0.281863	0.377641	0.177898	0.071337	0.236996	0.131983	0.225705	0.097236	0.212933	0.138007	0.287055	0.387791	0.374343	0.402537	0.329740	0.161531	0.226671	0.700135	0.405943	0.051598	0.089269	0.116231	0.163731	0.104085	0.185981	0.372058	0.363840	0.074754	0.181793	0.151291	0.209890	0.086463	0.152462	0.170545	0.307413	0.050046	0.202377	0.168715	0.128120
31	0.154603	0.359839	0.264233	0.286516	0.092622	0.350105	0.345950	0.378746	0.116485	0.235310	0.232870	0.185908	0.205972	0.415047	0.227030	0.244631	0.177218	0.313552	0.412907	0.606872	0.097673	0.307176	0.229303	0.310906	0.097423	0.136537	0.471452	0.672482	0.127571	0.493158	0.243639	0.339229	0.094809	0.172266	0.301448	0.400074	0.320276	0.246319	0.219825	0.271336	0.050309	0.314256	0.386590	0.197592	0.070726	0.238021	0.116329	0.227018	0.094379	0.177281	0.147488	0.358282	0.424020	0.387395	0.427017	0.347824	0.167382	0.236283	0.849286	0.630178	0.049631	0.090732	0.143660	0.153883	0.100847	0.188912	0.360377	0.355042	0.066656	0.170856	0.148246	0.209667	0.087283	0.158441	0.167166	0.303373	0.048244	0.200834	0.185356	0.129001
32	0.142781	0.389462	0.242032	0.284373	0.091908	0.340180	0.381573	0.355740	0.109507	0.177754	0.232645	0.196690	0.239703	0.423511	0.183890	0.235723	0.185272	0.332155	0.399742	0.637698	0.097033	0.288078	0.211884	0.311349	0.105063	0.136293	0.526625	0.665360	0.135482	0.502816	0.257961	0.338633	0.095789	0.179788	0.306654	0.396883	0.501424	0.412598	0.227787	0.282778	0.054671	0.326169	0.374652	0.188928	0.072353	0.239496	0.126106	0.287214	0.099228	0.183774	0.152327	0.402729	0.418089	0.386524	0.447171	0.362961	0.177379	0.258086	1.000883	0.748436	0.046422	0.095344	0.178799	0.163947	0.104310	0.210771	0.393473	0.350144	0.065852	0.181294	0.145126	0.209623	0.078273	0.149048	0.169873	0.304249	0.048257	0.194298	0.183977	0.132964
33	0.131157	0.385972	0.195426	0.255862	0.097550	0.339946	0.365519	0.328657	0.108788	0.167585	0.231335	0.190993	0.264009	0.452419	0.135129	0.224148	0.186851	0.332101	0.404841	0.618451	0.093884	0.253031	0.198899	0.311323	0.133277	0.143835	0.544955	0.602832	0.157687	0.517931	0.263254	0.357049	0.099638	0.196996	0.312575	0.398786	0.654570	0.543483	0.282629	0.305371	0.055633	0.327214	0.359893	0.219695	0.074040	0.283384	0.097640	0.326841	0.114389	0.226793	0.167953	0.397531	0.416894	0.390710	0.441357	0.358864	0.234445	0.358509	0.999387	0.763937	0.049082	0.106809	0.184324	0.193178	0.106622	0.227588	0.393606	0.354240	0.066182	0.186849	0.140882	0.205095	0.075999	0.150523	0.162725	0.341365	0.048315	0.199856	0.179456	0.140748
34	0.118503	0.376928	0.195707	0.234683	0.097807	0.338592	0.350530	0.312219	0.103671	0.154769	0.247996	0.220156	0.267663	0.466585	0.146633	0.231535	0.200284	0.344762	0.409769	0.579959	0.098539	0.245197	0.220132	0.310797	0.140846	0.150142	0.591355	0.601440	0.169510	0.521790	0.299669	0.392728	0.125249	0.234537	0.318590	0.406638	0.749254	0.615718	0.343335	0.316114	0.056320	0.324330	0.349563	0.296763	0.070712	0.277153	0.112162	0.334315	0.129623	0.263502	0.191969	0.406051	0.415973	0.402809	0.448169	0.328807	0.238934	0.375684	0.972174	0.767777	0.056439	0.116906	0.188231	0.207337	0.102967	0.233712	0.400408	0.452541	0.067359	0.232153	0.133370	0.190167	0.075388	0.149798	0.183101	0.448499	0.047337	0.200039	0.175397	0.148046
35	0.112349	0.341098	0.320356	0.268030	0.099242	0.327867	0.353526	0.309595	0.092185	0.143687	0.272242	0.255407	0.267523	0.476492	0.184163	0.234623	0.207208	0.364333	0.407844	0.572794	0.099961	0.245047	0.224419	0.311590	0.144691	0.144369	0.667443	0.549980	0.170047	0.521945	0.322719	0.416524	0.128997	0.238259	0.329016	0.514326	0.750892	0.617264	0.347116	0.317960	0.076661	0.329820	0.233495	0.346289	0.074336	0.263523	0.144921	0.335018	0.124906	0.256490	0.183561	0.408614	0.413599	0.405905	0.449924	0.292889	0.241697	0.379890	0.876620	0.808117	0.057065	0.099997	0.235239	0.225309	0.098311	0.235203	0.396702	0.503708	0.065063	0.248922	0.133533	0.164475	0.074466	0.150433	0.192451	0.501259	0.047788	0.192337	0.174906	0.147732
36	0.104180	0.291651	0.398507	0.459962	0.099660	0.312416	0.354090	0.312008	0.090600	0.144052	0.291908	0.287525	0.267757	0.481444	0.182319	0.237313	0.205579	0.384523	0.380129	0.551183	0.099633	0.246449	0.228137	0.316407	0.142597	0.129751	0.693804	0.480947	0.181207	0.533836	0.326205	0.422787	0.137449	0.248802	0.365400	0.579652	0.746159	0.632811	0.358090	0.315321	0.093803	0.308715	0.222298	0.350289	0.088709	0.269332	0.142776	0.350505	0.128442	0.250523	0.172381	0.406023	0.425653	0.418434	0.423753	0.256274	0.238960	0.379827	0.770617	0.809471	0.056635	0.096044	0.297907	0.242525	0.097306	0.237732	0.364459	0.489582	0.066414	0.250800	0.135580	0.141645	0.081148	0.161250	0.208286	0.506873	0.048131	0.167765	0.173537	0.149885
37	0.100381	0.267981	0.449500	0.609101	0.103471	0.309346	0.339664	0.285436	0.088409	0.138138	0.295200	0.292954	0.265660	0.477795	0.220664	0.237946	0.205616	0.386343	0.341965	0.490744	0.098443	0.246142	0.231711	0.322544	0.133273	0.124665	0.672972	0.523412	0.186067	0.520623	0.326338	0.418621	0.139366	0.246459	0.400793	0.545327	0.778010	0.682300	0.366390	0.292633	0.098349	0.298831	0.233608	0.349210	0.090205	0.272820	0.145605	0.406501	0.140997	0.260357	0.193642	0.426507	0.432799	0.431242	0.395774	0.253382	0.234412	0.396372	0.770524	0.806948	0.060115	0.109668	0.301544	0.305339	0.097812	0.236744	0.330403	0.463271	0.063135	0.259235	0.140083	0.098601	0.092741	0.174716	0.222936	0.529627	0.048815	0.137964	0.174144	0.158826
38	0.109123	0.269898	0.630413	0.615072	0.106000	0.313022	0.306297	0.226353	0.077256	0.100178	0.339969	0.293806	0.260406	0.484577	0.306441	0.248388	0.202941	0.382702	0.323703	0.425564	0.096039	0.228663	0.286252	0.317159	0.140223	0.153567	0.594548	0.426549	0.186242	0.492768	0.328667	0.399800	0.131060	0.248595	0.405538	0.542990	0.876450	0.771300	0.373710	0.275175	0.097131	0.273659	0.234618	0.347897	0.102952	0.283724	0.145849	0.466148	0.151763	0.278727	0.257931	0.510350	0.433274	0.427707	0.366342	0.253858	0.237534	0.408630	0.736655	0.751765	0.068410	0.132435	0.300851	0.361481	0.090145	0.220015	0.318336	0.441088	0.060684	0.253053	0.141539	0.133836	0.091633	0.175403	0.213837	0.641165	0.047979	0.112246	0.178813	0.181594
39	0.127911	0.279122	0.766471	0.715920	0.149681	0.292037	0.281384	0.198677	0.073526	0.106612	0.355732	0.342548	0.261564	0.504583	0.349800	0.288008	0.178382	0.347059	0.343690	0.422595	0.086056	0.181241	0.344805	0.298337	0.146905	0.170314	0.541562	0.377056	0.190785	0.492540	0.318159	0.360571	0.118195	0.257779	0.420454	0.589590	0.970353	0.830731	0.386739	0.270533	0.091377	0.184227	0.210146	0.338864	0.115603	0.289672	0.154677	0.506902	0.148719	0.279976	0.272791	0.528282	0.418378	0.373642	0.352378	0.239260	0.236912	0.406541	0.461761	0.577001	0.088201	0.172283	0.302942	0.383390	0.065523	0.179194	0.317617	0.437977	0.053389	0.237265	0.172586	0.190020	0.098374	0.185808	0.229714	0.731310	0.050456	0.099608	0.177496	0.183857
40	0.112316	0.227941	0.795967	0.970981	0.258965	0.323884	0.264946	0.191962	0.045719	0.080550	0.407102	0.451576	0.265032	0.518225	0.374244	0.320264	0.129280	0.265423	0.334196	0.411463	0.072771	0.138437	0.347318	0.207528	0.126476	0.170653	0.534557	0.376022	0.227829	0.474644	0.294037	0.314186	0.131277	0.300870	0.431919	0.636498	1.009719	0.839947	0.379425	0.258553	0.090134	0.157267	0.208831	0.337821	0.117987	0.281892	0.166869	0.535038	0.154131	0.283178	0.272928	0.520556	0.368750	0.311916	0.336505	0.237774	0.188925	0.333921	0.265296	0.485458	0.102721	0.193443	0.300313	0.389056	0.060878	0.176320	0.282038	0.436723	0.054657	0.228357	0.204883	0.245231	0.130320	0.227121	0.233717	0.745735	0.051691	0.099068	0.178398	0.187469
41	0.129787	0.197924	0.803345	1.124758	0.333488	0.352972	0.259749	0.266640	0.036112	0.082620	0.451560	0.531939	0.268058	0.516054	0.387820	0.323375	0.123380	0.251726	0.357685	0.361926	0.069031	0.135227	0.385479	0.202318	0.113756	0.176698	0.488763	0.383028	0.317155	0.436799	0.272090	0.284119	0.143352	0.342198	0.463958	0.661687	1.019620	0.839948	0.368579	0.221013	0.089278	0.140309	0.209616	0.334680	0.118955	0.266672	0.166833	0.538193	0.159655	0.282496	0.313346	0.552201	0.302892	0.279657	0.281017	0.254885	0.130845	0.255343	0.262045	0.483696	0.103756	0.198331	0.311304	0.413164	0.051862	0.143319	0.234570	0.445368	0.072179	0.241414	0.208236	0.258945	0.147337	0.251649	0.217444	0.755038	0.051100	0.105464	0.178103	0.202384
42	0.177154	0.262775	0.855378	1.178263	0.357751	0.344579	0.210794	0.336826	0.066788	0.138260	0.448449	0.554524	0.258141	0.486216	0.476663	0.310008	0.120237	0.249766	0.387199	0.374123	0.068045	0.128887	0.401804	0.167520	0.097758	0.226443	0.391464	0.386997	0.458609	0.438835	0.254816	0.281821	0.129310	0.323507	0.478758	0.655401	0.996116	0.817037	0.369532	0.251713	0.088736	0.138715	0.186676	0.287866	0.119654	0.262184	0.173122	0.540700	0.160785	0.275404	0.367741	0.631769	0.251294	0.266842	0.232686	0.255989	0.114424	0.233587	0.233184	0.483953	0.108543	0.210723	0.311284	0.421973	0.046161	0.115726	0.224571	0.435276	0.086022	0.252282	0.208358	0.264413	0.150264	0.254827	0.238381	0.768054	0.060907	0.117450	0.178935	0.222634
43	0.203765	0.287870	0.889399	1.179883	0.359500	0.338132	0.137209	0.362546	0.095380	0.171325	0.438709	0.533308	0.224478	0.446916	0.601409	0.288724	0.081697	0.230320	0.425554	0.393644	0.061246	0.117384	0.400329	0.154566	0.089425	0.234599	0.252217	0.350380	0.559799	0.443194	0.232451	0.281608	0.115355	0.312830	0.485118	0.626882	0.916935	0.742712	0.364663	0.269751	0.080409	0.129066	0.181795	0.195786	0.119137	0.260880	0.177184	0.549498	0.155945	0.249514	0.372682	0.705739	0.245343	0.289474	0.192312	0.259448	0.113299	0.233082	0.222016	0.374992	0.106170	0.212165	0.333913	0.425447	0.045282	0.113151	0.222463	0.324906	0.086467	0.244759	0.220481	0.296422	0.150934	0.253403	0.269046	0.731554	0.064429	0.119224	0.170610	0.241408
44	0.207398	0.289314	0.848435	1.161560	0.388577	0.352392	0.141778	0.375428	0.097938	0.171974	0.434428	0.515148	0.180011	0.377162	0.630164	0.279721	0.050554	0.197064	0.430332	0.395609	0.050995	0.089376	0.403054	0.152027	0.086821	0.248847	0.203087	0.246096	0.581533	0.410929	0.228498	0.266611	0.111628	0.307973	0.480146	0.498171	0.813200	0.650793	0.321090	0.251809	0.055527	0.121699	0.155092	0.151547	0.117424	0.258063	0.194416	0.528458	0.173362	0.249038	0.359573	0.730386	0.238299	0.301505	0.188512	0.250295	0.110301	0.214438	0.218701	0.337658	0.106713	0.226970	0.356377	0.419671	0.059226	0.116433	0.227856	0.244410	0.090025	0.239120	0.241866	0.346273	0.159194	0.265769	0.289980	0.654940	0.070463	0.123732	0.181296	0.258500
45	0.206067	0.300032	0.834919	1.091976	0.440314	0.386018	0.149610	0.377114	0.097876	0.174031	0.434333	0.496793	0.155120	0.321513	0.633250	0.291025	0.049072	0.166540	0.419753	0.376543	0.048175	0.102860	0.401567	0.274972	0.082766	0.262831	0.253567	0.228571	0.601938	0.397585	0.189840	0.210386	0.104309	0.303585	0.382581	0.491223	0.724142	0.586250	0.268128	0.239189	0.037807	0.204734	0.096774	0.149150	0.110547	0.194919	0.202203	0.511647	0.191945	0.261302	0.355431	0.735989	0.247794	0.290032	0.193007	0.270829	0.083814	0.154682	0.225719	0.354573	0.117856	0.250140	0.318162	0.415911	0.067175	0.118061	0.230544	0.211348	0.092250	0.219479	0.251138	0.396527	0.161706	0.271400	0.299251	0.656263	0.083183	0.128319	0.198595	0.273306
46	0.204197	0.319280	0.796487	1.067653	0.478491	0.411086	0.163077	0.395198	0.096830	0.174095	0.423106	0.492691	0.147744	0.300242	0.623409	0.292258	0.051079	0.166183	0.391942	0.326234	0.041588	0.143629	0.387649	0.455999	0.095635	0.300483	0.285098	0.273146	0.686112	0.445030	0.135398	0.144798	0.103634	0.316873	0.345795	0.456700	0.712156	0.582639	0.272634	0.247531	0.034407	0.273272	0.072747	0.148735	0.107161	0.159335	0.194672	0.529014	0.194534	0.260088	0.354142	0.738328	0.272383	0.286432	0.197502	0.312790	0.070787	0.181787	0.215810	0.311956	0.123162	0.251062	0.281916	0.394300	0.067600	0.252168	0.220910	0.194286	0.101403	0.200994	0.251698	0.426293	0.156448	0.264494	0.282716	0.694904	0.087990	0.125262	0.201526	0.271381
47	0.199929	0.331970	0.622386	1.155878	0.496108	0.412449	0.203139	0.428149	0.096973	0.190944	0.377678	0.483518	0.144110	0.283700	0.630559	0.299275	0.057129	0.147916	0.365782	0.265828	0.045536	0.190445	0.392229	0.538009	0.119177	0.346327	0.285468	0.292562	0.755916	0.489354	0.119252	0.093307	0.095996	0.296252	0.340808	0.408575	0.706604	0.560195	0.247368	0.268503	0.050806	0.287956	0.074039	0.145778	0.103458	0.155008	0.219758	0.585307	0.182331	0.241090	0.351162	0.731018	0.268561	0.266984	0.200813	0.354686	0.075654	0.234275	0.120586	0.290576	0.120362	0.243723	0.282529	0.338032	0.068932	0.328728	0.200905	0.191064	0.120718	0.236040	0.248121	0.436321	0.147972	0.256657	0.292964	0.688301	0.088213	0.115877	0.212857	0.266470
48	0.195576	0.329382	0.491926	1.129805	0.504826	0.410869	0.202128	0.493270	0.103137	0.331789	0.330463	0.420509	0.144361	0.282482	0.629789	0.345795	0.055888	0.183595	0.353337	0.213436	0.061568	0.209234	0.404750	0.544822	0.131610	0.355516	0.289696	0.285609	0.802600	0.522215	0.118549	0.082825	0.093635	0.294213	0.330291	0.329106	0.670753	0.497776	0.203082	0.283873	0.058954	0.327132	0.071572	0.142325	0.093130	0.136948	0.311780	0.608048	0.170968	0.215982	0.309818	0.666121	0.248023	0.239419	0.194163	0.375203	0.076258	0.265425	0.241321	0.299509	0.113929	0.234997	0.286733	0.278460	0.073588	0.378271	0.201829	0.190885	0.130739	0.228642	0.244680	0.436089	0.152866	0.259658	0.327055	0.574230	0.089981	0.132827	0.237364	0.265324
49	0.200001	0.327154	0.463114	0.925821	0.504785	0.401929	0.285995	0.526197	0.103729	0.343885	0.242456	0.293466	0.143798	0.277423	0.593490	0.523263	0.055405	0.193441	0.349699	0.201363	0.081566	0.207174	0.388048	0.567206	0.133031	0.331191	0.306881	0.284215	0.832921	0.542266	0.110809	0.099418	0.057357	0.225748	0.280822	0.225024	0.537584	0.347973	0.176782	0.291307	0.062311	0.338807	0.056825	0.117480	0.099800	0.136541	0.365855	0.576245	0.168183	0.210201	0.283626	0.644577	0.249488	0.238638	0.195161	0.385367	0.083891	0.288422	0.517547	0.471711	0.093250	0.213558	0.274243	0.269212	0.074778	0.449737	0.177177	0.179642	0.130651	0.230643	0.246509	0.438750	0.145074	0.236967	0.331242	0.474586	0.091362	0.148161	0.240937	0.267532
50	0.190095	0.296530	0.448580	0.782196	0.490639	0.392103	0.327285	0.525264	0.101305	0.345951	0.217295	0.218190	0.139695	0.271126	0.561452	0.526880	0.046542	0.186279	0.303798	0.199770	0.083131	0.230279	0.328049	0.641418	0.155783	0.357412	0.316121	0.281649	0.846280	0.551947	0.098801	0.115249	0.046946	0.221951	0.225604	0.200152	0.347200	0.174941	0.148034	0.289179	0.063778	0.340040	0.057701	0.070294	0.089915	0.110230	0.417094	0.551078	0.163775	0.213218	0.282760	0.654794	0.250672	0.237386	0.192464	0.389957	0.096024	0.293688	0.528709	0.537542	0.091550	0.234327	0.269948	0.249454	0.104177	0.459429	0.142200	0.122086	0.131104	0.234701	0.221164	0.438944	0.112233	0.178796	0.337826	0.467926	0.090898	0.155247	0.276806	0.265776
51	0.148966	0.238826	0.383194	0.792224	0.440837	0.324452	0.327518	0.544959	0.066215	0.334712	0.223160	0.280647	0.136542	0.269350	0.543918	0.504075	0.049537	0.231857	0.217555	0.142473	0.083963	0.264848	0.275712	0.692977	0.157581	0.356910	0.310043	0.279006	0.838285	0.530017	0.098855	0.127117	0.047362	0.229688	0.216984	0.223293	0.233061	0.143060	0.136409	0.283594	0.063156	0.342092	0.068897	0.053198	0.072728	0.091654	0.421252	0.523432	0.158563	0.210069	0.256227	0.625772	0.235610	0.228850	0.188192	0.389566	0.129216	0.330217	0.536559	0.566351	0.095296	0.294320	0.226599	0.203857	0.110214	0.474208	0.203812	0.082619	0.131757	0.239580	0.198682	0.423984	0.095837	0.139700	0.337787	0.459104	0.091191	0.157672	0.308567	0.257360
52	0.137817	0.283550	0.324005	0.829929	0.389209	0.271360	0.329100	0.532521	0.047628	0.370295	0.187862	0.305341	0.134679	0.267893	0.530319	0.514655	0.051058	0.335034	0.152733	0.118714	0.103386	0.298694	0.274345	0.711562	0.166813	0.339296	0.325111	0.340400	0.812733	0.498203	0.095228	0.129224	0.053033	0.242361	0.226786	0.279138	0.230665	0.175057	0.131315	0.276274	0.062474	0.355671	0.084265	0.052293	0.068777	0.093840	0.434251	0.503162	0.155902	0.210462	0.136605	0.531411	0.235228	0.233524	0.169043	0.365799	0.208757	0.436726	0.677399	0.608684	0.093761	0.300281	0.216404	0.158078	0.108400	0.476744	0.241556	0.143009	0.127425	0.236950	0.184273	0.409916	0.097604	0.131920	0.315789	0.438275	0.092459	0.155465	0.311911	0.238412
53	0.143613	0.318557	0.305106	0.831102	0.368034	0.251849	0.329194	0.513653	0.051983	0.383595	0.154342	0.304442	0.115324	0.247693	0.482224	0.575470	0.057710	0.334023	0.147969	0.143668	0.116267	0.303624	0.236860	0.714278	0.161715	0.320480	0.357880	0.430314	0.748685	0.461619	0.093597	0.129505	0.055147	0.242188	0.234565	0.301248	0.278646	0.212707	0.122120	0.237819	0.061416	0.335658	0.248267	0.086784	0.082178	0.120209	0.466423	0.508609	0.158644	0.216234	0.086587	0.416385	0.224565	0.232245	0.177835	0.344743	0.233403	0.462667	0.935153	0.700677	0.110935	0.354390	0.163056	0.101696	0.101050	0.476510	0.227557	0.192150	0.117314	0.227392	0.184591	0.415852	0.097175	0.126274	0.287384	0.436969	0.092170	0.155773	0.315109	0.234711
54	0.143809	0.305311	0.286585	0.817917	0.367694	0.250599	0.329518	0.495415	0.072993	0.401271	0.165517	0.324364	0.102601	0.232853	0.299734	0.625223	0.072550	0.341033	0.136920	0.148873	0.116469	0.302974	0.213042	0.723022	0.172665	0.308795	0.387063	0.453427	0.670101	0.441525	0.101696	0.150561	0.055959	0.222142	0.248810	0.293316	0.338371	0.247799	0.115553	0.205673	0.068689	0.262453	0.273271	0.132981	0.102971	0.151653	0.486210	0.512575	0.134137	0.178258	0.074862	0.354880	0.216997	0.210215	0.198315	0.327053	0.297968	0.531788	0.968605	0.743145	0.114336	0.391309	0.093580	0.092195	0.104805	0.509104	0.319974	0.218371	0.112933	0.221056	0.182658	0.406775	0.081887	0.094203	0.255665	0.418522	0.091523	0.160274	0.315032	0.230998
55	0.141735	0.287821	0.263398	0.750147	0.334304	0.240219	0.332266	0.488965	0.079013	0.451768	0.165458	0.347186	0.111196	0.263335	0.191200	0.627786	0.081889	0.354019	0.111549	0.160089	0.117290	0.302779	0.223118	0.723857	0.171935	0.290947	0.384308	0.451487	0.636608	0.469909	0.121237	0.183173	0.057788	0.194106	0.248095	0.309230	0.381669	0.276360	0.114145	0.201551	0.065989	0.243326	0.315403	0.146469	0.109202	0.158671	0.499769	0.500102	0.093109	0.124170	0.077429	0.330991	0.224332	0.180942	0.233764	0.338817	0.320517	0.556846	0.971199	0.762544	0.108736	0.421586	0.085972	0.082328	0.124842	0.489775	0.413688	0.237535	0.110777	0.221576	0.150185	0.377473	0.076909	0.080756	0.243260	0.354737	0.090418	0.155927	0.316079	0.216812
56	0.133679	0.271906	0.259070	0.572835	0.278300	0.188823	0.340140	0.495370	0.112882	0.532643	0.165053	0.363198	0.126369	0.303569	0.171618	0.620709	0.101394	0.490054	0.123573	0.163303	0.117986	0.302945	0.236531	0.722347	0.170190	0.284050	0.373039	0.450415	0.629020	0.476758	0.121920	0.192504	0.069986	0.200453	0.354420	0.345106	0.384522	0.279439	0.084117	0.204493	0.073785	0.227164	0.324100	0.148834	0.109125	0.160053	0.505229	0.480534	0.071436	0.107606	0.090740	0.322028	0.220914	0.170407	0.239694	0.340982	0.325501	0.544270	0.877077	0.735257	0.140709	0.598512	0.089044	0.070317	0.134550	0.452260	0.430305	0.238315	0.108241	0.223777	0.114739	0.322605	0.077565	0.088903	0.243357	0.283881	0.084408	0.147626	0.317566	0.190496
57	0.125413	0.269425	0.257687	0.452275	0.232698	0.161637	0.344340	0.482152	0.121474	0.522832	0.197193	0.359155	0.129221	0.313696	0.168001	0.621699	0.102303	0.499934	0.177963	0.167444	0.120750	0.297292	0.261414	0.671095	0.150347	0.237608	0.355118	0.473287	0.545269	0.459767	0.118280	0.193018	0.114167	0.224117	0.393589	0.352789	0.395273	0.279317	0.045132	0.195002	0.107574	0.274046	0.351442	0.147967	0.107812	0.162220	0.513426	0.465612	0.069776	0.106926	0.095456	0.318483	0.192894	0.160413	0.220828	0.309933	0.326700	0.541520	0.833792	0.626018	0.146935	0.627591	0.124100	0.074557	0.131446	0.395627	0.468036	0.240650	0.105757	0.216063	0.128674	0.270992	0.073435	0.091598	0.217064	0.277636	0.081974	0.146800	0.312679	0.162896
58	0.110005	0.283907	0.257478	0.436500	0.198439	0.166237	0.324268	0.451205	0.124183	0.566475	0.231304	0.360668	0.127703	0.313555	0.147618	0.629183	0.103572	0.514936	0.329492	0.167847	0.121662	0.279408	0.286322	0.580695	0.145866	0.222281	0.359748	0.475243	0.435303	0.402453	0.109848	0.200194	0.121733	0.204340	0.451234	0.368691	0.463310	0.287938	0.040504	0.168338	0.108089	0.286377	0.427734	0.157339	0.108640	0.160900	0.515076	0.439258	0.072086	0.116091	0.099268	0.321401	0.165690	0.150100	0.211863	0.260482	0.322499	0.535601	0.831331	0.561435	0.148996	0.622913	0.174356	0.085611	0.133822	0.328590	0.523342	0.244532	0.089970	0.170791	0.133936	0.242132	0.082375	0.096005	0.152918	0.290815	0.075568	0.141388	0.282007	0.130058
59	0.086488	0.285717	0.199271	0.393636	0.174182	0.166853	0.323595	0.371363	0.138533	0.673399	0.264293	0.368111	0.128695	0.313911	0.149765	0.616074	0.119070	0.617011	0.412555	0.168080	0.140902	0.294738	0.291524	0.527533	0.138582	0.218566	0.353805	0.447949	0.336562	0.351623	0.101674	0.203302	0.123163	0.202779	0.567229	0.397370	0.565997	0.318424	0.038222	0.166444	0.124590	0.297011	0.452150	0.220307	0.109718	0.153322	0.499668	0.365234	0.076316	0.142217	0.101936	0.314900	0.150975	0.147509	0.225827	0.216819	0.303118	0.482811	0.829756	0.559596	0.147961	0.621450	0.199663	0.084017	0.115805	0.315948	0.574799	0.256333	0.068369	0.132043	0.135357	0.245370	0.103776	0.095800	0.173646	0.287689	0.063345	0.134676	0.266968	0.100832
60	0.079852	0.266142	0.062331	0.234423	0.172809	0.171019	0.268523	0.310065	0.163670	0.755466	0.392244	0.391245	0.132854	0.310656	0.164377	0.485168	0.130441	0.637924	0.426023	0.171422	0.151416	0.309548	0.291441	0.522463	0.131249	0.210209	0.248769	0.293444	0.248999	0.318884	0.102230	0.197947	0.134796	0.208971	0.638031	0.394227	0.616094	0.348520	0.040199	0.153372	0.170339	0.369314	0.487876	0.259975	0.107912	0.151242	0.448969	0.295533	0.077633	0.153917	0.110741	0.284596	0.148313	0.137634	0.245951	0.192836	0.272455	0.424676	0.601187	0.531414	0.142908	0.594159	0.200051	0.088273	0.112617	0.295619	0.555681	0.284758	0.063302	0.126431	0.146668	0.236126	0.111580	0.098527	0.224161	0.276857	0.057615	0.133753	0.283353	0.104479
61	0.044464	0.186829	0.026175	0.111838	0.177348	0.176923	0.229885	0.301878	0.190178	0.785818	0.441738	0.435660	0.127904	0.288661	0.182188	0.425776	0.136927	0.607607	0.584570	0.169484	0.143955	0.311296	0.298129	0.476913	0.089315	0.136712	0.177730	0.193460	0.181580	0.303021	0.109199	0.191116	0.162858	0.254815	0.699797	0.361969	0.628754	0.362834	0.035695	0.153086	0.195865	0.428796	0.459409	0.269249	0.100112	0.148386	0.406163	0.286334	0.075548	0.150252	0.175156	0.252915	0.143769	0.139752	0.251665	0.183424	0.223453	0.338083	0.290175	0.490195	0.142170	0.580224	0.211613	0.092673	0.120954	0.309981	0.538785	0.267152	0.063157	0.113438	0.164041	0.209248	0.115818	0.122343	0.224087	0.271542	0.058998	0.132225	0.279050	0.098687
62	0.037369	0.203999	0.015768	0.108519	0.178333	0.177044	0.239394	0.259473	0.202949	0.810214	0.494781	0.431812	0.113221	0.255215	0.186205	0.425145	0.177350	0.656785	0.805548	0.160086	0.142986	0.287782	0.308392	0.360557	0.043388	0.111180	0.132409	0.228434	0.172875	0.317773	0.109884	0.187752	0.224986	0.339561	0.754023	0.394179	0.622990	0.357719	0.027491	0.165468	0.194505	0.444712	0.429183	0.251542	0.098013	0.152023	0.354382	0.239644	0.069892	0.153599	0.238677	0.228487	0.154601	0.146986	0.257190	0.180268	0.174864	0.222787	0.298396	0.446305	0.136226	0.564598	0.232503	0.092194	0.134832	0.328578	0.545002	0.238876	0.108010	0.141611	0.165656	0.174723	0.148874	0.138754	0.232291	0.266101	0.060991	0.121268	0.297137	0.084085
63	0.045896	0.301421	0.015862	0.097029	0.173518	0.178505	0.237452	0.203867	0.199350	0.807903	0.654656	0.441770	0.101178	0.234430	0.189506	0.410007	0.217466	0.717420	0.900374	0.162031	0.141172	0.259978	0.319292	0.267234	0.047383	0.162874	0.145189	0.282922	0.173253	0.321558	0.116731	0.186108	0.235661	0.359550	0.900491	0.449847	0.605196	0.339571	0.023644	0.168236	0.193642	0.449995	0.494314	0.243242	0.097383	0.159409	0.347835	0.212470	0.062181	0.142746	0.243061	0.232941	0.206465	0.165785	0.259229	0.180299	0.192678	0.229360	0.398476	0.430740	0.120940	0.516739	0.249601	0.092313	0.144480	0.289616	0.490585	0.230879	0.197008	0.212805	0.158273	0.154977	0.159068	0.151071	0.267659	0.264823	0.058504	0.102736	0.320770	0.076140
64	0.052254	0.313254	0.058624	0.098008	0.170576	0.186128	0.246026	0.143439	0.196108	0.768466	0.798335	0.505125	0.116828	0.235782	0.217857	0.332587	0.231568	0.730299	0.907924	0.155554	0.124921	0.226935	0.314252	0.234312	0.073320	0.249633	0.269833	0.280907	0.170792	0.326096	0.130548	0.185744	0.279313	0.452233	0.948998	0.435508	0.585336	0.317190	0.021201	0.169496	0.199094	0.443850	0.495033	0.241954	0.097633	0.183401	0.333644	0.190002	0.055207	0.137880	0.265158	0.234353	0.235781	0.166510	0.254965	0.179143	0.198970	0.234339	0.396406	0.443988	0.118851	0.503845	0.257881	0.093621	0.128921	0.229301	0.426815	0.219485	0.251889	0.247629	0.154179	0.137435	0.186672	0.156158	0.283074	0.266763	0.066179	0.101976	0.304206	0.071183
65	0.099720	0.369828	0.281852	0.263367	0.166027	0.200012	0.256681	0.138617	0.196231	0.705217	0.881822	0.561176	0.142824	0.251123	0.233073	0.196308	0.232019	0.664636	0.928891	0.155033	0.117786	0.228618	0.303017	0.218764	0.100169	0.291271	0.361587	0.272297	0.164746	0.322134	0.156027	0.174879	0.289315	0.480175	0.927259	0.426408	0.556704	0.290748	0.021087	0.167522	0.203622	0.420483	0.515741	0.242974	0.087360	0.198748	0.286876	0.159543	0.054014	0.151548	0.265454	0.266036	0.240595	0.157493	0.240609	0.169131	0.203786	0.233929	0.396335	0.458582	0.100491	0.396371	0.280249	0.095867	0.120008	0.223989	0.420547	0.222019	0.269810	0.254362	0.155659	0.115668	0.217202	0.158921	0.293127	0.287008	0.081627	0.119102	0.275439	0.076265
66	0.117399	0.405989	0.292093	0.376127	0.163552	0.209510	0.245316	0.122135	0.221594	0.726903	0.882122	0.583196	0.153661	0.239684	0.224911	0.163682	0.232416	0.659463	0.959854	0.154410	0.117300	0.230605	0.302485	0.194980	0.103143	0.299444	0.399185	0.275535	0.153166	0.297845	0.164732	0.144701	0.287984	0.493273	0.922790	0.427212	0.568033	0.274494	0.021715	0.164739	0.200108	0.401410	0.506973	0.243471	0.058102	0.177750	0.265781	0.118211	0.065642	0.192670	0.271634	0.279035	0.233840	0.146598	0.200211	0.139404	0.227614	0.254485	0.385248	0.462593	0.054730	0.124639	0.278917	0.096329	0.119100	0.224576	0.384011	0.243095	0.271965	0.255177	0.155849	0.104901	0.227021	0.156048	0.360563	0.298932	0.081920	0.122486	0.267832	0.085635
67	0.121405	0.431706	0.323509	0.467041	0.132672	0.214162	0.229770	0.084661	0.234598	0.677739	0.885441	0.561800	0.144105	0.193289	0.217547	0.162325	0.231612	0.630767	0.940863	0.174003	0.120618	0.270173	0.291711	0.193565	0.103368	0.297884	0.407700	0.279009	0.135943	0.275115	0.164535	0.127513	0.290297	0.496198	0.851120	0.382383	0.686524	0.313719	0.024106	0.161006	0.210498	0.420066	0.493875	0.226099	0.045195	0.180162	0.264380	0.086518	0.068149	0.197441	0.279798	0.279705	0.237274	0.151245	0.175299	0.104419	0.220605	0.255046	0.377458	0.420180	0.055870	0.098228	0.261262	0.090664	0.111264	0.225731	0.306737	0.308333	0.277558	0.257977	0.154471	0.105454	0.289081	0.197247	0.423794	0.283244	0.080792	0.117939	0.274528	0.096797
68	0.152969	0.532976	0.341129	0.505485	0.082795	0.218480	0.213727	0.073924	0.230625	0.584821	0.898219	0.542218	0.139690	0.206638	0.218085	0.144263	0.229581	0.519263	0.926032	0.198057	0.131413	0.328666	0.287123	0.195109	0.105032	0.300769	0.520780	0.280303	0.134196	0.251578	0.181105	0.123982	0.287721	0.491091	0.801453	0.362053	0.819765	0.373823	0.024057	0.160626	0.197324	0.400966	0.469202	0.146353	0.060024	0.183258	0.262039	0.073766	0.069752	0.209755	0.275855	0.306360	0.234585	0.154525	0.183014	0.092408	0.218898	0.250763	0.400866	0.293741	0.069821	0.108775	0.244538	0.087387	0.107259	0.229709	0.252168	0.348086	0.301837	0.282484	0.145107	0.105615	0.369747	0.293872	0.476469	0.281832	0.083366	0.117416	0.280903	0.104896
69	0.174481	0.579584	0.395724	0.524833	0.077546	0.283867	0.217446	0.058102	0.213097	0.493145	0.858037	0.481249	0.142794	0.218524	0.215893	0.092063	0.232480	0.490556	0.910526	0.197666	0.129351	0.331445	0.265949	0.166323	0.123174	0.315673	0.553812	0.305715	0.128877	0.251064	0.220635	0.167980	0.277186	0.474188	0.727994	0.359783	0.832517	0.396969	0.040745	0.160911	0.161753	0.308581	0.457253	0.125424	0.088547	0.190321	0.238937	0.066628	0.068552	0.203463	0.278967	0.334086	0.234215	0.155028	0.228131	0.099968	0.213792	0.239393	0.413905	0.256948	0.073337	0.112402	0.293068	0.098707	0.113349	0.232115	0.297641	0.350676	0.332533	0.323816	0.131415	0.096357	0.385422	0.325931	0.457250	0.292510	0.087805	0.123818	0.278524	0.110578
70	0.196907	0.591270	0.404636	0.577065	0.077291	0.301600	0.212110	0.053372	0.185848	0.421849	0.854511	0.473452	0.151597	0.239612	0.202720	0.059715	0.225840	0.471291	0.786043	0.177850	0.127586	0.327834	0.251581	0.112942	0.125767	0.313519	0.587305	0.327164	0.094837	0.232901	0.239553	0.208515	0.239679	0.420941	0.709044	0.346437	0.766857	0.370615	0.046470	0.143861	0.165444	0.287083	0.521540	0.172333	0.096120	0.202518	0.235690	0.066634	0.078938	0.203036	0.301957	0.350951	0.242588	0.163391	0.250155	0.126055	0.209865	0.231792	0.393939	0.254263	0.072919	0.125306	0.317754	0.093217	0.120912	0.230677	0.312925	0.347254	0.345206	0.337088	0.129340	0.071400	0.383945	0.324315	0.500193	0.347851	0.089574	0.125026	0.276471	0.111146
71	0.207840	0.583191	0.428723	0.637912	0.075853	0.312716	0.187544	0.050802	0.179823	0.412204	0.776660	0.480134	0.176638	0.440605	0.237231	0.063884	0.186813	0.376224	0.602567	0.177215	0.095884	0.285152	0.239997	0.093784	0.129309	0.276742	0.577594	0.353143	0.083137	0.245660	0.245637	0.236923	0.211817	0.397940	0.544844	0.259762	0.789683	0.386565	0.115653	0.168520	0.208748	0.373992	0.532094	0.216148	0.094962	0.206561	0.240545	0.067076	0.081650	0.209808	0.308757	0.353155	0.326881	0.219738	0.230262	0.130771	0.194745	0.217227	0.321677	0.222065	0.071513	0.132495	0.309693	0.095851	0.110295	0.206663	0.329880	0.374736	0.356487	0.341511	0.116914	0.057457	0.379518	0.316454	0.590796	0.371747	0.090318	0.124675	0.274958	0.107030
72	0.224528	0.597811	0.451191	0.695248	0.062208	0.320164	0.167971	0.054520	0.178752	0.409083	0.634560	0.442134	0.196573	0.685157	0.256792	0.086654	0.145866	0.273133	0.513220	0.206693	0.076436	0.265721	0.258027	0.092574	0.135056	0.253701	0.524471	0.348858	0.086158	0.244982	0.246339	0.255767	0.171625	0.323592	0.306916	0.190902	0.879665	0.458164	0.192602	0.195437	0.216189	0.406186	0.479601	0.216337	0.094956	0.226105	0.256949	0.070439	0.092084	0.204203	0.324542	0.353679	0.435455	0.295256	0.225470	0.128755	0.198452	0.241447	0.328070	0.228954	0.074244	0.140587	0.296653	0.108353	0.091496	0.192943	0.424057	0.458697	0.365738	0.342318	0.089097	0.059097	0.368742	0.311762	0.593153	0.394174	0.089081	0.124843	0.275240	0.105072
73	0.252538	0.648697	0.476014	0.715268	0.047539	0.323631	0.158175	0.085763	0.169257	0.385243	0.457760	0.342184	0.198882	0.717713	0.308590	0.131650	0.119772	0.190326	0.531444	0.362855	0.074661	0.263962	0.261711	0.090447	0.138907	0.250049	0.489463	0.346669	0.090192	0.221771	0.246296	0.253336	0.108975	0.208347	0.207542	0.166080	0.919709	0.476952	0.223499	0.215670	0.198120	0.391043	0.473109	0.295718	0.094853	0.234233	0.259122	0.069584	0.095385	0.204252	0.387433	0.348180	0.454780	0.309436	0.219324	0.128384	0.181935	0.232131	0.343075	0.199270	0.117984	0.175615	0.308034	0.114779	0.111221	0.221221	0.421982	0.548140	0.366947	0.343256	0.066439	0.061534	0.361925	0.307561	0.591020	0.421834	0.088056	0.125410	0.272732	0.105073
74	0.242451	0.615760	0.410598	0.661663	0.047467	0.321145	0.185172	0.130725	0.136418	0.341091	0.378899	0.270388	0.199684	0.737797	0.393251	0.136551	0.133647	0.162094	0.506885	0.440840	0.074478	0.262651	0.244770	0.084529	0.143260	0.253387	0.492613	0.348493	0.099401	0.223183	0.249434	0.269429	0.078597	0.142598	0.269073	0.307080	0.941957	0.482551	0.253830	0.226528	0.190155	0.382786	0.421714	0.327606	0.095602	0.232273	0.276639	0.082480	0.096542	0.209122	0.377135	0.330831	0.450243	0.306850	0.216330	0.133191	0.170052	0.223100	0.379303	0.252743	0.186338	0.227602	0.314495	0.116840	0.138677	0.257682	0.411847	0.572661	0.340452	0.324191	0.074403	0.057214	0.351540	0.308671	0.590821	0.422805	0.088197	0.145343	0.253078	0.099950
75	0.241008	0.598400	0.444775	0.619836	0.046604	0.314205	0.193045	0.157078	0.102871	0.319855	0.373163	0.247080	0.198043	0.736998	0.422272	0.137182	0.173567	0.217954	0.456199	0.448029	0.074357	0.258256	0.232719	0.074884	0.144558	0.255126	0.426379	0.356156	0.104220	0.259304	0.247649	0.289535	0.077468	0.138612	0.298961	0.439108	0.954859	0.487007	0.259131	0.228469	0.187937	0.368971	0.387148	0.334509	0.096051	0.233730	0.336634	0.105942	0.096808	0.205962	0.375472	0.311399	0.434448	0.306382	0.217878	0.134926	0.181129	0.256750	0.400347	0.300356	0.222101	0.254216	0.309055	0.117311	0.171601	0.295072	0.409217	0.564652	0.295047	0.294685	0.083187	0.058864	0.341410	0.313330	0.607768	0.408887	0.086662	0.170430	0.246819	0.095938
76	0.237438	0.550167	0.418872	0.551945	0.050597	0.311152	0.192361	0.163900	0.075288	0.336079	0.430953	0.406250	0.186261	0.741008	0.428919	0.136452	0.175988	0.230223	0.408438	0.497238	0.073019	0.269511	0.226825	0.073338	0.142758	0.253687	0.353147	0.353345	0.105330	0.272375	0.244686	0.303600	0.090928	0.181131	0.353268	0.550500	0.961887	0.490184	0.284293	0.261342	0.176224	0.344592	0.387833	0.426384	0.095996	0.220503	0.364081	0.124924	0.090839	0.171160	0.372239	0.309128	0.425777	0.305815	0.222263	0.148658	0.195177	0.278837	0.372215	0.302378	0.230513	0.263251	0.319289	0.126498	0.194194	0.320339	0.403387	0.545493	0.265418	0.278841	0.102361	0.065381	0.346246	0.338063	0.653061	0.424046	0.083146	0.186348	0.198076	0.097226
77	0.213775	0.455867	0.416454	0.552686	0.061817	0.304362	0.194324	0.163804	0.076207	0.350407	0.482416	0.654167	0.174256	0.749898	0.434593	0.146775	0.181592	0.230545	0.447196	0.503443	0.075431	0.274055	0.225522	0.071748	0.148517	0.266492	0.305076	0.298461	0.108759	0.260727	0.246089	0.309869	0.132804	0.262104	0.413615	0.611286	0.938001	0.489877	0.306100	0.323323	0.177090	0.351459	0.404433	0.593274	0.098992	0.192717	0.373697	0.140874	0.087172	0.168296	0.416304	0.327213	0.425956	0.307192	0.233123	0.173180	0.185357	0.269685	0.354743	0.293242	0.237890	0.265471	0.318324	0.131718	0.200495	0.321099	0.377225	0.557217	0.257871	0.281610	0.140946	0.082677	0.304948	0.336308	0.624542	0.447398	0.083538	0.194854	0.149638	0.099570
78	0.204259	0.424892	0.406434	0.549629	0.072228	0.297423	0.197595	0.166548	0.093782	0.356830	0.486259	0.724532	0.175077	0.752198	0.513407	0.164510	0.190996	0.232396	0.458648	0.536443	0.077545	0.272423	0.227169	0.066021	0.152088	0.271947	0.239439	0.230044	0.108839	0.248389	0.249707	0.311663	0.175504	0.322357	0.435288	0.616804	0.853874	0.477812	0.329545	0.353571	0.211143	0.395349	0.436044	0.684734	0.100101	0.188285	0.365133	0.146493	0.097173	0.197483	0.515514	0.333523	0.421273	0.302195	0.242161	0.175009	0.190702	0.246039	0.319252	0.293429	0.293188	0.312490	0.287030	0.125754	0.204616	0.317095	0.346341	0.623716	0.256499	0.282794	0.157123	0.086759	0.198975	0.248166	0.608473	0.445694	0.073915	0.237474	0.114148	0.099445
79	0.176322	0.399681	0.499341	0.540227	0.069461	0.306239	0.190719	0.173181	0.138254	0.377345	0.496953	0.729345	0.194261	0.758586	0.590257	0.173571	0.191540	0.233361	0.437318	0.643388	0.068447	0.227194	0.221873	0.065737	0.134482	0.252334	0.277199	0.263418	0.109944	0.243950	0.249784	0.318257	0.176373	0.322305	0.496472	0.660760	0.723723	0.437149	0.332488	0.355424	0.218406	0.400393	0.418139	0.688316	0.099397	0.179001	0.367141	0.161852	0.138873	0.262979	0.589465	0.299290	0.420384	0.302264	0.244610	0.173054	0.224536	0.200134	0.318058	0.277856	0.319110	0.357006	0.229057	0.117468	0.194799	0.302651	0.363952	0.649976	0.241094	0.272270	0.214618	0.083761	0.185161	0.250336	0.621452	0.462853	0.056163	0.263681	0.111494	0.094539
80	0.166514	0.373157	0.528014	0.479939	0.072214	0.343206	0.182526	0.179844	0.226931	0.439069	0.518759	0.727518	0.198776	0.758057	0.621046	0.180745	0.211259	0.264342	0.409596	0.730874	0.059163	0.146053	0.212287	0.060429	0.141452	0.255760	0.330030	0.346220	0.109786	0.231835	0.210274	0.301987	0.176113	0.325069	0.521667	0.797702	0.670460	0.415808	0.343019	0.353511	0.201832	0.348559	0.408408	0.686052	0.091478	0.185127	0.399680	0.211499	0.148561	0.269057	0.612697	0.289132	0.420525	0.309642	0.245357	0.172169	0.236324	0.192030	0.311701	0.273461	0.332769	0.379146	0.210719	0.118817	0.200582	0.313112	0.327978	0.633802	0.199561	0.229835	0.235847	0.081796	0.191306	0.259844	0.556863	0.459135	0.053821	0.276746	0.113740	0.085930
81	0.142048	0.277678	0.520321	0.408669	0.072344	0.356839	0.204774	0.180760	0.244004	0.453007	0.594273	0.748338	0.199677	0.764095	0.629323	0.182755	0.275031	0.360456	0.423486	0.745145	0.075760	0.151189	0.208347	0.060209	0.144727	0.253180	0.315135	0.345263	0.110914	0.225463	0.191544	0.267337	0.178658	0.340168	0.551100	0.906779	0.674590	0.422677	0.362522	0.356661	0.201308	0.346824	0.408417	0.675671	0.067653	0.226113	0.455010	0.236315	0.148033	0.262505	0.612921	0.282223	0.418573	0.308790	0.207482	0.190645	0.312408	0.243954	0.272552	0.258248	0.337045	0.385340	0.232600	0.121333	0.215801	0.324838	0.224513	0.618698	0.162277	0.195632	0.237407	0.076738	0.198253	0.284840	0.491311	0.436593	0.054055	0.279126	0.117570	0.075080
82	0.152959	0.230782	0.501597	0.396160	0.073755	0.356269	0.219712	0.182273	0.288268	0.531580	0.627824	0.766109	0.186648	0.702888	0.619875	0.178905	0.297947	0.389287	0.563769	0.945992	0.078561	0.154148	0.251143	0.131019	0.149884	0.252703	0.368921	0.392051	0.107392	0.208731	0.200048	0.251100	0.199973	0.379392	0.579972	0.930974	0.597687	0.375904	0.348449	0.344313	0.201949	0.361596	0.407412	0.657873	0.063977	0.242027	0.485090	0.248613	0.143762	0.266899	0.647266	0.288125	0.380750	0.293378	0.204847	0.214195	0.407782	0.298458	0.219498	0.188347	0.337756	0.379018	0.263267	0.127969	0.207760	0.305935	0.222761	0.634416	0.135519	0.191796	0.244793	0.082505	0.217683	0.332051	0.491988	0.412158	0.052149	0.290892	0.147698	0.064735
83	0.187853	0.268239	0.490589	0.389854	0.078281	0.369410	0.222179	0.186561	0.313624	0.582114	0.627435	0.766795	0.158548	0.485905	0.621237	0.171689	0.315967	0.429101	0.650058	1.137494	0.078615	0.154244	0.238088	0.191689	0.149625	0.247088	0.545552	0.463685	0.098253	0.198224	0.252979	0.249010	0.226672	0.407069	0.581856	0.887356	0.438724	0.271005	0.324179	0.324619	0.198447	0.386849	0.409427	0.661124	0.066750	0.239762	0.486436	0.253815	0.139820	0.266946	0.681814	0.260538	0.258075	0.246064	0.199211	0.243520	0.404825	0.275630	0.218407	0.180179	0.338893	0.357372	0.244066	0.137347	0.195246	0.289296	0.265651	0.690071	0.100294	0.210294	0.251095	0.095801	0.222750	0.345797	0.529294	0.399590	0.046501	0.307012	0.181876	0.059770
84	0.188929	0.269575	0.504207	0.386172	0.078544	0.372245	0.221067	0.177283	0.314889	0.559342	0.616404	0.754637	0.158295	0.370921	0.614382	0.139975	0.352529	0.467637	0.659584	1.169847	0.077887	0.157536	0.199231	0.208833	0.211247	0.332562	0.588924	0.482660	0.092458	0.210246	0.281004	0.249795	0.238041	0.410868	0.567326	0.828095	0.348608	0.249471	0.305854	0.312867	0.194729	0.397034	0.409021	0.639377	0.067686	0.222563	0.487200	0.259342	0.144302	0.271216	0.762243	0.315548	0.257492	0.264702	0.198283	0.270539	0.401872	0.274961	0.273842	0.290941	0.351936	0.348716	0.240617	0.143892	0.183217	0.276348	0.293530	0.721673	0.080974	0.222850	0.248756	0.106550	0.217011	0.344715	0.589107	0.433037	0.050471	0.338800	0.216028	0.063777
85	0.189436	0.269648	0.508562	0.384789	0.078219	0.374957	0.222454	0.150940	0.313782	0.530245	0.507574	0.624820	0.165064	0.324994	0.565320	0.138878	0.362919	0.476387	0.655830	1.162089	0.078240	0.158429	0.192348	0.215321	0.240045	0.367674	0.660361	0.485903	0.085406	0.219187	0.290706	0.238492	0.231722	0.382163	0.510869	0.764923	0.283002	0.261539	0.283029	0.314261	0.197065	0.415655	0.409331	0.525490	0.069848	0.212008	0.494029	0.264926	0.170905	0.307733	0.793654	0.366733	0.328648	0.323816	0.203066	0.283073	0.399709	0.290743	0.327051	0.302909	0.352709	0.340137	0.227679	0.136551	0.185583	0.291168	0.290868	0.720665	0.076462	0.218979	0.247059	0.119298	0.221569	0.355514	0.582515	0.457520	0.056689	0.376018	0.229560	0.079079
86	0.190148	0.268188	0.501155	0.366227	0.077775	0.375036	0.249827	0.141330	0.311996	0.516454	0.458395	0.543660	0.166892	0.323701	0.532502	0.140509	0.354341	0.475257	0.620705	1.195866	0.082972	0.159117	0.198233	0.215850	0.238516	0.359663	0.704442	0.498922	0.080277	0.187307	0.288006	0.211535	0.197933	0.316858	0.501914	0.750275	0.229555	0.277292	0.289697	0.315121	0.184163	0.478855	0.477773	0.405130	0.074034	0.210933	0.490628	0.261618	0.217242	0.362790	0.800591	0.357656	0.412569	0.377805	0.202572	0.282842	0.398875	0.329857	0.463539	0.325627	0.359113	0.349190	0.219301	0.130951	0.183310	0.297926	0.290751	0.683640	0.074181	0.199847	0.245036	0.123174	0.231536	0.360319	0.504747	0.434040	0.060390	0.392118	0.229793	0.097963
87	0.194224	0.270990	0.466959	0.301693	0.080239	0.370287	0.255778	0.150638	0.307587	0.507017	0.477092	0.640940	0.161073	0.313981	0.543513	0.142220	0.347894	0.474526	0.616586	1.192574	0.100768	0.162453	0.244395	0.247701	0.242740	0.364153	0.686104	0.457765	0.079381	0.141719	0.282006	0.190377	0.186790	0.302785	0.447303	0.743111	0.189866	0.277101	0.265253	0.288390	0.143590	0.462535	0.483360	0.460248	0.073537	0.203206	0.448723	0.252563	0.238581	0.377651	0.815691	0.432067	0.449870	0.404009	0.199947	0.279229	0.394583	0.356316	0.477889	0.345977	0.376997	0.362630	0.242629	0.150592	0.203404	0.313271	0.279896	0.616986	0.070966	0.194216	0.245080	0.121793	0.235582	0.355632	0.553648	0.413732	0.061438	0.395162	0.229240	0.100039
88	0.212539	0.281512	0.429987	0.249722	0.076215	0.365331	0.258563	0.167724	0.303442	0.492099	0.477922	0.667660	0.158342	0.273384	0.591998	0.141036	0.352944	0.485339	0.621652	1.128899	0.102928	0.143713	0.350818	0.330913	0.256849	0.393777	0.726255	0.485921	0.071977	0.141330	0.261372	0.177816	0.192854	0.301978	0.393274	0.648740	0.188676	0.278092	0.241487	0.215030	0.121826	0.426036	0.479139	0.498616	0.073063	0.197253	0.428286	0.270069	0.239505	0.369350	0.826119	0.513761	0.452135	0.405594	0.194852	0.264174	0.411280	0.391572	0.562150	0.408950	0.373164	0.318044	0.277203	0.179508	0.247796	0.335933	0.243812	0.600603	0.068333	0.186428	0.232102	0.115884	0.235801	0.361231	0.618481	0.423817	0.062344	0.387865	0.228198	0.100566
89	0.219491	0.310611	0.522765	0.279036	0.066828	0.364522	0.264000	0.178936	0.292538	0.478245	0.420386	0.646041	0.157849	0.275664	0.568862	0.127069	0.332541	0.453740	0.625479	1.097465	0.121084	0.186818	0.397400	0.399191	0.258722	0.397969	0.767941	0.509286	0.068401	0.143182	0.255745	0.180491	0.212393	0.301785	0.371406	0.455927	0.176405	0.266317	0.209916	0.163072	0.153420	0.444370	0.491251	0.504065	0.068475	0.197578	0.429370	0.269600	0.232747	0.347532	0.825264	0.574884	0.480879	0.420561	0.187786	0.260781	0.334237	0.390954	0.674717	0.447078	0.362076	0.275738	0.290929	0.189378	0.287167	0.354168	0.237670	0.598729	0.069242	0.184466	0.224268	0.103895	0.231121	0.365583	0.673532	0.384825	0.062121	0.376799	0.229256	0.101198
90	0.272517	0.405414	0.709504	0.284437	0.072561	0.341106	0.273416	0.180133	0.299167	0.444530	0.336846	0.616794	0.135371	0.233398	0.477492	0.117697	0.281816	0.373179	0.574834	1.040292	0.131686	0.202764	0.417442	0.438271	0.298251	0.440595	0.670141	0.443263	0.064224	0.143984	0.251273	0.168536	0.214533	0.271751	0.292421	0.295686	0.166831	0.266025	0.206452	0.155772	0.177966	0.448400	0.557103	0.551255	0.066658	0.198603	0.437527	0.279623	0.244985	0.373988	0.808945	0.573984	0.538622	0.455549	0.184561	0.259570	0.309429	0.393119	0.701096	0.446946	0.352708	0.248624	0.290504	0.187869	0.313319	0.373089	0.219044	0.539017	0.069320	0.179814	0.193195	0.103807	0.229034	0.363256	0.743948	0.344073	0.061754	0.365775	0.239404	0.100677
91	0.298950	0.424324	0.791615	0.280495	0.078360	0.250083	0.272915	0.178526	0.262455	0.341589	0.311228	0.620894	0.123356	0.211719	0.430089	0.105599	0.268224	0.359463	0.383622	0.760902	0.138700	0.208183	0.446358	0.450170	0.334106	0.442553	0.657762	0.451616	0.065129	0.146550	0.254171	0.164543	0.182825	0.207658	0.202913	0.227605	0.148045	0.258287	0.191273	0.171520	0.199788	0.468848	0.788024	0.614211	0.066948	0.198622	0.426071	0.273600	0.259222	0.400339	0.807690	0.585606	0.609430	0.496526	0.143724	0.260687	0.327084	0.436905	0.681707	0.406561	0.351165	0.245311	0.257996	0.180660	0.316449	0.381959	0.254556	0.434163	0.066372	0.178063	0.157483	0.106269	0.221351	0.336964	0.742471	0.344807	0.060860	0.361879	0.281630	0.109396
92	0.293629	0.416647	0.802152	0.301991	0.078797	0.212356	0.253291	0.179053	0.247553	0.303166	0.390760	0.683458	0.117891	0.198865	0.414473	0.100499	0.200850	0.257702	0.264616	0.503885	0.156406	0.227574	0.464721	0.451934	0.317729	0.388078	0.658749	0.507454	0.063758	0.146076	0.254116	0.163886	0.184804	0.184222	0.200943	0.267982	0.101386	0.241803	0.180395	0.202021	0.256825	0.550511	0.850521	0.616062	0.066663	0.193148	0.382489	0.238325	0.259337	0.398882	0.800165	0.646138	0.641822	0.521544	0.127427	0.245523	0.330830	0.434922	0.693755	0.364092	0.343451	0.246808	0.228100	0.168207	0.347445	0.420794	0.212016	0.313874	0.049297	0.174770	0.181616	0.109433	0.207158	0.296384	0.736249	0.352248	0.060703	0.330384	0.326286	0.137964
93	0.297867	0.434605	0.810139	0.326506	0.076650	0.188823	0.243993	0.177200	0.284900	0.351426	0.427916	0.765113	0.104169	0.163899	0.420597	0.110878	0.159435	0.185012	0.441887	0.603015	0.193898	0.253600	0.459243	0.452313	0.335132	0.406989	0.625296	0.483838	0.060757	0.146119	0.245367	0.151714	0.240405	0.266360	0.197019	0.280931	0.078400	0.242935	0.264777	0.251084	0.275975	0.588031	0.852188	0.650905	0.062563	0.143784	0.309838	0.212564	0.259473	0.399002	0.743944	0.703094	0.649465	0.528113	0.127861	0.224021	0.324497	0.425514	0.735835	0.358873	0.311631	0.233565	0.219723	0.156732	0.379795	0.430777	0.175458	0.232443	0.057713	0.159458	0.187849	0.110412	0.227711	0.298481	0.692613	0.343642	0.064234	0.324014	0.345946	0.170910
94	0.326870	0.482610	0.837973	0.315122	0.072601	0.141837	0.247171	0.171689	0.332946	0.417114	0.437735	0.780826	0.122887	0.173195	0.410934	0.203149	0.198300	0.189173	0.489391	0.603518	0.220130	0.269343	0.438607	0.432271	0.420025	0.525462	0.634799	0.488500	0.060224	0.147562	0.188523	0.111416	0.282053	0.323655	0.170975	0.269379	0.094336	0.244254	0.318986	0.276157	0.269648	0.525638	0.825612	0.731223	0.049734	0.073678	0.248769	0.196765	0.264303	0.397698	0.670157	0.721677	0.644841	0.517999	0.127934	0.204053	0.296484	0.392566	0.759261	0.337733	0.266862	0.196411	0.213376	0.154614	0.429200	0.453203	0.172588	0.212281	0.118158	0.177798	0.171545	0.100385	0.290859	0.345080	0.649521	0.311415	0.069156	0.332034	0.360218	0.184557
95	0.347801	0.505613	0.839197	0.420006	0.073104	0.125813	0.244782	0.173765	0.359092	0.447638	0.431024	0.727444	0.161408	0.217290	0.396227	0.229344	0.228343	0.197414	0.518404	0.533750	0.228336	0.270832	0.443027	0.414003	0.419131	0.516836	0.677877	0.546529	0.054378	0.129909	0.133739	0.087893	0.300540	0.366801	0.153594	0.252585	0.116968	0.249657	0.345117	0.273221	0.264943	0.471983	0.800219	0.719545	0.053272	0.086744	0.238647	0.189736	0.263721	0.377061	0.601380	0.692102	0.626858	0.498062	0.150442	0.180508	0.283833	0.384102	0.836863	0.372087	0.260953	0.191974	0.211835	0.154901	0.463524	0.498669	0.185160	0.254711	0.268383	0.249533	0.173823	0.089943	0.322756	0.346694	0.634280	0.265304	0.070999	0.340260	0.356354	0.190265
96	0.345118	0.506483	0.836700	0.542835	0.074465	0.117764	0.229198	0.175210	0.391943	0.479153	0.422420	0.658143	0.202127	0.243041	0.392600	0.225783	0.231497	0.199027	0.522252	0.505750	0.230182	0.268803	0.445950	0.410664	0.434912	0.545654	0.622761	0.580800	0.042232	0.115750	0.093132	0.082272	0.306056	0.376585	0.152958	0.239911	0.136803	0.251461	0.347131	0.267927	0.264245	0.470632	0.906083	0.663805	0.050847	0.096764	0.219968	0.181043	0.241193	0.326503	0.601949	0.691043	0.588328	0.460846	0.146382	0.155569	0.225948	0.315552	0.749594	0.303518	0.231910	0.144059	0.205317	0.147887	0.464834	0.504617	0.208739	0.310634	0.368930	0.296901	0.191847	0.068332	0.315878	0.312651	0.652653	0.260375	0.067634	0.327355	0.340590	0.195456
97	0.355983	0.528754	0.784088	0.565759	0.075127	0.121516	0.190872	0.161802	0.385975	0.448739	0.412032	0.655883	0.287948	0.279456	0.391788	0.232638	0.289890	0.199458	0.547774	0.510596	0.230109	0.268289	0.447099	0.410977	0.423149	0.527260	0.600381	0.681249	0.034252	0.136413	0.082443	0.089338	0.300506	0.378478	0.157817	0.242957	0.162529	0.242289	0.371221	0.282222	0.251900	0.461876	0.970125	0.726332	0.048783	0.098705	0.193682	0.171567	0.225168	0.289744	0.565839	0.665613	0.525637	0.407773	0.141171	0.150543	0.199839	0.279381	0.896137	0.329394	0.153289	0.086060	0.158381	0.107110	0.444971	0.488330	0.221963	0.314203	0.410787	0.317003	0.211955	0.051766	0.307048	0.308183	0.622997	0.300166	0.067701	0.319266	0.324073	0.195466
98	0.356750	0.502604	0.686318	0.544578	0.069156	0.121730	0.175493	0.145858	0.363549	0.431739	0.560876	0.697758	0.353553	0.297340	0.363296	0.240000	0.348415	0.205485	0.580573	0.518469	0.229933	0.268949	0.448460	0.412730	0.390394	0.503487	0.566968	0.681578	0.041465	0.150389	0.091034	0.103684	0.290628	0.377120	0.173851	0.243681	0.360947	0.418620	0.419411	0.285332	0.229218	0.441267	0.975539	0.773410	0.045815	0.099208	0.184619	0.171748	0.230568	0.285323	0.481665	0.588301	0.488672	0.375866	0.141831	0.152064	0.212101	0.218885	1.038443	0.408344	0.074796	0.064445	0.101839	0.064103	0.415144	0.461435	0.223892	0.306958	0.415218	0.316991	0.226030	0.046500	0.347159	0.351216	0.597264	0.335926	0.062683	0.282941	0.305928	0.193551
99	0.296406	0.412562	0.483552	0.540976	0.066222	0.117978	0.172935	0.123733	0.355088	0.444995	0.594085	0.716060	0.368524	0.294708	0.277201	0.242826	0.356870	0.201341	0.632060	0.554767	0.234023	0.270639	0.414753	0.386522	0.454198	0.586783	0.492670	0.669109	0.073645	0.250023	0.092414	0.105672	0.286318	0.370354	0.221375	0.238842	0.584690	0.626557	0.420246	0.286471	0.223687	0.432484	0.878820	0.797339	0.053781	0.104186	0.199381	0.174432	0.245310	0.286583	0.380381	0.518702	0.489662	0.374836	0.144784	0.152925	0.277273	0.156711	1.038363	0.433235	0.075744	0.074134	0.082195	0.050828	0.391830	0.435849	0.314875	0.338736	0.441634	0.323496	0.224858	0.046076	0.377829	0.406300	0.561288	0.373597	0.056088	0.229821	0.300409	0.186894
100	0.252611	0.370761	0.369817	0.549358	0.078295	0.148039	0.165201	0.104062	0.366392	0.471068	0.615556	0.696053	0.377571	0.294747	0.189286	0.241374	0.357069	0.200884	0.707244	0.606157	0.244604	0.265404	0.329366	0.316185	0.483228	0.618180	0.482089	0.811193	0.080579	0.266080	0.092926	0.095344	0.282114	0.370588	0.293479	0.200388	0.676140	0.703929	0.422233	0.286493	0.164644	0.352388	0.848744	0.798785	0.059173	0.105218	0.208753	0.153200	0.300837	0.292486	0.374343	0.514815	0.476865	0.373139	0.155086	0.152931	0.287766	0.166982	1.040944	0.493477	0.080980	0.088764	0.089461	0.050254	0.387713	0.425262	0.353237	0.390585	0.536219	0.379142	0.219745	0.045764	0.377948	0.413371	0.492384	0.367166	0.052601	0.211511	0.300626	0.179009
101	0.249153	0.368794	0.426763	0.599675	0.085168	0.174456	0.155540	0.094861	0.365735	0.464417	0.602962	0.591063	0.429270	0.316024	0.182523	0.239652	0.357106	0.201120	0.705349	0.569800	0.254778	0.233333	0.288037	0.233842	0.462285	0.641954	0.492629	0.835385	0.085254	0.283730	0.086431	0.089420	0.240930	0.324838	0.299757	0.149967	0.683609	0.708722	0.426288	0.286318	0.097582	0.242849	0.853325	0.802191	0.059167	0.125706	0.188193	0.167018	0.311037	0.261665	0.429954	0.512857	0.429171	0.350811	0.163722	0.154807	0.289168	0.207610	0.968552	0.576686	0.080105	0.089158	0.083597	0.076815	0.360770	0.405206	0.378497	0.406569	0.585072	0.436335	0.216808	0.045659	0.376917	0.410308	0.495540	0.364403	0.051103	0.205137	0.301821	0.178976
