	228_C_T1_sh_ND_01.c3d	228_C_T1_sh_ND_01.c3d	228_C_T1_sh_ND_01.c3d	228_C_T1_sh_ND_01.c3d	228_C_T1_sh_ND_01.c3d	228_C_T1_sh_ND_01.c3d	228_C_T1_sh_ND_01.c3d	228_C_T1_sh_ND_01.c3d	228_C_T1_sh_ND_02.c3d	228_C_T1_sh_ND_02.c3d	228_C_T1_sh_ND_02.c3d	228_C_T1_sh_ND_02.c3d	228_C_T1_sh_ND_02.c3d	228_C_T1_sh_ND_02.c3d	228_C_T1_sh_ND_02.c3d	228_C_T1_sh_ND_02.c3d	228_C_T1_sh_ND_03.c3d	228_C_T1_sh_ND_03.c3d	228_C_T1_sh_ND_03.c3d	228_C_T1_sh_ND_03.c3d	228_C_T1_sh_ND_03.c3d	228_C_T1_sh_ND_03.c3d	228_C_T1_sh_ND_03.c3d	228_C_T1_sh_ND_03.c3d	228_C_T1_sh_ND_04.c3d	228_C_T1_sh_ND_04.c3d	228_C_T1_sh_ND_04.c3d	228_C_T1_sh_ND_04.c3d	228_C_T1_sh_ND_04.c3d	228_C_T1_sh_ND_04.c3d	228_C_T1_sh_ND_04.c3d	228_C_T1_sh_ND_04.c3d	228_C_T1_sh_ND_05.c3d	228_C_T1_sh_ND_05.c3d	228_C_T1_sh_ND_05.c3d	228_C_T1_sh_ND_05.c3d	228_C_T1_sh_ND_05.c3d	228_C_T1_sh_ND_05.c3d	228_C_T1_sh_ND_05.c3d	228_C_T1_sh_ND_05.c3d	228_C_T1_sh_ND_06.c3d	228_C_T1_sh_ND_06.c3d	228_C_T1_sh_ND_06.c3d	228_C_T1_sh_ND_06.c3d	228_C_T1_sh_ND_06.c3d	228_C_T1_sh_ND_06.c3d	228_C_T1_sh_ND_06.c3d	228_C_T1_sh_ND_06.c3d	228_C_T1_sh_ND_07.c3d	228_C_T1_sh_ND_07.c3d	228_C_T1_sh_ND_07.c3d	228_C_T1_sh_ND_07.c3d	228_C_T1_sh_ND_07.c3d	228_C_T1_sh_ND_07.c3d	228_C_T1_sh_ND_07.c3d	228_C_T1_sh_ND_07.c3d	228_C_T1_sh_ND_08.c3d	228_C_T1_sh_ND_08.c3d	228_C_T1_sh_ND_08.c3d	228_C_T1_sh_ND_08.c3d	228_C_T1_sh_ND_08.c3d	228_C_T1_sh_ND_08.c3d	228_C_T1_sh_ND_08.c3d	228_C_T1_sh_ND_08.c3d	228_C_T1_sh_ND_09.c3d	228_C_T1_sh_ND_09.c3d	228_C_T1_sh_ND_09.c3d	228_C_T1_sh_ND_09.c3d	228_C_T1_sh_ND_09.c3d	228_C_T1_sh_ND_09.c3d	228_C_T1_sh_ND_09.c3d	228_C_T1_sh_ND_09.c3d	228_C_T1_sh_ND_10.c3d	228_C_T1_sh_ND_10.c3d	228_C_T1_sh_ND_10.c3d	228_C_T1_sh_ND_10.c3d	228_C_T1_sh_ND_10.c3d	228_C_T1_sh_ND_10.c3d	228_C_T1_sh_ND_10.c3d	228_C_T1_sh_ND_10.c3d
	Biceps femoris_lat	Semitendinosus_lat	Vastus lateralis_lat	Vastus medialis_lat	Biceps femoris_med	Semitendinosus_med	Vastus lateralis_med	Vastus medialis_med	Biceps femoris_lat	Semitendinosus_lat	Vastus lateralis_lat	Vastus medialis_lat	Biceps femoris_med	Semitendinosus_med	Vastus lateralis_med	Vastus medialis_med	Biceps femoris_lat	Semitendinosus_lat	Vastus lateralis_lat	Vastus medialis_lat	Biceps femoris_med	Semitendinosus_med	Vastus lateralis_med	Vastus medialis_med	Biceps femoris_lat	Semitendinosus_lat	Vastus lateralis_lat	Vastus medialis_lat	Biceps femoris_med	Semitendinosus_med	Vastus lateralis_med	Vastus medialis_med	Biceps femoris_lat	Semitendinosus_lat	Vastus lateralis_lat	Vastus medialis_lat	Biceps femoris_med	Semitendinosus_med	Vastus lateralis_med	Vastus medialis_med	Biceps femoris_lat	Semitendinosus_lat	Vastus lateralis_lat	Vastus medialis_lat	Biceps femoris_med	Semitendinosus_med	Vastus lateralis_med	Vastus medialis_med	Biceps femoris_lat	Semitendinosus_lat	Vastus lateralis_lat	Vastus medialis_lat	Biceps femoris_med	Semitendinosus_med	Vastus lateralis_med	Vastus medialis_med	Biceps femoris_lat	Semitendinosus_lat	Vastus lateralis_lat	Vastus medialis_lat	Biceps femoris_med	Semitendinosus_med	Vastus lateralis_med	Vastus medialis_med	Biceps femoris_lat	Semitendinosus_lat	Vastus lateralis_lat	Vastus medialis_lat	Biceps femoris_med	Semitendinosus_med	Vastus lateralis_med	Vastus medialis_med	Biceps femoris_lat	Semitendinosus_lat	Vastus lateralis_lat	Vastus medialis_lat	Biceps femoris_med	Semitendinosus_med	Vastus lateralis_med	Vastus medialis_med
	P2D	P2D	P2D	P2D	P2D	P2D	P2D	P2D	P2D	P2D	P2D	P2D	P2D	P2D	P2D	P2D	P2D	P2D	P2D	P2D	P2D	P2D	P2D	P2D	P2D	P2D	P2D	P2D	P2D	P2D	P2D	P2D	P2D	P2D	P2D	P2D	P2D	P2D	P2D	P2D	P2D	P2D	P2D	P2D	P2D	P2D	P2D	P2D	P2D	P2D	P2D	P2D	P2D	P2D	P2D	P2D	P2D	P2D	P2D	P2D	P2D	P2D	P2D	P2D	P2D	P2D	P2D	P2D	P2D	P2D	P2D	P2D	P2D	P2D	P2D	P2D	P2D	P2D	P2D	P2D
	EMG_lat	EMG_lat	EMG_lat	EMG_lat	EMG_med	EMG_med	EMG_med	EMG_med	EMG_lat	EMG_lat	EMG_lat	EMG_lat	EMG_med	EMG_med	EMG_med	EMG_med	EMG_lat	EMG_lat	EMG_lat	EMG_lat	EMG_med	EMG_med	EMG_med	EMG_med	EMG_lat	EMG_lat	EMG_lat	EMG_lat	EMG_med	EMG_med	EMG_med	EMG_med	EMG_lat	EMG_lat	EMG_lat	EMG_lat	EMG_med	EMG_med	EMG_med	EMG_med	EMG_lat	EMG_lat	EMG_lat	EMG_lat	EMG_med	EMG_med	EMG_med	EMG_med	EMG_lat	EMG_lat	EMG_lat	EMG_lat	EMG_med	EMG_med	EMG_med	EMG_med	EMG_lat	EMG_lat	EMG_lat	EMG_lat	EMG_med	EMG_med	EMG_med	EMG_med	EMG_lat	EMG_lat	EMG_lat	EMG_lat	EMG_med	EMG_med	EMG_med	EMG_med	EMG_lat	EMG_lat	EMG_lat	EMG_lat	EMG_med	EMG_med	EMG_med	EMG_med
ITEM	Y	Y	Y	Y	Y	Y	Y	Y	Y	Y	Y	Y	Y	Y	Y	Y	Y	Y	Y	Y	Y	Y	Y	Y	Y	Y	Y	Y	Y	Y	Y	Y	Y	Y	Y	Y	Y	Y	Y	Y	Y	Y	Y	Y	Y	Y	Y	Y	Y	Y	Y	Y	Y	Y	Y	Y	Y	Y	Y	Y	Y	Y	Y	Y	Y	Y	Y	Y	Y	Y	Y	Y	Y	Y	Y	Y	Y	Y	Y	Y
1	0.196718	0.699743	0.176988	0.137013	0.365404	0.181916	0.294969	0.081298	0.291169	1.300688	0.079068	0.038331	0.181997	0.316388	0.086521	0.073201	0.099630	0.350339	0.183890	0.182843	0.085281	0.195432	0.136892	0.065252	0.236126	0.531957	0.131733	0.155045	0.114722	0.167244	0.164500	0.065246	0.056407	0.296523	0.260472	0.100678	0.062881	0.058378	0.274345	0.101671	0.197917	0.667836	0.109187	0.075955	0.120858	0.182277	0.142793	0.075076	0.126856	0.554860	0.090119	0.066732	0.143715	0.098501	0.113312	0.090903	0.190907	1.201480	0.136940	0.088356	0.060554	0.303570	0.179269	0.150307	0.375916	0.949463	0.088311	0.116144	0.154914	0.410721	0.172711	0.109999	0.089209	0.419077	0.153155	0.159458	0.103824	0.196595	0.140323	0.125650
2	0.198991	0.705022	0.189296	0.137044	0.344778	0.230076	0.294369	0.075441	0.332599	1.258148	0.081652	0.033717	0.170669	0.320928	0.072610	0.074941	0.105515	0.413854	0.174049	0.181247	0.080642	0.189483	0.138344	0.066548	0.216596	0.469413	0.155808	0.154487	0.128882	0.162318	0.162874	0.066129	0.055200	0.292233	0.282529	0.135412	0.057388	0.059536	0.237761	0.095732	0.182726	0.537718	0.144993	0.076693	0.126021	0.157512	0.141854	0.073993	0.127390	0.527824	0.096867	0.067895	0.093933	0.101308	0.114663	0.104997	0.183675	1.206216	0.151827	0.098694	0.060298	0.302343	0.212288	0.147566	0.359334	0.950982	0.098907	0.115312	0.152906	0.416119	0.164731	0.118626	0.084142	0.400019	0.147941	0.157509	0.094082	0.197038	0.167744	0.137366
3	0.197767	0.703548	0.219550	0.138057	0.330127	0.238578	0.289683	0.075374	0.368065	1.324151	0.088485	0.030890	0.178453	0.326138	0.073433	0.088259	0.107852	0.417642	0.180437	0.177598	0.079548	0.186995	0.162720	0.062534	0.217989	0.425498	0.181153	0.167569	0.129047	0.157696	0.168859	0.071686	0.070596	0.288996	0.296003	0.156797	0.059129	0.064428	0.196919	0.087040	0.184936	0.496883	0.154884	0.074690	0.134983	0.149200	0.140816	0.076902	0.127677	0.433821	0.101841	0.070846	0.069846	0.104230	0.116885	0.118468	0.181934	1.201714	0.211121	0.106116	0.059067	0.288419	0.313156	0.172532	0.338251	0.857631	0.100710	0.106507	0.151636	0.420518	0.192358	0.137603	0.116542	0.445589	0.164075	0.159033	0.074453	0.199372	0.212917	0.145764
4	0.196139	0.703288	0.226695	0.172472	0.327473	0.246747	0.245886	0.075895	0.339372	1.573621	0.091108	0.031512	0.183548	0.337790	0.101630	0.096675	0.125046	0.430245	0.196303	0.170075	0.079492	0.187750	0.221109	0.061476	0.263643	0.290865	0.179975	0.148470	0.127821	0.172076	0.192175	0.069115	0.066054	0.193931	0.253934	0.164817	0.060406	0.066846	0.211684	0.090525	0.182680	0.507569	0.165181	0.078971	0.142939	0.140306	0.162084	0.079827	0.110050	0.413787	0.108658	0.074470	0.070911	0.103921	0.115022	0.127974	0.163469	0.991550	0.221622	0.112653	0.057013	0.304302	0.326262	0.174829	0.331968	0.651945	0.112604	0.108125	0.150228	0.415682	0.224073	0.149139	0.128909	0.475733	0.180278	0.197252	0.068442	0.188546	0.224795	0.146299
5	0.199825	0.705077	0.231588	0.188828	0.317734	0.247929	0.218618	0.069307	0.313954	1.621590	0.108389	0.046742	0.188131	0.462024	0.123519	0.103005	0.139470	0.432320	0.205884	0.166137	0.075713	0.197625	0.250333	0.055503	0.258417	0.222808	0.236610	0.194598	0.118903	0.184013	0.190670	0.078019	0.069367	0.143185	0.248756	0.176472	0.060523	0.066395	0.214228	0.087455	0.177082	0.475317	0.170092	0.078638	0.163947	0.151133	0.184688	0.075122	0.079522	0.419795	0.105262	0.087748	0.059024	0.094676	0.113646	0.138593	0.160376	0.864342	0.208066	0.122143	0.057017	0.316597	0.383265	0.185833	0.330692	0.471668	0.194426	0.116421	0.150303	0.405917	0.228789	0.141084	0.128817	0.489982	0.185245	0.203621	0.065332	0.205543	0.219563	0.144105
6	0.189836	0.652087	0.242385	0.188003	0.317590	0.249100	0.217095	0.105867	0.324194	1.616866	0.106480	0.075686	0.177586	0.476578	0.119724	0.115837	0.137442	0.434200	0.207716	0.171471	0.086054	0.273212	0.253246	0.075227	0.251763	0.220383	0.396952	0.189170	0.110463	0.200763	0.185602	0.108903	0.096603	0.142617	0.213460	0.228848	0.060311	0.066282	0.216740	0.087703	0.160015	0.434666	0.171358	0.096939	0.164945	0.152274	0.173174	0.074292	0.079525	0.422707	0.131183	0.091951	0.061213	0.090238	0.131618	0.151875	0.110387	0.500130	0.248819	0.130942	0.073017	0.343779	0.394760	0.205151	0.294924	0.454640	0.243167	0.124164	0.145033	0.353405	0.230403	0.131102	0.144396	0.534666	0.173924	0.191825	0.060518	0.231924	0.240450	0.144628
7	0.167856	0.573670	0.294389	0.185908	0.301332	0.256783	0.224034	0.126720	0.341733	1.493854	0.106076	0.082123	0.181708	0.538764	0.131947	0.154794	0.136335	0.472767	0.207087	0.183496	0.101931	0.315442	0.253301	0.080801	0.225658	0.194514	0.398745	0.190790	0.094076	0.190938	0.181284	0.108689	0.103169	0.145869	0.216745	0.223528	0.059095	0.068286	0.213974	0.090873	0.132996	0.329438	0.172574	0.097254	0.166016	0.147685	0.169738	0.083706	0.082446	0.435078	0.137633	0.093630	0.061392	0.093421	0.138942	0.154214	0.090426	0.263573	0.263165	0.154629	0.089618	0.372884	0.432750	0.213018	0.188934	0.315924	0.266125	0.132069	0.097345	0.238343	0.232333	0.134334	0.157287	0.560764	0.160828	0.181506	0.055027	0.228262	0.287056	0.142224
8	0.148225	0.514528	0.331496	0.200313	0.244331	0.260501	0.177367	0.127877	0.337271	1.302572	0.098528	0.094786	0.226664	0.551290	0.157762	0.180257	0.159304	0.585327	0.205344	0.183086	0.105876	0.328813	0.296246	0.092927	0.197505	0.149460	0.401120	0.240474	0.102150	0.201350	0.173984	0.123002	0.105020	0.149829	0.198933	0.245269	0.056328	0.067464	0.213566	0.129251	0.123050	0.268270	0.191780	0.142219	0.171799	0.143410	0.172598	0.086868	0.083499	0.452168	0.150175	0.095719	0.054614	0.109461	0.126683	0.156018	0.067014	0.220501	0.262867	0.154946	0.128765	0.404152	0.456857	0.228314	0.118113	0.239488	0.349605	0.136519	0.046582	0.201463	0.236204	0.142293	0.162247	0.558544	0.161163	0.193844	0.056652	0.210827	0.375918	0.152295
9	0.143666	0.505965	0.326410	0.265116	0.172335	0.314016	0.158104	0.132138	0.338931	1.226766	0.193273	0.128593	0.229597	0.516062	0.205174	0.199413	0.174417	0.678126	0.201489	0.148447	0.097143	0.322454	0.312952	0.109568	0.195324	0.139875	0.389086	0.258593	0.104976	0.202720	0.164678	0.145815	0.115156	0.169790	0.202743	0.253288	0.054046	0.068291	0.214169	0.156246	0.120719	0.253156	0.236065	0.158859	0.174716	0.150605	0.183108	0.113324	0.078211	0.370409	0.150420	0.093718	0.049342	0.100007	0.120920	0.159069	0.063694	0.153328	0.263209	0.157219	0.156200	0.409514	0.480833	0.245248	0.124886	0.237309	0.450386	0.138818	0.043481	0.142546	0.317594	0.139270	0.163873	0.560831	0.173864	0.187644	0.062547	0.185663	0.389363	0.145208
10	0.141950	0.463550	0.407274	0.282468	0.124472	0.350872	0.159067	0.135914	0.307504	1.234271	0.220917	0.192462	0.222213	0.509728	0.212345	0.213322	0.177336	0.681612	0.185320	0.124374	0.096704	0.310138	0.318362	0.113281	0.107261	0.119788	0.389952	0.276406	0.102445	0.250303	0.172300	0.151363	0.136768	0.184457	0.225015	0.253462	0.052493	0.079676	0.177217	0.156599	0.088292	0.247724	0.215715	0.195781	0.174182	0.152083	0.210295	0.126277	0.076205	0.305533	0.183917	0.094176	0.050559	0.110553	0.156388	0.165882	0.059446	0.150302	0.258790	0.182936	0.168563	0.412620	0.514634	0.233776	0.124192	0.241819	0.505267	0.138662	0.050448	0.129156	0.370973	0.137986	0.162751	0.559062	0.209876	0.166066	0.081286	0.193607	0.392933	0.138065
11	0.138893	0.411394	0.479886	0.280046	0.121217	0.348057	0.161001	0.148315	0.259785	1.113016	0.254439	0.205193	0.199160	0.507413	0.224047	0.241035	0.192457	0.682002	0.167218	0.131412	0.102472	0.288661	0.329499	0.133161	0.086968	0.118769	0.393710	0.256297	0.100837	0.246419	0.174648	0.170106	0.128205	0.173220	0.222303	0.223217	0.048133	0.096440	0.173385	0.160024	0.061775	0.252055	0.204535	0.196952	0.162813	0.155512	0.211739	0.127124	0.079546	0.316454	0.220829	0.098355	0.052220	0.162268	0.163767	0.165853	0.057721	0.148879	0.279114	0.202056	0.223752	0.448800	0.523573	0.226009	0.122970	0.226867	0.512205	0.136012	0.065026	0.124908	0.372298	0.139644	0.157188	0.521049	0.241387	0.165691	0.095919	0.204867	0.397006	0.146286
12	0.136135	0.364551	0.495804	0.280701	0.115812	0.322411	0.163057	0.167066	0.266329	0.692456	0.357740	0.246308	0.195382	0.507760	0.227212	0.267062	0.199791	0.664235	0.168953	0.139471	0.107284	0.294679	0.331330	0.150659	0.083648	0.143441	0.204375	0.242594	0.085209	0.241467	0.184460	0.170696	0.110692	0.161537	0.206195	0.201346	0.039783	0.094330	0.233601	0.177826	0.052886	0.255473	0.197227	0.196277	0.155636	0.190829	0.216345	0.129295	0.068236	0.292543	0.217384	0.102540	0.056313	0.240180	0.162451	0.147586	0.055364	0.156455	0.289034	0.198758	0.248857	0.474090	0.493423	0.224891	0.112411	0.177221	0.510907	0.153553	0.085486	0.107377	0.371646	0.134374	0.136049	0.444784	0.259661	0.166930	0.095656	0.198034	0.394493	0.153632
13	0.132851	0.312893	0.505510	0.276637	0.112673	0.394121	0.179476	0.177271	0.261303	0.471630	0.389342	0.259599	0.203426	0.504364	0.215405	0.294301	0.197386	0.612186	0.166751	0.139704	0.114135	0.307768	0.331059	0.154699	0.106923	0.265939	0.142322	0.240672	0.083577	0.241339	0.217942	0.168416	0.105736	0.154415	0.243108	0.178701	0.037513	0.093052	0.237893	0.187944	0.053056	0.226496	0.187566	0.197765	0.148486	0.202772	0.215726	0.144381	0.058218	0.278731	0.220635	0.108977	0.066617	0.243362	0.175180	0.139316	0.046348	0.159166	0.305432	0.188747	0.258978	0.480269	0.453603	0.270578	0.109113	0.172693	0.512482	0.167076	0.089346	0.078744	0.356238	0.123412	0.117898	0.400756	0.258919	0.121732	0.118772	0.221296	0.373116	0.144898
14	0.128161	0.253127	0.512999	0.273510	0.100945	0.396248	0.250645	0.180654	0.232697	0.419089	0.401274	0.263767	0.205505	0.405488	0.230214	0.306211	0.196599	0.613402	0.164930	0.150426	0.114549	0.307362	0.306168	0.164836	0.106598	0.266051	0.124931	0.192537	0.081062	0.235644	0.214871	0.176094	0.102786	0.136206	0.218913	0.155683	0.039615	0.091924	0.240760	0.186726	0.053048	0.179733	0.182729	0.197827	0.143680	0.228935	0.209790	0.162793	0.050531	0.270607	0.210066	0.107543	0.086778	0.245924	0.211617	0.126107	0.050296	0.207683	0.286950	0.161964	0.261340	0.472782	0.436462	0.326813	0.119705	0.160669	0.498371	0.176844	0.099296	0.108893	0.336917	0.114502	0.111519	0.359854	0.254329	0.105084	0.129415	0.248888	0.361647	0.153079
15	0.122694	0.214211	0.514072	0.281636	0.086260	0.393221	0.330391	0.182127	0.203244	0.416827	0.407484	0.274457	0.243790	0.411464	0.309685	0.298795	0.190017	0.611142	0.151456	0.178220	0.114866	0.308183	0.287404	0.175135	0.087522	0.280563	0.102331	0.189055	0.081926	0.231016	0.214857	0.209953	0.074393	0.094704	0.199662	0.152893	0.043644	0.120283	0.226207	0.190469	0.052484	0.169328	0.182287	0.187962	0.123638	0.291890	0.183990	0.210473	0.045333	0.245380	0.209538	0.106726	0.097033	0.247079	0.245759	0.126564	0.045548	0.219152	0.274114	0.153022	0.256900	0.440344	0.397159	0.318262	0.119139	0.154711	0.471320	0.179632	0.101327	0.105669	0.329028	0.143153	0.088575	0.260799	0.255151	0.105411	0.129500	0.236585	0.360455	0.170704
16	0.121475	0.207362	0.513924	0.288186	0.087177	0.397506	0.359880	0.169599	0.187902	0.403854	0.417467	0.271637	0.232886	0.305756	0.345462	0.277812	0.173034	0.606047	0.136231	0.190157	0.108353	0.258575	0.281879	0.182161	0.086143	0.284712	0.098710	0.174201	0.079798	0.207835	0.217900	0.228183	0.069002	0.103206	0.195264	0.231682	0.066148	0.153117	0.225857	0.225656	0.042664	0.168301	0.186748	0.183553	0.110140	0.315434	0.187282	0.268613	0.044817	0.200418	0.199553	0.105660	0.096399	0.258779	0.255578	0.116971	0.055519	0.255670	0.266913	0.151860	0.253628	0.404572	0.384409	0.306815	0.113333	0.156221	0.454667	0.166301	0.102892	0.110891	0.317888	0.190662	0.062758	0.190834	0.253017	0.104770	0.127423	0.228877	0.351244	0.182549
17	0.124735	0.213257	0.534539	0.289313	0.109559	0.401382	0.356490	0.145647	0.155364	0.367874	0.404178	0.261821	0.191437	0.246832	0.336821	0.267509	0.167389	0.606654	0.132004	0.190460	0.095154	0.214745	0.288483	0.185766	0.091024	0.288705	0.091604	0.172117	0.078889	0.201915	0.222625	0.232838	0.078943	0.121671	0.192345	0.231447	0.077705	0.159235	0.231371	0.283418	0.040334	0.167544	0.157812	0.149008	0.110872	0.326021	0.190078	0.317932	0.049431	0.164317	0.201091	0.110620	0.094055	0.269780	0.258933	0.109874	0.054498	0.260403	0.284876	0.126671	0.245382	0.350457	0.325377	0.303334	0.105024	0.179117	0.443099	0.159016	0.110140	0.121039	0.311430	0.210749	0.057083	0.284991	0.245744	0.079820	0.130252	0.263811	0.331840	0.182873
18	0.122013	0.204887	0.536776	0.269584	0.113422	0.399344	0.354420	0.161137	0.141415	0.292512	0.388010	0.218506	0.186511	0.256046	0.322043	0.258914	0.167012	0.600380	0.169648	0.184644	0.110191	0.209050	0.244936	0.179623	0.097944	0.321959	0.104261	0.172218	0.070031	0.192411	0.217955	0.255422	0.079501	0.119766	0.174303	0.234674	0.078925	0.162775	0.233609	0.325494	0.036808	0.184024	0.087806	0.122746	0.102113	0.360097	0.213525	0.331086	0.049908	0.163754	0.202113	0.131657	0.093606	0.269342	0.297164	0.215902	0.049917	0.253097	0.246203	0.066601	0.228532	0.345118	0.311740	0.290582	0.085861	0.252340	0.323425	0.159093	0.115884	0.132255	0.308954	0.203513	0.065451	0.347091	0.244482	0.064548	0.129690	0.265963	0.222295	0.197799
19	0.112945	0.173732	0.535485	0.261805	0.123479	0.378033	0.350254	0.234219	0.138109	0.245843	0.373063	0.201983	0.188498	0.256029	0.349648	0.250406	0.167089	0.549737	0.201083	0.176309	0.146560	0.219730	0.227899	0.175390	0.088619	0.274061	0.196319	0.181769	0.062335	0.198158	0.197308	0.265446	0.081989	0.124400	0.121717	0.306666	0.078636	0.165501	0.234139	0.327513	0.035978	0.214377	0.084522	0.048564	0.087032	0.361401	0.225272	0.326715	0.050922	0.144974	0.334168	0.180266	0.095001	0.264552	0.325305	0.382773	0.054308	0.245234	0.236943	0.061300	0.227115	0.364735	0.275427	0.296359	0.084286	0.301449	0.183949	0.153697	0.118287	0.134901	0.219515	0.212599	0.070277	0.351919	0.234514	0.074443	0.129699	0.272599	0.156021	0.239875
20	0.099974	0.133435	0.528900	0.270849	0.130541	0.345045	0.349029	0.293791	0.100962	0.233525	0.285357	0.161169	0.188210	0.253885	0.354332	0.219499	0.143584	0.377247	0.212623	0.173189	0.178730	0.223695	0.217495	0.184413	0.074167	0.225631	0.223844	0.261409	0.066642	0.206487	0.182748	0.262787	0.082696	0.121307	0.122387	0.496969	0.078152	0.165107	0.232925	0.316436	0.035269	0.203002	0.095200	0.043478	0.074020	0.361468	0.209225	0.318150	0.062195	0.151255	0.383860	0.184419	0.094843	0.264941	0.327605	0.500334	0.063179	0.277225	0.220111	0.072591	0.202556	0.345601	0.216916	0.379945	0.089266	0.320701	0.093375	0.151434	0.115370	0.135670	0.106523	0.244111	0.076378	0.353965	0.212590	0.073396	0.123522	0.313946	0.142762	0.251570
21	0.102372	0.118796	0.499894	0.293861	0.132739	0.342250	0.352815	0.314442	0.073376	0.208180	0.218867	0.125773	0.177376	0.249985	0.355235	0.182253	0.140059	0.318570	0.208116	0.173454	0.188954	0.222985	0.200580	0.170539	0.072749	0.200989	0.243607	0.294415	0.078565	0.244162	0.181293	0.251220	0.074859	0.122215	0.125689	0.506134	0.078990	0.189873	0.231319	0.326435	0.038822	0.183552	0.109694	0.044056	0.070965	0.363984	0.200203	0.322332	0.064310	0.163577	0.395220	0.177407	0.094100	0.261211	0.310784	0.538245	0.062453	0.282403	0.234622	0.077318	0.152924	0.302606	0.183888	0.448813	0.099151	0.390659	0.091873	0.138789	0.106863	0.137435	0.129221	0.247786	0.074898	0.371729	0.194767	0.067035	0.107235	0.307591	0.123955	0.254346
22	0.105214	0.117615	0.471981	0.326649	0.135170	0.342391	0.351379	0.316655	0.072006	0.150649	0.196541	0.110946	0.165816	0.265422	0.358842	0.128965	0.129082	0.320402	0.208735	0.182946	0.190728	0.219247	0.225094	0.157337	0.072422	0.192722	0.268398	0.264021	0.077524	0.243146	0.170757	0.250654	0.071222	0.109195	0.140679	0.509827	0.079095	0.192141	0.209040	0.341128	0.045301	0.182365	0.137824	0.077463	0.072282	0.359575	0.199723	0.325311	0.069843	0.187336	0.440698	0.209302	0.095080	0.233174	0.333941	0.543462	0.060708	0.252131	0.240816	0.085464	0.130247	0.271793	0.174427	0.445914	0.097359	0.415241	0.095192	0.114979	0.098577	0.140663	0.201107	0.247774	0.078545	0.414341	0.180183	0.092953	0.104006	0.313649	0.115641	0.238805
23	0.103540	0.116589	0.465251	0.329007	0.135958	0.241976	0.349896	0.309287	0.070920	0.110350	0.182054	0.069391	0.148855	0.246017	0.356768	0.154716	0.114392	0.314099	0.200322	0.174539	0.230102	0.220909	0.263397	0.166584	0.071528	0.185799	0.337770	0.258011	0.076828	0.241209	0.119055	0.251447	0.083970	0.135972	0.144852	0.567077	0.077510	0.191795	0.151884	0.355475	0.048135	0.177627	0.203968	0.089366	0.062581	0.339411	0.199245	0.332282	0.072886	0.191636	0.473620	0.233765	0.094649	0.155195	0.364889	0.556872	0.056360	0.233597	0.243974	0.113540	0.121984	0.276645	0.173795	0.416069	0.085988	0.412053	0.087110	0.095917	0.109652	0.193932	0.223348	0.244661	0.088815	0.500110	0.181596	0.118125	0.082614	0.299000	0.133206	0.235280
24	0.103594	0.115016	0.389071	0.350602	0.149807	0.212930	0.320931	0.317656	0.066416	0.136967	0.195825	0.085346	0.078872	0.220225	0.297132	0.203845	0.115209	0.296954	0.197300	0.192930	0.258758	0.227631	0.290876	0.189003	0.063839	0.152767	0.368451	0.291650	0.082244	0.246569	0.081780	0.249900	0.081008	0.128846	0.159354	0.572045	0.077274	0.197769	0.170333	0.374308	0.047058	0.171799	0.250817	0.090664	0.060399	0.336270	0.203824	0.341822	0.099974	0.222196	0.531730	0.293271	0.088489	0.149239	0.366532	0.605774	0.058177	0.196950	0.234293	0.164644	0.120362	0.304172	0.173348	0.414037	0.082197	0.413353	0.155274	0.108230	0.118568	0.244227	0.223487	0.242117	0.091055	0.516501	0.187294	0.134483	0.063470	0.329625	0.193131	0.231435
25	0.099427	0.119130	0.305512	0.360786	0.153570	0.216933	0.240842	0.345335	0.052547	0.163182	0.214419	0.090915	0.058285	0.227036	0.255057	0.221399	0.118240	0.285814	0.197009	0.219454	0.259037	0.240053	0.284603	0.211046	0.061147	0.092096	0.375107	0.332892	0.090470	0.263496	0.087778	0.219753	0.079718	0.124343	0.221828	0.464164	0.076293	0.207844	0.169632	0.389003	0.061720	0.177136	0.264244	0.095688	0.052682	0.302585	0.234809	0.345039	0.110415	0.243460	0.535865	0.322881	0.071222	0.145582	0.346245	0.653345	0.061179	0.197778	0.241590	0.170067	0.128189	0.299843	0.172147	0.424150	0.082603	0.415176	0.248425	0.194971	0.121665	0.258963	0.230974	0.227493	0.095778	0.499884	0.193914	0.135059	0.065277	0.334513	0.196071	0.222142
26	0.091148	0.121544	0.284441	0.359335	0.149454	0.210390	0.190231	0.376309	0.043852	0.171509	0.206283	0.113147	0.092167	0.344811	0.259059	0.224311	0.123259	0.324701	0.200521	0.240017	0.261126	0.230021	0.287919	0.198409	0.090009	0.134046	0.345241	0.340361	0.100551	0.281657	0.114758	0.182325	0.071052	0.114967	0.215846	0.346095	0.074606	0.191572	0.175398	0.398755	0.106364	0.219481	0.282519	0.122247	0.051424	0.250287	0.227292	0.346944	0.109111	0.243046	0.523139	0.314934	0.068831	0.143580	0.327445	0.699444	0.067874	0.201916	0.263338	0.172561	0.145748	0.303144	0.178463	0.424019	0.091371	0.413305	0.251218	0.242344	0.125079	0.276637	0.263423	0.203751	0.093102	0.450403	0.211156	0.135903	0.064886	0.326224	0.198986	0.207130
27	0.084033	0.119480	0.259487	0.358850	0.130747	0.190300	0.207546	0.422128	0.039311	0.172897	0.202451	0.147524	0.107767	0.366856	0.245430	0.223678	0.127807	0.426043	0.228683	0.249495	0.266937	0.216896	0.292857	0.196609	0.098030	0.134019	0.340888	0.270704	0.107642	0.289896	0.112865	0.177487	0.077502	0.118495	0.211262	0.361508	0.063870	0.171623	0.209635	0.379538	0.123560	0.259194	0.285766	0.126940	0.052758	0.249028	0.232980	0.341178	0.112695	0.230876	0.435917	0.290182	0.074419	0.120410	0.318431	0.719873	0.064143	0.182692	0.268387	0.193821	0.155991	0.299910	0.200464	0.422987	0.109425	0.433238	0.250225	0.263287	0.120189	0.275730	0.291803	0.188944	0.084112	0.398174	0.202027	0.155582	0.059311	0.293517	0.205797	0.204827
28	0.078198	0.119131	0.244956	0.358467	0.126009	0.187786	0.206561	0.431185	0.036118	0.173264	0.211807	0.193147	0.104529	0.370733	0.214956	0.234772	0.130561	0.459452	0.249139	0.246434	0.258864	0.200324	0.399104	0.206362	0.098115	0.135741	0.323281	0.272075	0.108292	0.298012	0.112797	0.144614	0.085408	0.092105	0.197735	0.282534	0.053141	0.170660	0.253789	0.339774	0.124107	0.253930	0.330944	0.183245	0.058021	0.196074	0.224684	0.318896	0.107215	0.207884	0.399165	0.287759	0.074182	0.106020	0.309311	0.720849	0.070900	0.106677	0.258802	0.193617	0.148669	0.241137	0.225126	0.417636	0.123287	0.429597	0.253245	0.282866	0.114113	0.270294	0.295582	0.185385	0.081863	0.396048	0.175751	0.172465	0.057387	0.287031	0.203358	0.191014
29	0.077143	0.113845	0.240004	0.353037	0.112730	0.174745	0.193155	0.414725	0.057385	0.187275	0.212903	0.194648	0.104545	0.374178	0.226531	0.242561	0.160409	0.505954	0.241688	0.250708	0.253161	0.198664	0.456897	0.202780	0.097572	0.133387	0.263291	0.275850	0.109501	0.293101	0.123116	0.103180	0.083427	0.078691	0.190796	0.198270	0.053727	0.167300	0.271693	0.310149	0.124468	0.257349	0.326049	0.190081	0.059653	0.166437	0.218897	0.315905	0.104524	0.198240	0.401170	0.284749	0.085283	0.107312	0.276602	0.695540	0.070861	0.091326	0.237483	0.249820	0.140794	0.222967	0.186661	0.392893	0.136533	0.434065	0.301331	0.291888	0.111717	0.268474	0.299023	0.178087	0.102676	0.422203	0.165308	0.175712	0.058703	0.285037	0.202913	0.126176
30	0.072356	0.093729	0.211275	0.354573	0.098142	0.162395	0.179204	0.369035	0.057919	0.187968	0.225878	0.195433	0.104217	0.367865	0.350414	0.290401	0.185626	0.628585	0.226560	0.251540	0.246656	0.200829	0.458616	0.193233	0.091554	0.128555	0.181155	0.268127	0.113164	0.248693	0.132040	0.101313	0.083919	0.085742	0.135455	0.197990	0.056930	0.177104	0.272178	0.303498	0.128128	0.267664	0.321520	0.194153	0.057148	0.166631	0.224026	0.319465	0.100992	0.189586	0.383026	0.270229	0.095327	0.107100	0.262212	0.625214	0.077723	0.108697	0.269348	0.307793	0.136447	0.233597	0.191825	0.293920	0.137213	0.371958	0.335814	0.294505	0.115429	0.268753	0.297968	0.136205	0.116763	0.434087	0.151543	0.315710	0.066128	0.245089	0.206585	0.091261
31	0.066560	0.082110	0.129189	0.361412	0.104529	0.175712	0.180913	0.343560	0.057990	0.178791	0.243644	0.218698	0.108301	0.354100	0.371615	0.310373	0.178035	0.649809	0.295134	0.286530	0.235866	0.200947	0.484058	0.193093	0.089967	0.127269	0.162510	0.236513	0.108352	0.200667	0.132676	0.105650	0.086433	0.093797	0.129638	0.234948	0.063201	0.190510	0.289758	0.307330	0.125708	0.266569	0.311653	0.218746	0.056032	0.159281	0.290042	0.317174	0.098949	0.188097	0.364572	0.249866	0.095466	0.109616	0.267233	0.558571	0.091747	0.125576	0.267031	0.280960	0.127999	0.231292	0.188463	0.234647	0.134995	0.324275	0.353957	0.295705	0.120879	0.270226	0.283589	0.129256	0.116005	0.401563	0.138891	0.379146	0.079069	0.239410	0.234418	0.072215
32	0.065325	0.087904	0.198210	0.388049	0.102999	0.169365	0.205998	0.353942	0.058069	0.149010	0.252619	0.258196	0.110453	0.345527	0.357302	0.285989	0.182807	0.648629	0.306121	0.318584	0.233224	0.198151	0.507987	0.191969	0.075837	0.096183	0.109092	0.210223	0.107378	0.200023	0.132958	0.104818	0.101921	0.111337	0.165216	0.211299	0.065593	0.163690	0.295867	0.295036	0.125608	0.263689	0.272140	0.239189	0.054293	0.139601	0.369095	0.314464	0.072857	0.150286	0.349523	0.217666	0.104090	0.136476	0.270262	0.541650	0.095506	0.129164	0.254113	0.272576	0.120428	0.223783	0.228591	0.232868	0.136854	0.317423	0.373667	0.318014	0.116640	0.268207	0.294731	0.134864	0.121042	0.295129	0.139772	0.397867	0.078843	0.232806	0.234095	0.077222
33	0.062698	0.086397	0.212581	0.431419	0.100927	0.183741	0.333169	0.383227	0.056765	0.112958	0.237470	0.268448	0.109124	0.341114	0.356038	0.257358	0.190160	0.649167	0.306135	0.319661	0.191373	0.178148	0.493340	0.180342	0.033511	0.070618	0.111475	0.191854	0.110256	0.200269	0.199896	0.119574	0.129077	0.238695	0.187282	0.206186	0.067058	0.156691	0.291791	0.273179	0.126649	0.264202	0.249200	0.243641	0.051973	0.135620	0.381166	0.311266	0.053692	0.114409	0.359421	0.252275	0.135375	0.152436	0.385387	0.542117	0.089173	0.116099	0.215225	0.271008	0.125346	0.193358	0.368067	0.194779	0.145438	0.331559	0.369459	0.356179	0.104978	0.232266	0.313803	0.179457	0.134032	0.274461	0.145287	0.395781	0.078473	0.230242	0.228500	0.091803
34	0.062865	0.086558	0.218535	0.464712	0.091937	0.187034	0.372388	0.384144	0.057636	0.095822	0.242173	0.261079	0.120521	0.331558	0.388969	0.283043	0.190340	0.646055	0.357793	0.318714	0.147708	0.165165	0.470709	0.147635	0.042217	0.190524	0.130156	0.246872	0.108863	0.189363	0.284962	0.143126	0.123460	0.249872	0.197062	0.218233	0.067019	0.156225	0.285893	0.241739	0.119378	0.260924	0.227845	0.266441	0.055620	0.135851	0.381618	0.339818	0.055090	0.110481	0.358027	0.293018	0.144986	0.156146	0.541710	0.531784	0.092069	0.117929	0.199253	0.260526	0.124218	0.167174	0.367919	0.162095	0.171422	0.350669	0.339652	0.340373	0.098334	0.162120	0.419393	0.185723	0.135135	0.280848	0.156909	0.424161	0.078433	0.172216	0.179627	0.098935
35	0.062559	0.085228	0.219798	0.466774	0.099400	0.246211	0.375239	0.373097	0.062835	0.092193	0.256038	0.246446	0.102925	0.199813	0.400528	0.431226	0.183956	0.639082	0.391479	0.316174	0.145559	0.140809	0.472442	0.096610	0.065243	0.400812	0.149269	0.325257	0.097367	0.162623	0.341807	0.148571	0.133515	0.253146	0.221838	0.272618	0.065311	0.148347	0.283750	0.203541	0.087754	0.218791	0.231173	0.268117	0.056522	0.095640	0.399695	0.378837	0.062047	0.117416	0.417796	0.318568	0.147868	0.161037	0.621508	0.517966	0.086768	0.118098	0.175671	0.347243	0.116127	0.168517	0.371871	0.184936	0.188961	0.362982	0.340385	0.343121	0.111257	0.142267	0.437922	0.189526	0.133102	0.276227	0.182990	0.466218	0.071135	0.112257	0.199587	0.126074
36	0.087397	0.134925	0.218184	0.442991	0.116729	0.268074	0.414705	0.412923	0.069772	0.119918	0.364552	0.212064	0.090902	0.161691	0.403011	0.489863	0.183457	0.630166	0.390914	0.328883	0.142042	0.143096	0.476671	0.096011	0.109642	0.533626	0.145331	0.340417	0.092410	0.185161	0.338158	0.150123	0.173898	0.268436	0.305862	0.277491	0.064743	0.143560	0.289481	0.173424	0.089579	0.152085	0.263079	0.389413	0.063458	0.086020	0.447595	0.409932	0.068896	0.108709	0.433408	0.322913	0.163064	0.165472	0.635103	0.528016	0.081679	0.117392	0.176164	0.355276	0.090516	0.161780	0.366876	0.236111	0.188980	0.350267	0.340125	0.415467	0.171253	0.127800	0.449531	0.177703	0.138302	0.277568	0.195260	0.480359	0.071077	0.111689	0.278846	0.164723
37	0.119318	0.205317	0.224434	0.406814	0.126354	0.275398	0.500639	0.449331	0.066289	0.135753	0.490267	0.219911	0.094906	0.155243	0.400202	0.488384	0.181473	0.617631	0.391905	0.339233	0.127017	0.138913	0.469566	0.086434	0.124489	0.605969	0.143167	0.320047	0.087169	0.222721	0.376940	0.159846	0.185163	0.272496	0.303255	0.251102	0.064716	0.150928	0.285273	0.150025	0.092496	0.132857	0.337357	0.499772	0.077634	0.079756	0.516287	0.396066	0.069796	0.110083	0.420725	0.329360	0.165308	0.183177	0.657681	0.494211	0.079266	0.098885	0.138336	0.305307	0.087871	0.175050	0.394124	0.244433	0.176164	0.274965	0.338359	0.416336	0.200371	0.119256	0.444869	0.176213	0.148679	0.275843	0.199116	0.509343	0.079244	0.117533	0.308915	0.184759
38	0.128227	0.218233	0.262793	0.400992	0.154642	0.298022	0.560469	0.458759	0.065461	0.134588	0.491563	0.225456	0.111098	0.152843	0.392777	0.528924	0.178777	0.569902	0.388075	0.315330	0.126191	0.165255	0.386301	0.059456	0.155269	0.625573	0.249260	0.316761	0.094080	0.217727	0.406825	0.149544	0.177847	0.249620	0.291598	0.302976	0.057496	0.146514	0.279998	0.174706	0.091790	0.123476	0.364356	0.508683	0.081127	0.095690	0.548044	0.386484	0.071791	0.080875	0.388810	0.329398	0.164304	0.197559	0.741501	0.471709	0.063327	0.070809	0.109899	0.298351	0.093011	0.188274	0.454967	0.243312	0.165077	0.228664	0.315999	0.470090	0.221932	0.122976	0.442310	0.193679	0.135745	0.235302	0.204340	0.564336	0.105595	0.137925	0.312188	0.216918
39	0.127775	0.220147	0.284594	0.427875	0.160216	0.303245	0.559337	0.453103	0.078660	0.160327	0.481489	0.212865	0.114529	0.164033	0.295642	0.627857	0.178995	0.509702	0.377213	0.307921	0.099461	0.185051	0.310901	0.072029	0.158594	0.629578	0.263934	0.335854	0.116595	0.247602	0.445546	0.153208	0.166839	0.151052	0.319689	0.333143	0.055079	0.142493	0.250513	0.248137	0.097300	0.118719	0.388759	0.585027	0.081625	0.143409	0.569468	0.387359	0.072038	0.074810	0.364011	0.330317	0.168013	0.196777	0.802605	0.468927	0.053172	0.050409	0.104993	0.298705	0.093733	0.174105	0.487809	0.287651	0.157666	0.223123	0.266450	0.592639	0.232844	0.129931	0.442048	0.200894	0.122367	0.178099	0.244477	0.522720	0.136675	0.170405	0.331680	0.220969
40	0.136772	0.246372	0.285605	0.452472	0.159951	0.304120	0.569640	0.462735	0.104021	0.185776	0.486314	0.241665	0.109326	0.157464	0.277131	0.711483	0.169670	0.499876	0.372700	0.306307	0.047312	0.177908	0.307461	0.086153	0.170668	0.637757	0.437463	0.370808	0.121031	0.273186	0.456541	0.158816	0.183628	0.146097	0.346682	0.305730	0.056506	0.140977	0.228913	0.303591	0.105639	0.127400	0.394299	0.744807	0.081377	0.151048	0.563372	0.432634	0.070495	0.147782	0.292613	0.310677	0.175795	0.195626	0.812584	0.468361	0.061965	0.050515	0.094414	0.299192	0.091135	0.157483	0.511207	0.315163	0.155619	0.221710	0.245552	0.662665	0.339571	0.203541	0.440168	0.214519	0.125593	0.168616	0.286736	0.485668	0.149546	0.184361	0.344925	0.260499
41	0.145812	0.279167	0.285504	0.459611	0.151509	0.281346	0.584082	0.470382	0.118475	0.233192	0.492791	0.312286	0.107961	0.143653	0.284124	0.743572	0.130774	0.352196	0.378417	0.307276	0.053885	0.196923	0.262982	0.087675	0.182888	0.561510	0.472463	0.305664	0.117523	0.279043	0.478000	0.162237	0.177491	0.150734	0.339443	0.307170	0.069367	0.129582	0.227412	0.302532	0.108079	0.120855	0.470122	0.822183	0.087409	0.190085	0.559492	0.505715	0.072205	0.245643	0.271392	0.267961	0.188538	0.201382	0.809088	0.468333	0.067562	0.047715	0.084174	0.296602	0.089913	0.159205	0.547325	0.316055	0.155182	0.213499	0.201019	0.675161	0.389447	0.232833	0.438957	0.227796	0.116919	0.155730	0.287179	0.544146	0.145394	0.176993	0.329798	0.307888
42	0.146595	0.296939	0.289876	0.458921	0.151597	0.277968	0.596541	0.461878	0.145828	0.260642	0.494831	0.325933	0.113858	0.143029	0.286594	0.752028	0.108032	0.147472	0.354794	0.302977	0.053140	0.214968	0.185612	0.095348	0.179677	0.486581	0.473521	0.263686	0.116344	0.279482	0.481874	0.171544	0.144138	0.119677	0.272831	0.299218	0.084805	0.119888	0.264663	0.317182	0.116822	0.120973	0.519096	0.834676	0.098009	0.200692	0.506674	0.529421	0.077247	0.267504	0.269928	0.256683	0.195352	0.206082	0.822309	0.463088	0.144749	0.088501	0.070454	0.248051	0.083796	0.152304	0.502580	0.340783	0.151982	0.198187	0.195985	0.655214	0.389288	0.233091	0.403940	0.228075	0.099849	0.119080	0.283225	0.625902	0.156905	0.194139	0.338616	0.354192
43	0.146393	0.302237	0.292451	0.455670	0.152315	0.269448	0.554873	0.435088	0.145987	0.289184	0.492258	0.348646	0.098124	0.129755	0.246667	0.788256	0.108278	0.111199	0.314758	0.250688	0.056354	0.213650	0.148813	0.115849	0.156750	0.311059	0.477624	0.277536	0.116766	0.279223	0.462150	0.179441	0.140987	0.116372	0.267450	0.246359	0.085892	0.114507	0.288365	0.366399	0.120974	0.121718	0.545273	0.831795	0.105259	0.201828	0.485877	0.531044	0.069903	0.285676	0.150006	0.270837	0.197526	0.195734	0.828332	0.462355	0.193665	0.106346	0.052858	0.109255	0.076174	0.160620	0.466968	0.360979	0.127648	0.155172	0.175049	0.645736	0.388555	0.242798	0.378576	0.195165	0.099048	0.101007	0.278262	0.631131	0.167840	0.226480	0.355988	0.372198
44	0.146548	0.303003	0.303972	0.451973	0.150332	0.264621	0.530204	0.427888	0.143305	0.294816	0.432000	0.369058	0.088146	0.119384	0.232388	0.766431	0.091680	0.110425	0.315773	0.236687	0.056754	0.219681	0.183157	0.145270	0.135261	0.274964	0.480822	0.348040	0.141759	0.280973	0.415118	0.161758	0.122720	0.100040	0.251778	0.213076	0.085711	0.115065	0.292591	0.402055	0.115583	0.125493	0.538066	0.886823	0.111573	0.211582	0.496860	0.538972	0.073456	0.367988	0.073080	0.305050	0.178920	0.183284	0.769340	0.459426	0.201277	0.106819	0.070323	0.112007	0.079828	0.239963	0.467278	0.359244	0.091889	0.122583	0.096072	0.654477	0.385422	0.269257	0.264224	0.189174	0.104005	0.105315	0.307160	0.660388	0.178810	0.253551	0.356639	0.377439
45	0.147841	0.310777	0.342002	0.443472	0.141611	0.214977	0.532457	0.442608	0.138380	0.284739	0.281595	0.364445	0.088014	0.121511	0.240285	0.763609	0.083176	0.101602	0.315990	0.250885	0.055592	0.212560	0.221166	0.164460	0.127064	0.263561	0.534990	0.347590	0.197768	0.289807	0.368564	0.154952	0.104269	0.096896	0.221028	0.187504	0.100401	0.133127	0.301041	0.432143	0.101105	0.128838	0.519489	0.932730	0.109957	0.221760	0.507148	0.524331	0.078281	0.386356	0.043447	0.309237	0.170178	0.176916	0.673395	0.472766	0.243396	0.135273	0.101748	0.083452	0.089570	0.299377	0.464782	0.335256	0.062325	0.122886	0.078535	0.624621	0.380942	0.269022	0.221305	0.192351	0.097601	0.103908	0.387052	0.653089	0.183085	0.260387	0.364091	0.373947
46	0.150470	0.324624	0.342977	0.428296	0.126286	0.166813	0.513417	0.436974	0.141432	0.287460	0.269772	0.360908	0.088781	0.126248	0.233043	0.770110	0.080397	0.101943	0.234944	0.270268	0.055136	0.207291	0.228386	0.176925	0.135810	0.265925	0.533461	0.295786	0.225710	0.272875	0.365278	0.161703	0.083421	0.096330	0.154225	0.165159	0.126374	0.158437	0.334904	0.443470	0.107596	0.146608	0.471050	0.901853	0.109848	0.287092	0.487717	0.494090	0.095915	0.429708	0.036764	0.299125	0.167292	0.171610	0.600346	0.457980	0.327442	0.208400	0.128849	0.075348	0.082556	0.299121	0.458472	0.307727	0.057923	0.141958	0.080400	0.648775	0.357307	0.298474	0.153550	0.189459	0.086859	0.116200	0.401069	0.635490	0.183962	0.260468	0.319523	0.355517
47	0.150614	0.326760	0.345065	0.429622	0.123223	0.165021	0.474031	0.360050	0.140098	0.279201	0.274478	0.359937	0.070388	0.123621	0.203082	0.737799	0.073000	0.106381	0.226987	0.257252	0.055005	0.204273	0.253128	0.180173	0.107745	0.194691	0.476871	0.276593	0.227612	0.238206	0.322688	0.170165	0.053549	0.082143	0.178752	0.136055	0.136699	0.158223	0.361238	0.443313	0.124171	0.155878	0.469466	0.898794	0.103217	0.294575	0.449282	0.463858	0.108403	0.436046	0.027265	0.300991	0.152439	0.165990	0.587709	0.418032	0.340704	0.241707	0.144100	0.078503	0.071436	0.320592	0.398216	0.308413	0.062620	0.158797	0.081983	0.657834	0.341297	0.333093	0.108703	0.182285	0.097296	0.151815	0.400362	0.637665	0.182222	0.259227	0.265351	0.361771
48	0.150609	0.328485	0.353789	0.532174	0.093615	0.130375	0.364484	0.304516	0.121667	0.260248	0.274720	0.322790	0.066438	0.100936	0.202141	0.633162	0.070092	0.102255	0.225396	0.203996	0.053034	0.183819	0.250937	0.180369	0.106561	0.182921	0.476063	0.289656	0.241692	0.231852	0.284099	0.180343	0.034323	0.086208	0.273031	0.142791	0.140047	0.152327	0.373529	0.443185	0.128569	0.154264	0.454129	0.858607	0.102263	0.294679	0.382652	0.446820	0.109212	0.428512	0.020347	0.300857	0.151486	0.155212	0.559752	0.418653	0.343044	0.254933	0.152708	0.082554	0.067041	0.342913	0.336588	0.302544	0.058293	0.158435	0.083103	0.575199	0.330133	0.332715	0.149427	0.162667	0.099372	0.154448	0.402358	0.654295	0.172493	0.255411	0.262005	0.348574
49	0.147429	0.341963	0.400204	0.650909	0.079593	0.113233	0.364662	0.306015	0.111594	0.238210	0.227156	0.241488	0.069236	0.079502	0.200407	0.539011	0.063861	0.083327	0.234169	0.177892	0.050991	0.151661	0.252915	0.177332	0.106652	0.184948	0.487750	0.295379	0.257610	0.204368	0.210737	0.176394	0.057635	0.097532	0.301306	0.152550	0.139764	0.150088	0.359029	0.439923	0.126214	0.188684	0.448765	0.742626	0.099050	0.274507	0.351435	0.449058	0.107824	0.395406	0.095978	0.283603	0.157372	0.152055	0.442537	0.425475	0.329445	0.248206	0.164699	0.226300	0.074122	0.361115	0.330003	0.244519	0.056476	0.163972	0.080500	0.458730	0.324603	0.330235	0.176780	0.150947	0.106075	0.192320	0.396428	0.655098	0.150744	0.252596	0.237947	0.345012
50	0.135314	0.334449	0.530981	0.664945	0.076018	0.106275	0.357983	0.321493	0.063916	0.194861	0.203328	0.253058	0.068586	0.083374	0.199536	0.511278	0.063033	0.081576	0.246675	0.181187	0.048550	0.147548	0.272948	0.173470	0.106739	0.179905	0.480474	0.208929	0.267136	0.176194	0.180610	0.170305	0.058281	0.095742	0.315984	0.175522	0.139661	0.152912	0.349705	0.413341	0.133368	0.228050	0.362534	0.667426	0.098481	0.263660	0.332428	0.435733	0.103325	0.398570	0.127269	0.257219	0.168840	0.161940	0.324579	0.504101	0.296558	0.237991	0.271380	0.306648	0.075401	0.363283	0.373111	0.238686	0.055036	0.191729	0.078348	0.405985	0.215855	0.291789	0.191646	0.123923	0.116332	0.222614	0.400731	0.593433	0.131516	0.245074	0.215730	0.326099
51	0.122294	0.308732	0.563228	0.664655	0.076137	0.104422	0.324817	0.325830	0.053327	0.189724	0.208644	0.270147	0.055917	0.083181	0.171717	0.498600	0.055790	0.081735	0.247263	0.183063	0.039707	0.121516	0.280795	0.173392	0.107831	0.174701	0.408578	0.191506	0.269009	0.167547	0.104831	0.165000	0.062756	0.100090	0.357414	0.288778	0.139327	0.159983	0.349802	0.375939	0.133222	0.288364	0.289083	0.657828	0.095162	0.252352	0.329080	0.349665	0.101061	0.387209	0.143833	0.204651	0.169000	0.169674	0.291306	0.529622	0.286950	0.237590	0.309289	0.306654	0.076636	0.382533	0.375759	0.217747	0.054254	0.264462	0.075211	0.400408	0.090644	0.275487	0.195654	0.090254	0.124867	0.347100	0.398830	0.501545	0.126129	0.242081	0.206389	0.282752
52	0.130022	0.307473	0.555456	0.673624	0.075817	0.102789	0.298806	0.323783	0.071503	0.342412	0.201726	0.246387	0.053498	0.082655	0.160145	0.409840	0.053922	0.074959	0.238474	0.178067	0.039361	0.078488	0.279341	0.171685	0.083656	0.133177	0.337817	0.180610	0.269215	0.167023	0.086472	0.155684	0.069219	0.103252	0.388354	0.288840	0.135307	0.165546	0.348881	0.372322	0.129335	0.353444	0.241647	0.646866	0.083945	0.232853	0.325237	0.275867	0.095779	0.349961	0.148251	0.143901	0.153782	0.160193	0.285344	0.525399	0.281949	0.245400	0.482868	0.320193	0.078778	0.388399	0.377818	0.175402	0.052559	0.428335	0.054310	0.398948	0.102822	0.315111	0.194929	0.078124	0.124505	0.534664	0.394441	0.477399	0.110110	0.228363	0.194331	0.218736
53	0.133162	0.302941	0.576205	0.703747	0.072878	0.096574	0.275327	0.322838	0.081019	0.463916	0.168668	0.242328	0.053620	0.082588	0.140610	0.296633	0.078232	0.068381	0.261182	0.168416	0.046870	0.078889	0.278976	0.183779	0.075110	0.114985	0.246649	0.167786	0.271721	0.168061	0.068673	0.133300	0.071665	0.094781	0.383499	0.316756	0.127507	0.161361	0.302290	0.372166	0.128542	0.379248	0.236740	0.551942	0.074513	0.232831	0.318005	0.265857	0.092296	0.376768	0.153962	0.174942	0.145565	0.149779	0.232240	0.506651	0.184115	0.250859	0.602363	0.389293	0.088398	0.377975	0.380742	0.183470	0.056326	0.624747	0.053345	0.387080	0.108350	0.326825	0.191311	0.074072	0.126058	0.566647	0.357114	0.388914	0.094291	0.202311	0.147334	0.180683
54	0.121148	0.282582	0.584540	0.731473	0.074945	0.086916	0.246902	0.321556	0.083820	0.490877	0.162782	0.260130	0.051580	0.076535	0.113274	0.230871	0.158312	0.111402	0.281792	0.167958	0.076676	0.068893	0.257983	0.208370	0.055546	0.209231	0.248030	0.184220	0.275344	0.172131	0.069791	0.130584	0.090429	0.105933	0.392814	0.320135	0.127971	0.160543	0.284373	0.344860	0.127461	0.433419	0.227644	0.363823	0.056176	0.236253	0.312729	0.251462	0.080817	0.328932	0.212514	0.182363	0.138519	0.139297	0.204358	0.487519	0.201865	0.280105	0.631168	0.465530	0.094355	0.340854	0.384993	0.198398	0.055741	0.725154	0.051808	0.355284	0.111233	0.325163	0.188553	0.069482	0.169701	0.713827	0.254110	0.372971	0.066868	0.154879	0.143682	0.173323
55	0.120239	0.263792	0.644063	0.740977	0.073790	0.087551	0.222254	0.306299	0.085332	0.527408	0.180568	0.387060	0.039291	0.061074	0.114407	0.198233	0.211032	0.130866	0.283951	0.166617	0.151284	0.088712	0.221379	0.218748	0.057081	0.258921	0.226143	0.251418	0.252059	0.156332	0.056346	0.143728	0.101627	0.114241	0.377372	0.314830	0.127529	0.157040	0.306740	0.318344	0.121009	0.474460	0.172711	0.311642	0.059231	0.225467	0.316654	0.195684	0.069490	0.321864	0.273097	0.190594	0.140390	0.139966	0.194847	0.484684	0.210535	0.274635	0.741795	0.484906	0.102530	0.337251	0.449249	0.269837	0.066074	0.725634	0.055716	0.280799	0.111769	0.346557	0.192416	0.043350	0.173925	0.729811	0.223276	0.366338	0.046027	0.133394	0.110244	0.188365
56	0.133526	0.260133	0.684417	0.746282	0.068975	0.088941	0.212680	0.272885	0.086076	0.560007	0.159755	0.538477	0.032561	0.059748	0.108562	0.179368	0.241659	0.138873	0.278847	0.153066	0.183708	0.097445	0.196355	0.231156	0.094701	0.409844	0.206390	0.295650	0.225511	0.128281	0.045792	0.151135	0.103170	0.145474	0.348061	0.250122	0.115193	0.141459	0.307989	0.282259	0.104320	0.493163	0.131150	0.307896	0.060062	0.178740	0.302707	0.154634	0.066953	0.306363	0.292305	0.196376	0.143286	0.143692	0.111058	0.464148	0.211262	0.273817	0.827753	0.516490	0.107109	0.328604	0.507466	0.286307	0.100281	0.775708	0.056433	0.155910	0.115470	0.367925	0.196605	0.039187	0.167441	0.725245	0.220174	0.295811	0.040328	0.132063	0.068980	0.199796
57	0.137803	0.260114	0.684251	0.748724	0.067356	0.082270	0.143931	0.266717	0.088877	0.569485	0.165021	0.575252	0.030107	0.062381	0.107236	0.170346	0.248178	0.140119	0.261957	0.115111	0.186704	0.099214	0.158130	0.250443	0.114185	0.415905	0.286340	0.286251	0.223506	0.115311	0.049632	0.134503	0.098406	0.152918	0.326665	0.188943	0.086364	0.120002	0.265680	0.265887	0.096699	0.505021	0.116763	0.234017	0.059716	0.105650	0.249250	0.165581	0.067298	0.287686	0.360287	0.197843	0.143173	0.144695	0.100384	0.428653	0.212908	0.277943	0.878821	0.500365	0.113500	0.288515	0.516086	0.322168	0.158272	1.075913	0.053898	0.082123	0.117668	0.378079	0.197777	0.052386	0.168067	0.757142	0.171836	0.278760	0.038527	0.160352	0.052496	0.193665
58	0.140559	0.261802	0.677729	0.749428	0.050423	0.064545	0.104467	0.267128	0.112860	0.608596	0.197948	0.569826	0.017279	0.053479	0.089734	0.154516	0.261438	0.139633	0.259053	0.094965	0.199042	0.099420	0.154442	0.270060	0.120505	0.414610	0.289292	0.278993	0.216191	0.118548	0.051704	0.118149	0.098161	0.170053	0.246093	0.171015	0.068464	0.120908	0.219219	0.265597	0.092413	0.494031	0.137085	0.132460	0.054732	0.105348	0.236740	0.176536	0.069434	0.263314	0.368103	0.196284	0.140308	0.142400	0.096826	0.384924	0.240639	0.316160	0.882423	0.499258	0.111380	0.267384	0.514365	0.360766	0.169595	1.184826	0.058456	0.080904	0.122434	0.436145	0.172551	0.092755	0.169456	0.815278	0.103338	0.347544	0.039501	0.213070	0.046316	0.191772
59	0.141780	0.249514	0.660108	0.751659	0.037869	0.051305	0.087422	0.258285	0.125728	0.612948	0.201960	0.611210	0.014743	0.048584	0.076860	0.118261	0.348097	0.173927	0.259721	0.111206	0.244877	0.112075	0.136566	0.272390	0.123604	0.419996	0.298546	0.311013	0.188401	0.114751	0.057437	0.115980	0.085658	0.172916	0.114559	0.076281	0.063056	0.207282	0.196918	0.262572	0.075671	0.476319	0.162393	0.084268	0.057257	0.108843	0.251934	0.174398	0.071549	0.259370	0.389487	0.250412	0.131652	0.131854	0.089086	0.347299	0.252334	0.323112	0.913211	0.518588	0.107840	0.249155	0.486277	0.376585	0.196952	1.197733	0.061572	0.081396	0.120062	0.436941	0.143465	0.113796	0.160281	0.839121	0.096978	0.414341	0.033110	0.208024	0.046796	0.192508
60	0.139582	0.231052	0.646423	0.751353	0.037037	0.051162	0.084041	0.228738	0.128960	0.555093	0.195642	0.667462	0.017873	0.056123	0.085320	0.092265	0.390881	0.198277	0.257008	0.114380	0.275942	0.121041	0.085467	0.282070	0.154421	0.428758	0.392732	0.380230	0.169802	0.101706	0.058927	0.119474	0.059775	0.240820	0.094203	0.036837	0.068306	0.275111	0.191843	0.253210	0.063288	0.438374	0.324486	0.158321	0.060830	0.111216	0.264547	0.167090	0.091833	0.256057	0.426485	0.283050	0.123790	0.112509	0.076509	0.327533	0.249262	0.313386	0.835501	0.534585	0.110346	0.239860	0.463918	0.372767	0.204609	1.193319	0.075742	0.079459	0.114360	0.437006	0.124935	0.115771	0.153860	0.801006	0.097285	0.448968	0.058320	0.253996	0.052351	0.205146
61	0.140075	0.228806	0.644653	0.742715	0.034296	0.046833	0.081773	0.191083	0.161259	0.458405	0.197229	0.679441	0.028511	0.079258	0.198557	0.064780	0.398991	0.201486	0.232093	0.110320	0.279741	0.148991	0.051662	0.297337	0.163584	0.429187	0.420143	0.373528	0.184203	0.155090	0.062870	0.121088	0.052746	0.284442	0.087610	0.034396	0.070513	0.287317	0.189211	0.231672	0.066624	0.390291	0.358243	0.201356	0.071475	0.111790	0.267612	0.166546	0.135112	0.264784	0.496604	0.260344	0.113161	0.088098	0.075569	0.183482	0.212422	0.259746	0.804788	0.529396	0.110870	0.210456	0.459225	0.373568	0.204861	1.167947	0.088459	0.074622	0.105766	0.432260	0.121039	0.128174	0.150814	0.689781	0.119778	0.462121	0.066099	0.254927	0.056131	0.230972
62	0.141227	0.228247	0.639235	0.667512	0.032046	0.046947	0.077156	0.188793	0.166682	0.438185	0.215218	0.674167	0.054621	0.135742	0.392709	0.057642	0.400606	0.203974	0.217324	0.105488	0.283613	0.160251	0.063445	0.304153	0.200185	0.469068	0.422408	0.309417	0.191960	0.189844	0.085535	0.118937	0.056629	0.309486	0.039048	0.036572	0.080887	0.338715	0.188622	0.223129	0.072263	0.359621	0.367968	0.231362	0.098580	0.119242	0.263145	0.165352	0.137918	0.277920	0.494356	0.277783	0.111516	0.066319	0.085574	0.085655	0.202730	0.270261	0.783143	0.494333	0.108244	0.205503	0.463590	0.365772	0.204650	1.085077	0.089064	0.063317	0.091186	0.404256	0.154855	0.141684	0.152788	0.667149	0.154969	0.518952	0.068394	0.256651	0.059067	0.246161
63	0.146817	0.212782	0.599203	0.582199	0.032110	0.042678	0.080898	0.193686	0.161104	0.385058	0.199557	0.629606	0.064515	0.148875	0.581162	0.145147	0.410464	0.207943	0.215751	0.106881	0.289726	0.206958	0.118359	0.292704	0.190087	0.475164	0.393888	0.306052	0.187717	0.206084	0.110483	0.118743	0.054015	0.317056	0.093662	0.109535	0.076340	0.344116	0.190123	0.225102	0.070248	0.298601	0.427908	0.290624	0.113226	0.125300	0.255795	0.155702	0.134732	0.275948	0.486484	0.272543	0.118744	0.063019	0.091291	0.057786	0.208435	0.281992	0.699548	0.484870	0.103264	0.174515	0.464349	0.365028	0.203501	0.991436	0.092593	0.050242	0.083376	0.388909	0.173152	0.142956	0.113235	0.525658	0.171435	0.570071	0.068787	0.261992	0.052418	0.245404
64	0.150920	0.202366	0.501452	0.576485	0.034747	0.040314	0.091998	0.197997	0.162277	0.339137	0.207458	0.512024	0.066101	0.148344	0.600888	0.146667	0.419843	0.209471	0.199385	0.126982	0.290297	0.300687	0.122249	0.262029	0.185548	0.505288	0.346624	0.310937	0.164458	0.200437	0.122201	0.113326	0.063204	0.343517	0.174422	0.155192	0.087734	0.343099	0.193242	0.203476	0.072207	0.211167	0.475559	0.342057	0.118847	0.130879	0.252876	0.154085	0.135080	0.276101	0.544193	0.289621	0.123533	0.063035	0.099184	0.143678	0.230154	0.297637	0.698134	0.433033	0.094413	0.138215	0.456170	0.400327	0.203396	0.970008	0.093483	0.062586	0.079204	0.379856	0.166867	0.144037	0.105902	0.500588	0.254683	0.579053	0.069097	0.270792	0.104461	0.233352
65	0.155330	0.202219	0.473667	0.579501	0.041014	0.093869	0.082831	0.197044	0.166875	0.316436	0.341412	0.458395	0.076173	0.148094	0.692317	0.157088	0.407801	0.195777	0.174361	0.136740	0.260361	0.304198	0.121210	0.243194	0.180940	0.533095	0.342222	0.306805	0.142694	0.197309	0.124409	0.097417	0.059125	0.300476	0.195523	0.161303	0.123546	0.346791	0.179677	0.175348	0.071150	0.163747	0.579072	0.382070	0.118592	0.182550	0.218480	0.153122	0.137829	0.279639	0.562695	0.289738	0.120489	0.059550	0.096745	0.235440	0.255404	0.302577	0.728637	0.427048	0.110277	0.142300	0.368526	0.383615	0.197047	0.972069	0.110847	0.107878	0.079159	0.359682	0.171233	0.151350	0.104236	0.502764	0.320608	0.579780	0.069338	0.274209	0.168629	0.220506
66	0.156413	0.204971	0.456476	0.546281	0.044835	0.237508	0.087904	0.165909	0.154426	0.238696	0.405310	0.458132	0.076943	0.145906	0.801546	0.171148	0.381964	0.181066	0.150287	0.136702	0.238924	0.301547	0.124980	0.226366	0.158755	0.522097	0.257830	0.216918	0.139465	0.198195	0.134970	0.075368	0.060754	0.287238	0.272338	0.193598	0.148119	0.349281	0.147839	0.155753	0.056976	0.098623	0.724126	0.395625	0.121721	0.191429	0.190816	0.142522	0.161799	0.293112	0.564290	0.295886	0.128792	0.050730	0.095393	0.268029	0.236120	0.277606	0.659363	0.410263	0.114607	0.155818	0.330252	0.376864	0.170088	0.779268	0.118902	0.214096	0.087639	0.331167	0.207919	0.173677	0.101022	0.456386	0.351878	0.554859	0.071367	0.275581	0.172744	0.216726
67	0.158825	0.212707	0.422469	0.479747	0.056108	0.258227	0.106110	0.127434	0.143348	0.198234	0.413462	0.385811	0.089226	0.164627	0.898751	0.219980	0.372442	0.193263	0.165140	0.135575	0.238168	0.300904	0.129322	0.205989	0.152520	0.501429	0.124769	0.126278	0.136807	0.208198	0.193367	0.068102	0.058324	0.195207	0.327508	0.211636	0.159437	0.348852	0.132029	0.150618	0.067956	0.117442	0.760754	0.403622	0.149360	0.289332	0.175053	0.126310	0.184027	0.326068	0.559895	0.279537	0.148098	0.041092	0.099056	0.272549	0.233643	0.265109	0.622611	0.381053	0.116310	0.155436	0.323804	0.342639	0.144854	0.372861	0.170719	0.257762	0.100010	0.297429	0.274666	0.207649	0.093203	0.327916	0.379209	0.504873	0.075125	0.268064	0.175867	0.220775
68	0.160790	0.225206	0.414249	0.418973	0.091744	0.337023	0.106739	0.124004	0.148203	0.223154	0.417466	0.260122	0.124150	0.205434	0.985034	0.251520	0.400941	0.236471	0.193334	0.132871	0.231082	0.300541	0.146298	0.196611	0.095433	0.447885	0.090261	0.108381	0.119717	0.221621	0.222018	0.091407	0.067678	0.194302	0.339688	0.199712	0.160469	0.348210	0.123463	0.151026	0.084471	0.142186	0.955168	0.408795	0.167141	0.330062	0.181817	0.090862	0.173597	0.286748	0.565843	0.456162	0.160162	0.040542	0.116709	0.275021	0.234187	0.255569	0.630586	0.275544	0.116437	0.156774	0.331990	0.296507	0.122768	0.242905	0.178935	0.270907	0.086115	0.195363	0.364804	0.252666	0.128999	0.246516	0.374862	0.450338	0.074388	0.226408	0.205818	0.210967
69	0.152238	0.219830	0.292214	0.401828	0.132512	0.480478	0.102922	0.127031	0.132742	0.303223	0.417239	0.222796	0.149425	0.233510	0.993895	0.254197	0.409784	0.246836	0.224621	0.126614	0.190492	0.297687	0.160511	0.220764	0.076530	0.451330	0.069639	0.106244	0.113116	0.231742	0.222828	0.100010	0.068066	0.189016	0.343877	0.179880	0.172902	0.350245	0.138950	0.150447	0.086746	0.148075	1.009991	0.441779	0.163932	0.329753	0.163339	0.079022	0.143027	0.211433	0.514025	0.505661	0.169169	0.076220	0.133412	0.294999	0.217319	0.225755	0.585749	0.320093	0.117521	0.161491	0.320092	0.304012	0.123022	0.216308	0.272162	0.274199	0.086044	0.194067	0.378011	0.258676	0.161948	0.257632	0.389131	0.417962	0.073796	0.204824	0.280497	0.219487
70	0.141157	0.206520	0.218300	0.397946	0.138193	0.493105	0.102437	0.127473	0.126628	0.318079	0.408736	0.221273	0.159950	0.240360	0.981121	0.281515	0.374759	0.236985	0.245167	0.109797	0.146478	0.299235	0.160407	0.254880	0.091197	0.431453	0.064686	0.089416	0.111872	0.238703	0.283027	0.105762	0.061024	0.122055	0.309449	0.174256	0.223439	0.311600	0.176027	0.148077	0.083221	0.141960	1.011949	0.456555	0.162167	0.328088	0.152183	0.084918	0.148968	0.192632	0.507332	0.495314	0.180576	0.124426	0.134456	0.310561	0.193766	0.185046	0.567294	0.334866	0.118328	0.166298	0.241615	0.343947	0.127255	0.219866	0.427750	0.276441	0.088303	0.199938	0.379460	0.269698	0.165311	0.286649	0.393510	0.430121	0.056296	0.127169	0.295035	0.240161
71	0.139280	0.210773	0.225444	0.411461	0.154025	0.497967	0.124390	0.125919	0.126396	0.333473	0.592905	0.214599	0.158638	0.229933	0.914005	0.335016	0.297367	0.206934	0.252327	0.097898	0.141675	0.292542	0.158389	0.244722	0.100092	0.459050	0.076237	0.078513	0.087952	0.211911	0.288458	0.141506	0.064048	0.143162	0.311990	0.159562	0.253549	0.256388	0.205401	0.144744	0.084250	0.146879	1.018797	0.454506	0.161674	0.329579	0.191842	0.103456	0.174824	0.213617	0.528065	0.509769	0.189137	0.156297	0.156522	0.315889	0.182718	0.175097	0.462484	0.304527	0.126707	0.180653	0.234866	0.386070	0.148192	0.251514	0.507359	0.293959	0.092796	0.197655	0.380086	0.335148	0.184687	0.360398	0.381606	0.402689	0.042338	0.113844	0.295008	0.261393
72	0.139894	0.215569	0.227780	0.423471	0.162416	0.501327	0.226701	0.122150	0.127990	0.338394	0.641299	0.181999	0.155779	0.224247	0.817883	0.310337	0.269872	0.196640	0.267992	0.101858	0.135720	0.289015	0.225973	0.272195	0.102849	0.429886	0.114852	0.083845	0.071018	0.178773	0.317018	0.189850	0.098783	0.179235	0.312703	0.130532	0.256272	0.240726	0.214061	0.139646	0.089013	0.146530	1.020119	0.426214	0.153871	0.325854	0.202924	0.107493	0.191657	0.229986	0.562894	0.576384	0.194102	0.251244	0.183195	0.317659	0.121314	0.112576	0.317236	0.359869	0.131881	0.190447	0.223991	0.385879	0.159044	0.268865	0.516877	0.348940	0.096808	0.203531	0.379561	0.411290	0.200931	0.382342	0.409110	0.334701	0.054439	0.124831	0.294883	0.257518
73	0.141204	0.214757	0.208529	0.432434	0.163466	0.502286	0.342677	0.123991	0.141766	0.348146	0.587843	0.174542	0.157542	0.234813	0.817783	0.329562	0.268159	0.195878	0.287364	0.159618	0.120662	0.258524	0.396344	0.276632	0.102553	0.428519	0.129623	0.141977	0.079434	0.171973	0.316137	0.193968	0.096584	0.177785	0.297296	0.129954	0.253367	0.152865	0.260482	0.133056	0.102231	0.159320	1.046108	0.420266	0.140071	0.321745	0.206437	0.109888	0.288532	0.322471	0.537121	0.607932	0.188866	0.271776	0.178603	0.319254	0.077292	0.095664	0.258031	0.385323	0.129550	0.190279	0.219885	0.353690	0.160018	0.273030	0.530409	0.380127	0.110443	0.220814	0.375493	0.453671	0.212144	0.380241	0.417466	0.310376	0.058796	0.125385	0.297072	0.254782
74	0.144221	0.218118	0.204311	0.463275	0.162487	0.502357	0.353296	0.146064	0.170604	0.364187	0.529542	0.183793	0.160070	0.244306	0.739848	0.382387	0.260295	0.192559	0.287771	0.205243	0.106476	0.130658	0.543220	0.284879	0.103942	0.414782	0.139050	0.146309	0.080130	0.179544	0.311790	0.197461	0.094866	0.182465	0.279553	0.133235	0.252960	0.130881	0.333848	0.121930	0.112093	0.161166	1.034955	0.398971	0.133482	0.322420	0.232115	0.118657	0.320691	0.344497	0.542527	0.605575	0.180216	0.300179	0.178782	0.318645	0.091297	0.108429	0.211434	0.394437	0.114783	0.171479	0.218579	0.327232	0.155566	0.247250	0.587937	0.384277	0.119450	0.222820	0.382791	0.470714	0.213672	0.376821	0.378471	0.289497	0.060689	0.101700	0.290926	0.254526
75	0.150217	0.235121	0.218310	0.519847	0.161294	0.499852	0.357254	0.149444	0.189886	0.376413	0.552525	0.188508	0.163890	0.246450	0.620134	0.409265	0.242950	0.189499	0.297290	0.213244	0.106915	0.102640	0.555669	0.285376	0.094911	0.282385	0.176920	0.277126	0.081202	0.185440	0.310767	0.212131	0.103719	0.210409	0.340507	0.212238	0.246698	0.129810	0.368461	0.113038	0.113164	0.157286	0.961188	0.398089	0.131839	0.356915	0.283171	0.127734	0.317125	0.318134	0.531639	0.594081	0.177416	0.328576	0.176484	0.287988	0.106831	0.108528	0.096803	0.389271	0.098315	0.153851	0.237949	0.350310	0.153450	0.216639	0.695444	0.368088	0.123496	0.228874	0.385300	0.476700	0.213391	0.387426	0.355132	0.273002	0.066359	0.091345	0.256916	0.261582
76	0.157162	0.283418	0.231378	0.555537	0.161986	0.456905	0.364293	0.157641	0.190284	0.430948	0.590371	0.186723	0.156097	0.237068	0.480647	0.404984	0.232930	0.188689	0.297748	0.202830	0.104349	0.101329	0.591555	0.284058	0.086254	0.353516	0.262220	0.343485	0.097054	0.205534	0.308369	0.218460	0.120785	0.209078	0.402831	0.225873	0.229400	0.120596	0.383503	0.103768	0.117293	0.146838	0.921419	0.425445	0.133192	0.382735	0.344901	0.125292	0.317550	0.315787	0.524207	0.468164	0.177105	0.331279	0.188465	0.220074	0.097248	0.106080	0.066559	0.351750	0.109289	0.163861	0.240146	0.356834	0.163304	0.203461	0.740839	0.424556	0.113948	0.191189	0.367093	0.481920	0.211303	0.391986	0.347328	0.273754	0.067124	0.086321	0.250957	0.269842
77	0.167636	0.334108	0.228528	0.627334	0.160997	0.432448	0.434796	0.148310	0.178781	0.374472	0.656960	0.181125	0.128435	0.209838	0.294276	0.391969	0.236006	0.187780	0.278131	0.201123	0.101418	0.106972	0.620010	0.285345	0.088514	0.385394	0.315766	0.352083	0.112704	0.226862	0.278080	0.220338	0.112020	0.184211	0.432523	0.222358	0.215202	0.118395	0.380346	0.095049	0.126964	0.148153	0.748173	0.417044	0.119864	0.386813	0.356463	0.121177	0.321638	0.315210	0.521671	0.417345	0.166492	0.370163	0.209850	0.193843	0.098988	0.109900	0.066270	0.307566	0.118479	0.167881	0.240654	0.358434	0.167607	0.203004	0.732467	0.578166	0.100628	0.188223	0.322918	0.468693	0.195074	0.383986	0.374331	0.275773	0.063006	0.084977	0.252161	0.265390
78	0.182197	0.365035	0.257277	0.665599	0.148979	0.409777	0.528224	0.138102	0.169715	0.397299	0.697302	0.242813	0.100970	0.211929	0.274007	0.401160	0.232635	0.179471	0.289576	0.204796	0.098009	0.122958	0.634437	0.276436	0.088549	0.404277	0.333526	0.375471	0.115144	0.256309	0.254504	0.211836	0.093552	0.174032	0.443456	0.241172	0.207499	0.118701	0.399658	0.108234	0.126077	0.144983	0.691397	0.347354	0.074449	0.332898	0.369044	0.132180	0.333885	0.335951	0.509934	0.421134	0.147594	0.413402	0.207603	0.196950	0.100226	0.122296	0.065636	0.305569	0.118628	0.165837	0.261055	0.361567	0.148930	0.213893	0.733433	0.607041	0.101346	0.211597	0.216625	0.442717	0.176884	0.378863	0.379980	0.269266	0.068602	0.093389	0.243818	0.264717
79	0.196967	0.374341	0.285545	0.672292	0.114094	0.214798	0.620168	0.139301	0.173751	0.401566	0.582368	0.255356	0.081405	0.205546	0.273529	0.381340	0.177606	0.137905	0.274494	0.206549	0.083122	0.139578	0.644901	0.254440	0.107303	0.404143	0.506790	0.373413	0.114299	0.267913	0.253180	0.206382	0.092784	0.162229	0.564732	0.248030	0.207475	0.111140	0.431224	0.117918	0.153326	0.204752	0.704807	0.347884	0.067276	0.330558	0.384795	0.139063	0.328626	0.342723	0.468071	0.414777	0.147369	0.418067	0.235338	0.210282	0.108023	0.123211	0.050503	0.252965	0.116731	0.161198	0.267626	0.346936	0.145393	0.229363	0.675783	0.607242	0.099787	0.217164	0.192677	0.440289	0.175425	0.366189	0.403242	0.228516	0.080893	0.100779	0.245875	0.255794
80	0.218478	0.383145	0.285328	0.674543	0.115935	0.144825	0.634541	0.140384	0.194684	0.416145	0.501427	0.298080	0.072706	0.240202	0.273518	0.347196	0.105050	0.087617	0.258780	0.217924	0.069596	0.133088	0.646283	0.203677	0.105905	0.409457	0.569515	0.370000	0.111460	0.273182	0.184359	0.201798	0.097001	0.123852	0.603446	0.233727	0.197826	0.092686	0.445750	0.123992	0.190305	0.261006	0.689283	0.370865	0.066502	0.331440	0.380557	0.155474	0.320282	0.339332	0.333522	0.301409	0.189448	0.429439	0.252401	0.184259	0.206601	0.137024	0.045086	0.188325	0.114309	0.148272	0.275742	0.286570	0.128079	0.197780	0.620066	0.661870	0.096940	0.211727	0.189912	0.440747	0.151087	0.285222	0.408828	0.204155	0.083222	0.120619	0.266972	0.242027
81	0.230843	0.384390	0.283932	0.685782	0.148508	0.161574	0.633143	0.146618	0.187528	0.413197	0.600439	0.302577	0.083180	0.256063	0.296480	0.353060	0.098670	0.093956	0.229400	0.219582	0.067550	0.119894	0.646516	0.195722	0.105388	0.416589	0.566926	0.372637	0.113421	0.299980	0.175628	0.180837	0.082536	0.077695	0.614290	0.190700	0.140457	0.079750	0.450305	0.127772	0.193662	0.264915	0.665092	0.477279	0.065085	0.330210	0.365565	0.157773	0.235174	0.248537	0.257761	0.229679	0.199434	0.422331	0.251797	0.178169	0.322202	0.142848	0.052053	0.171034	0.111930	0.135171	0.276280	0.258172	0.110015	0.167478	0.623371	0.739864	0.092789	0.210857	0.188327	0.394659	0.119505	0.245966	0.387536	0.234236	0.085915	0.131000	0.302253	0.189392
82	0.232907	0.373965	0.282365	0.733563	0.179651	0.169540	0.615018	0.152202	0.174659	0.402034	0.739059	0.291887	0.077838	0.275752	0.283591	0.330496	0.100994	0.095766	0.218682	0.222325	0.097080	0.112248	0.626749	0.157720	0.122926	0.389152	0.562840	0.319836	0.118895	0.332204	0.101182	0.132242	0.069963	0.080462	0.586117	0.203526	0.079409	0.089071	0.443009	0.132887	0.235341	0.286778	0.576303	0.465849	0.064410	0.336776	0.357022	0.153609	0.168842	0.197571	0.223001	0.229031	0.193140	0.410857	0.239309	0.174155	0.436071	0.177171	0.075130	0.174535	0.109398	0.151858	0.297887	0.266104	0.102866	0.152969	0.650674	0.742214	0.091910	0.262404	0.165682	0.312089	0.090126	0.239044	0.336725	0.299634	0.080407	0.121976	0.307395	0.162861
83	0.233985	0.376909	0.288393	0.818399	0.191558	0.169452	0.563156	0.151461	0.191509	0.409346	0.744070	0.351351	0.062350	0.268449	0.309748	0.262941	0.100399	0.096368	0.217912	0.227783	0.152798	0.111921	0.528924	0.157789	0.134209	0.256323	0.509679	0.317631	0.116712	0.339669	0.074197	0.128341	0.068801	0.075949	0.546322	0.225365	0.071621	0.096397	0.439332	0.136196	0.266819	0.300593	0.556892	0.579889	0.058609	0.363195	0.360139	0.168087	0.149147	0.189009	0.253256	0.246232	0.182055	0.365510	0.221353	0.179935	0.454826	0.218697	0.078269	0.167533	0.114124	0.152477	0.350894	0.263366	0.103399	0.165687	0.649734	0.753988	0.076688	0.279220	0.151617	0.253352	0.112137	0.265728	0.365643	0.453654	0.074839	0.115047	0.305575	0.156321
84	0.255568	0.408620	0.285348	0.869489	0.192852	0.169504	0.567702	0.118932	0.194653	0.335082	0.861480	0.447997	0.054535	0.268220	0.355572	0.211471	0.098000	0.098496	0.202602	0.218751	0.182406	0.111870	0.370520	0.159304	0.128860	0.155653	0.514780	0.351438	0.141649	0.337085	0.070874	0.125566	0.067493	0.067302	0.522406	0.255576	0.068438	0.096944	0.413164	0.139426	0.271208	0.305939	0.548693	0.666482	0.057307	0.387754	0.371121	0.200457	0.148155	0.192807	0.230227	0.264670	0.178458	0.355352	0.221352	0.181423	0.487078	0.248414	0.168629	0.170695	0.120422	0.171466	0.345574	0.226690	0.101554	0.166186	0.568896	0.786605	0.061731	0.269957	0.150020	0.231143	0.149193	0.279038	0.540442	0.479086	0.074300	0.114778	0.304905	0.154733
85	0.290990	0.441326	0.287769	0.883208	0.204482	0.175419	0.581113	0.122088	0.194289	0.322759	0.934095	0.476153	0.062375	0.265853	0.355427	0.177776	0.097196	0.104924	0.248864	0.162747	0.185874	0.115745	0.349564	0.167021	0.121608	0.149749	0.443702	0.353517	0.256421	0.334970	0.070472	0.098238	0.060389	0.058157	0.457784	0.393758	0.067781	0.097098	0.358688	0.146212	0.283449	0.306207	0.543823	0.652830	0.058010	0.367533	0.364240	0.198319	0.137860	0.198688	0.283621	0.465482	0.214546	0.333154	0.218381	0.181397	0.521550	0.266730	0.233155	0.256987	0.117550	0.175395	0.330741	0.241499	0.089645	0.156379	0.456350	0.806611	0.048549	0.276026	0.141557	0.227861	0.167039	0.287132	0.563210	0.480243	0.069159	0.113008	0.307250	0.150563
86	0.312903	0.460598	0.289343	0.881656	0.240905	0.203591	0.592605	0.105258	0.208296	0.247605	0.900790	0.521619	0.076034	0.257604	0.357360	0.199240	0.100454	0.126881	0.263791	0.137556	0.217166	0.138824	0.293655	0.168580	0.140289	0.169381	0.244191	0.355074	0.374087	0.340461	0.056472	0.078455	0.079698	0.109077	0.554497	0.615647	0.067878	0.096963	0.326553	0.143462	0.291618	0.300004	0.469928	0.675451	0.054230	0.301775	0.306222	0.194422	0.090780	0.179125	0.402141	0.740194	0.233497	0.308535	0.216999	0.180884	0.596396	0.269242	0.284772	0.299732	0.095264	0.161529	0.338910	0.288995	0.076762	0.149937	0.515195	0.704855	0.043657	0.278309	0.136869	0.227166	0.169347	0.281830	0.732940	0.512760	0.066575	0.112416	0.312360	0.134756
87	0.319812	0.466766	0.292477	0.882894	0.277799	0.247336	0.557550	0.103696	0.208341	0.219880	0.904106	0.566882	0.083304	0.235431	0.427294	0.205765	0.099459	0.174758	0.248814	0.128567	0.302245	0.182600	0.229897	0.162274	0.160897	0.165598	0.261785	0.352607	0.430441	0.333620	0.044407	0.072001	0.103895	0.133367	0.545683	0.619612	0.069151	0.095220	0.313383	0.137406	0.295488	0.301454	0.452002	0.805215	0.053344	0.288752	0.265732	0.194601	0.092245	0.166923	0.462638	0.795822	0.263770	0.314459	0.204105	0.180016	0.632938	0.385257	0.385903	0.318610	0.095336	0.160408	0.319708	0.285609	0.075337	0.145066	0.593380	0.661788	0.061230	0.292266	0.132509	0.236723	0.175414	0.285607	0.791478	0.525984	0.066149	0.124588	0.321541	0.110476
88	0.319922	0.465873	0.348449	0.860107	0.290677	0.258856	0.480144	0.101700	0.193861	0.200486	0.987763	0.628379	0.085184	0.230157	0.479641	0.285835	0.090322	0.219454	0.255381	0.139076	0.328153	0.187424	0.182771	0.156194	0.160168	0.163480	0.256204	0.309506	0.437796	0.302238	0.039082	0.073007	0.109318	0.144796	0.570866	0.705809	0.079699	0.090663	0.312781	0.130934	0.296605	0.299933	0.433305	0.826366	0.053480	0.240143	0.264188	0.199077	0.145289	0.185391	0.602340	0.832507	0.338936	0.272742	0.183261	0.165533	0.607613	0.537691	0.416277	0.320240	0.117748	0.165538	0.306255	0.282905	0.065962	0.115709	0.613896	0.672284	0.095813	0.371636	0.124376	0.238887	0.174120	0.279448	0.776602	0.527717	0.062679	0.149047	0.331946	0.104786
89	0.316778	0.455171	0.350257	0.806552	0.290694	0.253699	0.350736	0.097811	0.233053	0.286365	1.015723	0.659966	0.092237	0.195711	0.478146	0.325166	0.084479	0.224302	0.292913	0.162789	0.338835	0.175079	0.133586	0.157483	0.133964	0.154130	0.296373	0.370514	0.529040	0.307272	0.033687	0.075354	0.150880	0.215499	0.596036	0.724533	0.092595	0.090730	0.280786	0.116631	0.321403	0.325663	0.421568	0.852994	0.048762	0.235187	0.225173	0.206533	0.197655	0.209751	0.640426	1.056439	0.384869	0.212928	0.182934	0.155277	0.528389	0.546581	0.522136	0.365481	0.131448	0.226951	0.299027	0.288038	0.072441	0.108357	0.620723	0.654661	0.108090	0.405610	0.114901	0.230039	0.181181	0.281254	0.777088	0.520894	0.047869	0.154625	0.304929	0.100502
90	0.312863	0.422849	0.340958	0.752848	0.287719	0.247827	0.299515	0.093193	0.256198	0.323353	0.939649	0.664154	0.101418	0.183689	0.460406	0.333982	0.101596	0.309642	0.292871	0.161886	0.345019	0.171174	0.134463	0.161407	0.130326	0.163959	0.318815	0.434699	0.661505	0.355072	0.026867	0.075461	0.151505	0.216467	0.547099	0.726660	0.098109	0.090169	0.226672	0.116873	0.322652	0.326821	0.413515	0.942297	0.050090	0.237977	0.221005	0.208928	0.228919	0.249866	0.681599	1.187452	0.399289	0.203488	0.130937	0.130377	0.489971	0.532188	0.561874	0.363547	0.127927	0.258283	0.305961	0.293110	0.107109	0.164393	0.609188	0.580380	0.108056	0.406115	0.109003	0.222384	0.196443	0.292819	0.775147	0.497049	0.051116	0.152004	0.251146	0.089838
91	0.304715	0.381624	0.334327	0.675193	0.269367	0.231417	0.336806	0.084047	0.232116	0.307908	0.908099	0.637809	0.105436	0.153589	0.457683	0.333428	0.112485	0.386822	0.290596	0.152209	0.346213	0.171284	0.134528	0.160188	0.137233	0.170562	0.328134	0.383433	0.690127	0.350067	0.017275	0.070049	0.151852	0.208408	0.405601	0.592425	0.095417	0.084991	0.185399	0.134784	0.298852	0.328773	0.413100	1.023643	0.054323	0.240336	0.221099	0.199484	0.322628	0.359497	0.730836	1.227769	0.379866	0.165918	0.087239	0.124808	0.473904	0.536242	0.564456	0.369317	0.131146	0.253037	0.311473	0.294016	0.116940	0.190742	0.679900	0.572972	0.108895	0.406112	0.106586	0.238467	0.200275	0.291200	0.775869	0.481724	0.055059	0.145447	0.204781	0.102377
92	0.291196	0.350766	0.319984	0.636785	0.240610	0.213162	0.358438	0.078812	0.221250	0.377161	0.798001	0.566845	0.107559	0.162434	0.425406	0.343713	0.110854	0.393064	0.306700	0.156841	0.338575	0.171758	0.134829	0.144300	0.154679	0.186078	0.344133	0.486534	0.698022	0.323614	0.016307	0.065075	0.156069	0.200379	0.371839	0.605579	0.099492	0.075764	0.137693	0.145950	0.301949	0.340969	0.387137	0.963674	0.058194	0.239919	0.198800	0.199491	0.395217	0.441306	0.733048	1.229117	0.371670	0.157206	0.094367	0.092832	0.461228	0.519435	0.551243	0.336166	0.141927	0.251124	0.310718	0.280785	0.122735	0.185851	0.734347	0.582403	0.108196	0.377825	0.120888	0.259107	0.189072	0.263342	0.761144	0.351584	0.084706	0.200298	0.203559	0.104337
93	0.273693	0.337395	0.343500	0.629263	0.225155	0.208159	0.353086	0.073519	0.215886	0.451335	0.642086	0.548812	0.107088	0.159673	0.387456	0.393170	0.111984	0.395821	0.323970	0.176694	0.318186	0.172362	0.135653	0.129065	0.146558	0.183784	0.404773	0.561644	0.698378	0.308215	0.016392	0.065855	0.162819	0.208043	0.338617	0.608759	0.142175	0.079341	0.121250	0.143441	0.313404	0.340682	0.406563	1.000344	0.063309	0.219078	0.194896	0.197019	0.440212	0.477667	0.709580	1.170016	0.390456	0.160858	0.095208	0.082801	0.371743	0.519780	0.541018	0.330621	0.138416	0.248253	0.312480	0.278031	0.135985	0.187711	0.720455	0.568648	0.111672	0.356744	0.133470	0.257908	0.168479	0.228777	0.651379	0.319704	0.093746	0.243634	0.214405	0.101206
94	0.250919	0.323335	0.359621	0.628971	0.222923	0.211960	0.330604	0.075295	0.208469	0.531994	0.639209	0.484603	0.101563	0.154479	0.371636	0.428761	0.120557	0.398358	0.321198	0.173743	0.306761	0.181692	0.135788	0.106807	0.180276	0.211751	0.498374	0.553174	0.694193	0.306262	0.018466	0.076140	0.144268	0.161433	0.326842	0.588947	0.166031	0.085283	0.119635	0.139374	0.298427	0.341615	0.432124	1.130430	0.063650	0.151453	0.166258	0.167578	0.442898	0.472878	0.651755	1.043493	0.397777	0.157529	0.097144	0.074555	0.264769	0.498517	0.548402	0.343208	0.134085	0.230108	0.348804	0.258349	0.135108	0.191409	0.732295	0.628570	0.118569	0.360704	0.114108	0.250169	0.150809	0.209623	0.619279	0.366709	0.094360	0.255920	0.214281	0.101854
95	0.238445	0.318546	0.359160	0.613300	0.216983	0.218451	0.332538	0.058462	0.208835	0.600163	0.647023	0.427862	0.090722	0.150384	0.364116	0.433910	0.122326	0.402465	0.329924	0.180333	0.350568	0.211623	0.135888	0.084151	0.239120	0.241148	0.548809	0.551321	0.661318	0.303145	0.018761	0.076973	0.148244	0.152260	0.450585	0.557770	0.168583	0.085649	0.115710	0.135787	0.288672	0.362665	0.435771	1.144695	0.062062	0.137421	0.116314	0.145351	0.449129	0.475093	0.608845	1.029814	0.398840	0.152988	0.098672	0.081997	0.229723	0.353298	0.580146	0.334966	0.133526	0.226401	0.369315	0.158713	0.134168	0.196442	0.723938	0.689965	0.121418	0.351863	0.101790	0.237715	0.159056	0.225973	0.395756	0.366015	0.101351	0.261386	0.209791	0.095843
96	0.236234	0.320319	0.358762	0.546035	0.182913	0.200235	0.327046	0.059994	0.211429	0.606295	0.537082	0.372961	0.083984	0.150342	0.262388	0.420030	0.130088	0.410823	0.324168	0.195182	0.459031	0.261148	0.114878	0.070488	0.258987	0.258606	0.580519	0.453877	0.600778	0.283208	0.020469	0.075007	0.171227	0.183507	0.675161	0.541134	0.171046	0.090299	0.108356	0.130098	0.309716	0.415930	0.400496	1.060349	0.060842	0.140141	0.106562	0.146322	0.460095	0.489225	0.476118	0.998260	0.407097	0.158216	0.098634	0.074342	0.232345	0.266464	0.504675	0.317789	0.140374	0.228796	0.377298	0.133270	0.134857	0.197683	0.657113	0.725280	0.121890	0.346369	0.101090	0.211542	0.154054	0.228796	0.237539	0.360616	0.106103	0.280153	0.201798	0.085289
97	0.236500	0.312762	0.352151	0.407118	0.114146	0.145140	0.328221	0.067922	0.180903	0.581665	0.384664	0.796530	0.082782	0.143475	0.144816	0.364574	0.131339	0.409699	0.306569	0.198898	0.612739	0.312566	0.100752	0.070724	0.260319	0.256866	0.555445	0.459670	0.558719	0.269075	0.026221	0.073502	0.194631	0.223257	0.684697	0.587462	0.182386	0.098996	0.095783	0.128696	0.341289	0.449720	0.436029	1.048109	0.058597	0.130909	0.136098	0.150454	0.450671	0.480828	0.428156	0.766371	0.520163	0.225889	0.098458	0.079223	0.228802	0.267986	0.486867	0.299707	0.133655	0.230614	0.391306	0.121730	0.140926	0.197059	0.608432	0.721422	0.113364	0.326734	0.105811	0.195065	0.157483	0.235762	0.226217	0.365134	0.109043	0.295752	0.186470	0.081575
98	0.215351	0.273694	0.351862	0.291635	0.049149	0.125119	0.323630	0.069874	0.155937	0.572080	0.353430	1.130562	0.070520	0.122595	0.143547	0.326403	0.128279	0.399400	0.304621	0.197666	0.698292	0.324833	0.084098	0.073932	0.246493	0.240264	0.696278	0.427305	0.553818	0.269077	0.036797	0.077704	0.237432	0.263086	0.698360	0.605151	0.196051	0.103949	0.078580	0.131114	0.310150	0.413346	0.484002	1.011844	0.052856	0.124975	0.136248	0.150441	0.460229	0.469888	0.354243	0.550711	0.636640	0.307139	0.097829	0.083186	0.212009	0.252834	0.476757	0.310019	0.118062	0.225339	0.392949	0.107960	0.146228	0.198156	0.637780	0.760244	0.084527	0.228391	0.104644	0.184842	0.157339	0.228807	0.252687	0.348599	0.112973	0.286175	0.161962	0.078898
99	0.174769	0.214540	0.350835	0.238129	0.040244	0.142102	0.331074	0.080929	0.166812	0.578611	0.369233	1.163697	0.043427	0.098587	0.132128	0.313441	0.128439	0.371522	0.355830	0.238696	0.700865	0.331027	0.063361	0.069591	0.247980	0.242831	0.690079	0.371562	0.474476	0.243920	0.039340	0.076653	0.247596	0.280910	0.716889	0.643269	0.210336	0.108953	0.060184	0.130938	0.325459	0.443889	0.512046	0.872636	0.052253	0.118875	0.131026	0.127859	0.449832	0.488058	0.253074	0.446119	0.687783	0.341751	0.092524	0.084242	0.192994	0.236979	0.507602	0.320342	0.118186	0.187200	0.395216	0.100039	0.140774	0.178433	0.687428	0.844163	0.071343	0.211512	0.104673	0.179264	0.147870	0.192764	0.342540	0.353421	0.114246	0.278509	0.139538	0.071008
100	0.150582	0.173342	0.349104	0.233880	0.042462	0.138086	0.349685	0.086891	0.178137	0.554520	0.421473	1.233092	0.033362	0.077510	0.114777	0.315239	0.127982	0.362488	0.336707	0.246401	0.741647	0.371974	0.043148	0.060366	0.320647	0.321762	0.612457	0.376168	0.260929	0.148349	0.040748	0.080709	0.276610	0.311743	0.703050	0.674464	0.207296	0.107946	0.052134	0.128098	0.318521	0.438217	0.523304	0.781605	0.053760	0.099770	0.145754	0.110028	0.395534	0.435438	0.375054	0.412967	0.699013	0.346908	0.091159	0.091109	0.188130	0.236831	0.645348	0.308553	0.123895	0.163672	0.383069	0.128807	0.125351	0.157716	0.650464	0.864403	0.075304	0.252079	0.106634	0.172076	0.161314	0.174488	0.413270	0.474254	0.113771	0.292356	0.119635	0.075132
101	0.169044	0.165380	0.337107	0.192180	0.045854	0.137163	0.329662	0.096842	0.182854	0.478154	0.413764	1.436604	0.027634	0.059721	0.112893	0.303082	0.119416	0.340982	0.313721	0.243094	0.933487	0.477787	0.039456	0.052086	0.318042	0.347483	0.657346	0.415346	0.179895	0.105380	0.050174	0.092894	0.325715	0.347463	0.426804	0.694369	0.206900	0.112316	0.077558	0.120560	0.291659	0.423933	0.501291	0.779418	0.049891	0.092121	0.171065	0.111711	0.345864	0.393939	0.426116	0.403811	0.694325	0.346121	0.085556	0.099941	0.202641	0.247407	0.785232	0.296369	0.109859	0.155034	0.374123	0.153591	0.124538	0.162526	0.556099	0.838688	0.073859	0.257005	0.108119	0.138561	0.170836	0.175063	0.426237	0.680660	0.110220	0.290697	0.112372	0.076073
