	232_C_T1_sh_L_ND_01.c3d	232_C_T1_sh_L_ND_01.c3d	232_C_T1_sh_L_ND_01.c3d	232_C_T1_sh_L_ND_01.c3d	232_C_T1_sh_L_ND_01.c3d	232_C_T1_sh_L_ND_01.c3d	232_C_T1_sh_L_ND_01.c3d	232_C_T1_sh_L_ND_01.c3d	232_C_T1_sh_L_ND_02.c3d	232_C_T1_sh_L_ND_02.c3d	232_C_T1_sh_L_ND_02.c3d	232_C_T1_sh_L_ND_02.c3d	232_C_T1_sh_L_ND_02.c3d	232_C_T1_sh_L_ND_02.c3d	232_C_T1_sh_L_ND_02.c3d	232_C_T1_sh_L_ND_02.c3d	232_C_T1_sh_L_ND_03.c3d	232_C_T1_sh_L_ND_03.c3d	232_C_T1_sh_L_ND_03.c3d	232_C_T1_sh_L_ND_03.c3d	232_C_T1_sh_L_ND_03.c3d	232_C_T1_sh_L_ND_03.c3d	232_C_T1_sh_L_ND_03.c3d	232_C_T1_sh_L_ND_03.c3d	232_C_T1_sh_L_ND_05.c3d	232_C_T1_sh_L_ND_05.c3d	232_C_T1_sh_L_ND_05.c3d	232_C_T1_sh_L_ND_05.c3d	232_C_T1_sh_L_ND_05.c3d	232_C_T1_sh_L_ND_05.c3d	232_C_T1_sh_L_ND_05.c3d	232_C_T1_sh_L_ND_05.c3d	232_C_T1_sh_L_ND_06.c3d	232_C_T1_sh_L_ND_06.c3d	232_C_T1_sh_L_ND_06.c3d	232_C_T1_sh_L_ND_06.c3d	232_C_T1_sh_L_ND_06.c3d	232_C_T1_sh_L_ND_06.c3d	232_C_T1_sh_L_ND_06.c3d	232_C_T1_sh_L_ND_06.c3d	232_C_T1_sh_L_ND_07.c3d	232_C_T1_sh_L_ND_07.c3d	232_C_T1_sh_L_ND_07.c3d	232_C_T1_sh_L_ND_07.c3d	232_C_T1_sh_L_ND_07.c3d	232_C_T1_sh_L_ND_07.c3d	232_C_T1_sh_L_ND_07.c3d	232_C_T1_sh_L_ND_07.c3d	232_C_T1_sh_L_ND_08.c3d	232_C_T1_sh_L_ND_08.c3d	232_C_T1_sh_L_ND_08.c3d	232_C_T1_sh_L_ND_08.c3d	232_C_T1_sh_L_ND_08.c3d	232_C_T1_sh_L_ND_08.c3d	232_C_T1_sh_L_ND_08.c3d	232_C_T1_sh_L_ND_08.c3d	232_C_T1_sh_L_ND_09.c3d	232_C_T1_sh_L_ND_09.c3d	232_C_T1_sh_L_ND_09.c3d	232_C_T1_sh_L_ND_09.c3d	232_C_T1_sh_L_ND_09.c3d	232_C_T1_sh_L_ND_09.c3d	232_C_T1_sh_L_ND_09.c3d	232_C_T1_sh_L_ND_09.c3d	232_C_T1_sh_L_ND_10.c3d	232_C_T1_sh_L_ND_10.c3d	232_C_T1_sh_L_ND_10.c3d	232_C_T1_sh_L_ND_10.c3d	232_C_T1_sh_L_ND_10.c3d	232_C_T1_sh_L_ND_10.c3d	232_C_T1_sh_L_ND_10.c3d	232_C_T1_sh_L_ND_10.c3d
	Biceps femoris_lat	Semitendinosus_lat	Vastus lateralis_lat	Vastus medialis_lat	Biceps femoris_med	Semitendinosus_med	Vastus lateralis_med	Vastus medialis_med	Biceps femoris_lat	Semitendinosus_lat	Vastus lateralis_lat	Vastus medialis_lat	Biceps femoris_med	Semitendinosus_med	Vastus lateralis_med	Vastus medialis_med	Biceps femoris_lat	Semitendinosus_lat	Vastus lateralis_lat	Vastus medialis_lat	Biceps femoris_med	Semitendinosus_med	Vastus lateralis_med	Vastus medialis_med	Biceps femoris_lat	Semitendinosus_lat	Vastus lateralis_lat	Vastus medialis_lat	Biceps femoris_med	Semitendinosus_med	Vastus lateralis_med	Vastus medialis_med	Biceps femoris_lat	Semitendinosus_lat	Vastus lateralis_lat	Vastus medialis_lat	Biceps femoris_med	Semitendinosus_med	Vastus lateralis_med	Vastus medialis_med	Biceps femoris_lat	Semitendinosus_lat	Vastus lateralis_lat	Vastus medialis_lat	Biceps femoris_med	Semitendinosus_med	Vastus lateralis_med	Vastus medialis_med	Biceps femoris_lat	Semitendinosus_lat	Vastus lateralis_lat	Vastus medialis_lat	Biceps femoris_med	Semitendinosus_med	Vastus lateralis_med	Vastus medialis_med	Biceps femoris_lat	Semitendinosus_lat	Vastus lateralis_lat	Vastus medialis_lat	Biceps femoris_med	Semitendinosus_med	Vastus lateralis_med	Vastus medialis_med	Biceps femoris_lat	Semitendinosus_lat	Vastus lateralis_lat	Vastus medialis_lat	Biceps femoris_med	Semitendinosus_med	Vastus lateralis_med	Vastus medialis_med
	P2D	P2D	P2D	P2D	P2D	P2D	P2D	P2D	P2D	P2D	P2D	P2D	P2D	P2D	P2D	P2D	P2D	P2D	P2D	P2D	P2D	P2D	P2D	P2D	P2D	P2D	P2D	P2D	P2D	P2D	P2D	P2D	P2D	P2D	P2D	P2D	P2D	P2D	P2D	P2D	P2D	P2D	P2D	P2D	P2D	P2D	P2D	P2D	P2D	P2D	P2D	P2D	P2D	P2D	P2D	P2D	P2D	P2D	P2D	P2D	P2D	P2D	P2D	P2D	P2D	P2D	P2D	P2D	P2D	P2D	P2D	P2D
	EMG_lat	EMG_lat	EMG_lat	EMG_lat	EMG_med	EMG_med	EMG_med	EMG_med	EMG_lat	EMG_lat	EMG_lat	EMG_lat	EMG_med	EMG_med	EMG_med	EMG_med	EMG_lat	EMG_lat	EMG_lat	EMG_lat	EMG_med	EMG_med	EMG_med	EMG_med	EMG_lat	EMG_lat	EMG_lat	EMG_lat	EMG_med	EMG_med	EMG_med	EMG_med	EMG_lat	EMG_lat	EMG_lat	EMG_lat	EMG_med	EMG_med	EMG_med	EMG_med	EMG_lat	EMG_lat	EMG_lat	EMG_lat	EMG_med	EMG_med	EMG_med	EMG_med	EMG_lat	EMG_lat	EMG_lat	EMG_lat	EMG_med	EMG_med	EMG_med	EMG_med	EMG_lat	EMG_lat	EMG_lat	EMG_lat	EMG_med	EMG_med	EMG_med	EMG_med	EMG_lat	EMG_lat	EMG_lat	EMG_lat	EMG_med	EMG_med	EMG_med	EMG_med
ITEM	Y	Y	Y	Y	Y	Y	Y	Y	Y	Y	Y	Y	Y	Y	Y	Y	Y	Y	Y	Y	Y	Y	Y	Y	Y	Y	Y	Y	Y	Y	Y	Y	Y	Y	Y	Y	Y	Y	Y	Y	Y	Y	Y	Y	Y	Y	Y	Y	Y	Y	Y	Y	Y	Y	Y	Y	Y	Y	Y	Y	Y	Y	Y	Y	Y	Y	Y	Y	Y	Y	Y	Y
1	0.133641	0.352893	0.296618	0.246947	0.098960	0.200950	0.209305	0.214682	0.262174	0.438287	0.260723	0.302337	0.175320	0.460596	0.302723	0.109773	0.184780	0.182870	0.225620	0.266005	0.131974	0.330994	0.153592	0.211147	0.200816	0.505381	0.196605	0.182350	0.111944	0.387070	0.221459	0.210092	0.276130	0.450547	0.707503	0.615305	0.053062	0.297859	0.411380	0.441600	0.426204	0.565961	0.243409	0.121656	0.078686	0.238806	0.216185	0.211011	0.164104	0.696743	0.281114	0.190876	0.200300	0.268809	0.217546	0.164774	0.090239	0.180023	0.298722	0.139449	0.048815	0.346663	0.475907	0.333176	0.075862	0.122310	0.415818	0.148170	0.094515	0.190922	0.102930	0.232569
2	0.132226	0.347192	0.288960	0.214396	0.102629	0.207004	0.202335	0.235232	0.195752	0.421663	0.276503	0.324341	0.153763	0.419013	0.303668	0.138053	0.189067	0.207199	0.367745	0.298678	0.122516	0.353934	0.152776	0.206522	0.196774	0.508449	0.195746	0.188612	0.113181	0.367891	0.226138	0.231565	0.272484	0.431416	0.718464	0.592355	0.056869	0.308220	0.418953	0.441668	0.417289	0.505088	0.234778	0.152418	0.070081	0.203060	0.218718	0.191110	0.194280	0.698541	0.274437	0.189349	0.193465	0.198106	0.247185	0.163034	0.090445	0.184579	0.304757	0.157843	0.053895	0.347747	0.448216	0.319731	0.076972	0.125524	0.438548	0.177847	0.066066	0.156211	0.220542	0.234175
3	0.133693	0.338420	0.253058	0.195404	0.103857	0.236310	0.190305	0.214006	0.146011	0.417065	0.288301	0.327919	0.148125	0.390389	0.306104	0.151489	0.178296	0.214018	0.427718	0.326052	0.111673	0.351330	0.231482	0.202517	0.194174	0.517381	0.169013	0.179105	0.114898	0.336830	0.225066	0.244690	0.272321	0.403407	0.745290	0.592619	0.053010	0.287618	0.425910	0.443977	0.352394	0.384720	0.227705	0.182677	0.041860	0.190610	0.229548	0.184944	0.206078	0.696438	0.272274	0.196467	0.151523	0.142583	0.252586	0.178599	0.093787	0.176244	0.306302	0.146699	0.063781	0.371979	0.406058	0.318450	0.076532	0.125692	0.482023	0.206414	0.048609	0.154871	0.251314	0.238367
4	0.133266	0.336608	0.229721	0.259672	0.101645	0.241113	0.180997	0.191498	0.105628	0.417259	0.293082	0.328136	0.144299	0.394763	0.313064	0.149545	0.165287	0.218433	0.449904	0.324548	0.109507	0.349857	0.294096	0.203582	0.193599	0.534157	0.169777	0.172781	0.117477	0.338412	0.221788	0.239758	0.269507	0.350229	0.766170	0.606097	0.048937	0.261098	0.424369	0.460738	0.231131	0.253817	0.225846	0.182345	0.030738	0.204526	0.245735	0.184071	0.210804	0.595700	0.219451	0.193386	0.104448	0.142636	0.246231	0.186910	0.072136	0.147052	0.286581	0.141852	0.069074	0.407787	0.402096	0.316745	0.075990	0.124078	0.530212	0.228393	0.048373	0.156212	0.250385	0.236599
5	0.137090	0.333937	0.286826	0.285124	0.091127	0.272687	0.177214	0.187748	0.099042	0.423973	0.301975	0.336005	0.118812	0.391136	0.316873	0.148397	0.167619	0.247668	0.507814	0.319673	0.099308	0.354556	0.303612	0.204596	0.161144	0.481583	0.222870	0.162322	0.117559	0.336051	0.222509	0.229409	0.263472	0.297829	0.783082	0.626953	0.048306	0.258409	0.385648	0.444856	0.120088	0.223464	0.202255	0.186128	0.030943	0.203324	0.261824	0.194111	0.216221	0.481689	0.226468	0.163673	0.089727	0.142552	0.242633	0.186039	0.070569	0.138285	0.295041	0.158798	0.072409	0.443425	0.398334	0.316772	0.069708	0.113516	0.577701	0.231214	0.059747	0.151476	0.262770	0.218676
6	0.134414	0.304307	0.379571	0.363985	0.081010	0.285544	0.182801	0.183255	0.099339	0.434903	0.388653	0.349675	0.095630	0.367826	0.316824	0.159640	0.163117	0.251458	0.530765	0.346092	0.086921	0.359500	0.304242	0.202549	0.131550	0.284823	0.236674	0.187319	0.116612	0.319124	0.222126	0.231927	0.270338	0.297128	0.811458	0.642957	0.048611	0.285857	0.362120	0.422794	0.115747	0.218894	0.259743	0.198389	0.031204	0.205033	0.257572	0.186763	0.217239	0.443946	0.213519	0.156785	0.081707	0.140018	0.239334	0.193996	0.068298	0.130500	0.281980	0.175557	0.072914	0.436824	0.373180	0.325633	0.065986	0.112541	0.598132	0.230956	0.067843	0.142422	0.263687	0.172558
7	0.129199	0.251203	0.387906	0.558168	0.080557	0.298777	0.185067	0.188748	0.103367	0.448656	0.473130	0.370302	0.077713	0.282443	0.295991	0.196583	0.126865	0.258230	0.526991	0.355648	0.069015	0.330067	0.303805	0.196183	0.127598	0.259370	0.227222	0.240174	0.113245	0.292835	0.223652	0.244886	0.273740	0.304148	0.834287	0.625517	0.048218	0.300555	0.372264	0.471450	0.113391	0.215199	0.246405	0.225846	0.031502	0.200197	0.268938	0.182481	0.206415	0.284568	0.179470	0.143783	0.062304	0.114309	0.252820	0.194304	0.067725	0.098557	0.276712	0.177156	0.080123	0.428733	0.365209	0.328864	0.065604	0.116920	0.600940	0.228668	0.066387	0.113097	0.266889	0.193836
8	0.124475	0.245265	0.389737	0.586119	0.093046	0.354630	0.180217	0.260381	0.104716	0.458728	0.490668	0.370797	0.077681	0.252282	0.268377	0.212552	0.094300	0.235559	0.523673	0.368661	0.057051	0.298430	0.305982	0.181936	0.108710	0.242854	0.240274	0.259434	0.104433	0.259761	0.231666	0.249819	0.269701	0.304507	0.838406	0.615882	0.055523	0.305071	0.425950	0.513881	0.114352	0.206228	0.274144	0.323673	0.037387	0.188237	0.294352	0.174906	0.187340	0.220432	0.196558	0.136304	0.059030	0.089874	0.281916	0.171518	0.063546	0.078694	0.272335	0.173595	0.101838	0.444353	0.362173	0.450317	0.063833	0.116443	0.601231	0.229328	0.064294	0.111018	0.266993	0.211518
9	0.098770	0.207779	0.385885	0.586428	0.102319	0.374922	0.167272	0.277178	0.097691	0.456479	0.498261	0.360403	0.084855	0.258875	0.262199	0.235128	0.120543	0.272209	0.537477	0.349881	0.054586	0.278468	0.321922	0.170030	0.082430	0.241188	0.242309	0.252940	0.098773	0.250528	0.232132	0.248642	0.268277	0.290303	0.834178	0.614704	0.057746	0.311027	0.452037	0.532414	0.092577	0.173747	0.295687	0.400782	0.044678	0.186644	0.297339	0.174033	0.171562	0.144226	0.279725	0.189317	0.068517	0.079655	0.278345	0.155212	0.056202	0.075456	0.233612	0.178271	0.119323	0.467963	0.386457	0.614202	0.062218	0.116261	0.604049	0.223105	0.063887	0.112134	0.268858	0.198757
10	0.074473	0.132025	0.390757	0.594763	0.092415	0.374093	0.192851	0.276325	0.096958	0.430168	0.509641	0.330278	0.085627	0.254411	0.255157	0.306023	0.131061	0.285667	0.542902	0.352970	0.046847	0.270812	0.335152	0.159216	0.084884	0.240051	0.268083	0.278746	0.099775	0.254044	0.223659	0.251481	0.261817	0.252269	0.831180	0.613644	0.060098	0.329331	0.454833	0.539709	0.057052	0.135045	0.300645	0.406853	0.042802	0.176218	0.295071	0.169895	0.151538	0.076879	0.304018	0.250465	0.074964	0.089337	0.278455	0.148216	0.056430	0.060980	0.207028	0.214865	0.129223	0.490617	0.402315	0.669134	0.062336	0.117017	0.609971	0.220710	0.063942	0.103476	0.265256	0.193936
11	0.073851	0.121780	0.383534	0.623253	0.081074	0.377244	0.226289	0.352854	0.096516	0.349071	0.508852	0.328058	0.087092	0.250729	0.207959	0.317334	0.130595	0.271706	0.454533	0.312349	0.045085	0.229395	0.343159	0.117964	0.089435	0.252566	0.301559	0.298900	0.100746	0.259321	0.206939	0.232305	0.230576	0.196451	0.830392	0.613538	0.064071	0.349829	0.456112	0.550743	0.076265	0.138410	0.358739	0.425468	0.048724	0.184515	0.288665	0.164029	0.110658	0.087834	0.297973	0.256935	0.066807	0.096434	0.261006	0.167849	0.047873	0.063668	0.257431	0.243879	0.134175	0.502319	0.403763	0.641844	0.063320	0.117743	0.613397	0.220519	0.063268	0.115251	0.266804	0.193605
12	0.074078	0.116136	0.406703	0.632014	0.084931	0.367429	0.243477	0.341207	0.099066	0.311493	0.518547	0.345806	0.094742	0.246798	0.174904	0.327109	0.131559	0.268542	0.435527	0.318809	0.052166	0.165529	0.347839	0.099689	0.093234	0.233927	0.326197	0.299041	0.096757	0.255897	0.179727	0.211465	0.168108	0.158657	0.805761	0.628198	0.066721	0.345364	0.457042	0.554956	0.091038	0.139564	0.394036	0.472794	0.055313	0.184281	0.257807	0.153642	0.104837	0.086306	0.343867	0.271033	0.063297	0.115353	0.224109	0.193996	0.046224	0.080136	0.262881	0.250319	0.134514	0.503013	0.399312	0.646156	0.061345	0.113859	0.611958	0.220571	0.067642	0.137224	0.284634	0.198140
13	0.071593	0.084296	0.458793	0.651116	0.086879	0.349245	0.294312	0.344692	0.104151	0.308462	0.528197	0.349595	0.100723	0.239118	0.176750	0.334973	0.133509	0.267495	0.394820	0.403437	0.054922	0.146757	0.330654	0.100355	0.081537	0.214152	0.300010	0.308224	0.095591	0.249360	0.182127	0.241188	0.109550	0.141120	0.666384	0.610605	0.061214	0.312107	0.431265	0.543122	0.099819	0.131836	0.415927	0.517056	0.056120	0.178355	0.250073	0.173636	0.080353	0.087210	0.365438	0.278572	0.060562	0.123855	0.205111	0.188623	0.053271	0.092714	0.246594	0.275908	0.141605	0.504651	0.384180	0.712694	0.059319	0.104806	0.553513	0.220494	0.071044	0.147508	0.251682	0.238915
14	0.074138	0.077776	0.501643	0.648592	0.087743	0.340764	0.306568	0.366278	0.110963	0.282578	0.548647	0.320770	0.097077	0.225010	0.173240	0.360214	0.128390	0.239660	0.306513	0.415450	0.055224	0.146567	0.253047	0.100574	0.071935	0.213891	0.288984	0.300459	0.093656	0.235917	0.196668	0.269132	0.103190	0.136795	0.537691	0.545252	0.052104	0.274355	0.408659	0.550784	0.098314	0.125879	0.421403	0.528245	0.055723	0.152699	0.249007	0.175729	0.065769	0.095643	0.371164	0.284785	0.064783	0.130315	0.206269	0.166764	0.053694	0.098299	0.286454	0.261830	0.162148	0.513480	0.387432	0.754311	0.064983	0.090920	0.501395	0.221539	0.070316	0.150311	0.182850	0.255384
15	0.070103	0.083573	0.515468	0.623352	0.085505	0.287661	0.304916	0.368023	0.112664	0.246332	0.553000	0.277904	0.092425	0.217102	0.202265	0.374510	0.125863	0.239158	0.287135	0.367470	0.059321	0.141832	0.231109	0.098015	0.074130	0.213406	0.331308	0.306669	0.087721	0.218275	0.195527	0.273062	0.105325	0.124816	0.500309	0.498011	0.053587	0.273701	0.396637	0.568898	0.094526	0.125653	0.414014	0.527536	0.055462	0.120948	0.235463	0.178769	0.064002	0.095537	0.400118	0.287730	0.071646	0.134217	0.206673	0.163491	0.052594	0.093443	0.356185	0.267972	0.170198	0.511300	0.429002	0.772987	0.061998	0.081336	0.494024	0.235434	0.066454	0.160086	0.176069	0.249767
16	0.067075	0.085175	0.445177	0.599493	0.085289	0.275458	0.300593	0.373965	0.102366	0.251492	0.544580	0.267761	0.091208	0.193148	0.235715	0.381402	0.126121	0.226893	0.265983	0.365625	0.061669	0.124553	0.227300	0.097859	0.074756	0.194571	0.319301	0.286048	0.084000	0.205230	0.195279	0.269475	0.106173	0.122693	0.500617	0.493767	0.056574	0.273667	0.346515	0.550313	0.094334	0.137557	0.388241	0.520353	0.056749	0.114893	0.210153	0.173587	0.064097	0.094007	0.434582	0.337553	0.075058	0.135588	0.204051	0.179615	0.052082	0.090878	0.358768	0.269272	0.169836	0.482974	0.467706	0.776114	0.058040	0.074107	0.488535	0.222608	0.059909	0.160974	0.176286	0.280405
17	0.066817	0.085734	0.426833	0.428310	0.083971	0.228076	0.293174	0.368858	0.095992	0.255277	0.545066	0.278065	0.089405	0.139484	0.244633	0.375889	0.117481	0.214318	0.258210	0.350382	0.062272	0.110585	0.226628	0.111650	0.074175	0.211650	0.315916	0.299981	0.081692	0.203564	0.186623	0.250649	0.105647	0.122953	0.475534	0.494399	0.057411	0.273325	0.311176	0.489921	0.094698	0.148060	0.403825	0.507241	0.062182	0.116996	0.203982	0.173731	0.068392	0.098037	0.423394	0.410821	0.074441	0.135746	0.207950	0.200130	0.052334	0.094336	0.438384	0.278163	0.168993	0.448667	0.489027	0.777026	0.058748	0.073916	0.448249	0.190661	0.042524	0.161083	0.184473	0.317651
18	0.065747	0.085836	0.435861	0.340409	0.065191	0.108041	0.283616	0.328386	0.094785	0.250522	0.553841	0.292927	0.088076	0.121615	0.273958	0.362471	0.083604	0.129957	0.208827	0.337158	0.062333	0.108403	0.229516	0.115149	0.072388	0.234647	0.317890	0.312719	0.081337	0.199289	0.220608	0.296902	0.105548	0.124963	0.420635	0.482830	0.056456	0.252673	0.313824	0.484366	0.091833	0.192590	0.372959	0.436562	0.064712	0.103848	0.193366	0.171024	0.072105	0.106378	0.398082	0.380186	0.073759	0.129783	0.169337	0.215122	0.053080	0.099865	0.498824	0.284018	0.168555	0.403375	0.495673	0.775062	0.061292	0.074453	0.381683	0.157723	0.037163	0.161200	0.185261	0.316069
19	0.056752	0.077759	0.443778	0.345646	0.056794	0.076395	0.300502	0.323885	0.094846	0.229212	0.531712	0.293639	0.079029	0.119337	0.281425	0.371613	0.072480	0.081063	0.343625	0.350750	0.065547	0.088251	0.235121	0.123589	0.061881	0.228151	0.321473	0.314627	0.083876	0.185861	0.268435	0.371786	0.105391	0.127457	0.368045	0.465211	0.055987	0.229235	0.306342	0.451713	0.093237	0.193115	0.351143	0.379544	0.063777	0.098523	0.150935	0.165968	0.067668	0.097943	0.414931	0.389022	0.068910	0.127470	0.115458	0.214878	0.055767	0.103179	0.540738	0.257194	0.167972	0.399275	0.497073	0.771942	0.062347	0.080128	0.295143	0.153356	0.036923	0.158221	0.182730	0.291773
20	0.042761	0.065696	0.426087	0.343952	0.055741	0.065046	0.289353	0.274424	0.093368	0.202158	0.448124	0.273635	0.070820	0.102087	0.285406	0.356515	0.064150	0.075151	0.442030	0.452089	0.068859	0.083256	0.261124	0.145649	0.045266	0.242370	0.302909	0.314484	0.086148	0.161205	0.299615	0.413407	0.095080	0.119745	0.308567	0.426197	0.052323	0.236438	0.237415	0.368972	0.087625	0.211682	0.343744	0.379253	0.058124	0.099708	0.142831	0.202331	0.060768	0.098774	0.410419	0.430719	0.057706	0.126048	0.122504	0.228432	0.053213	0.092554	0.563177	0.247932	0.159335	0.378235	0.489449	0.752430	0.062300	0.096021	0.230887	0.163987	0.036865	0.154087	0.203918	0.301332
21	0.040221	0.067508	0.433325	0.329983	0.048677	0.069980	0.286101	0.217800	0.087544	0.230597	0.405300	0.261443	0.070121	0.097791	0.303333	0.300613	0.060263	0.063060	0.448402	0.456743	0.066747	0.077803	0.271838	0.147716	0.042866	0.255789	0.302186	0.305476	0.089534	0.142109	0.309045	0.419329	0.064330	0.119089	0.212542	0.395949	0.051719	0.396477	0.139392	0.292315	0.078392	0.282306	0.280975	0.383542	0.055895	0.099229	0.201367	0.238090	0.065838	0.101203	0.393923	0.433747	0.057724	0.114010	0.195611	0.228534	0.045546	0.087590	0.567575	0.220813	0.144409	0.312273	0.470407	0.620767	0.063408	0.168846	0.227902	0.171604	0.037625	0.155506	0.243246	0.317315
22	0.040979	0.094558	0.406497	0.380845	0.043072	0.217835	0.254934	0.215834	0.100238	0.614508	0.421772	0.279116	0.068327	0.096896	0.309079	0.292864	0.057061	0.054515	0.470539	0.397547	0.061501	0.073292	0.260778	0.174994	0.041867	0.258206	0.302326	0.304031	0.092288	0.136112	0.307067	0.409016	0.040706	0.160125	0.145233	0.394924	0.055149	0.504739	0.132585	0.286457	0.079322	0.295844	0.271524	0.362582	0.057085	0.088106	0.228240	0.240077	0.060547	0.093108	0.389645	0.431828	0.069978	0.110806	0.225655	0.210649	0.038728	0.081199	0.561467	0.210944	0.131077	0.242602	0.446377	0.513274	0.066659	0.278099	0.237039	0.175437	0.037965	0.150047	0.274292	0.325679
23	0.043476	0.103946	0.358303	0.370076	0.041622	0.279524	0.256588	0.200869	0.126984	0.945347	0.439191	0.287633	0.058445	0.101136	0.297972	0.278481	0.063009	0.067265	0.511357	0.493133	0.054963	0.078697	0.259103	0.196335	0.036566	0.266611	0.250020	0.270947	0.092596	0.134507	0.301608	0.403533	0.033304	0.205674	0.142900	0.371126	0.052456	0.499215	0.218912	0.297470	0.085911	0.316506	0.313808	0.378964	0.052772	0.081587	0.228050	0.244382	0.054082	0.088569	0.379427	0.428148	0.072750	0.091665	0.228042	0.194913	0.045845	0.084177	0.537784	0.278901	0.122888	0.213393	0.414011	0.472291	0.069174	0.359902	0.235350	0.178032	0.033813	0.120542	0.271004	0.327991
24	0.040577	0.112175	0.308808	0.355220	0.046582	0.287110	0.261552	0.265584	0.134859	1.072578	0.449177	0.281066	0.051420	0.111461	0.321617	0.288013	0.069856	0.086777	0.537892	0.514868	0.054990	0.132124	0.258083	0.212660	0.035009	0.307396	0.224771	0.250459	0.089948	0.120345	0.307329	0.404103	0.032047	0.253990	0.154947	0.347410	0.068042	0.571386	0.234638	0.383804	0.088507	0.326991	0.334365	0.373477	0.049591	0.083380	0.227556	0.235788	0.053747	0.093232	0.374677	0.426837	0.087667	0.126205	0.223527	0.199243	0.062063	0.096771	0.575665	0.324879	0.126558	0.210019	0.394102	0.472872	0.071450	0.385600	0.220497	0.255019	0.022126	0.097288	0.263264	0.320045
25	0.038530	0.132707	0.369756	0.369156	0.069023	0.333623	0.265099	0.308228	0.135752	1.095829	0.441546	0.285907	0.050905	0.102740	0.343718	0.317121	0.078763	0.100169	0.544915	0.534119	0.055336	0.174350	0.257353	0.217002	0.039583	0.305811	0.262848	0.260275	0.087590	0.111978	0.323374	0.405791	0.032295	0.291946	0.157542	0.341227	0.084143	0.639535	0.232879	0.563326	0.088964	0.329938	0.336739	0.385011	0.050902	0.080114	0.226242	0.236787	0.051834	0.090395	0.404286	0.354386	0.098870	0.121546	0.248217	0.223652	0.076405	0.112746	0.584004	0.329762	0.157569	0.216531	0.445010	0.421302	0.102565	0.401691	0.262884	0.416707	0.021603	0.095072	0.294023	0.320654
26	0.033683	0.146326	0.492027	0.475997	0.098434	0.404935	0.280108	0.298031	0.193235	1.349741	0.415508	0.303056	0.044645	0.104234	0.327771	0.350115	0.081954	0.104696	0.545902	0.538589	0.049825	0.177892	0.255590	0.217640	0.054290	0.325093	0.271120	0.246741	0.085367	0.093036	0.328663	0.416296	0.034143	0.303686	0.154760	0.335036	0.100838	0.665944	0.231471	0.664937	0.089188	0.328858	0.337163	0.433186	0.057237	0.091105	0.215377	0.246518	0.045338	0.089053	0.406822	0.318891	0.094347	0.123364	0.289795	0.238503	0.079990	0.116091	0.525395	0.331772	0.153722	0.201726	0.531257	0.338541	0.153770	0.530310	0.421480	0.507391	0.021871	0.074325	0.318912	0.320601
27	0.033592	0.157111	0.503509	0.539964	0.107984	0.452167	0.292286	0.339308	0.223030	1.486556	0.380710	0.308093	0.037615	0.096435	0.298788	0.350971	0.082763	0.105906	0.539791	0.551369	0.049517	0.180275	0.258248	0.211990	0.058211	0.316676	0.228410	0.222867	0.081693	0.067113	0.327941	0.429508	0.035902	0.304827	0.155871	0.300193	0.113478	0.678934	0.242064	0.657346	0.091845	0.320197	0.367653	0.499703	0.065718	0.108003	0.215084	0.251584	0.039771	0.085665	0.382579	0.317201	0.093062	0.139946	0.300585	0.222405	0.079065	0.110829	0.485732	0.337477	0.136144	0.184870	0.550870	0.277762	0.198842	0.658111	0.538387	0.527366	0.021854	0.074562	0.319811	0.312875
28	0.048210	0.216608	0.510681	0.552002	0.110874	0.455360	0.293135	0.386987	0.226015	1.538550	0.337309	0.307301	0.037778	0.107207	0.303498	0.369426	0.114544	0.145628	0.470704	0.564694	0.053334	0.198540	0.282185	0.214731	0.059377	0.281258	0.205250	0.250084	0.074978	0.048056	0.318955	0.424282	0.037863	0.341833	0.166868	0.279191	0.121914	0.688905	0.260904	0.652396	0.098295	0.300117	0.432511	0.525851	0.061403	0.108540	0.307854	0.247074	0.036856	0.094903	0.363189	0.255028	0.106065	0.209089	0.300226	0.194650	0.079353	0.111391	0.475576	0.398800	0.130460	0.185490	0.515660	0.260152	0.209292	0.696071	0.580977	0.538015	0.022492	0.073215	0.312001	0.267483
29	0.059745	0.261217	0.531756	0.630672	0.132776	0.476045	0.321850	0.402676	0.225991	1.553362	0.347445	0.305096	0.047182	0.104796	0.305741	0.441886	0.135764	0.172542	0.490094	0.495968	0.055230	0.222083	0.300483	0.221175	0.064801	0.262175	0.205371	0.277304	0.069951	0.070549	0.316350	0.414299	0.057749	0.402812	0.182213	0.359882	0.123673	0.691812	0.268902	0.699619	0.099496	0.301700	0.434409	0.531228	0.057395	0.106447	0.454719	0.266903	0.043411	0.083162	0.357229	0.175953	0.115535	0.284188	0.303021	0.192204	0.079035	0.108517	0.475389	0.407791	0.130150	0.205181	0.503467	0.274181	0.209001	0.704456	0.619848	0.534978	0.022638	0.074356	0.342529	0.243232
30	0.068247	0.263899	0.572861	0.712813	0.138244	0.484557	0.343505	0.403763	0.226851	1.552677	0.382725	0.310235	0.051537	0.103139	0.309756	0.476188	0.148007	0.190284	0.506676	0.479487	0.059410	0.262346	0.284128	0.272260	0.071338	0.260461	0.218184	0.279422	0.065704	0.102875	0.318754	0.413758	0.072536	0.474921	0.179746	0.414208	0.123974	0.692118	0.277387	0.782823	0.098272	0.284153	0.430437	0.526605	0.065388	0.131515	0.522520	0.323393	0.041575	0.084704	0.332027	0.166289	0.119450	0.295856	0.319717	0.204692	0.080183	0.100183	0.538558	0.439340	0.131055	0.225921	0.544196	0.286307	0.209407	0.706331	0.639623	0.556078	0.023484	0.071837	0.378162	0.296281
31	0.093784	0.268603	0.635729	0.725181	0.139019	0.476141	0.341668	0.402498	0.227012	1.553694	0.400938	0.301672	0.051654	0.107935	0.321537	0.478175	0.151824	0.194964	0.489031	0.452407	0.069190	0.278648	0.295151	0.382893	0.073313	0.255934	0.221812	0.280260	0.064912	0.148941	0.318170	0.424364	0.109286	0.509112	0.175651	0.420491	0.124443	0.692266	0.283460	0.850959	0.090823	0.215876	0.431331	0.504570	0.074448	0.152060	0.531097	0.316230	0.050298	0.089822	0.335724	0.193904	0.138567	0.309275	0.319311	0.198028	0.079866	0.101872	0.583457	0.456877	0.132210	0.227256	0.605217	0.295852	0.222273	0.709066	0.651359	0.648178	0.027508	0.085371	0.382713	0.361899
32	0.103190	0.261584	0.669453	0.694241	0.136578	0.417440	0.356302	0.403745	0.227172	1.554474	0.406253	0.283650	0.062864	0.134816	0.316882	0.506078	0.148673	0.188076	0.495183	0.347162	0.072240	0.282132	0.304385	0.439567	0.071917	0.197054	0.341401	0.336667	0.064941	0.175238	0.315058	0.425549	0.172212	0.510190	0.173733	0.421305	0.125253	0.691003	0.283357	0.875208	0.074042	0.197354	0.457096	0.471471	0.077017	0.152635	0.517979	0.298182	0.065365	0.102150	0.372030	0.378153	0.140231	0.309418	0.283657	0.197689	0.085282	0.115554	0.602271	0.427902	0.133254	0.229187	0.637229	0.302365	0.238475	0.715918	0.745544	0.726926	0.032118	0.091496	0.362645	0.348099
33	0.103302	0.257220	0.671565	0.675362	0.136416	0.398942	0.330589	0.388842	0.228698	1.555305	0.406746	0.287960	0.088906	0.187816	0.314993	0.553882	0.147389	0.192534	0.623537	0.496132	0.073317	0.281439	0.311158	0.436658	0.074746	0.186058	0.338122	0.385356	0.058737	0.178445	0.304184	0.384943	0.219825	0.513812	0.174460	0.438621	0.125947	0.651527	0.284017	0.881633	0.059373	0.154424	0.547243	0.423249	0.075406	0.153085	0.516649	0.325762	0.075584	0.111085	0.346097	0.421078	0.136098	0.309056	0.268350	0.200897	0.080581	0.107659	0.564422	0.419219	0.133595	0.227552	0.650058	0.305767	0.248673	0.724688	0.838766	0.733351	0.041796	0.100966	0.342691	0.337954
34	0.103780	0.256826	0.665456	0.696489	0.132458	0.388070	0.339351	0.321154	0.228996	1.556707	0.398738	0.318655	0.103212	0.219507	0.335809	0.576032	0.152471	0.204840	0.720010	0.541782	0.072343	0.269984	0.341314	0.475938	0.068349	0.109451	0.355526	0.365515	0.058086	0.214966	0.299831	0.315384	0.230864	0.515423	0.175548	0.460930	0.131695	0.547721	0.287746	0.882896	0.056936	0.126569	0.574853	0.425561	0.076812	0.178471	0.547010	0.374110	0.080470	0.119456	0.299489	0.429042	0.137093	0.303959	0.267988	0.202292	0.072566	0.092457	0.547154	0.415080	0.133104	0.208918	0.653913	0.305683	0.255202	0.727985	0.896544	0.731770	0.049411	0.107830	0.329034	0.361148
35	0.105085	0.241987	0.663466	0.686717	0.122193	0.370868	0.367762	0.396731	0.230093	1.510470	0.378743	0.349713	0.107261	0.237392	0.330852	0.565417	0.165178	0.208958	0.777064	0.543333	0.075281	0.242935	0.388480	0.552953	0.063347	0.077110	0.406534	0.410228	0.063906	0.270661	0.289328	0.284862	0.231714	0.514415	0.193199	0.490872	0.160295	0.517236	0.250492	0.877714	0.061087	0.116973	0.579719	0.424190	0.085539	0.218118	0.580175	0.373860	0.082827	0.114278	0.368274	0.496612	0.129211	0.294705	0.266716	0.190849	0.071883	0.090423	0.544823	0.394280	0.132897	0.181891	0.655031	0.305394	0.258178	0.720263	0.927758	0.729629	0.052055	0.114151	0.336235	0.444683
36	0.109404	0.236577	0.640934	0.646565	0.111385	0.311599	0.535352	0.771278	0.225269	1.337230	0.366900	0.372609	0.107313	0.241007	0.315227	0.556480	0.172985	0.212495	0.780238	0.540292	0.089285	0.240284	0.407824	0.599886	0.064465	0.088361	0.411363	0.449906	0.071475	0.308568	0.283487	0.298552	0.254755	0.509664	0.232251	0.508092	0.202692	0.504796	0.214987	0.854739	0.065375	0.111394	0.574688	0.445916	0.091133	0.235235	0.603703	0.394720	0.106491	0.138821	0.540732	0.528717	0.124425	0.310581	0.244341	0.157056	0.070872	0.092601	0.525419	0.343657	0.132180	0.165993	0.651419	0.302718	0.258723	0.690765	0.940387	0.728264	0.054512	0.133246	0.358111	0.444249
37	0.113241	0.227576	0.802417	0.570800	0.115417	0.294507	0.645656	0.935412	0.219634	1.179661	0.384819	0.378886	0.116487	0.241473	0.306470	0.587927	0.151425	0.201077	0.748975	0.572144	0.092398	0.248839	0.409579	0.605371	0.062347	0.096481	0.409909	0.434951	0.074475	0.316448	0.287589	0.331330	0.318725	0.496959	0.279939	0.517782	0.261150	0.379729	0.213906	0.771969	0.058839	0.119774	0.548891	0.439143	0.089804	0.238527	0.623273	0.415752	0.123790	0.171247	0.632551	0.534956	0.124452	0.365187	0.203735	0.138635	0.067316	0.108113	0.510105	0.320181	0.106354	0.163942	0.620071	0.260258	0.258387	0.649193	0.946941	0.727526	0.056846	0.156342	0.356603	0.429624
38	0.111784	0.210551	0.866156	0.573711	0.116776	0.290325	0.659868	0.939899	0.219960	1.150541	0.395929	0.377337	0.149576	0.266130	0.355892	0.629907	0.134926	0.184587	0.749718	0.588986	0.091080	0.240472	0.420360	0.605509	0.054465	0.089580	0.407326	0.441379	0.074852	0.324001	0.291686	0.361797	0.368177	0.482076	0.305274	0.521011	0.307668	0.339965	0.214413	0.653222	0.056411	0.129627	0.515340	0.436757	0.083446	0.241662	0.628286	0.411854	0.124655	0.182715	0.644210	0.533882	0.123045	0.382963	0.211405	0.141384	0.067980	0.112368	0.471321	0.308394	0.058822	0.164072	0.549524	0.213467	0.258174	0.625195	0.949365	0.729225	0.061507	0.158758	0.457622	0.470067
39	0.108518	0.131894	0.850160	0.607212	0.098918	0.258864	0.639531	1.000333	0.197588	1.003389	0.401996	0.349467	0.160721	0.280167	0.388687	0.630289	0.130734	0.175390	0.793850	0.592220	0.089291	0.227745	0.523572	0.632194	0.050789	0.088426	0.418786	0.439860	0.075972	0.345532	0.281746	0.371397	0.384818	0.458585	0.302493	0.521311	0.330259	0.309372	0.209986	0.614370	0.062286	0.134901	0.526546	0.456129	0.082112	0.247208	0.618629	0.437602	0.122661	0.182811	0.644838	0.529014	0.111302	0.347284	0.369000	0.151766	0.070983	0.164541	0.412667	0.244827	0.051062	0.166595	0.477073	0.191721	0.251571	0.621817	0.943535	0.670233	0.062082	0.168204	0.529853	0.557577
40	0.110517	0.143995	0.855453	0.549653	0.105448	0.254939	0.727506	1.123835	0.128990	0.631963	0.483896	0.338341	0.160934	0.294792	0.407487	0.632398	0.132038	0.179549	0.828657	0.595308	0.088799	0.186772	0.607609	0.690383	0.056323	0.133307	0.339110	0.414441	0.083590	0.378320	0.257622	0.372510	0.391613	0.439429	0.303144	0.521027	0.330600	0.284752	0.202409	0.612269	0.062350	0.131437	0.553124	0.531946	0.084409	0.249708	0.541653	0.502466	0.118228	0.179106	0.623944	0.492016	0.111246	0.388446	0.500784	0.200252	0.062557	0.239924	0.315494	0.179005	0.050985	0.160213	0.459951	0.190204	0.228438	0.552769	0.893334	0.591428	0.065208	0.181605	0.567409	0.579638
41	0.090828	0.139930	0.835151	0.507358	0.113565	0.258990	0.815049	1.236518	0.104120	0.409754	0.564152	0.334504	0.159818	0.299020	0.516228	0.681382	0.133267	0.185236	0.794241	0.573218	0.085754	0.147900	0.603996	0.745366	0.059408	0.171852	0.305475	0.347989	0.091694	0.396513	0.248961	0.392114	0.394199	0.433950	0.308742	0.526574	0.350279	0.276694	0.192155	0.586661	0.064407	0.130074	0.568356	0.563028	0.089951	0.254554	0.435421	0.504326	0.110906	0.172934	0.611944	0.372093	0.102047	0.403419	0.532264	0.239575	0.046548	0.246781	0.256649	0.135652	0.050802	0.152746	0.462499	0.171101	0.188109	0.370899	0.824161	0.566535	0.067586	0.184636	0.547163	0.577530
42	0.081379	0.151759	0.805869	0.539886	0.121095	0.276582	0.844341	1.274596	0.099732	0.270039	0.575982	0.335641	0.166111	0.302953	0.637989	0.809141	0.136195	0.249370	0.671744	0.423735	0.084629	0.134560	0.582204	0.707048	0.055019	0.172243	0.259974	0.344751	0.094441	0.397194	0.249498	0.405492	0.395942	0.431034	0.312723	0.527682	0.413015	0.299761	0.213834	0.506752	0.076567	0.138941	0.514987	0.556816	0.084912	0.238769	0.431899	0.488200	0.110283	0.173301	0.618825	0.368916	0.086414	0.407276	0.531609	0.246845	0.046695	0.321769	0.244580	0.135043	0.051743	0.126517	0.430999	0.143373	0.164090	0.249716	0.782618	0.560003	0.068668	0.183613	0.582733	0.526145
43	0.083641	0.162110	0.805158	0.562527	0.125468	0.303605	0.842492	1.278053	0.102250	0.246956	0.556316	0.339311	0.182531	0.358119	0.661470	0.891565	0.131565	0.305240	0.584358	0.388071	0.085529	0.135617	0.626055	0.736430	0.054987	0.172769	0.176709	0.289174	0.094846	0.399368	0.248761	0.408687	0.397320	0.392433	0.357732	0.488183	0.486297	0.338147	0.272457	0.387700	0.105607	0.199715	0.422508	0.561925	0.081167	0.247222	0.595617	0.577468	0.121215	0.180008	0.896808	0.303990	0.082972	0.412732	0.577636	0.257953	0.049893	0.359303	0.263784	0.152163	0.056067	0.160811	0.398445	0.184880	0.162025	0.211393	0.760755	0.568195	0.068407	0.176699	0.647783	0.548940
44	0.084769	0.160402	0.825459	0.545548	0.124278	0.308647	0.840543	1.277464	0.103604	0.249403	0.536266	0.350031	0.193168	0.386486	0.663812	0.877008	0.114978	0.309654	0.522139	0.382226	0.093420	0.141337	0.690566	0.806488	0.051870	0.174583	0.309715	0.181191	0.094949	0.401722	0.272237	0.412148	0.396172	0.324742	0.426819	0.412056	0.535484	0.365274	0.306187	0.354059	0.126164	0.335934	0.404955	0.559711	0.088386	0.258366	0.668267	0.693872	0.134336	0.191643	1.126194	0.219481	0.092518	0.413697	0.692858	0.300795	0.055052	0.371751	0.288494	0.210465	0.063410	0.175239	0.400325	0.384781	0.162748	0.199840	0.732615	0.567878	0.074708	0.177115	0.676902	0.601369
45	0.082020	0.157248	0.812602	0.528458	0.126460	0.324988	0.804013	1.201665	0.105033	0.240849	0.527525	0.379405	0.189353	0.377152	0.659581	0.889235	0.105739	0.403453	0.519914	0.294103	0.104540	0.153704	0.744068	0.831106	0.046561	0.168336	0.390996	0.206827	0.095623	0.407214	0.297039	0.408404	0.395054	0.210458	0.469037	0.378220	0.553532	0.378567	0.309314	0.394529	0.130643	0.484646	0.403440	0.543799	0.095576	0.255310	0.647601	0.697687	0.138492	0.210463	1.074693	0.269569	0.106070	0.417275	0.774138	0.320192	0.062255	0.376313	0.394110	0.257809	0.073438	0.186751	0.391126	0.465256	0.151265	0.195191	0.731241	0.484765	0.076858	0.177790	0.698186	0.617298
46	0.076549	0.158415	0.808636	0.546759	0.125205	0.363438	0.677220	0.988718	0.103097	0.237437	0.527073	0.416524	0.186998	0.365129	0.743668	0.981832	0.102939	0.453312	0.475534	0.181200	0.101100	0.146395	0.774162	0.794309	0.046625	0.178561	0.391092	0.198768	0.096949	0.414289	0.299547	0.396340	0.385097	0.165421	0.480247	0.380065	0.558018	0.380239	0.307545	0.413170	0.129808	0.500185	0.392894	0.471354	0.092918	0.218689	0.635597	0.690520	0.140000	0.210887	1.095859	0.270671	0.110104	0.415108	0.787196	0.326291	0.066703	0.376372	0.567406	0.414663	0.081700	0.193642	0.381588	0.467451	0.122111	0.172198	0.665627	0.321668	0.082985	0.182782	0.706644	0.579792
47	0.083660	0.166972	0.768065	0.572130	0.118674	0.381018	0.614769	0.893849	0.100502	0.221798	0.528232	0.417504	0.200231	0.386756	0.853359	1.067820	0.104760	0.561365	0.408076	0.146789	0.094093	0.124378	0.776522	0.788073	0.047966	0.186806	0.402394	0.196629	0.099528	0.416944	0.301149	0.387904	0.358300	0.162029	0.481791	0.377557	0.553420	0.368952	0.300782	0.419014	0.136818	0.619450	0.380743	0.421103	0.085681	0.189615	0.642387	0.725373	0.140115	0.213759	1.170798	0.299174	0.114237	0.396490	0.788190	0.330235	0.067222	0.372376	0.563278	0.451054	0.090256	0.200984	0.378554	0.478289	0.099459	0.132056	0.543868	0.301464	0.084189	0.173061	0.701644	0.544667
48	0.107806	0.194907	0.715066	0.577311	0.109356	0.398078	0.609026	0.882297	0.098906	0.215928	0.559131	0.388314	0.212835	0.410653	0.909766	1.073876	0.105864	0.641413	0.290641	0.185787	0.093661	0.115279	0.781442	0.817764	0.052358	0.176250	0.427797	0.198467	0.101104	0.416380	0.311756	0.410941	0.336724	0.148467	0.489665	0.353653	0.546001	0.354480	0.294316	0.428432	0.134348	0.652217	0.378490	0.406386	0.086201	0.180786	0.651554	0.779889	0.154369	0.274746	1.250833	0.353999	0.115412	0.343298	0.788351	0.330383	0.065598	0.325261	0.570522	0.456831	0.092473	0.203135	0.380240	0.496850	0.113217	0.102688	0.510933	0.325633	0.083989	0.157580	0.684200	0.543662
49	0.135772	0.299341	0.713329	0.499464	0.106329	0.402442	0.557783	0.755998	0.085740	0.206981	0.647073	0.347203	0.199874	0.411917	0.911295	1.057512	0.118209	0.678782	0.446058	0.592688	0.096590	0.115471	0.755953	0.829207	0.051968	0.144514	0.446853	0.292558	0.097172	0.393133	0.311917	0.439936	0.332567	0.144324	0.499113	0.324163	0.525417	0.337476	0.298144	0.469671	0.132311	0.652398	0.370981	0.362819	0.102573	0.193378	0.701659	0.812872	0.233036	0.546167	1.301218	0.373120	0.115489	0.326768	0.774051	0.332219	0.068052	0.302639	0.593456	0.530917	0.103236	0.215493	0.403718	0.543879	0.129459	0.089277	0.573250	0.332704	0.080452	0.138725	0.644613	0.533959
50	0.139857	0.343017	0.694887	0.429734	0.096093	0.423195	0.405369	0.547301	0.068037	0.171393	0.668273	0.327178	0.194741	0.421295	0.899808	1.051423	0.121448	0.685639	0.544830	0.805425	0.098962	0.114655	0.675514	0.791985	0.061541	0.182804	0.456473	0.395898	0.088753	0.356132	0.311940	0.432553	0.331371	0.141169	0.535478	0.278532	0.494472	0.317157	0.312936	0.506800	0.133681	0.653340	0.369123	0.267447	0.109985	0.191660	0.724947	0.817900	0.273871	0.615662	1.308322	0.370342	0.112098	0.293814	0.706815	0.322976	0.065757	0.253120	0.594080	0.535954	0.126374	0.250359	0.492735	0.593472	0.134842	0.089678	0.630331	0.332028	0.079291	0.135096	0.571584	0.453864
51	0.139824	0.344150	0.668007	0.429057	0.087865	0.421955	0.207903	0.285458	0.058339	0.108933	0.653976	0.326628	0.193574	0.423888	0.881429	1.016419	0.125923	0.659727	0.544690	0.823401	0.097425	0.107766	0.633687	0.707684	0.070487	0.195887	0.460344	0.425137	0.079459	0.333450	0.310997	0.422307	0.303025	0.130360	0.583586	0.260419	0.471304	0.304486	0.327827	0.527366	0.138906	0.655250	0.388158	0.216778	0.113528	0.205600	0.728798	0.787868	0.313342	0.620755	1.254658	0.365033	0.106128	0.186875	0.629489	0.279254	0.063228	0.176006	0.620290	0.566415	0.137449	0.291186	0.546746	0.625642	0.142307	0.093595	0.681874	0.339137	0.078472	0.114980	0.534414	0.403805
52	0.137963	0.366464	0.649262	0.384081	0.087811	0.472585	0.198278	0.228364	0.058258	0.096493	0.673253	0.341790	0.193121	0.423746	0.817198	0.963280	0.129679	0.645546	0.567070	0.943716	0.093088	0.108561	0.631758	0.645983	0.075510	0.203082	0.393534	0.521014	0.079309	0.341883	0.307574	0.418603	0.230525	0.136454	0.567783	0.248163	0.463550	0.303875	0.333544	0.534295	0.144793	0.653968	0.435188	0.214243	0.110239	0.204442	0.728720	0.751900	0.332333	0.620053	0.979198	0.361520	0.102188	0.158363	0.617064	0.251216	0.061758	0.137751	0.639897	0.598011	0.140501	0.321179	0.557048	0.641657	0.148521	0.096953	0.713619	0.330291	0.078005	0.099234	0.564351	0.464290
53	0.134837	0.365409	0.646768	0.336983	0.090651	0.498308	0.212134	0.257744	0.063179	0.091770	0.670647	0.376949	0.187099	0.421662	0.727695	0.857210	0.131598	0.642172	0.582448	1.088750	0.089667	0.117493	0.611768	0.651071	0.083658	0.202680	0.295656	0.559850	0.088985	0.359238	0.314632	0.436234	0.165309	0.142232	0.597365	0.272162	0.461707	0.310291	0.344528	0.539410	0.133512	0.641326	0.506213	0.205569	0.104369	0.199623	0.727363	0.748108	0.325418	0.613109	0.803564	0.305562	0.097244	0.134148	0.607693	0.249739	0.059990	0.112370	0.632380	0.592965	0.140273	0.334010	0.553962	0.645936	0.150908	0.095487	0.715729	0.305933	0.078037	0.099484	0.595690	0.528942
54	0.133546	0.366042	0.621006	0.357559	0.092319	0.506950	0.213651	0.281596	0.067548	0.095437	0.602154	0.445671	0.166406	0.364721	0.709030	0.762466	0.139896	0.574055	0.590525	1.108120	0.090612	0.116112	0.543613	0.585322	0.087469	0.196017	0.306518	0.556503	0.093978	0.356428	0.319395	0.446647	0.132167	0.143726	0.687056	0.277063	0.423359	0.305647	0.339788	0.525735	0.117627	0.565495	0.499682	0.225736	0.104292	0.205970	0.659418	0.724138	0.337574	0.619678	0.788782	0.266814	0.095826	0.189181	0.539927	0.228726	0.082589	0.125090	0.464113	0.543782	0.138891	0.340835	0.562936	0.646978	0.153400	0.090980	0.753802	0.303871	0.080604	0.100137	0.530872	0.520376
55	0.132610	0.366747	0.619211	0.383425	0.088163	0.479475	0.255229	0.251405	0.067034	0.111185	0.567009	0.482817	0.141019	0.314479	0.704647	0.752698	0.149827	0.561410	0.611697	1.107588	0.081183	0.100699	0.431051	0.469553	0.087162	0.185620	0.282759	0.555106	0.087426	0.323856	0.382322	0.465639	0.116446	0.143863	0.767896	0.303527	0.350913	0.290806	0.295699	0.509468	0.116492	0.486937	0.541332	0.235090	0.100549	0.194906	0.517880	0.610036	0.370064	0.616802	0.683070	0.260881	0.080542	0.293892	0.391842	0.197455	0.100853	0.192911	0.419149	0.460036	0.137396	0.342215	0.544025	0.641006	0.154417	0.088276	0.800624	0.299251	0.082542	0.117529	0.482962	0.487173
56	0.133846	0.377138	0.582410	0.366850	0.092441	0.453506	0.461788	0.250364	0.072278	0.134050	0.579722	0.487782	0.137391	0.319930	0.700168	0.726907	0.150421	0.414081	0.616036	1.112279	0.072336	0.084103	0.289821	0.402607	0.081433	0.176874	0.235624	0.551026	0.082294	0.320006	0.460597	0.533348	0.109420	0.146161	0.804240	0.354534	0.252007	0.251882	0.234270	0.476564	0.126713	0.477763	0.587796	0.238835	0.093210	0.188433	0.485475	0.521864	0.416809	0.652548	0.547317	0.195295	0.061346	0.299169	0.279362	0.187284	0.102689	0.204299	0.416733	0.456525	0.134623	0.328603	0.483675	0.582714	0.153921	0.087290	0.832018	0.291591	0.077833	0.115627	0.470532	0.480573
57	0.135618	0.401692	0.426559	0.379920	0.109090	0.440006	0.589371	0.267613	0.077365	0.144428	0.591563	0.502081	0.138310	0.322728	0.595706	0.593070	0.145271	0.328193	0.595285	1.095450	0.072158	0.081204	0.244502	0.390213	0.078992	0.167467	0.208631	0.515686	0.086466	0.337985	0.485335	0.615852	0.104689	0.147309	0.809608	0.417356	0.181518	0.220644	0.217423	0.416417	0.131895	0.280897	0.613287	0.245249	0.086361	0.212026	0.478738	0.518639	0.422390	0.589886	0.342187	0.097560	0.063186	0.364905	0.259085	0.181223	0.100802	0.202920	0.372866	0.397112	0.128225	0.321240	0.447848	0.474712	0.152236	0.085745	0.873462	0.276037	0.072097	0.107288	0.457428	0.467260
58	0.133414	0.402592	0.268410	0.528569	0.118794	0.437877	0.606242	0.270143	0.076471	0.147070	0.595403	0.494287	0.125773	0.299522	0.449983	0.463578	0.134644	0.253570	0.411366	0.895724	0.077219	0.089396	0.273884	0.349639	0.073446	0.129171	0.208795	0.424977	0.093555	0.346710	0.484883	0.661912	0.100355	0.148492	0.778742	0.455931	0.157978	0.207715	0.217421	0.376618	0.131474	0.239520	0.617475	0.250701	0.084993	0.233721	0.438840	0.503620	0.385520	0.398961	0.202011	0.077119	0.068120	0.485548	0.267110	0.191360	0.099374	0.202286	0.378050	0.362323	0.121825	0.319059	0.445248	0.465735	0.151062	0.086898	0.904138	0.242913	0.067236	0.106895	0.447086	0.485498
59	0.119845	0.353451	0.293630	0.562956	0.123646	0.422257	0.624933	0.272069	0.076194	0.148939	0.625377	0.464021	0.100457	0.266742	0.535738	0.469331	0.130896	0.233715	0.337477	0.767620	0.080716	0.099677	0.299586	0.275030	0.066286	0.106707	0.290886	0.404619	0.101500	0.343097	0.493460	0.670856	0.095986	0.150494	0.749532	0.451899	0.161966	0.206234	0.220081	0.364708	0.147346	0.234058	0.606493	0.246472	0.084776	0.231554	0.402649	0.414036	0.361236	0.542852	0.179799	0.074562	0.067173	0.501205	0.315819	0.238796	0.098844	0.204188	0.358142	0.342843	0.115850	0.318582	0.463194	0.465183	0.151016	0.088768	0.916376	0.248893	0.069783	0.123735	0.458462	0.496886
60	0.119911	0.287474	0.312650	0.565118	0.128419	0.416048	0.638393	0.289760	0.076138	0.149122	0.672593	0.439051	0.089794	0.256902	0.662699	0.506408	0.115366	0.214370	0.346635	0.749328	0.080582	0.102049	0.260253	0.255434	0.065313	0.127359	0.301642	0.283526	0.109916	0.327091	0.508323	0.676854	0.085429	0.145489	0.734882	0.440615	0.172932	0.207151	0.222596	0.362639	0.164926	0.232497	0.579397	0.206848	0.071961	0.272102	0.320390	0.263990	0.327640	0.620167	0.181835	0.075012	0.067528	0.502257	0.364265	0.262938	0.098363	0.201868	0.279261	0.254379	0.111985	0.339835	0.474901	0.451723	0.151211	0.088809	0.911508	0.262748	0.074535	0.178703	0.499962	0.497562
61	0.126938	0.283563	0.296293	0.597796	0.161242	0.438715	0.683883	0.345795	0.078779	0.153468	0.714854	0.447724	0.089531	0.223169	0.706546	0.514363	0.111833	0.208780	0.324700	0.559319	0.075182	0.104743	0.269658	0.259190	0.062433	0.230790	0.310310	0.107705	0.110787	0.300803	0.528214	0.736175	0.080196	0.139794	0.735946	0.452790	0.180317	0.191778	0.219930	0.325539	0.173931	0.237515	0.554904	0.194063	0.049515	0.270628	0.213224	0.202189	0.323325	0.630148	0.200967	0.079855	0.067570	0.502169	0.378199	0.269035	0.098336	0.203067	0.236926	0.184840	0.111368	0.417490	0.473000	0.410176	0.150174	0.086189	0.911056	0.264802	0.075349	0.184982	0.552248	0.506950
62	0.127870	0.255030	0.294193	0.613322	0.181842	0.419717	0.687499	0.331123	0.084011	0.175021	0.675282	0.457657	0.089616	0.206953	0.711982	0.602208	0.116676	0.201040	0.302319	0.336870	0.089974	0.130408	0.344904	0.311161	0.055262	0.279765	0.354544	0.128875	0.113142	0.298550	0.552366	0.803460	0.081761	0.138649	0.738071	0.500242	0.205067	0.183199	0.203651	0.253495	0.211742	0.280341	0.488519	0.158367	0.040026	0.270099	0.182348	0.189769	0.318237	0.625058	0.224556	0.073990	0.067705	0.500409	0.370570	0.269826	0.087484	0.211570	0.213516	0.178806	0.087709	0.479426	0.403438	0.330421	0.135406	0.079035	0.901239	0.236784	0.088704	0.239243	0.552504	0.531467
63	0.128572	0.239172	0.298586	0.615332	0.186168	0.389722	0.717725	0.308088	0.085785	0.197410	0.604793	0.460901	0.093867	0.204801	0.758619	0.679687	0.107762	0.169386	0.301321	0.312039	0.118420	0.127891	0.369841	0.371054	0.055407	0.333256	0.378166	0.169739	0.131064	0.318347	0.567812	0.820464	0.082239	0.138723	0.735288	0.533115	0.238730	0.180746	0.178113	0.192892	0.341460	0.296451	0.403573	0.150982	0.033223	0.269775	0.186108	0.192192	0.286999	0.608602	0.214306	0.084623	0.067322	0.499577	0.389739	0.266526	0.059871	0.173894	0.173561	0.173190	0.061499	0.470454	0.296222	0.250266	0.109579	0.080711	0.836347	0.225968	0.109271	0.330798	0.532582	0.513748
64	0.129823	0.239470	0.293523	0.608638	0.183197	0.365661	0.747725	0.290318	0.086335	0.231161	0.589913	0.459613	0.098750	0.202595	0.807662	0.699809	0.093918	0.136141	0.326726	0.313138	0.127369	0.162437	0.373791	0.327107	0.066063	0.437215	0.378739	0.178976	0.140958	0.327311	0.570808	0.819227	0.082101	0.139660	0.732218	0.539546	0.274033	0.178693	0.167769	0.167776	0.471994	0.323361	0.413823	0.158433	0.038366	0.273258	0.183935	0.194853	0.230335	0.591712	0.207199	0.100754	0.067034	0.496462	0.437389	0.281619	0.043097	0.132352	0.166816	0.171293	0.055196	0.547839	0.244912	0.178499	0.099574	0.089282	0.777102	0.235864	0.123600	0.373687	0.497232	0.427880
65	0.131349	0.240593	0.317394	0.591737	0.178975	0.350737	0.707206	0.290069	0.086662	0.251371	0.607631	0.453584	0.103972	0.214343	0.830454	0.705764	0.085565	0.108778	0.352256	0.289859	0.124662	0.210874	0.423966	0.303645	0.076691	0.542776	0.390476	0.191160	0.145341	0.329798	0.575487	0.821437	0.082083	0.158123	0.716640	0.538682	0.290445	0.182804	0.156038	0.146079	0.502136	0.343188	0.380132	0.255202	0.057969	0.289544	0.208856	0.210155	0.142471	0.567110	0.231320	0.104516	0.069255	0.469307	0.496255	0.276467	0.040881	0.177078	0.163671	0.172334	0.060797	0.619109	0.240926	0.148299	0.104444	0.110770	0.719968	0.239379	0.123987	0.374027	0.523513	0.399636
66	0.131374	0.235093	0.368431	0.598674	0.171197	0.333765	0.583595	0.283350	0.094398	0.252521	0.634855	0.436960	0.104213	0.276371	0.850052	0.700248	0.077650	0.084824	0.340107	0.286379	0.123066	0.224322	0.475374	0.326307	0.075818	0.558436	0.393107	0.194874	0.147978	0.330417	0.576386	0.815466	0.104143	0.248683	0.688494	0.538239	0.288739	0.197635	0.165317	0.113971	0.547284	0.376900	0.393274	0.283401	0.079429	0.330776	0.278181	0.225385	0.128804	0.574306	0.254863	0.104823	0.074552	0.421160	0.517204	0.257704	0.041721	0.234902	0.144409	0.182049	0.067146	0.648250	0.211957	0.146601	0.134302	0.174562	0.671741	0.233350	0.121150	0.384719	0.555453	0.386621
67	0.128065	0.186248	0.393501	0.591462	0.161961	0.328905	0.497512	0.294380	0.104450	0.284161	0.683098	0.400391	0.103145	0.271472	0.851802	0.695503	0.074750	0.072693	0.337692	0.290816	0.120907	0.281151	0.473215	0.388746	0.074542	0.560165	0.328618	0.193176	0.146826	0.328554	0.575164	0.801555	0.259146	0.396687	0.695646	0.549201	0.315247	0.201875	0.189472	0.098250	0.703934	0.404537	0.359956	0.306297	0.094843	0.395608	0.337447	0.268995	0.123106	0.491240	0.279235	0.104736	0.075106	0.435164	0.525031	0.258191	0.041929	0.239697	0.133373	0.174474	0.070043	0.646286	0.186750	0.173523	0.193003	0.280953	0.663803	0.232943	0.117851	0.437774	0.544172	0.332688
68	0.119632	0.167107	0.395928	0.462766	0.158786	0.342595	0.488536	0.299316	0.128791	0.381726	0.718050	0.372731	0.100293	0.267306	0.851451	0.699321	0.074416	0.072811	0.349796	0.285562	0.118862	0.310261	0.488489	0.407085	0.072689	0.564607	0.327379	0.193882	0.142999	0.301646	0.570282	0.780560	0.446666	0.588707	0.651514	0.557071	0.453176	0.215680	0.196642	0.098551	0.805440	0.422349	0.351922	0.412132	0.103404	0.404309	0.354104	0.283167	0.120996	0.352732	0.318876	0.104708	0.060621	0.353406	0.554017	0.264869	0.042397	0.241611	0.158638	0.176932	0.071482	0.651458	0.232692	0.200007	0.256393	0.390619	0.638738	0.229022	0.116157	0.442637	0.574928	0.338772
69	0.106837	0.160101	0.367936	0.399515	0.155738	0.353368	0.464494	0.299600	0.149987	0.425891	0.727189	0.427301	0.089087	0.263535	0.835227	0.678895	0.071948	0.069507	0.343565	0.282489	0.122188	0.331857	0.489597	0.415050	0.068391	0.536898	0.343428	0.198468	0.139193	0.285095	0.561765	0.776872	0.591574	0.666208	0.554129	0.578495	0.587782	0.240298	0.202502	0.101342	0.820359	0.423815	0.359986	0.489515	0.105958	0.387481	0.355823	0.267633	0.103624	0.258215	0.503655	0.250964	0.054418	0.235253	0.572826	0.248156	0.045160	0.258514	0.288138	0.179346	0.080156	0.658895	0.331760	0.210620	0.321643	0.433877	0.570118	0.227828	0.114177	0.441378	0.583744	0.335723
70	0.090568	0.156974	0.328445	0.415951	0.142013	0.336984	0.425447	0.278012	0.160732	0.431711	0.721240	0.439589	0.082157	0.277112	0.712985	0.617109	0.059044	0.062026	0.331051	0.258228	0.127698	0.361028	0.489159	0.418526	0.074241	0.532829	0.335855	0.200638	0.138866	0.295526	0.508247	0.753136	0.700846	0.674674	0.447624	0.574252	0.624200	0.245985	0.209559	0.101437	0.817798	0.430555	0.365566	0.513485	0.120570	0.402592	0.368306	0.271313	0.103952	0.254807	0.510999	0.329181	0.063087	0.233937	0.594205	0.225019	0.050098	0.269559	0.285825	0.200104	0.094540	0.661345	0.441996	0.263360	0.384836	0.439881	0.527674	0.227205	0.112002	0.440111	0.607354	0.301973
71	0.075006	0.149996	0.321270	0.360802	0.094682	0.265132	0.346480	0.208838	0.161929	0.429806	0.724432	0.430565	0.074571	0.274423	0.568807	0.578006	0.038492	0.075503	0.336771	0.257516	0.129770	0.369369	0.488513	0.432677	0.078224	0.507150	0.304882	0.175889	0.137302	0.298545	0.451938	0.679548	0.759458	0.684450	0.393469	0.541521	0.625876	0.246108	0.208296	0.163508	0.813221	0.424660	0.367700	0.594917	0.144792	0.449879	0.440487	0.309446	0.114463	0.255000	0.559719	0.332341	0.064811	0.232632	0.568345	0.232147	0.054940	0.295888	0.299644	0.195217	0.105628	0.659290	0.517441	0.295251	0.431509	0.456727	0.480683	0.224749	0.109465	0.427501	0.637947	0.299145
72	0.073332	0.150593	0.344785	0.330155	0.053852	0.198612	0.318453	0.204956	0.167349	0.428621	0.719124	0.439491	0.067558	0.272224	0.511432	0.577035	0.039615	0.090573	0.377462	0.262943	0.132512	0.369728	0.452194	0.450803	0.074909	0.444341	0.303579	0.164257	0.133538	0.285528	0.447022	0.595689	0.779135	0.764584	0.383952	0.492970	0.623069	0.240915	0.209683	0.205055	0.797842	0.390565	0.368649	0.650470	0.155786	0.444372	0.440030	0.339068	0.118216	0.258247	0.584575	0.342022	0.066722	0.244412	0.576516	0.236725	0.053796	0.300309	0.306591	0.236491	0.111287	0.655559	0.511477	0.311260	0.447863	0.517350	0.458760	0.275967	0.110577	0.426669	0.603342	0.298972
73	0.069135	0.148788	0.417597	0.328290	0.045060	0.247498	0.217583	0.201765	0.208053	0.431666	0.686015	0.507230	0.068788	0.266022	0.511094	0.497068	0.040854	0.136141	0.543229	0.297741	0.123612	0.377216	0.422064	0.411695	0.064459	0.264436	0.301035	0.158882	0.128957	0.273730	0.449102	0.550097	0.780936	0.805570	0.384998	0.464014	0.616960	0.240592	0.209306	0.214567	0.745581	0.383844	0.352263	0.667950	0.156272	0.442465	0.440399	0.411962	0.114373	0.251244	0.598024	0.347897	0.067118	0.253441	0.641065	0.235452	0.061582	0.294257	0.340137	0.314139	0.110617	0.626491	0.513341	0.313988	0.450925	0.553214	0.495561	0.440086	0.108645	0.418950	0.583230	0.271995
74	0.067257	0.150195	0.447268	0.339174	0.045273	0.263496	0.127977	0.190964	0.284717	0.438037	0.638425	0.571934	0.063798	0.269035	0.460035	0.396768	0.039935	0.138567	0.608892	0.367269	0.108930	0.384886	0.417607	0.393939	0.074534	0.222654	0.323605	0.162486	0.122481	0.265221	0.422574	0.545608	0.795751	0.830393	0.369636	0.462352	0.610893	0.242677	0.213546	0.214523	0.679866	0.348875	0.337810	0.654631	0.157147	0.470994	0.441983	0.498602	0.113022	0.235958	0.596623	0.379961	0.072058	0.255620	0.707074	0.230436	0.072721	0.247219	0.345255	0.321215	0.111090	0.607744	0.530284	0.353477	0.519840	0.587762	0.552445	0.519712	0.090030	0.369463	0.597930	0.222041
75	0.066488	0.152342	0.442612	0.365369	0.047888	0.271460	0.155820	0.187667	0.382343	0.445569	0.610962	0.603065	0.065153	0.306850	0.428320	0.468577	0.050396	0.141519	0.614452	0.361123	0.104889	0.362229	0.416066	0.400077	0.078380	0.220086	0.353475	0.164355	0.115047	0.271831	0.402014	0.526053	0.879714	0.866637	0.364333	0.468871	0.602028	0.266338	0.228737	0.223970	0.670159	0.305569	0.265027	0.634888	0.158657	0.482371	0.439132	0.510379	0.105302	0.190955	0.612761	0.438835	0.072896	0.255465	0.705872	0.254982	0.074748	0.233325	0.386291	0.322308	0.125274	0.582479	0.568106	0.460274	0.634332	0.616245	0.595088	0.530672	0.060786	0.291467	0.585619	0.210034
76	0.071349	0.161764	0.399476	0.437289	0.054833	0.281310	0.227096	0.176656	0.473005	0.457543	0.663159	0.619504	0.070200	0.308148	0.404308	0.503279	0.084532	0.142530	0.616317	0.364605	0.108682	0.345716	0.487990	0.420676	0.076042	0.205328	0.345857	0.201219	0.114842	0.290309	0.370247	0.416543	1.043164	0.897823	0.370945	0.477323	0.592828	0.366844	0.254523	0.264677	0.618456	0.263902	0.176173	0.654453	0.155159	0.488408	0.435687	0.519856	0.104373	0.151445	0.611784	0.499929	0.070758	0.252790	0.655468	0.285174	0.074972	0.228203	0.487116	0.328906	0.137850	0.537361	0.624920	0.507400	0.712395	0.636844	0.591223	0.550159	0.043018	0.277383	0.545931	0.211355
77	0.083054	0.168228	0.376840	0.426831	0.059656	0.277260	0.265121	0.228712	0.529225	0.486650	0.744772	0.623289	0.077097	0.271079	0.377542	0.541489	0.188712	0.165697	0.640810	0.377550	0.112453	0.335530	0.624847	0.394350	0.075727	0.185847	0.345509	0.231470	0.108165	0.325934	0.311180	0.279530	1.187802	0.923654	0.408489	0.505769	0.587150	0.480495	0.269992	0.291925	0.411535	0.223281	0.234260	0.653321	0.147037	0.498909	0.420191	0.559709	0.107069	0.146661	0.526598	0.497521	0.066478	0.244116	0.650238	0.286977	0.074271	0.223111	0.457847	0.332808	0.140180	0.417236	0.646160	0.519082	0.759860	0.653028	0.566087	0.567501	0.042430	0.277330	0.492475	0.211817
78	0.089130	0.154960	0.366023	0.430635	0.059341	0.271607	0.289008	0.237404	0.534016	0.485612	0.767847	0.623720	0.080168	0.270688	0.368926	0.545748	0.227646	0.177165	0.700576	0.360766	0.112017	0.271619	0.643752	0.382341	0.073511	0.135228	0.292415	0.234727	0.084282	0.347892	0.247032	0.192055	1.248712	0.938718	0.442960	0.528768	0.591222	0.640946	0.262813	0.302234	0.226751	0.191851	0.343208	0.586551	0.137467	0.458883	0.408260	0.606455	0.100535	0.123888	0.450015	0.429767	0.061181	0.203022	0.632164	0.287780	0.072356	0.203561	0.426027	0.310555	0.141514	0.331734	0.647286	0.521803	0.777332	0.661531	0.546657	0.579238	0.038941	0.201305	0.480766	0.211305
79	0.109262	0.139542	0.360526	0.442945	0.065779	0.426458	0.292264	0.236701	0.566718	0.485617	0.737881	0.621277	0.084782	0.299033	0.368050	0.607497	0.234760	0.183168	0.713912	0.327550	0.114128	0.260322	0.655143	0.356009	0.077104	0.135012	0.273966	0.252963	0.070439	0.378961	0.215306	0.160414	1.273822	0.946283	0.461278	0.539824	0.588848	0.784090	0.243137	0.303074	0.182250	0.188039	0.360036	0.551108	0.132198	0.447637	0.458324	0.611534	0.089744	0.124485	0.385984	0.410126	0.061735	0.166039	0.622810	0.318338	0.065885	0.162573	0.420440	0.325470	0.140933	0.307454	0.649514	0.518609	0.784124	0.665793	0.556656	0.576358	0.038131	0.138619	0.452546	0.217978
80	0.197694	0.140527	0.363167	0.431860	0.075335	0.532618	0.324393	0.224206	0.650816	0.521197	0.683059	0.611454	0.106910	0.352091	0.388522	0.699680	0.342368	0.188550	0.708748	0.322807	0.129640	0.219435	0.681626	0.368503	0.077301	0.147918	0.279880	0.260298	0.062515	0.404438	0.203481	0.151987	1.288771	0.945828	0.738409	0.543392	0.535710	0.813866	0.231091	0.303035	0.182143	0.173713	0.356820	0.542393	0.128401	0.447810	0.486101	0.620692	0.081163	0.127269	0.351465	0.410138	0.064095	0.164666	0.577412	0.379579	0.066272	0.146317	0.411717	0.322074	0.139568	0.294029	0.648097	0.504337	0.783593	0.659198	0.581478	0.580228	0.038247	0.140930	0.425212	0.316508
81	0.230126	0.143589	0.386634	0.427506	0.077028	0.618310	0.369871	0.225236	0.695318	0.497163	0.627898	0.594609	0.118502	0.365601	0.440075	0.735748	0.405483	0.187649	0.639796	0.315006	0.151250	0.197244	0.704926	0.377306	0.074318	0.175993	0.275015	0.271256	0.058932	0.400284	0.207373	0.151857	1.293845	0.922902	0.923178	0.553351	0.369885	0.846112	0.240678	0.302208	0.184051	0.170490	0.368758	0.484343	0.127192	0.451276	0.495241	0.619334	0.077818	0.125144	0.289143	0.413382	0.066593	0.183939	0.548041	0.408571	0.069933	0.174029	0.400534	0.266774	0.135750	0.284701	0.615867	0.501564	0.773116	0.630057	0.583117	0.603752	0.039780	0.154167	0.425839	0.452382
82	0.237136	0.144436	0.402600	0.511182	0.074593	0.647664	0.390520	0.225735	0.703335	0.438197	0.602372	0.550985	0.123117	0.368650	0.463520	0.744045	0.411270	0.154833	0.485303	0.241431	0.181106	0.200607	0.712505	0.351911	0.057852	0.207236	0.228074	0.326187	0.067170	0.413127	0.210688	0.149819	1.269477	0.851417	0.950516	0.555366	0.253042	1.026026	0.285625	0.302604	0.182959	0.166050	0.368751	0.420017	0.105329	0.456919	0.448989	0.607111	0.072568	0.108114	0.286968	0.405589	0.069757	0.205513	0.548181	0.399823	0.059888	0.179432	0.382574	0.211665	0.128013	0.308142	0.553419	0.481901	0.755751	0.569514	0.601633	0.628069	0.040808	0.153973	0.345227	0.461485
83	0.238904	0.149603	0.324005	0.529745	0.073805	0.629644	0.396905	0.226468	0.705247	0.419591	0.591253	0.514517	0.123181	0.374121	0.460830	0.737411	0.411061	0.153463	0.449877	0.197175	0.184816	0.178666	0.711258	0.324675	0.066799	0.211199	0.181960	0.417970	0.095559	0.563735	0.225834	0.148410	1.217753	0.736617	0.947835	0.534852	0.233873	1.101270	0.326846	0.322676	0.170880	0.150204	0.366888	0.398489	0.083597	0.530025	0.404958	0.582782	0.065376	0.103693	0.228947	0.367894	0.069741	0.193745	0.516622	0.394390	0.054270	0.172903	0.372050	0.221215	0.118273	0.321024	0.457533	0.449472	0.733178	0.528730	0.640523	0.649177	0.037530	0.137759	0.302058	0.470839
84	0.246009	0.160988	0.293866	0.542686	0.078024	0.628321	0.393788	0.256613	0.705481	0.414913	0.578287	0.494440	0.121501	0.374264	0.453260	0.732529	0.410315	0.150630	0.460446	0.198819	0.190665	0.146538	0.709028	0.301747	0.081930	0.208062	0.166385	0.419773	0.119251	0.695348	0.257926	0.145036	1.153338	0.691158	0.967709	0.509475	0.237134	1.165608	0.327506	0.320831	0.156186	0.136788	0.366431	0.398559	0.079843	0.592012	0.405565	0.571007	0.058512	0.100762	0.178991	0.265114	0.068188	0.183125	0.415077	0.397179	0.063483	0.219476	0.282614	0.296858	0.110087	0.322636	0.420100	0.431578	0.703729	0.520625	0.668833	0.650559	0.034111	0.114278	0.309445	0.512906
85	0.258320	0.165248	0.290395	0.553856	0.080135	0.630512	0.382314	0.282878	0.705696	0.416194	0.590191	0.491845	0.122470	0.372893	0.423476	0.733419	0.398362	0.145093	0.486072	0.177785	0.194003	0.151319	0.704373	0.298150	0.088141	0.211701	0.122674	0.397796	0.136523	0.755370	0.369484	0.255688	1.097587	0.689467	1.010902	0.492806	0.238920	1.192465	0.342601	0.309540	0.143104	0.127555	0.367349	0.376419	0.080024	0.588774	0.408221	0.483085	0.056713	0.099970	0.179476	0.213459	0.063202	0.182674	0.280186	0.406519	0.075816	0.244243	0.214054	0.310436	0.108299	0.337472	0.417885	0.426658	0.675736	0.518979	0.684673	0.651436	0.037159	0.115918	0.290877	0.586155
86	0.285995	0.168417	0.300699	0.529432	0.075292	0.631053	0.365304	0.269322	0.700459	0.416947	0.707613	0.483938	0.122186	0.344810	0.361015	0.718024	0.359443	0.115416	0.412808	0.291758	0.196199	0.169095	0.663824	0.275978	0.088243	0.206139	0.134315	0.385889	0.140743	0.769750	0.487155	0.443462	1.072255	0.666077	1.052158	0.496425	0.238272	1.197600	0.361605	0.308405	0.115509	0.106481	0.362680	0.326830	0.084008	0.610659	0.424725	0.438422	0.065214	0.105672	0.339499	0.201930	0.063370	0.189410	0.251382	0.382546	0.089339	0.263228	0.251517	0.340217	0.107896	0.305525	0.401006	0.416287	0.663254	0.474936	0.688185	0.657315	0.052935	0.126886	0.287179	0.627203
87	0.325691	0.185048	0.402106	0.559440	0.070161	0.641642	0.341451	0.224873	0.683222	0.414256	0.806548	0.482341	0.117420	0.340270	0.331775	0.731188	0.346631	0.105923	0.319126	0.330122	0.242371	0.175205	0.542104	0.225993	0.080991	0.196444	0.146637	0.374458	0.140757	0.771861	0.505628	0.526043	1.075932	0.586399	1.089212	0.539875	0.235210	1.196775	0.359372	0.306929	0.093131	0.102052	0.321374	0.382307	0.087591	0.683741	0.431854	0.436820	0.076935	0.121118	0.363935	0.192865	0.061875	0.187829	0.242457	0.368668	0.093170	0.265350	0.442963	0.344122	0.098247	0.258978	0.368485	0.322616	0.666651	0.434574	0.655059	0.604893	0.063974	0.139711	0.306823	0.637412
88	0.326464	0.186932	0.481324	0.575759	0.068809	0.615038	0.337569	0.231882	0.644400	0.405864	0.819369	0.449803	0.114331	0.413580	0.314929	0.714877	0.337994	0.116069	0.302085	0.328785	0.290647	0.184840	0.443129	0.189474	0.079886	0.189708	0.183191	0.373911	0.140237	0.772274	0.496815	0.539814	1.091502	0.568694	1.115917	0.588683	0.227339	1.180408	0.342924	0.284125	0.088143	0.115188	0.260402	0.413646	0.089293	0.686103	0.429798	0.400197	0.080927	0.128306	0.363996	0.187526	0.058880	0.216746	0.216251	0.368736	0.092637	0.256344	0.511416	0.352721	0.072754	0.268914	0.264744	0.186162	0.643493	0.401939	0.608229	0.539404	0.068331	0.145374	0.314609	0.638035
89	0.341929	0.189313	0.500833	0.623312	0.060184	0.491139	0.353488	0.237940	0.584864	0.394712	0.812293	0.461656	0.119361	0.556658	0.314284	0.721084	0.207257	0.141054	0.302763	0.341838	0.300664	0.228634	0.423492	0.193258	0.087506	0.161128	0.190421	0.603922	0.139793	0.771907	0.491123	0.541425	1.084064	0.541284	1.148543	0.603783	0.231649	1.149358	0.320933	0.252011	0.109806	0.145480	0.453813	0.428587	0.089262	0.683327	0.409965	0.304939	0.078680	0.125010	0.366691	0.183651	0.056810	0.243490	0.189489	0.357730	0.090068	0.246737	0.531110	0.361469	0.055569	0.267391	0.156615	0.116121	0.542022	0.364155	0.581685	0.536567	0.068963	0.140413	0.314276	0.638051
90	0.330801	0.183412	0.546990	0.675589	0.053576	0.438964	0.316434	0.234555	0.518267	0.357380	0.779133	0.473557	0.121644	0.589409	0.326418	0.718643	0.133571	0.156649	0.304779	0.361742	0.328869	0.275366	0.337626	0.198047	0.109200	0.153590	0.229158	0.728804	0.140963	0.768061	0.491559	0.566094	1.014550	0.494685	1.153526	0.608166	0.240925	1.095271	0.319550	0.240175	0.132133	0.165926	0.578515	0.399763	0.085868	0.681117	0.333140	0.210583	0.083761	0.148743	0.374950	0.136544	0.056253	0.245715	0.184975	0.314326	0.086522	0.228983	0.580652	0.445796	0.043833	0.268674	0.143752	0.089303	0.434392	0.335605	0.592177	0.538111	0.068675	0.135784	0.310865	0.633202
91	0.327965	0.184275	0.541722	0.709691	0.050833	0.243992	0.268892	0.238571	0.496298	0.326187	0.733276	0.478454	0.104978	0.579845	0.326594	0.664823	0.129490	0.157107	0.334966	0.365774	0.520605	0.316174	0.269738	0.188446	0.120342	0.192252	0.217517	0.687445	0.147009	0.759164	0.550774	0.618049	0.855737	0.447940	1.175638	0.568812	0.249465	0.984308	0.323406	0.233433	0.141520	0.168483	0.575418	0.400226	0.083887	0.680339	0.238351	0.189243	0.079137	0.149710	0.440530	0.475890	0.044658	0.275431	0.175355	0.228774	0.091098	0.235525	0.613290	0.528528	0.036359	0.270036	0.140547	0.080933	0.329782	0.306021	0.625216	0.521782	0.068430	0.135022	0.286476	0.620963
92	0.329317	0.192473	0.529421	0.664582	0.050635	0.233458	0.303426	0.238754	0.486158	0.318547	0.719669	0.527417	0.091372	0.576319	0.301370	0.631510	0.143185	0.175698	0.374618	0.366787	0.668185	0.343141	0.238016	0.166321	0.111102	0.181688	0.217257	0.732438	0.159961	0.756005	0.665269	0.649246	0.728597	0.405153	1.176300	0.523682	0.256600	0.920608	0.323601	0.232891	0.155237	0.179474	0.576012	0.411258	0.085818	0.688816	0.205636	0.213090	0.087114	0.172071	0.475872	0.626320	0.034996	0.271355	0.158129	0.160057	0.096980	0.217310	0.612968	0.525696	0.038305	0.268499	0.126607	0.075823	0.272119	0.283409	0.643058	0.504548	0.068407	0.122783	0.261171	0.514734
93	0.329732	0.192698	0.531358	0.669435	0.049689	0.234204	0.345196	0.234422	0.400902	0.296957	0.721530	0.554470	0.085050	0.569641	0.281814	0.619078	0.176652	0.212843	0.352935	0.424480	0.719504	0.353449	0.319126	0.175255	0.109768	0.188702	0.272873	0.810005	0.172926	0.774904	0.755022	0.664912	0.669437	0.375724	1.167483	0.484749	0.269911	0.914033	0.319904	0.232850	0.155269	0.176767	0.578342	0.410937	0.091501	0.693875	0.242404	0.304349	0.105526	0.189662	0.476347	0.630069	0.033440	0.267061	0.159533	0.191424	0.095821	0.183179	0.599297	0.499757	0.040242	0.266901	0.117131	0.076368	0.242314	0.265562	0.646793	0.501718	0.066826	0.113613	0.254467	0.469223
94	0.326539	0.185557	0.528158	0.692304	0.035666	0.207875	0.357983	0.194446	0.250233	0.212766	0.723779	0.555312	0.091743	0.606033	0.281389	0.621801	0.180028	0.218115	0.326256	0.450979	0.726391	0.353958	0.398801	0.258349	0.112840	0.189521	0.287949	0.814170	0.179082	0.779916	0.789789	0.670865	0.630874	0.361616	1.129380	0.477259	0.278474	0.767904	0.297244	0.232262	0.151511	0.177768	0.588782	0.427608	0.096924	0.677916	0.289388	0.370927	0.114598	0.192239	0.437334	0.705695	0.042106	0.271424	0.227571	0.216773	0.084273	0.147762	0.599518	0.482184	0.038895	0.234473	0.116531	0.070020	0.225384	0.254355	0.731020	0.546739	0.066390	0.113998	0.249441	0.470304
95	0.317928	0.176718	0.526564	0.674607	0.032561	0.202986	0.335985	0.179831	0.183172	0.205047	0.727313	0.561755	0.101582	0.643916	0.342716	0.617149	0.179852	0.218261	0.344885	0.371539	0.723829	0.351654	0.421758	0.302800	0.113262	0.189972	0.282539	0.814930	0.181492	0.781461	0.800290	0.673983	0.616835	0.351276	0.923134	0.477211	0.284993	0.576540	0.232030	0.211222	0.163004	0.210700	0.630536	0.432342	0.094017	0.590862	0.297376	0.377382	0.112517	0.192446	0.395928	0.798490	0.055591	0.277251	0.290474	0.209003	0.073352	0.120390	0.577808	0.458119	0.037137	0.199383	0.114372	0.057059	0.224925	0.257941	0.825068	0.598259	0.065774	0.112752	0.230381	0.445839
96	0.302433	0.179591	0.547351	0.667032	0.033515	0.180163	0.325295	0.179539	0.161309	0.205534	0.745951	0.560561	0.109475	0.654489	0.421460	0.650499	0.183634	0.218082	0.366720	0.346492	0.725378	0.350889	0.428672	0.310230	0.111774	0.189882	0.269435	0.813046	0.181484	0.781250	0.799430	0.674162	0.630814	0.343340	0.786833	0.460864	0.289334	0.461616	0.220150	0.135345	0.213403	0.259223	0.704061	0.414454	0.093302	0.571892	0.293808	0.380815	0.118856	0.187434	0.510327	0.818938	0.062782	0.279881	0.314997	0.182396	0.068091	0.107717	0.432596	0.454618	0.037200	0.190725	0.108554	0.060770	0.230317	0.265042	0.854515	0.610079	0.066610	0.112980	0.224003	0.358551
97	0.257064	0.171657	0.510105	0.636718	0.033865	0.164280	0.322481	0.163278	0.158204	0.221036	0.758008	0.559866	0.117813	0.664836	0.438515	0.677007	0.176665	0.197785	0.380082	0.356511	0.727311	0.355147	0.473255	0.380250	0.108552	0.189103	0.268164	0.693726	0.173900	0.754805	0.799236	0.675206	0.629369	0.337237	0.774501	0.442787	0.293348	0.329897	0.213021	0.109731	0.270403	0.285580	0.756306	0.343814	0.091991	0.561319	0.280028	0.423424	0.135764	0.198617	0.567025	0.824684	0.063180	0.274142	0.318948	0.168200	0.070186	0.134279	0.425814	0.435588	0.035721	0.177617	0.108530	0.060134	0.237609	0.273942	0.837060	0.590561	0.060425	0.107439	0.196027	0.237211
98	0.243452	0.168545	0.386327	0.612944	0.039423	0.205665	0.314984	0.147149	0.160600	0.229907	0.757009	0.564964	0.124976	0.668786	0.454511	0.670896	0.163402	0.165044	0.393230	0.341655	0.721098	0.366732	0.503389	0.457913	0.096019	0.173809	0.261039	0.492091	0.158871	0.637447	0.797350	0.680345	0.627739	0.350527	0.772005	0.442634	0.311399	0.308604	0.175068	0.110049	0.315309	0.287193	0.761831	0.319729	0.094091	0.449651	0.269578	0.507684	0.144502	0.202434	0.565199	0.823925	0.063083	0.270709	0.335707	0.170976	0.072625	0.187446	0.356994	0.397317	0.035455	0.117094	0.160506	0.071947	0.245762	0.284144	0.818263	0.587787	0.047265	0.091794	0.139935	0.163848
99	0.233323	0.179567	0.380157	0.568345	0.040306	0.202858	0.330732	0.129141	0.161653	0.230807	0.684098	0.605907	0.126860	0.613551	0.462384	0.662805	0.153856	0.155572	0.409809	0.336085	0.724001	0.365756	0.524918	0.482280	0.083857	0.113910	0.263997	0.484464	0.142429	0.508355	0.794530	0.678429	0.648836	0.389137	0.741901	0.444052	0.328536	0.299737	0.168819	0.110362	0.322466	0.271864	0.651358	0.332734	0.103966	0.407736	0.269724	0.565572	0.145788	0.187751	0.549451	0.801277	0.068885	0.247909	0.386709	0.184319	0.071338	0.207603	0.380630	0.292092	0.035859	0.121221	0.197721	0.133991	0.248848	0.289201	0.800645	0.588920	0.050748	0.081135	0.097870	0.148777
100	0.198361	0.193179	0.329990	0.494331	0.042258	0.207814	0.348306	0.134211	0.159939	0.229804	0.535676	0.605965	0.121129	0.482066	0.461871	0.673876	0.160924	0.155838	0.359282	0.340056	0.725636	0.337990	0.520228	0.488571	0.080311	0.108602	0.270982	0.414794	0.130680	0.429189	0.741900	0.611606	0.663395	0.413872	0.685019	0.444328	0.330960	0.311711	0.181457	0.111271	0.326825	0.259967	0.584729	0.315718	0.108958	0.389103	0.274270	0.576848	0.152177	0.185377	0.489242	0.598982	0.089939	0.267719	0.431596	0.200867	0.078870	0.224946	0.570158	0.243696	0.038012	0.129156	0.203076	0.157453	0.239791	0.277460	0.773026	0.589933	0.070967	0.081255	0.103064	0.156304
101	0.148951	0.198496	0.306885	0.428734	0.041973	0.204959	0.335746	0.143677	0.154322	0.229234	0.474878	0.574690	0.116046	0.434259	0.457492	0.637665	0.140398	0.130119	0.361839	0.334348	0.668980	0.296050	0.515306	0.477893	0.075413	0.087763	0.252826	0.263224	0.127886	0.411931	0.685384	0.496038	0.656033	0.410344	0.622371	0.423838	0.378047	0.324526	0.188480	0.096072	0.370513	0.254917	0.626142	0.309696	0.110108	0.369272	0.275596	0.577216	0.148401	0.164127	0.485225	0.548222	0.095903	0.280286	0.450174	0.207891	0.078451	0.243195	0.595642	0.263426	0.038553	0.110078	0.201835	0.172651	0.228925	0.265952	0.760572	0.570374	0.104521	0.086691	0.118283	0.156457
