	235_C_T1_sh_L_ND_01.c3d	235_C_T1_sh_L_ND_01.c3d	235_C_T1_sh_L_ND_01.c3d	235_C_T1_sh_L_ND_01.c3d	235_C_T1_sh_L_ND_01.c3d	235_C_T1_sh_L_ND_01.c3d	235_C_T1_sh_L_ND_01.c3d	235_C_T1_sh_L_ND_01.c3d	235_C_T1_sh_L_ND_02.c3d	235_C_T1_sh_L_ND_02.c3d	235_C_T1_sh_L_ND_02.c3d	235_C_T1_sh_L_ND_02.c3d	235_C_T1_sh_L_ND_02.c3d	235_C_T1_sh_L_ND_02.c3d	235_C_T1_sh_L_ND_02.c3d	235_C_T1_sh_L_ND_02.c3d	235_C_T1_sh_L_ND_03.c3d	235_C_T1_sh_L_ND_03.c3d	235_C_T1_sh_L_ND_03.c3d	235_C_T1_sh_L_ND_03.c3d	235_C_T1_sh_L_ND_03.c3d	235_C_T1_sh_L_ND_03.c3d	235_C_T1_sh_L_ND_03.c3d	235_C_T1_sh_L_ND_03.c3d	235_C_T1_sh_L_ND_04.c3d	235_C_T1_sh_L_ND_04.c3d	235_C_T1_sh_L_ND_04.c3d	235_C_T1_sh_L_ND_04.c3d	235_C_T1_sh_L_ND_04.c3d	235_C_T1_sh_L_ND_04.c3d	235_C_T1_sh_L_ND_04.c3d	235_C_T1_sh_L_ND_04.c3d	235_C_T1_sh_L_ND_05.c3d	235_C_T1_sh_L_ND_05.c3d	235_C_T1_sh_L_ND_05.c3d	235_C_T1_sh_L_ND_05.c3d	235_C_T1_sh_L_ND_05.c3d	235_C_T1_sh_L_ND_05.c3d	235_C_T1_sh_L_ND_05.c3d	235_C_T1_sh_L_ND_05.c3d	235_C_T1_sh_L_ND_06.c3d	235_C_T1_sh_L_ND_06.c3d	235_C_T1_sh_L_ND_06.c3d	235_C_T1_sh_L_ND_06.c3d	235_C_T1_sh_L_ND_06.c3d	235_C_T1_sh_L_ND_06.c3d	235_C_T1_sh_L_ND_06.c3d	235_C_T1_sh_L_ND_06.c3d	235_C_T1_sh_L_ND_07.c3d	235_C_T1_sh_L_ND_07.c3d	235_C_T1_sh_L_ND_07.c3d	235_C_T1_sh_L_ND_07.c3d	235_C_T1_sh_L_ND_07.c3d	235_C_T1_sh_L_ND_07.c3d	235_C_T1_sh_L_ND_07.c3d	235_C_T1_sh_L_ND_07.c3d	235_C_T1_sh_L_ND_08.c3d	235_C_T1_sh_L_ND_08.c3d	235_C_T1_sh_L_ND_08.c3d	235_C_T1_sh_L_ND_08.c3d	235_C_T1_sh_L_ND_08.c3d	235_C_T1_sh_L_ND_08.c3d	235_C_T1_sh_L_ND_08.c3d	235_C_T1_sh_L_ND_08.c3d	235_C_T1_sh_L_ND_09.c3d	235_C_T1_sh_L_ND_09.c3d	235_C_T1_sh_L_ND_09.c3d	235_C_T1_sh_L_ND_09.c3d	235_C_T1_sh_L_ND_09.c3d	235_C_T1_sh_L_ND_09.c3d	235_C_T1_sh_L_ND_09.c3d	235_C_T1_sh_L_ND_09.c3d	235_C_T1_sh_L_ND_10.c3d	235_C_T1_sh_L_ND_10.c3d	235_C_T1_sh_L_ND_10.c3d	235_C_T1_sh_L_ND_10.c3d	235_C_T1_sh_L_ND_10.c3d	235_C_T1_sh_L_ND_10.c3d	235_C_T1_sh_L_ND_10.c3d	235_C_T1_sh_L_ND_10.c3d
	Biceps femoris_lat	Semitendinosus_lat	Vastus lateralis_lat	Vastus medialis_lat	Biceps femoris_med	Semitendinosus_med	Vastus lateralis_med	Vastus medialis_med	Biceps femoris_lat	Semitendinosus_lat	Vastus lateralis_lat	Vastus medialis_lat	Biceps femoris_med	Semitendinosus_med	Vastus lateralis_med	Vastus medialis_med	Biceps femoris_lat	Semitendinosus_lat	Vastus lateralis_lat	Vastus medialis_lat	Biceps femoris_med	Semitendinosus_med	Vastus lateralis_med	Vastus medialis_med	Biceps femoris_lat	Semitendinosus_lat	Vastus lateralis_lat	Vastus medialis_lat	Biceps femoris_med	Semitendinosus_med	Vastus lateralis_med	Vastus medialis_med	Biceps femoris_lat	Semitendinosus_lat	Vastus lateralis_lat	Vastus medialis_lat	Biceps femoris_med	Semitendinosus_med	Vastus lateralis_med	Vastus medialis_med	Biceps femoris_lat	Semitendinosus_lat	Vastus lateralis_lat	Vastus medialis_lat	Biceps femoris_med	Semitendinosus_med	Vastus lateralis_med	Vastus medialis_med	Biceps femoris_lat	Semitendinosus_lat	Vastus lateralis_lat	Vastus medialis_lat	Biceps femoris_med	Semitendinosus_med	Vastus lateralis_med	Vastus medialis_med	Biceps femoris_lat	Semitendinosus_lat	Vastus lateralis_lat	Vastus medialis_lat	Biceps femoris_med	Semitendinosus_med	Vastus lateralis_med	Vastus medialis_med	Biceps femoris_lat	Semitendinosus_lat	Vastus lateralis_lat	Vastus medialis_lat	Biceps femoris_med	Semitendinosus_med	Vastus lateralis_med	Vastus medialis_med	Biceps femoris_lat	Semitendinosus_lat	Vastus lateralis_lat	Vastus medialis_lat	Biceps femoris_med	Semitendinosus_med	Vastus lateralis_med	Vastus medialis_med
	P2D	P2D	P2D	P2D	P2D	P2D	P2D	P2D	P2D	P2D	P2D	P2D	P2D	P2D	P2D	P2D	P2D	P2D	P2D	P2D	P2D	P2D	P2D	P2D	P2D	P2D	P2D	P2D	P2D	P2D	P2D	P2D	P2D	P2D	P2D	P2D	P2D	P2D	P2D	P2D	P2D	P2D	P2D	P2D	P2D	P2D	P2D	P2D	P2D	P2D	P2D	P2D	P2D	P2D	P2D	P2D	P2D	P2D	P2D	P2D	P2D	P2D	P2D	P2D	P2D	P2D	P2D	P2D	P2D	P2D	P2D	P2D	P2D	P2D	P2D	P2D	P2D	P2D	P2D	P2D
	EMG_lat	EMG_lat	EMG_lat	EMG_lat	EMG_med	EMG_med	EMG_med	EMG_med	EMG_lat	EMG_lat	EMG_lat	EMG_lat	EMG_med	EMG_med	EMG_med	EMG_med	EMG_lat	EMG_lat	EMG_lat	EMG_lat	EMG_med	EMG_med	EMG_med	EMG_med	EMG_lat	EMG_lat	EMG_lat	EMG_lat	EMG_med	EMG_med	EMG_med	EMG_med	EMG_lat	EMG_lat	EMG_lat	EMG_lat	EMG_med	EMG_med	EMG_med	EMG_med	EMG_lat	EMG_lat	EMG_lat	EMG_lat	EMG_med	EMG_med	EMG_med	EMG_med	EMG_lat	EMG_lat	EMG_lat	EMG_lat	EMG_med	EMG_med	EMG_med	EMG_med	EMG_lat	EMG_lat	EMG_lat	EMG_lat	EMG_med	EMG_med	EMG_med	EMG_med	EMG_lat	EMG_lat	EMG_lat	EMG_lat	EMG_med	EMG_med	EMG_med	EMG_med	EMG_lat	EMG_lat	EMG_lat	EMG_lat	EMG_med	EMG_med	EMG_med	EMG_med
ITEM	Y	Y	Y	Y	Y	Y	Y	Y	Y	Y	Y	Y	Y	Y	Y	Y	Y	Y	Y	Y	Y	Y	Y	Y	Y	Y	Y	Y	Y	Y	Y	Y	Y	Y	Y	Y	Y	Y	Y	Y	Y	Y	Y	Y	Y	Y	Y	Y	Y	Y	Y	Y	Y	Y	Y	Y	Y	Y	Y	Y	Y	Y	Y	Y	Y	Y	Y	Y	Y	Y	Y	Y	Y	Y	Y	Y	Y	Y	Y	Y
1	0.734433	0.399256	0.664692	0.178047	0.430643	0.230879	0.580775	0.117073	0.124463	0.192724	0.595017	0.089253	0.212300	0.288798	0.636140	0.270196	0.133974	0.141679	0.775269	0.081523	0.121553	0.125211	0.682590	0.144872	0.124534	0.144628	0.788595	0.063728	0.625976	0.932152	0.529757	0.611227	0.588641	0.501851	0.647335	0.140350	0.173999	0.201110	0.609193	0.103545	0.374503	0.543542	0.584699	0.267488	0.206655	0.340029	0.519601	0.537215	0.204183	0.281997	0.598168	0.087543	0.337834	0.289731	0.657892	0.304549	0.110813	0.170844	0.611868	0.406602	0.210545	0.314762	0.700980	0.101562	0.360001	0.404476	0.691483	0.259158	0.326035	0.220455	0.728489	0.345780	0.317355	0.251938	0.658183	0.143270	0.095123	0.104527	0.625333	0.103332
2	0.696641	0.388636	0.727174	0.167165	0.451694	0.342163	0.519549	0.093654	0.117182	0.087409	0.638374	0.124184	0.290072	0.471439	0.677187	0.272098	0.139918	0.139650	0.682595	0.061604	0.118267	0.125553	0.670646	0.169848	0.122729	0.119652	0.598276	0.056294	0.595974	0.795596	0.512359	0.628730	0.567572	0.497189	0.728346	0.145576	0.121542	0.204554	0.596395	0.101617	0.351493	0.530814	0.624062	0.272202	0.202256	0.346715	0.525933	0.562301	0.215585	0.284114	0.743034	0.087138	0.198390	0.288994	0.623052	0.305168	0.111334	0.165895	0.595363	0.369694	0.196821	0.288250	0.621800	0.096818	0.131117	0.371656	0.714842	0.296005	0.319777	0.221980	0.735686	0.369092	0.284100	0.261165	0.688315	0.139353	0.091010	0.105988	0.624550	0.125242
3	0.559979	0.379083	0.736252	0.165417	0.461562	0.480734	0.543615	0.084403	0.117092	0.082439	0.656353	0.119344	0.327417	0.477138	0.652068	0.328006	0.123412	0.110956	0.685245	0.092355	0.127078	0.129467	0.676874	0.183650	0.134518	0.156592	0.613069	0.058134	0.595056	0.672927	0.539141	0.635087	0.453200	0.505546	0.814261	0.118310	0.111504	0.177962	0.576268	0.099255	0.333044	0.522720	0.736595	0.282084	0.205236	0.348977	0.528987	0.605286	0.303214	0.300824	0.698834	0.113513	0.195471	0.272159	0.586773	0.315826	0.112071	0.166042	0.588372	0.339168	0.151690	0.267689	0.595417	0.104304	0.128764	0.199376	0.746345	0.300121	0.297148	0.219977	0.684335	0.381814	0.183161	0.255696	0.596226	0.127269	0.084937	0.124168	0.626798	0.157005
4	0.509781	0.377281	0.715019	0.149805	0.553291	0.486719	0.546119	0.175609	0.114961	0.084371	0.599757	0.124396	0.333863	0.526348	0.705107	0.417033	0.111178	0.156362	0.741693	0.095404	0.124253	0.128770	0.592991	0.186372	0.138753	0.199041	0.591164	0.205741	0.294095	0.614192	0.545187	0.652597	0.313987	0.355193	0.818111	0.145365	0.093238	0.159060	0.526181	0.095432	0.301694	0.487539	0.770994	0.290498	0.214666	0.358576	0.648257	0.661567	0.327524	0.289450	0.678201	0.119506	0.190850	0.250351	0.650878	0.358747	0.116191	0.143680	0.612390	0.337841	0.170463	0.326130	0.591317	0.151663	0.112756	0.075429	0.723594	0.332318	0.250346	0.228053	0.675937	0.384992	0.184424	0.240167	0.546804	0.106391	0.078085	0.136479	0.588549	0.155881
5	0.416760	0.363144	0.735908	0.093382	0.627097	0.483809	0.558378	0.226410	0.121862	0.090254	0.641773	0.126012	0.442083	0.597694	0.640637	0.458728	0.088697	0.196009	0.713400	0.095760	0.120180	0.121900	0.564388	0.201457	0.127120	0.199016	0.529598	0.469051	0.151677	0.560022	0.535545	0.668652	0.292915	0.236045	0.790471	0.269330	0.090577	0.157566	0.442670	0.074275	0.276154	0.325735	0.771242	0.306858	0.214263	0.314234	0.746980	0.644105	0.340256	0.299571	0.718379	0.119861	0.198879	0.241175	0.682888	0.458473	0.116417	0.124930	0.507912	0.334714	0.166480	0.335931	0.596698	0.189510	0.107401	0.071536	0.714293	0.352753	0.229125	0.257491	0.606649	0.380949	0.185732	0.234832	0.608370	0.100584	0.067010	0.133414	0.478706	0.156716
6	0.247120	0.317296	0.743923	0.086945	0.721623	0.516577	0.547184	0.230059	0.107850	0.089861	0.660348	0.138341	0.531848	0.609862	0.609510	0.479099	0.070556	0.183497	0.656069	0.095238	0.095034	0.097960	0.586630	0.197712	0.140283	0.203365	0.523034	0.484947	0.140965	0.358601	0.536938	0.570546	0.162994	0.215411	0.846808	0.271284	0.106835	0.155946	0.489120	0.061519	0.248401	0.236243	0.783945	0.337913	0.177205	0.287413	0.778352	0.620589	0.342460	0.306838	0.818492	0.115625	0.165727	0.212222	0.640955	0.503948	0.103863	0.109857	0.514017	0.334701	0.158539	0.335468	0.520505	0.197372	0.134197	0.163926	0.701494	0.352044	0.226568	0.300684	0.575233	0.377891	0.181699	0.233648	0.585609	0.174069	0.056756	0.119250	0.605676	0.151067
7	0.082282	0.192485	0.760830	0.102768	0.723918	0.515388	0.489298	0.239250	0.105351	0.113731	0.662156	0.140735	0.584580	0.610109	0.660798	0.478142	0.063291	0.199445	0.565698	0.198918	0.094505	0.085330	0.563110	0.200389	0.168963	0.222705	0.652449	0.530637	0.135432	0.250287	0.582489	0.542517	0.164324	0.164593	0.781365	0.267654	0.112542	0.157046	0.509220	0.061487	0.197315	0.223902	0.791192	0.322225	0.142038	0.267099	0.776439	0.617739	0.329808	0.304081	0.798053	0.132146	0.159297	0.192345	0.624749	0.500993	0.081246	0.120229	0.513817	0.330436	0.160759	0.323704	0.644108	0.199587	0.154631	0.247174	0.668052	0.326931	0.206330	0.352979	0.526296	0.368507	0.175601	0.233504	0.599628	0.207470	0.060668	0.108813	0.571210	0.143129
8	0.081038	0.123744	0.623283	0.113907	0.669659	0.499265	0.420690	0.241418	0.110490	0.133198	0.676697	0.155244	0.684314	0.661049	0.686637	0.469611	0.055450	0.212515	0.565231	0.280321	0.095596	0.091980	0.542847	0.208992	0.160836	0.178778	0.710169	0.582204	0.142626	0.205868	0.684050	0.558759	0.175360	0.164914	0.714476	0.274661	0.109913	0.163641	0.635915	0.058440	0.149619	0.200196	0.769791	0.277376	0.110450	0.179117	0.818781	0.610986	0.310435	0.309123	0.820738	0.177390	0.153515	0.205634	0.633232	0.505701	0.085174	0.130787	0.502736	0.322721	0.161502	0.322016	0.633990	0.200686	0.152310	0.247160	0.583237	0.255382	0.164080	0.431781	0.534735	0.349204	0.164268	0.207426	0.606400	0.207277	0.092889	0.134842	0.617182	0.178270
9	0.090949	0.069191	0.532895	0.111743	0.636138	0.503694	0.470712	0.242944	0.113803	0.130123	0.701835	0.171618	0.750582	0.673867	0.682312	0.436843	0.061601	0.204880	0.484160	0.273071	0.096507	0.086537	0.537150	0.215050	0.153136	0.141015	0.696579	0.622410	0.133586	0.122813	0.707129	0.557757	0.170650	0.191036	0.919952	0.304474	0.120061	0.213237	0.613697	0.070183	0.114899	0.153496	0.758036	0.245222	0.119102	0.196715	0.750183	0.604131	0.282081	0.282622	0.706295	0.190648	0.151634	0.207046	0.665538	0.506794	0.093801	0.129771	0.535276	0.288957	0.163157	0.322640	0.595719	0.212944	0.158993	0.252684	0.603682	0.228694	0.154195	0.450896	0.460702	0.302068	0.148029	0.153620	0.664656	0.210212	0.111328	0.164457	0.603704	0.233632
10	0.087576	0.048640	0.507646	0.117233	0.622405	0.491783	0.616641	0.241849	0.111477	0.127736	0.683016	0.175059	0.768751	0.658345	0.654236	0.442282	0.096508	0.174509	0.503453	0.274786	0.097642	0.126640	0.586297	0.201841	0.151684	0.183109	0.742097	0.479286	0.131104	0.138588	0.684398	0.542880	0.145297	0.189943	0.929644	0.284937	0.125135	0.237983	0.593269	0.070227	0.116575	0.192817	0.722510	0.243680	0.121806	0.189563	0.773856	0.585027	0.180352	0.178481	0.761218	0.184408	0.152710	0.192270	0.681447	0.507956	0.088855	0.125922	0.537232	0.210316	0.159697	0.319163	0.642966	0.280291	0.199971	0.310283	0.587370	0.223195	0.192697	0.552006	0.537219	0.253422	0.136903	0.146632	0.654154	0.215874	0.126020	0.170178	0.613364	0.236081
11	0.087361	0.044948	0.455905	0.123789	0.614067	0.326425	0.600370	0.242133	0.110614	0.118427	0.664214	0.170178	0.772740	0.550768	0.623149	0.445769	0.108791	0.137194	0.672894	0.277220	0.090709	0.210967	0.601105	0.182582	0.147221	0.246633	0.747783	0.629532	0.131181	0.167544	0.677773	0.527646	0.137865	0.246809	0.915653	0.226021	0.126977	0.240390	0.590080	0.077078	0.111785	0.197755	0.723399	0.248037	0.120820	0.183997	0.795759	0.563862	0.151639	0.160536	0.719646	0.260482	0.150109	0.186088	0.684253	0.506347	0.090126	0.124498	0.493748	0.150462	0.160952	0.320251	0.660078	0.467906	0.209129	0.326004	0.601617	0.172497	0.210300	0.607229	0.535392	0.215277	0.096379	0.112153	0.612130	0.218317	0.149968	0.183945	0.600076	0.219329
12	0.086657	0.039742	0.636921	0.147960	0.570681	0.312954	0.593788	0.225063	0.093020	0.118452	0.606764	0.174685	0.760266	0.531654	0.634989	0.431999	0.107483	0.139333	0.652042	0.285748	0.081892	0.216663	0.667769	0.175969	0.148201	0.281790	0.653160	0.799524	0.117805	0.179706	0.674765	0.513769	0.148733	0.245800	0.903451	0.249247	0.127443	0.240425	0.607696	0.079965	0.112431	0.197143	0.664441	0.238752	0.104174	0.149571	0.806752	0.521989	0.145250	0.139234	0.694204	0.361021	0.147777	0.179065	0.642426	0.495151	0.105392	0.124568	0.509554	0.115097	0.163290	0.316741	0.665307	0.573558	0.207864	0.324862	0.601153	0.127471	0.259110	0.609657	0.505629	0.174028	0.069001	0.102834	0.623990	0.218171	0.157639	0.197055	0.698826	0.230724
13	0.083648	0.047122	0.667436	0.161147	0.492684	0.315538	0.604115	0.185684	0.098596	0.133501	0.579018	0.167591	0.748154	0.502405	0.627980	0.357989	0.184126	0.181209	0.666118	0.205993	0.082605	0.227242	0.735512	0.161014	0.155698	0.292961	0.585822	0.790745	0.106724	0.176654	0.669282	0.490850	0.152456	0.236610	0.938589	0.258879	0.135176	0.236226	0.678689	0.080190	0.111659	0.197018	0.639845	0.240175	0.085726	0.138804	0.713521	0.439703	0.166562	0.168046	0.653832	0.398777	0.137075	0.182165	0.486472	0.451933	0.115873	0.124958	0.555820	0.122648	0.150234	0.307224	0.668173	0.581867	0.180796	0.285428	0.622270	0.126880	0.260909	0.609862	0.514529	0.158273	0.070049	0.104943	0.670483	0.219004	0.156794	0.199274	0.726884	0.240087
14	0.114597	0.082523	0.662714	0.178396	0.255654	0.296240	0.630102	0.198158	0.092625	0.125813	0.587472	0.181381	0.713001	0.402349	0.621948	0.289942	0.349877	0.292411	0.722787	0.175940	0.082435	0.240358	0.759098	0.299397	0.163499	0.302925	0.595782	0.779486	0.107165	0.175185	0.667225	0.474017	0.170490	0.280038	0.773721	0.298687	0.136557	0.248500	0.674305	0.079994	0.121454	0.198899	0.638199	0.248570	0.078039	0.141578	0.747506	0.748325	0.165165	0.161030	0.656690	0.431299	0.142078	0.172367	0.553669	0.367581	0.112837	0.117898	0.530117	0.202604	0.130372	0.247754	0.671602	0.593447	0.162400	0.235865	0.644944	0.160584	0.262891	0.607006	0.519108	0.191137	0.076733	0.118919	0.616761	0.215982	0.156801	0.200573	0.632649	0.243682
15	0.140244	0.085588	0.724599	0.175326	0.154046	0.224692	0.648915	0.275918	0.081317	0.134169	0.617396	0.180005	0.633690	0.352511	0.639679	0.246277	0.601976	0.375102	0.711913	0.184764	0.087565	0.246964	0.751201	0.640016	0.197068	0.347996	0.562235	0.776350	0.105763	0.175333	0.598030	0.694908	0.204903	0.261866	0.736734	0.309631	0.146838	0.263431	0.713687	0.080501	0.119434	0.201246	0.653714	0.227740	0.081808	0.140627	0.761291	0.972329	0.186826	0.166590	0.637453	0.479872	0.118966	0.140782	0.718620	0.521156	0.112475	0.125355	0.527654	0.313984	0.116162	0.211963	0.682458	0.646009	0.165158	0.251808	0.617347	0.253908	0.260490	0.595693	0.596662	0.396339	0.078424	0.125400	0.624054	0.162603	0.156021	0.205605	0.641394	0.243716
16	0.181350	0.130406	0.737246	0.176900	0.114204	0.226859	0.676870	0.452982	0.111305	0.167162	0.590186	0.156387	0.590208	0.367866	0.626258	0.499131	0.606018	0.386285	0.654064	0.184600	0.094165	0.260247	0.754915	0.665081	0.188385	0.309998	0.550550	0.639457	0.069424	0.178335	0.572029	0.770509	0.241665	0.291483	0.727799	0.286281	0.157132	0.263296	0.741511	0.084857	0.115552	0.200989	0.685834	0.191628	0.089504	0.147148	0.729297	0.980992	0.207398	0.195676	0.734394	0.487931	0.113261	0.122661	0.769162	0.634374	0.118434	0.109745	0.537026	0.404445	0.126067	0.127584	0.673810	0.711547	0.162518	0.252629	0.593179	0.260017	0.256734	0.576091	0.580710	0.644515	0.078353	0.125117	0.630538	0.112566	0.143563	0.308424	0.608973	0.221806
17	0.213906	0.169175	0.833825	0.185297	0.169576	0.262688	0.697362	0.457061	0.146443	0.180649	0.603768	0.149308	0.532324	0.321321	0.601889	0.662377	0.610993	0.433282	0.523347	0.182985	0.104155	0.334675	0.891334	0.667154	0.159825	0.278837	0.545302	0.382082	0.057686	0.197350	0.548884	0.767204	0.240613	0.249512	0.752271	0.299223	0.146099	0.281906	0.754557	0.194628	0.113519	0.199185	0.676510	0.190862	0.075726	0.121219	0.750245	0.993744	0.202145	0.217849	0.726854	0.484325	0.115314	0.121048	0.781162	0.639724	0.119689	0.087444	0.573194	0.438296	0.147754	0.132782	0.552857	0.756081	0.115099	0.179778	0.555874	0.302946	0.261161	0.550275	0.591002	0.686661	0.077598	0.120383	0.675914	0.111316	0.210578	0.332139	0.641372	0.160894
18	0.216425	0.207213	0.845806	0.190195	0.173670	0.274091	0.645046	0.462498	0.149694	0.180725	0.672424	0.146347	0.371019	0.264146	0.565693	0.663379	0.614283	0.465679	0.541495	0.183256	0.124011	0.366846	0.866807	0.669710	0.159781	0.277292	0.551350	0.339808	0.060141	0.245031	0.547317	0.770849	0.232510	0.251342	0.805878	0.431399	0.134776	0.281756	0.727397	0.333260	0.113919	0.195743	0.668564	0.185528	0.074697	0.106033	0.855767	0.998156	0.195305	0.235857	0.711906	0.433976	0.111492	0.161439	0.754884	0.658610	0.107854	0.103034	0.584026	0.445792	0.167675	0.176530	0.577877	0.768574	0.183402	0.194513	0.546869	0.315254	0.262424	0.500049	0.584276	0.688045	0.067767	0.101622	0.695158	0.134218	0.213739	0.447438	0.682608	0.147824
19	0.218003	0.216215	0.689967	0.176789	0.174584	0.273166	0.591868	0.474541	0.181084	0.184876	0.682442	0.143732	0.307871	0.258864	0.613061	0.648833	0.593143	0.443139	0.486044	0.165993	0.123433	0.354185	0.854724	0.669888	0.151391	0.328893	0.571726	0.214650	0.138064	0.226213	0.555913	0.772203	0.228041	0.260955	0.735448	0.482562	0.152465	0.334791	0.718149	0.371204	0.110330	0.164769	0.681187	0.184039	0.064628	0.114126	0.950050	0.998983	0.178943	0.235367	0.639728	0.369078	0.100230	0.217455	0.809072	0.670820	0.102681	0.112962	0.576168	0.501239	0.170079	0.176443	0.601657	0.777900	0.215286	0.209567	0.540983	0.328493	0.251454	0.468624	0.604662	0.698067	0.081161	0.099566	0.685121	0.125648	0.201248	0.470525	0.680325	0.155596
20	0.220275	0.233207	0.651339	0.159005	0.172892	0.218113	0.580736	0.478951	0.191478	0.177763	0.689341	0.141399	0.246676	0.250163	0.591568	0.642772	0.521922	0.391327	0.486950	0.117355	0.170846	0.561495	0.820134	0.668171	0.101069	0.312537	0.586912	0.222775	0.150189	0.246909	0.581359	0.771778	0.199939	0.193251	0.705503	0.459394	0.165350	0.381808	0.626898	0.374044	0.083171	0.101995	0.671896	0.179603	0.141998	0.139904	0.939348	0.983231	0.159831	0.250849	0.651977	0.369037	0.110348	0.330534	0.811816	0.670403	0.107410	0.125005	0.578402	0.548436	0.170340	0.186558	0.584268	0.854208	0.222555	0.203400	0.547203	0.327757	0.216239	0.344893	0.551688	0.726753	0.115546	0.121553	0.697152	0.129328	0.206611	0.482494	0.610109	0.157114
21	0.205475	0.235337	0.716189	0.136753	0.180328	0.219260	0.569101	0.466081	0.195689	0.181546	0.674552	0.131688	0.211604	0.239014	0.607510	0.635543	0.176256	0.311678	0.565797	0.180827	0.182129	0.584301	0.770281	0.673992	0.132599	0.424372	0.844562	0.412261	0.152761	0.274967	0.582045	0.769690	0.163193	0.184023	0.677401	0.596392	0.160651	0.376423	0.671782	0.382145	0.081465	0.095705	0.665619	0.178230	0.210207	0.161360	0.911589	0.976273	0.215408	0.293710	0.651997	0.302911	0.124119	0.359069	0.821012	0.662348	0.099222	0.126827	0.577395	0.550747	0.168708	0.186657	0.564258	0.864263	0.263233	0.263214	0.652987	0.344492	0.198616	0.225587	0.563299	0.736822	0.120928	0.122175	0.700429	0.130086	0.205873	0.484172	0.576086	0.160059
22	0.186478	0.233723	0.770139	0.146721	0.179245	0.218500	0.797932	0.452460	0.193907	0.163784	0.680643	0.123161	0.222047	0.227970	0.607932	0.629450	0.144662	0.283472	0.565818	0.204955	0.181023	0.606779	0.739401	0.699550	0.126503	0.414114	0.930637	0.457777	0.166795	0.301841	0.630607	0.755853	0.094372	0.117412	0.746131	0.623599	0.156796	0.361809	0.706752	0.388513	0.080556	0.096177	0.626515	0.194477	0.213967	0.187246	0.856062	0.910306	0.209281	0.293444	0.652061	0.255388	0.127474	0.472853	0.789319	0.649182	0.076877	0.117434	0.566148	0.552539	0.177607	0.240083	0.590049	0.805752	0.291670	0.309366	0.637925	0.414229	0.126084	0.226625	0.568091	0.735793	0.145728	0.171888	0.645938	0.130870	0.206010	0.526457	0.613945	0.286200
23	0.165713	0.219994	0.793795	0.199370	0.176905	0.259400	0.791127	0.446086	0.193949	0.131461	0.683901	0.219467	0.242200	0.227656	0.621765	0.627889	0.140609	0.225417	0.588368	0.204977	0.179351	0.604167	0.722845	0.624056	0.128749	0.412483	0.932062	0.450106	0.174844	0.313886	0.667014	0.650037	0.088249	0.121156	0.718537	0.605181	0.179857	0.378451	0.703230	0.389449	0.079452	0.101136	0.572365	0.174515	0.216388	0.196574	0.817632	0.443502	0.203585	0.289839	0.621221	0.255587	0.116564	0.505870	0.604939	0.594434	0.075512	0.118199	0.580646	0.554754	0.188590	0.242137	0.577786	0.803838	0.295872	0.338872	0.625931	0.465264	0.131660	0.228723	0.577088	0.734301	0.149440	0.195075	0.607332	0.129632	0.206550	0.531537	0.580236	0.445491
24	0.098588	0.188554	0.745564	0.246572	0.173922	0.331647	0.805379	0.226537	0.157433	0.094701	0.722168	0.298233	0.229294	0.205197	0.646433	0.636679	0.143606	0.164187	0.575759	0.200955	0.175875	0.601607	0.779926	0.748298	0.155801	0.372368	0.975588	0.470777	0.180571	0.352934	0.662894	0.326105	0.093585	0.113454	0.608365	0.499049	0.197436	0.399377	0.697609	0.390856	0.062088	0.103392	0.502358	0.172260	0.212346	0.209914	0.816670	0.514142	0.206391	0.266889	0.705802	0.252548	0.121308	0.504981	0.546947	0.330080	0.076489	0.119090	0.623899	0.530138	0.196626	0.281838	0.576171	0.792030	0.289551	0.343750	0.638983	0.442067	0.176103	0.231908	0.557540	0.724761	0.148158	0.195922	0.604014	0.135814	0.203386	0.472716	0.554278	0.568311
25	0.120126	0.158581	0.708721	0.281236	0.117640	0.336468	0.779194	0.164998	0.154479	0.096825	0.598985	0.322772	0.210652	0.186804	0.627105	0.601481	0.131155	0.115642	0.653630	0.202783	0.191030	0.585333	0.600330	0.790469	0.158542	0.344019	0.979975	0.473580	0.199549	0.438380	0.687196	0.256821	0.090181	0.088868	0.578329	0.465370	0.207268	0.402297	0.623486	0.392178	0.065388	0.104252	0.505676	0.181109	0.215161	0.279972	0.840510	0.635182	0.207575	0.258768	0.731894	0.253346	0.109734	0.503655	0.604017	0.280992	0.072660	0.119840	0.627379	0.501600	0.208189	0.291775	0.588888	0.739541	0.238548	0.335310	0.656684	0.449947	0.179199	0.252373	0.487739	0.641793	0.147930	0.196308	0.677146	0.143287	0.121860	0.449233	0.619663	0.582283
26	0.126582	0.154969	0.695873	0.303647	0.084662	0.392463	0.755352	0.175459	0.140134	0.092882	0.591930	0.338251	0.177031	0.180336	0.625116	0.415319	0.136603	0.111202	0.683439	0.206418	0.186789	0.573428	0.656871	0.791324	0.136186	0.352421	0.765176	0.316694	0.203949	0.443136	0.671493	0.422652	0.089852	0.085470	0.561466	0.434941	0.218576	0.391381	0.653702	0.392133	0.064960	0.105137	0.488637	0.171963	0.217298	0.285884	0.861729	0.639328	0.203376	0.235892	0.845591	0.199800	0.114519	0.502567	0.642596	0.373115	0.079700	0.141674	0.660009	0.463891	0.219280	0.289077	0.619277	0.673379	0.221970	0.333629	0.647487	0.499039	0.178127	0.273872	0.535377	0.388440	0.148209	0.200524	0.628068	0.144804	0.109363	0.330832	0.678117	0.597925
27	0.122622	0.134546	0.709086	0.521739	0.099022	0.410078	0.715052	0.165644	0.088094	0.083441	0.581355	0.360920	0.156910	0.223053	0.641158	0.518926	0.129536	0.107716	0.580281	0.154352	0.181272	0.561858	0.648528	0.817149	0.142349	0.445074	0.695057	0.240669	0.195245	0.438296	0.748542	0.606108	0.113423	0.084509	0.512365	0.185222	0.268290	0.378559	0.629312	0.392159	0.079785	0.106280	0.496244	0.218326	0.227680	0.286223	0.738863	0.696628	0.189176	0.209832	0.850741	0.184966	0.119256	0.484792	0.596350	0.443721	0.083019	0.140500	0.630034	0.489416	0.219633	0.295048	0.718743	0.631235	0.207512	0.326721	0.611371	0.562073	0.167957	0.272726	0.551885	0.322533	0.152155	0.210060	0.575597	0.135324	0.137425	0.304518	0.670367	0.626317
28	0.143536	0.146494	0.708944	0.659960	0.136132	0.412088	0.742586	0.184159	0.071059	0.079087	0.589256	0.533540	0.176517	0.359811	0.655548	0.570033	0.123470	0.111949	0.569399	0.131487	0.141337	0.362052	0.702096	0.828780	0.140558	0.496451	0.693586	0.230618	0.149047	0.428110	0.747807	0.699309	0.108911	0.072589	0.486071	0.156689	0.266144	0.384364	0.593577	0.393971	0.092255	0.102698	0.554501	0.297861	0.225669	0.293623	0.676420	0.725717	0.110533	0.125307	0.836212	0.162776	0.115112	0.430623	0.641474	0.582472	0.083314	0.129378	0.591517	0.491069	0.226759	0.358410	0.731601	0.652329	0.149916	0.282576	0.505602	0.533374	0.160231	0.360734	0.567585	0.399479	0.155045	0.215644	0.587717	0.135909	0.127655	0.278643	0.659604	0.722827
29	0.159402	0.171630	0.569085	0.678841	0.135900	0.453399	0.776372	0.218604	0.074269	0.069914	0.576722	0.696438	0.219051	0.456505	0.646835	0.572016	0.108801	0.192359	0.548180	0.157280	0.121510	0.293879	0.699372	0.862177	0.107602	0.535489	0.638593	0.372197	0.156180	0.421440	0.713216	0.709959	0.105078	0.074855	0.542226	0.270639	0.269236	0.369735	0.570431	0.384586	0.105112	0.116924	0.520221	0.370288	0.130900	0.297903	0.709554	0.722469	0.106173	0.105133	0.845350	0.111612	0.109505	0.394851	0.735823	0.633073	0.095777	0.118608	0.623480	0.459810	0.267987	0.408155	0.722424	0.690877	0.085315	0.267474	0.586933	0.487866	0.160705	0.363987	0.526761	0.515954	0.134000	0.209303	0.564787	0.132377	0.128005	0.274573	0.651016	0.831092
30	0.148355	0.177084	0.502317	0.672740	0.137273	0.465707	0.667422	0.229448	0.106468	0.085194	0.523226	0.720252	0.219311	0.494225	0.644108	0.573337	0.079488	0.184418	0.491866	0.181214	0.123259	0.225994	0.707568	1.103107	0.107514	0.535081	0.639823	0.397093	0.150711	0.392114	0.681032	0.710215	0.100057	0.086743	0.561803	0.355366	0.276736	0.374477	0.562713	0.384118	0.120703	0.141082	0.576667	0.391654	0.179064	0.298928	0.718629	0.729644	0.097407	0.088346	0.828312	0.117050	0.084211	0.310767	0.743772	0.633442	0.098076	0.143097	0.689997	0.483260	0.267691	0.407902	0.742445	0.610220	0.083330	0.287636	0.634193	0.467521	0.160936	0.363990	0.537658	0.648964	0.130163	0.211134	0.568650	0.133789	0.135405	0.178882	0.707857	0.804690
31	0.150656	0.199133	0.465596	0.693665	0.139711	0.452219	0.574197	0.224782	0.116226	0.088922	0.433174	0.687372	0.216297	0.499975	0.617233	0.574364	0.091589	0.307357	0.416500	0.183409	0.144508	0.257350	0.782747	1.072827	0.102576	0.463340	0.588794	0.431726	0.140586	0.389862	0.619007	0.733805	0.102651	0.110335	0.563416	0.412368	0.272203	0.340656	0.554465	0.518348	0.121921	0.148863	0.577855	0.392947	0.193481	0.300363	0.724807	0.729668	0.087419	0.194619	0.849480	0.132390	0.087000	0.125840	0.745298	0.633450	0.152092	0.255569	0.720228	0.487934	0.268081	0.408902	0.790146	0.470319	0.095128	0.292666	0.643682	0.550629	0.163856	0.372433	0.597739	0.742533	0.098403	0.176632	0.600805	0.163097	0.140028	0.162631	0.748338	0.753038
32	0.145011	0.211541	0.571001	0.717718	0.142540	0.422852	0.538474	0.225162	0.110240	0.100192	0.495209	0.695534	0.186795	0.502344	0.585321	0.591418	0.095984	0.329662	0.617535	0.197163	0.146806	0.259468	0.723141	0.957688	0.095693	0.386225	0.646243	0.485084	0.148957	0.372185	0.609754	0.868858	0.101755	0.142087	0.602113	0.442316	0.267819	0.287137	0.687680	0.633105	0.121228	0.155351	0.591213	0.493101	0.189081	0.295984	0.714741	0.704147	0.088562	0.305763	0.776589	0.200345	0.075845	0.120096	0.806329	0.641823	0.179061	0.273956	0.685842	0.467835	0.260603	0.381535	0.765898	0.497344	0.106264	0.288657	0.668724	0.809862	0.181784	0.368126	0.614686	0.779611	0.083360	0.137048	0.580039	0.175224	0.137639	0.160731	0.743884	0.705553
33	0.136267	0.213388	0.613738	0.781793	0.145164	0.374994	0.525361	0.225679	0.108682	0.105366	0.642922	0.697555	0.191672	0.517220	0.752716	0.602668	0.133991	0.396702	0.625436	0.226312	0.128522	0.221830	0.704303	0.917654	0.115890	0.331005	0.624278	0.502989	0.168970	0.327287	0.654017	1.152256	0.114624	0.156021	0.613294	0.434537	0.272608	0.261518	0.623337	0.680556	0.118651	0.150994	0.604775	0.756349	0.185723	0.234123	0.726069	0.792080	0.102152	0.327583	0.784620	0.242743	0.076462	0.121401	0.776714	0.676360	0.186056	0.273436	0.664924	0.447682	0.253551	0.379490	0.768933	0.564626	0.111816	0.292598	0.727127	0.840310	0.176284	0.367325	0.653253	0.782964	0.081908	0.130078	0.576198	0.170819	0.142381	0.157531	0.702537	0.697632
34	0.169794	0.219774	0.627402	0.723699	0.147747	0.312125	0.519852	0.238415	0.108146	0.104875	0.624585	0.699861	0.184554	0.520190	0.736435	0.587541	0.148791	0.438816	0.617418	0.222060	0.107953	0.162136	0.703673	0.930132	0.115619	0.241819	0.615917	0.395715	0.161902	0.213135	0.618509	1.185371	0.115166	0.316108	0.588554	0.437888	0.276570	0.257554	0.688519	0.696342	0.114923	0.145153	0.634948	0.848763	0.186746	0.205508	0.537719	1.031581	0.121431	0.416876	0.829646	0.301287	0.096698	0.093839	0.782491	0.760372	0.189448	0.275283	0.678260	0.429806	0.246077	0.360941	0.778677	0.594186	0.121275	0.293009	0.748064	0.812497	0.128410	0.369556	0.665573	0.784743	0.082147	0.130170	0.463295	0.165187	0.145344	0.156948	0.628313	0.758399
35	0.176275	0.202810	0.583360	0.577398	0.143749	0.256565	0.589814	0.247273	0.108229	0.095723	0.658481	0.646723	0.180099	0.511050	0.737466	0.522857	0.157038	0.432546	0.687031	0.212178	0.102495	0.158727	0.721050	0.926273	0.120929	0.219453	0.585212	0.381661	0.160386	0.189334	0.510263	1.113621	0.120091	0.483785	0.566952	0.436513	0.267673	0.236193	0.717404	0.697224	0.112232	0.142625	0.644667	0.858700	0.181251	0.207212	0.517759	1.032903	0.119783	0.512307	0.790530	0.323819	0.090396	0.081282	0.746356	0.963839	0.184419	0.266004	0.642482	0.429484	0.236943	0.357300	0.745364	0.600729	0.121258	0.287060	0.737486	0.822424	0.126830	0.362274	0.724944	0.812062	0.088995	0.137405	0.480266	0.169889	0.120787	0.121318	0.702106	0.794914
36	0.183584	0.271674	0.619937	0.545738	0.121306	0.263072	0.620896	0.237837	0.107001	0.098744	0.645809	0.424757	0.186518	0.495686	0.725107	0.498722	0.173347	0.451041	0.702750	0.208119	0.100199	0.149701	0.709836	0.925564	0.149084	0.203027	0.697431	0.347327	0.160168	0.175452	0.548838	1.053039	0.125226	0.491939	0.544329	0.643095	0.259610	0.200964	0.779405	0.697984	0.112135	0.142138	0.656163	0.855452	0.181565	0.198825	0.581003	1.001284	0.112396	0.522320	0.766042	0.335618	0.094627	0.093325	0.837268	0.940083	0.183141	0.277753	0.646317	0.428687	0.213129	0.358440	0.712888	0.601611	0.118839	0.231168	0.864603	0.833923	0.125049	0.345797	0.730442	0.895055	0.127502	0.177976	0.506572	0.161777	0.120503	0.114608	0.705793	0.707587
37	0.207926	0.308222	0.673669	0.548934	0.083668	0.230955	0.567967	0.231904	0.084952	0.192658	0.722667	0.334924	0.177199	0.440297	0.707710	0.673968	0.172582	0.402192	0.649797	0.211046	0.107415	0.160203	0.721310	0.915893	0.162127	0.180480	0.662777	0.270349	0.156680	0.171411	0.557726	1.037856	0.138807	0.502121	0.601773	0.763281	0.251189	0.205585	0.774772	0.705597	0.099523	0.147049	0.645223	0.849399	0.179630	0.161033	0.668123	1.032348	0.110859	0.518104	0.780746	0.333738	0.098098	0.159227	0.723421	0.888757	0.203542	0.325468	0.653488	0.389707	0.194356	0.347829	0.625282	0.604205	0.108363	0.163271	1.039007	0.933870	0.128296	0.336353	0.733644	1.135319	0.139487	0.253818	0.525144	0.159117	0.124405	0.123228	0.710724	0.574084
38	0.248592	0.350584	0.889404	0.515811	0.083693	0.150790	0.607214	0.281984	0.032032	0.208198	0.717369	0.340639	0.099869	0.280076	0.699946	0.730425	0.163041	0.405309	0.507509	0.177709	0.113302	0.166317	0.690516	0.593568	0.167967	0.189498	0.645708	0.235054	0.150898	0.156007	0.570064	1.049757	0.116980	0.498278	0.625249	0.761777	0.240695	0.204134	0.762800	0.725672	0.089764	0.151984	0.850385	0.844190	0.138641	0.143885	0.619211	1.047832	0.104365	0.454951	0.871820	0.311081	0.096967	0.166351	0.788086	0.957249	0.233317	0.368454	0.644377	0.352286	0.172485	0.260702	0.587043	0.584310	0.103165	0.158221	1.076700	0.913970	0.133056	0.199445	0.718017	1.235772	0.137036	0.270647	0.578293	0.168507	0.116202	0.122875	0.618339	0.567053
39	0.272307	0.381706	0.884038	0.460194	0.077295	0.158826	0.634291	0.316376	0.060056	0.225714	0.737655	0.290544	0.105429	0.224923	0.702472	0.731217	0.131433	0.327643	0.559376	0.171019	0.088505	0.118178	0.653797	0.413122	0.174062	0.205977	0.655770	0.211210	0.148061	0.149205	0.601250	1.050296	0.090970	0.494597	0.629145	0.801436	0.184303	0.199414	0.753503	0.808794	0.062476	0.139492	0.873850	0.835757	0.091446	0.084990	0.613578	1.044978	0.101403	0.427877	0.829401	0.295720	0.102752	0.169043	0.790182	1.016337	0.241781	0.384091	0.539198	0.353181	0.086702	0.174379	0.655620	0.572828	0.094575	0.142171	1.024108	0.761604	0.136283	0.154122	0.737437	1.208981	0.149684	0.273212	0.612806	0.200515	0.108913	0.117681	0.677871	0.537203
40	0.277004	0.391291	0.880896	0.357377	0.067369	0.173073	0.675180	0.326820	0.064780	0.292205	0.626338	0.255221	0.105433	0.197725	0.696780	0.741264	0.107433	0.258447	0.586635	0.173865	0.083033	0.096050	0.634674	0.406460	0.162532	0.188607	0.728246	0.164200	0.138384	0.131296	0.637395	1.007643	0.091499	0.398911	0.619915	0.814380	0.179737	0.179575	0.750000	1.001208	0.036715	0.131404	0.882198	0.838365	0.084286	0.072764	0.565772	1.026753	0.085699	0.425125	0.835395	0.262114	0.099818	0.171575	0.744136	1.019815	0.232499	0.333541	0.616310	0.346499	0.104439	0.181687	0.766816	0.536463	0.088891	0.145876	1.056674	0.736369	0.134117	0.153987	0.735278	1.125453	0.161141	0.309053	0.594178	0.198561	0.107161	0.116787	0.693412	0.484640
41	0.261414	0.403777	0.878079	0.204693	0.075294	0.172707	0.696803	0.341265	0.068353	0.337850	0.581827	0.226427	0.114555	0.198087	0.721729	0.754150	0.101302	0.244282	0.534807	0.187042	0.081049	0.110786	0.652104	0.391181	0.157517	0.179215	0.665356	0.113282	0.103527	0.134565	0.654956	0.756420	0.087935	0.254499	0.678582	0.798900	0.183201	0.174496	0.753221	1.099766	0.035047	0.132478	0.880979	0.894050	0.085335	0.072415	0.710494	0.984644	0.067071	0.228127	0.816789	0.260519	0.110366	0.170247	0.685856	1.008958	0.221799	0.314761	0.973537	0.356974	0.114501	0.182554	0.820797	0.531683	0.105167	0.154439	1.051823	0.733445	0.122177	0.153954	0.672253	1.069188	0.163116	0.320068	0.608908	0.187966	0.095225	0.113966	0.643303	0.478677
42	0.244024	0.476821	0.875100	0.226229	0.089774	0.180225	0.689007	0.340845	0.086927	0.472254	0.594093	0.224285	0.101503	0.156195	0.523447	0.744114	0.083601	0.186726	0.552730	0.209517	0.101592	0.141250	0.619552	0.355752	0.145344	0.173312	0.714230	0.150405	0.049103	0.097212	0.609360	0.390805	0.100139	0.221311	0.709737	0.545997	0.176896	0.147201	0.751561	1.109026	0.034974	0.133142	0.880822	0.940419	0.086768	0.072864	0.708037	0.672534	0.064348	0.170301	0.836734	0.272844	0.103780	0.172524	0.676557	0.969719	0.217035	0.314043	1.035539	0.358641	0.122224	0.181901	0.814494	0.490181	0.129955	0.303508	1.032063	0.725116	0.093024	0.161939	0.725309	1.052912	0.169258	0.350928	0.620713	0.223953	0.079392	0.110075	0.631023	0.367574
43	0.234054	0.458809	0.875140	0.285441	0.095373	0.180084	0.665359	0.346272	0.087007	0.473327	0.600361	0.301365	0.104547	0.126335	0.520363	0.739890	0.078005	0.196723	0.567733	0.211250	0.107807	0.143479	0.612049	0.323352	0.118176	0.154014	0.717314	0.153410	0.056773	0.132112	0.710679	0.361923	0.093947	0.208139	0.679969	0.425548	0.172067	0.128121	0.795147	1.050830	0.037783	0.143559	0.873276	0.795357	0.082201	0.072686	0.698999	0.557777	0.063795	0.159171	0.778899	0.264147	0.114507	0.192647	0.671413	0.737703	0.216090	0.310102	1.033918	0.341852	0.138976	0.176754	0.877978	0.402707	0.140590	0.361619	0.912928	0.832183	0.092416	0.157109	0.697627	1.052089	0.170512	0.359971	0.672285	0.265959	0.094121	0.110356	0.622991	0.279778
44	0.228759	0.478782	0.896404	0.277078	0.115396	0.184644	0.669068	0.347670	0.088606	0.460445	0.602108	0.559697	0.108581	0.116109	0.471999	0.735879	0.085913	0.178941	0.544188	0.213359	0.110564	0.145065	0.613128	0.345531	0.114915	0.139718	0.641136	0.151863	0.062019	0.169308	0.706637	0.336201	0.124267	0.201463	0.623886	0.438789	0.169080	0.109725	0.708836	0.984330	0.043918	0.159252	0.841259	0.720275	0.068162	0.056645	0.646282	0.553948	0.067434	0.179371	0.613616	0.294146	0.123704	0.207338	0.664830	0.583345	0.215010	0.309986	1.044791	0.322414	0.149856	0.168480	0.878023	0.370299	0.151263	0.481559	0.696160	1.050428	0.090446	0.151525	0.720437	1.051273	0.177239	0.359318	0.678474	0.274067	0.099167	0.118585	0.629575	0.308923
45	0.177506	0.475754	0.649307	0.272660	0.119002	0.174647	0.686145	0.334065	0.090855	0.462985	0.630169	0.575653	0.097312	0.099102	0.480305	0.700956	0.108785	0.195685	0.477737	0.190403	0.102981	0.138050	0.589485	0.349648	0.108482	0.165548	0.646506	0.197695	0.075166	0.172834	0.686521	0.276194	0.134711	0.189230	0.677657	0.370964	0.160063	0.107621	0.703907	0.948367	0.047149	0.166238	0.822661	0.727351	0.070407	0.057137	0.539300	0.512075	0.070563	0.186378	0.574151	0.380678	0.119571	0.188566	0.525079	0.583618	0.214644	0.345713	1.076374	0.307099	0.191409	0.208708	0.927370	0.394325	0.167458	0.488083	0.720783	1.015414	0.083223	0.147258	0.662838	1.031431	0.153611	0.340340	0.651429	0.272819	0.106638	0.119647	0.674308	0.312240
46	0.129223	0.518176	0.553756	0.267098	0.115880	0.169535	0.665445	0.328879	0.084087	0.475216	0.634918	0.586456	0.099135	0.115587	0.429517	0.518085	0.112224	0.196846	0.542114	0.222019	0.094780	0.129907	0.591543	0.363471	0.076319	0.206647	0.652103	0.205422	0.078673	0.174818	0.731498	0.209979	0.135023	0.128019	0.660355	0.316372	0.153706	0.108435	0.613542	0.933945	0.047670	0.167065	0.797040	0.742626	0.073098	0.057464	0.537236	0.476786	0.068695	0.193705	0.595270	0.393795	0.117475	0.162269	0.521109	0.519343	0.204723	0.432111	1.151858	0.273209	0.204104	0.241694	0.946294	0.412031	0.175393	0.524294	0.674366	0.970126	0.077075	0.146006	0.669006	0.962147	0.137590	0.293997	0.624589	0.271253	0.112353	0.206189	0.709413	0.300338
47	0.130288	0.571337	0.560662	0.270237	0.119165	0.163430	0.641953	0.339044	0.073688	0.485084	0.686525	0.613751	0.109643	0.137912	0.437975	0.371809	0.104671	0.191020	0.526650	0.210620	0.102570	0.134697	0.606535	0.332071	0.062226	0.308212	0.623940	0.171877	0.085520	0.180005	0.760563	0.173746	0.131617	0.127665	0.581735	0.315096	0.145664	0.108529	0.588020	0.941526	0.059119	0.165848	0.782088	0.744904	0.068194	0.054729	0.528908	0.466672	0.050381	0.188835	0.637418	0.450057	0.112236	0.159696	0.353545	0.318415	0.173720	0.404163	1.152066	0.268494	0.209852	0.291098	0.947147	0.395440	0.189791	0.568706	0.605347	0.952829	0.072139	0.149631	0.655072	0.654888	0.135509	0.277958	0.564017	0.277501	0.134669	0.219366	0.614046	0.296198
48	0.135845	0.564993	0.576392	0.274345	0.119047	0.129497	0.576722	0.393759	0.092376	0.487202	0.708992	0.626769	0.104883	0.133993	0.407965	0.376862	0.098960	0.184931	0.566011	0.177553	0.112627	0.147802	0.592050	0.336441	0.068883	0.369989	0.610509	0.155015	0.092422	0.199215	0.713607	0.176188	0.140434	0.146635	0.533123	0.314775	0.132732	0.091683	0.488009	0.955908	0.073423	0.173739	0.517186	0.717532	0.070054	0.052011	0.543855	0.464464	0.047984	0.194136	0.552817	0.458551	0.115240	0.157173	0.367207	0.253613	0.177989	0.436392	1.156143	0.213200	0.209558	0.318072	0.961043	0.367587	0.186283	0.657009	0.572270	0.960434	0.066225	0.152107	0.649777	0.364277	0.120767	0.287405	0.524665	0.331177	0.136333	0.248758	0.587558	0.294852
49	0.140351	0.510661	0.621611	0.311448	0.119444	0.128953	0.574043	0.388850	0.077354	0.357871	0.714979	0.626981	0.104692	0.137510	0.408357	0.365092	0.105818	0.150684	0.546747	0.224910	0.137604	0.154734	0.578734	0.336859	0.058010	0.374978	0.660932	0.148359	0.107070	0.204620	0.691213	0.259692	0.154583	0.154868	0.562299	0.273385	0.126162	0.060449	0.507399	0.967182	0.074844	0.170857	0.505442	0.702196	0.086488	0.074042	0.520355	0.461203	0.050798	0.206693	0.556349	0.453814	0.117238	0.155728	0.363582	0.259971	0.178820	0.468512	1.146371	0.196092	0.209381	0.312376	0.905868	0.285673	0.184621	0.608869	0.604453	0.959893	0.064117	0.155720	0.648997	0.309154	0.113056	0.293354	0.521543	0.379975	0.142479	0.251110	0.601704	0.292833
50	0.134676	0.498065	0.700276	0.298447	0.102999	0.129818	0.559883	0.387732	0.093045	0.336295	0.735411	0.615452	0.092719	0.133841	0.394659	0.322117	0.113083	0.149626	0.593329	0.236613	0.169137	0.181835	0.564051	0.338366	0.065483	0.366266	0.597961	0.079209	0.109202	0.194932	0.681545	0.389149	0.433404	0.485339	0.690484	0.205140	0.133209	0.052542	0.491871	0.967089	0.074875	0.169332	0.433188	0.687402	0.095849	0.082333	0.304574	0.412731	0.186724	0.202165	0.603735	0.449509	0.109870	0.164454	0.384028	0.219572	0.165776	0.480980	0.879035	0.219735	0.209243	0.302718	0.785975	0.293294	0.179117	0.601934	0.700607	0.731748	0.064424	0.151266	0.659508	0.325653	0.134937	0.299476	0.506566	0.415723	0.142635	0.249870	0.580568	0.261456
51	0.118775	0.448017	0.651930	0.295660	0.097837	0.124717	0.580906	0.373090	0.096183	0.341387	0.873838	0.444783	0.090702	0.137190	0.393818	0.299129	0.100567	0.123436	0.629433	0.230806	0.176247	0.207461	0.558370	0.338421	0.070790	0.339164	0.596709	0.056773	0.104469	0.204631	0.674996	0.456717	0.669520	0.603365	0.749006	0.194399	0.130965	0.057844	0.497663	0.925390	0.074846	0.168023	0.431343	0.582010	0.112109	0.089696	0.391839	0.378370	0.198522	0.199467	0.646377	0.450140	0.092542	0.147600	0.407251	0.202402	0.160271	0.489993	0.825674	0.302075	0.218194	0.304895	0.657051	0.321271	0.170678	0.525754	0.616289	0.275922	0.067380	0.131019	0.667270	0.287422	0.136647	0.282048	0.554033	0.419982	0.130275	0.245735	0.578438	0.182097
52	0.116783	0.405314	0.665740	0.301861	0.076003	0.112308	0.544980	0.355393	0.113938	0.341713	0.863985	0.314283	0.087790	0.145098	0.427674	0.298355	0.099051	0.123798	0.613455	0.240085	0.174672	0.216346	0.517394	0.290251	0.074010	0.237042	0.587513	0.064980	0.099228	0.177507	0.630187	0.459568	0.736011	0.646642	0.733107	0.165663	0.121269	0.061755	0.501742	0.738492	0.075323	0.224796	0.390360	0.353764	0.115946	0.093736	0.479990	0.385362	0.207750	0.204177	0.624798	0.404354	0.074423	0.133865	0.428087	0.204629	0.154964	0.505383	0.796860	0.476734	0.225515	0.320181	0.660224	0.331294	0.182245	0.524427	0.578461	0.270434	0.065608	0.115897	0.586972	0.241186	0.147273	0.368181	0.510170	0.402796	0.120541	0.239401	0.618657	0.102200
53	0.117583	0.327653	0.724643	0.320558	0.060336	0.090251	0.516933	0.356966	0.127971	0.300404	0.872490	0.320872	0.085584	0.151196	0.429094	0.285477	0.121884	0.149957	0.654184	0.232371	0.176827	0.226356	0.491663	0.240589	0.074741	0.139846	0.646674	0.074853	0.097491	0.192668	0.603931	0.465408	0.808321	0.652751	0.741567	0.085032	0.111733	0.061952	0.496700	0.570574	0.077283	0.360817	0.399705	0.308126	0.117023	0.103766	0.478323	0.417380	0.239860	0.190449	0.663597	0.385872	0.068538	0.123197	0.435709	0.192137	0.155451	0.516137	0.805940	0.576661	0.214268	0.319404	0.601574	0.327853	0.191049	0.477484	0.600180	0.273416	0.059488	0.118239	0.561995	0.231622	0.154276	0.506039	0.472185	0.395714	0.109180	0.240223	0.583460	0.119948
54	0.094612	0.134840	0.683164	0.321024	0.062682	0.088259	0.544326	0.346625	0.132294	0.295096	0.844272	0.346674	0.090134	0.173785	0.448489	0.273695	0.152364	0.181829	0.610162	0.225678	0.186160	0.264040	0.482213	0.174970	0.084569	0.160115	0.629891	0.116783	0.095038	0.270687	0.553461	0.505993	0.851800	0.674610	0.748197	0.169339	0.108233	0.070329	0.591290	0.487143	0.074112	0.368505	0.401731	0.486938	0.114880	0.117851	0.484268	0.562809	0.268078	0.145876	0.645241	0.283585	0.069420	0.118208	0.438374	0.161734	0.156039	0.523681	0.761609	0.582170	0.213516	0.314681	0.594887	0.310116	0.176443	0.417438	0.662379	0.279661	0.059248	0.115340	0.556513	0.231070	0.151859	0.510547	0.485541	0.392006	0.103089	0.176847	0.525926	0.137435
55	0.087818	0.134442	0.696797	0.323473	0.090912	0.124064	0.509194	0.333199	0.139853	0.191999	0.859688	0.329593	0.083533	0.162545	0.485153	0.244779	0.152094	0.191743	0.659146	0.230331	0.189358	0.274485	0.412749	0.154946	0.091327	0.210779	0.615431	0.187105	0.097255	0.282616	0.711933	0.514345	0.853684	0.676046	0.756380	0.232998	0.106259	0.093749	0.596355	0.462393	0.080718	0.401110	0.468925	0.762772	0.113642	0.204149	0.482859	0.621496	0.269817	0.135344	0.676082	0.253872	0.081876	0.139529	0.505825	0.189911	0.156576	0.427308	0.627367	0.586347	0.189090	0.298302	0.503623	0.333350	0.171117	0.254530	0.683409	0.234437	0.062048	0.102074	0.602737	0.234108	0.155984	0.522225	0.510426	0.391093	0.071993	0.179025	0.606320	0.139184
56	0.083968	0.117041	0.615218	0.284056	0.118774	0.164859	0.582372	0.356026	0.209250	0.204776	0.841977	0.329512	0.072042	0.205908	0.550990	0.201740	0.146073	0.188925	0.688579	0.228723	0.186232	0.313040	0.391462	0.145480	0.091228	0.274254	0.581737	0.217416	0.096983	0.280851	0.700836	0.520311	0.704726	0.480066	0.625546	0.322000	0.107347	0.115620	0.580040	0.459016	0.085833	0.413529	0.468580	0.810899	0.115035	0.229695	0.595095	0.623385	0.271934	0.123976	0.633159	0.275570	0.082294	0.167709	0.535828	0.295707	0.147598	0.415429	0.661270	0.607864	0.206429	0.422251	0.490118	0.499805	0.161345	0.220896	0.812911	0.239680	0.096853	0.118171	0.562908	0.233765	0.159165	0.543218	0.520830	0.389976	0.076622	0.179147	0.628111	0.183479
57	0.092703	0.110267	0.600149	0.223078	0.124208	0.172371	0.619409	0.353955	0.206171	0.201122	0.803812	0.377760	0.067918	0.291291	0.546012	0.288817	0.149671	0.211944	0.645200	0.234265	0.174163	0.319917	0.406875	0.149720	0.083006	0.284247	0.559319	0.221113	0.109528	0.283545	0.706229	0.507218	0.551385	0.386361	0.554108	0.382085	0.106756	0.123753	0.638032	0.451827	0.075840	0.418461	0.478980	0.805857	0.114050	0.333743	0.584777	0.628681	0.249442	0.148676	0.683141	0.359060	0.101405	0.186335	0.578580	0.334014	0.107595	0.368090	0.644967	0.641646	0.218277	0.508547	0.488235	0.576095	0.216082	0.163941	0.753770	0.243668	0.104014	0.120026	0.559515	0.228047	0.167945	0.570372	0.576717	0.359890	0.089126	0.215751	0.645780	0.312361
58	0.084069	0.090580	0.582750	0.212016	0.125791	0.200982	0.665605	0.352656	0.204736	0.198834	0.870214	0.389231	0.067432	0.294115	0.605208	0.473305	0.151805	0.228075	0.609423	0.186204	0.135063	0.330827	0.429324	0.157656	0.080216	0.278146	0.624857	0.231961	0.101169	0.280313	0.699963	0.463289	0.416549	0.291913	0.594908	0.384438	0.103024	0.124058	0.646932	0.449648	0.065315	0.413922	0.592609	0.827345	0.121667	0.402549	0.607630	0.632597	0.285730	0.148018	0.606815	0.318825	0.131194	0.219644	0.584436	0.338096	0.108054	0.355953	0.674823	0.647297	0.218382	0.521439	0.607441	0.579601	0.228320	0.153908	0.784784	0.259950	0.111685	0.114090	0.567735	0.216235	0.170492	0.599988	0.592230	0.366291	0.089840	0.225700	0.660724	0.371982
59	0.087732	0.138211	0.682656	0.201770	0.152359	0.230705	0.653932	0.358766	0.207160	0.172922	0.720879	0.366508	0.089391	0.344387	0.667209	0.560473	0.130846	0.211946	0.629152	0.187958	0.136864	0.320613	0.398427	0.156261	0.072952	0.270843	0.613640	0.215563	0.101494	0.279499	0.720974	0.362081	0.270318	0.275672	0.625921	0.389869	0.105595	0.122739	0.642188	0.430812	0.071255	0.412147	0.628975	0.863748	0.104377	0.401238	0.552163	0.649914	0.294177	0.227279	0.599424	0.344243	0.140706	0.212534	0.594807	0.339006	0.080915	0.316576	0.601151	0.641728	0.238250	0.730319	0.670286	0.599604	0.208059	0.139314	0.761472	0.308772	0.139620	0.111071	0.589102	0.202456	0.153887	0.624048	0.628208	0.525319	0.084058	0.227522	0.609669	0.375006
60	0.096327	0.233950	0.648228	0.131788	0.174940	0.236701	0.658738	0.387528	0.197610	0.145395	0.694703	0.352583	0.091766	0.357867	0.721146	0.567644	0.084484	0.246259	0.634383	0.181737	0.151959	0.333170	0.545672	0.146593	0.055900	0.233015	0.618767	0.174887	0.108601	0.264132	0.752103	0.322616	0.119265	0.207286	0.597507	0.375147	0.115614	0.127739	0.752144	0.405189	0.070645	0.409994	0.635786	0.894790	0.091631	0.411212	0.483910	0.656289	0.323545	0.314249	0.533206	0.352511	0.140325	0.208038	0.630010	0.357126	0.080744	0.294996	0.573666	0.631585	0.248027	0.791950	0.681781	0.639573	0.202575	0.146379	0.751636	0.363748	0.164519	0.114114	0.574039	0.228174	0.151734	0.620216	0.592802	0.651472	0.086333	0.232249	0.569932	0.380205
61	0.098943	0.330036	0.779066	0.117576	0.183585	0.237520	0.698295	0.428290	0.194258	0.135200	0.708900	0.286882	0.094504	0.367029	0.695750	0.566604	0.080258	0.395043	0.643070	0.108744	0.153705	0.333269	0.580131	0.157510	0.065574	0.221622	0.625756	0.155035	0.112645	0.264231	0.730121	0.320888	0.166449	0.198327	0.620243	0.351012	0.126579	0.132547	0.741992	0.424030	0.072901	0.414519	0.688527	0.917564	0.090840	0.411530	0.485558	0.647134	0.314675	0.325318	0.521203	0.340780	0.139859	0.201332	0.687460	0.354422	0.096239	0.282120	0.548740	0.545966	0.236070	0.806514	0.674945	0.664537	0.226463	0.199933	0.722624	0.370120	0.167822	0.127623	0.572921	0.274455	0.141875	0.586068	0.607044	0.660808	0.088345	0.243335	0.663014	0.377587
62	0.141047	0.361458	0.799655	0.094936	0.184116	0.251390	0.673682	0.448692	0.201802	0.153237	0.704988	0.236122	0.091304	0.373287	0.717611	0.568070	0.129528	0.437000	0.619386	0.116343	0.165050	0.337624	0.682847	0.179837	0.075563	0.231878	0.695047	0.216135	0.108473	0.207882	0.743718	0.268536	0.249437	0.219449	0.642587	0.238079	0.118866	0.132756	0.748121	0.480575	0.074449	0.376641	0.691795	0.934687	0.089620	0.411734	0.497384	0.576678	0.315862	0.326380	0.545559	0.334849	0.141222	0.197271	0.684804	0.357133	0.096541	0.256126	0.666312	0.395000	0.227263	0.811824	0.702755	0.674945	0.231216	0.202204	0.705784	0.409525	0.172211	0.151425	0.595081	0.300384	0.121471	0.488366	0.612206	0.674140	0.088275	0.244168	0.675723	0.372207
63	0.206976	0.616425	0.803830	0.090073	0.190823	0.292087	0.714255	0.447226	0.121465	0.175751	0.741443	0.230428	0.097728	0.364091	0.774858	0.570540	0.263731	0.501525	0.617925	0.128590	0.173252	0.350053	0.707148	0.201449	0.068790	0.234422	0.632491	0.217233	0.116636	0.141574	0.549407	0.211189	0.271969	0.245664	0.564690	0.173559	0.115831	0.133774	0.758522	0.525129	0.081101	0.266413	0.715609	0.925250	0.091472	0.400199	0.489335	0.414819	0.322792	0.339236	0.527443	0.300218	0.160345	0.206670	0.861404	0.356829	0.096042	0.232872	0.653266	0.365981	0.237936	0.826775	0.721672	0.678199	0.226280	0.216551	0.524729	0.435814	0.194627	0.174607	0.601271	0.300060	0.131459	0.488924	0.686252	0.680245	0.087798	0.233371	0.597716	0.380529
64	0.200498	0.625249	0.750179	0.082957	0.206194	0.361516	0.765549	0.360363	0.107727	0.210398	0.751998	0.182125	0.110399	0.363542	0.796487	0.572741	0.441696	0.585872	0.652861	0.130746	0.172760	0.314737	0.713299	0.209891	0.069623	0.226292	0.626285	0.239949	0.126480	0.129152	0.563395	0.179549	0.275527	0.264057	0.515969	0.229934	0.117500	0.132387	0.764879	0.522735	0.087971	0.256794	0.732954	0.803266	0.098186	0.369177	0.427040	0.389455	0.265384	0.326477	0.496430	0.233183	0.181025	0.208852	0.847549	0.303064	0.101330	0.206333	0.732650	0.394170	0.236680	0.832692	0.784247	0.678861	0.194557	0.230670	0.506660	0.456856	0.203848	0.289533	0.582020	0.305910	0.131528	0.474383	0.678658	0.680170	0.085211	0.206765	0.582940	0.389583
65	0.199756	0.629047	0.744067	0.076822	0.208820	0.369163	0.735059	0.301377	0.107861	0.230323	0.649428	0.094425	0.116592	0.345695	0.807402	0.570445	0.453894	0.590407	0.645424	0.120192	0.171151	0.300620	0.753586	0.204947	0.067165	0.217858	0.632257	0.264257	0.120500	0.128671	0.542132	0.179160	0.276267	0.274874	0.480356	0.266450	0.118275	0.132233	0.769462	0.512442	0.081495	0.194459	0.712589	0.562536	0.092274	0.340903	0.410559	0.377147	0.251375	0.314955	0.587483	0.229030	0.179144	0.202283	0.832541	0.245190	0.102597	0.192145	0.704235	0.379081	0.224290	0.828145	0.784667	0.652982	0.190585	0.247059	0.507812	0.481427	0.307625	0.444944	0.655435	0.332216	0.163825	0.451447	0.710040	0.680031	0.063873	0.170116	0.557069	0.327048
66	0.200656	0.627252	0.671534	0.062699	0.223437	0.372690	0.777459	0.297214	0.105770	0.277909	0.644147	0.272763	0.116366	0.261361	0.793384	0.538345	0.454264	0.538253	0.604005	0.121672	0.165992	0.259013	0.789060	0.205245	0.057099	0.161613	0.695569	0.292366	0.266738	0.353556	0.560580	0.164674	0.276848	0.276609	0.392948	0.240512	0.113373	0.129931	0.722032	0.506058	0.093920	0.224336	0.745300	0.505241	0.067795	0.163791	0.418852	0.348987	0.193068	0.257437	0.595507	0.170594	0.153153	0.151792	0.804704	0.298568	0.149842	0.221499	0.714538	0.345213	0.194990	0.766056	0.772032	0.523132	0.184873	0.246404	0.526483	0.481605	0.299003	0.447496	0.660062	0.355075	0.202632	0.436048	0.749060	0.668126	0.055696	0.154979	0.561176	0.281926
67	0.208921	0.645576	0.717450	0.067317	0.230583	0.361637	0.778209	0.297174	0.125387	0.301319	0.590341	0.304487	0.120326	0.250108	0.792600	0.412640	0.464796	0.482061	0.590917	0.118187	0.151761	0.299563	0.798927	0.184126	0.051727	0.133065	0.600057	0.287454	0.406623	0.480291	0.550384	0.136196	0.218368	0.238704	0.455478	0.257583	0.106491	0.115712	0.684131	0.502743	0.121281	0.239602	0.745308	0.506514	0.077507	0.157954	0.484240	0.264458	0.131943	0.204295	0.594624	0.164506	0.147293	0.144880	0.837373	0.329531	0.168510	0.223884	0.690144	0.351913	0.179306	0.698863	0.787226	0.433997	0.191347	0.230573	0.495991	0.453995	0.299054	0.461589	0.674973	0.375313	0.205457	0.367854	0.804209	0.633186	0.053634	0.150493	0.576435	0.281734
68	0.206462	0.609017	0.713860	0.064879	0.220237	0.442794	0.775310	0.272137	0.147340	0.318533	0.595154	0.368212	0.109310	0.197523	0.743165	0.226056	0.461034	0.454775	0.557578	0.088951	0.156461	0.308571	0.746871	0.180601	0.049282	0.124505	0.525889	0.285291	0.470299	0.506243	0.559426	0.152979	0.149099	0.216404	0.492024	0.260351	0.099934	0.093711	0.678663	0.504957	0.204034	0.243588	0.669249	0.470531	0.079549	0.145163	0.484268	0.155247	0.120785	0.185200	0.612719	0.166634	0.146858	0.152708	0.801755	0.318725	0.201230	0.231394	0.684727	0.345960	0.194667	0.697310	0.696970	0.427396	0.166192	0.195879	0.680063	0.454581	0.321902	0.461515	0.671175	0.384625	0.255813	0.327162	0.842113	0.500502	0.046656	0.143567	0.575983	0.279503
69	0.194459	0.612314	0.621995	0.064346	0.209795	0.447425	0.790863	0.227402	0.149461	0.316948	0.579977	0.379240	0.112855	0.156279	0.738520	0.179039	0.422542	0.348838	0.569476	0.059422	0.164892	0.384347	0.694446	0.169310	0.056595	0.116979	0.585765	0.261971	0.537259	0.537379	0.551725	0.160797	0.125700	0.224191	0.503705	0.266243	0.098049	0.081851	0.614690	0.507417	0.223142	0.242160	0.623029	0.449540	0.076808	0.124266	0.492961	0.138773	0.118083	0.231372	0.648211	0.162356	0.147545	0.160206	0.790149	0.307245	0.226678	0.229549	0.679769	0.321243	0.175711	0.499034	0.664713	0.398942	0.157540	0.201981	0.702878	0.419540	0.338861	0.478132	0.628083	0.374302	0.280343	0.350921	0.847078	0.376433	0.042790	0.112616	0.515996	0.316436
70	0.098958	0.348139	0.626234	0.105897	0.225290	0.482571	0.772662	0.108937	0.147925	0.306637	0.602414	0.380746	0.127576	0.136348	0.732771	0.210251	0.245809	0.214667	0.580296	0.055343	0.145037	0.402184	0.611790	0.202883	0.075564	0.127209	0.605630	0.241654	0.788231	0.614823	0.496359	0.161927	0.127061	0.205045	0.519707	0.202022	0.107533	0.076316	0.605065	0.510202	0.234558	0.240084	0.597434	0.414382	0.075889	0.121687	0.546418	0.150801	0.053877	0.219321	0.652351	0.121948	0.147862	0.163582	0.798464	0.307507	0.246046	0.224375	0.699936	0.291899	0.152143	0.411517	0.737166	0.309790	0.168840	0.212680	0.740575	0.370862	0.334779	0.480570	0.618946	0.341480	0.281290	0.332777	0.878542	0.419197	0.046518	0.101319	0.505255	0.322482
71	0.098917	0.325500	0.670795	0.108253	0.248306	0.508767	0.750302	0.122846	0.152548	0.264493	0.502378	0.383634	0.131093	0.096091	0.752994	0.264349	0.236756	0.209224	0.589492	0.108145	0.120025	0.377551	0.603779	0.243123	0.086226	0.146937	0.557099	0.187808	0.789164	0.660447	0.526411	0.163305	0.131192	0.215979	0.536181	0.140985	0.116843	0.076131	0.611923	0.515639	0.252562	0.223070	0.565363	0.363318	0.073790	0.097780	0.588561	0.151283	0.039747	0.214406	0.605464	0.080960	0.139245	0.155339	0.631835	0.296852	0.247740	0.227929	0.622547	0.288693	0.150858	0.392296	0.807270	0.208743	0.163147	0.199976	0.738372	0.350227	0.333756	0.475947	0.658867	0.302533	0.283300	0.296327	0.870475	0.417884	0.065109	0.096575	0.608833	0.316458
72	0.118613	0.337393	0.707897	0.108192	0.231395	0.452640	0.737330	0.135310	0.156714	0.297398	0.540797	0.391329	0.123947	0.093682	0.747133	0.302602	0.248215	0.237530	0.659173	0.275724	0.111704	0.376242	0.599085	0.265901	0.098126	0.140524	0.674470	0.128095	0.787300	0.664123	0.518922	0.164898	0.126978	0.290527	0.533901	0.136635	0.114489	0.068700	0.473492	0.515480	0.266929	0.203246	0.606275	0.330734	0.064046	0.105067	0.608725	0.130970	0.036569	0.208294	0.602044	0.051276	0.093104	0.113370	0.661128	0.289063	0.247659	0.235695	0.622918	0.290112	0.147249	0.372026	0.798430	0.172844	0.150530	0.177924	0.747646	0.270570	0.349887	0.472412	0.726002	0.288733	0.279247	0.279501	0.794101	0.409124	0.079884	0.139314	0.639359	0.278558
73	0.148744	0.348071	0.700369	0.148402	0.217047	0.431456	0.605768	0.130198	0.154116	0.276055	0.527306	0.338815	0.114114	0.095386	0.644593	0.306508	0.227410	0.166772	0.699293	0.315317	0.112233	0.378651	0.506922	0.287247	0.127049	0.177768	0.701340	0.104176	0.789535	0.664753	0.484806	0.171173	0.113774	0.363949	0.491455	0.100773	0.102299	0.057813	0.499623	0.468006	0.288481	0.204612	0.596739	0.348491	0.061819	0.102674	0.592021	0.126966	0.029726	0.175648	0.580332	0.048615	0.080055	0.104940	0.670741	0.289843	0.246261	0.233930	0.531328	0.262552	0.128830	0.335982	0.764700	0.164436	0.169633	0.191612	0.746010	0.213232	0.383091	0.468899	0.729056	0.295278	0.276893	0.273547	0.784321	0.411424	0.078786	0.158815	0.675011	0.241341
74	0.130054	0.284550	0.645867	0.199245	0.233784	0.429087	0.595033	0.127623	0.142741	0.371408	0.538130	0.267330	0.105719	0.097168	0.614761	0.307385	0.281043	0.179982	0.647161	0.375970	0.116395	0.379961	0.465499	0.292047	0.124897	0.206500	0.750462	0.099745	0.780500	0.637960	0.493340	0.197681	0.101477	0.373286	0.435021	0.144347	0.102333	0.075804	0.526019	0.388359	0.304817	0.217559	0.609860	0.350279	0.060713	0.102064	0.539918	0.126813	0.030021	0.172212	0.575840	0.046666	0.080157	0.106494	0.691739	0.217743	0.248120	0.235131	0.528040	0.232030	0.120703	0.319081	0.694363	0.172749	0.171292	0.247161	0.719350	0.213548	0.417312	0.414613	0.747900	0.292921	0.284038	0.264285	0.766706	0.413072	0.095583	0.210138	0.698413	0.211139
75	0.139791	0.292889	0.751714	0.202398	0.230332	0.422490	0.611198	0.118720	0.133955	0.447524	0.544638	0.202270	0.102597	0.092467	0.609473	0.322881	0.380906	0.236155	0.675414	0.386229	0.124955	0.352094	0.602760	0.326394	0.116450	0.216415	0.722558	0.047299	0.741749	0.547671	0.481469	0.219720	0.082965	0.358042	0.532074	0.159450	0.108839	0.109564	0.634234	0.297442	0.305041	0.206292	0.591833	0.343757	0.051512	0.106730	0.486189	0.126261	0.027473	0.194112	0.580235	0.044742	0.076196	0.106128	0.734002	0.140759	0.240186	0.209321	0.608194	0.205038	0.136814	0.321777	0.689538	0.275488	0.170813	0.250037	0.600053	0.251732	0.409135	0.287628	0.657169	0.279823	0.298397	0.220522	0.766876	0.414482	0.105683	0.217223	0.694364	0.212239
76	0.159720	0.297924	0.802806	0.202568	0.218087	0.357537	0.724713	0.114609	0.112751	0.535791	0.485601	0.146512	0.104821	0.093215	0.569607	0.354651	0.371965	0.246272	0.672706	0.396075	0.102985	0.315829	0.608447	0.361650	0.106691	0.250580	0.706552	0.043865	0.675642	0.493365	0.446501	0.211620	0.080624	0.381163	0.597062	0.203194	0.131402	0.165014	0.657110	0.250319	0.300068	0.159523	0.536288	0.330939	0.031636	0.093837	0.492910	0.125471	0.035782	0.143089	0.446932	0.050917	0.057580	0.097316	0.732526	0.113783	0.208628	0.145426	0.661039	0.128086	0.139178	0.320060	0.694884	0.370817	0.169995	0.242819	0.587138	0.261258	0.432519	0.329779	0.639409	0.277758	0.296831	0.204668	0.684637	0.415430	0.106307	0.216301	0.787712	0.211216
77	0.166159	0.332475	0.788428	0.216514	0.222226	0.315142	0.706215	0.096934	0.121997	0.682020	0.415363	0.143293	0.118110	0.079464	0.541973	0.388325	0.372889	0.247707	0.642585	0.393558	0.082945	0.234887	0.673670	0.382243	0.092900	0.293071	0.626240	0.029885	0.665097	0.498752	0.484620	0.247421	0.075188	0.370263	0.617951	0.210648	0.142868	0.189161	0.669496	0.233170	0.290325	0.135218	0.607466	0.328157	0.039289	0.094696	0.527637	0.113695	0.043732	0.160219	0.424453	0.071521	0.056765	0.090296	0.738639	0.113017	0.178922	0.117439	0.666349	0.105854	0.132745	0.301711	0.676752	0.389032	0.159135	0.228262	0.563303	0.288318	0.462446	0.320641	0.661947	0.270966	0.270408	0.166773	0.603834	0.427218	0.115218	0.229471	0.751627	0.195038
78	0.166569	0.324406	0.752052	0.221476	0.215323	0.289040	0.679053	0.103433	0.119882	0.697113	0.411621	0.140225	0.141780	0.090145	0.508890	0.389932	0.366004	0.217545	0.533386	0.308638	0.088055	0.113974	0.666722	0.384503	0.053852	0.285139	0.657965	0.087298	0.409806	0.399363	0.527179	0.263958	0.073885	0.271536	0.646539	0.209836	0.145531	0.189614	0.667372	0.233133	0.227850	0.143138	0.601009	0.321852	0.045294	0.098916	0.520308	0.091885	0.043792	0.178781	0.407889	0.096615	0.054519	0.078676	0.712677	0.107706	0.147824	0.116943	0.649544	0.109604	0.107790	0.258525	0.684916	0.391012	0.156784	0.224401	0.585376	0.288214	0.519022	0.372314	0.697440	0.254741	0.253991	0.080678	0.616899	0.398023	0.127591	0.250608	0.777174	0.199523
79	0.158218	0.311100	0.750076	0.223134	0.185031	0.213027	0.698747	0.103051	0.117195	0.699918	0.386303	0.122957	0.133226	0.100521	0.488675	0.378705	0.364791	0.204129	0.539568	0.256237	0.089382	0.113571	0.700268	0.357175	0.044932	0.321292	0.635658	0.113387	0.287336	0.332537	0.526987	0.264283	0.068701	0.223562	0.698317	0.230579	0.148238	0.190981	0.647910	0.231828	0.221901	0.144664	0.613722	0.254754	0.053902	0.118078	0.443190	0.067877	0.060471	0.181599	0.405680	0.158789	0.060236	0.086223	0.679224	0.106312	0.090271	0.117166	0.610230	0.130293	0.102608	0.219208	0.669905	0.415593	0.147644	0.220854	0.583407	0.313879	0.638877	0.391476	0.727858	0.247180	0.254039	0.068563	0.549692	0.327988	0.123612	0.260493	0.715620	0.197731
80	0.137611	0.320762	0.761675	0.217175	0.169583	0.206113	0.714759	0.082011	0.119434	0.678781	0.431423	0.138284	0.297230	0.311021	0.521131	0.341115	0.249607	0.162782	0.583551	0.181976	0.094327	0.116051	0.737220	0.336236	0.062452	0.391379	0.732998	0.137095	0.315530	0.381816	0.568809	0.274225	0.065511	0.189483	0.715048	0.221626	0.147778	0.192418	0.627437	0.234991	0.210785	0.145152	0.608877	0.273702	0.064933	0.138912	0.461782	0.080506	0.109527	0.197595	0.407929	0.191470	0.062040	0.090536	0.651103	0.125330	0.071362	0.112133	0.673601	0.154437	0.103313	0.168095	0.566721	0.507798	0.120481	0.196564	0.574919	0.323361	0.636234	0.387794	0.725264	0.244904	0.271787	0.148183	0.586208	0.310071	0.121213	0.238806	0.818737	0.200012
81	0.139087	0.321681	0.784910	0.161875	0.171258	0.215312	0.728322	0.081807	0.145668	0.722624	0.470524	0.151820	0.518169	0.438310	0.459152	0.290403	0.083003	0.102847	0.566455	0.174039	0.094370	0.103647	0.760344	0.324599	0.070799	0.396120	0.775560	0.146625	0.320168	0.403356	0.592632	0.285288	0.070458	0.205642	0.661470	0.257561	0.149510	0.196789	0.684749	0.230114	0.194091	0.151015	0.616671	0.309861	0.069152	0.129910	0.480014	0.081282	0.111537	0.188349	0.396633	0.230824	0.058256	0.081736	0.620470	0.114985	0.068941	0.091414	0.648587	0.151638	0.103294	0.126744	0.490043	0.582673	0.094269	0.119466	0.522280	0.313189	0.638876	0.391299	0.691041	0.244127	0.294291	0.193232	0.593826	0.308584	0.138248	0.226940	0.845189	0.204016
82	0.131246	0.300080	0.581200	0.157875	0.141139	0.194904	0.723014	0.094098	0.170077	0.737116	0.546485	0.164914	0.615655	0.449774	0.507349	0.268180	0.079803	0.076866	0.496932	0.144608	0.090247	0.105463	0.747923	0.326579	0.075304	0.409803	0.753355	0.189254	0.316152	0.425066	0.650515	0.332549	0.070442	0.152475	0.733800	0.240585	0.144150	0.197542	0.707662	0.223309	0.187045	0.166780	0.581271	0.322595	0.103440	0.142623	0.523771	0.099151	0.111911	0.149730	0.369516	0.243318	0.065500	0.075963	0.574994	0.116489	0.084922	0.091126	0.647546	0.150282	0.103246	0.112607	0.467941	0.595256	0.090363	0.113719	0.538722	0.266142	0.630570	0.387963	0.663687	0.230815	0.294221	0.197006	0.594213	0.306067	0.134200	0.210528	0.855203	0.207557
83	0.106253	0.268189	0.510284	0.171206	0.118781	0.185781	0.689321	0.103144	0.168064	0.680100	0.591644	0.164361	0.621905	0.496973	0.530831	0.264778	0.071313	0.083158	0.534081	0.114041	0.077081	0.113527	0.699440	0.311912	0.076467	0.418591	0.699177	0.211614	0.313249	0.450701	0.683601	0.345129	0.084109	0.158397	0.744332	0.239002	0.137666	0.211730	0.696032	0.209771	0.143996	0.163728	0.621057	0.306645	0.114169	0.155549	0.520213	0.102774	0.140582	0.159858	0.360074	0.262670	0.071657	0.085804	0.544237	0.110613	0.099359	0.101257	0.683134	0.143438	0.102345	0.111822	0.514889	0.594000	0.080471	0.111226	0.579627	0.237786	0.607919	0.385409	0.693515	0.220362	0.273352	0.212186	0.603421	0.298931	0.128026	0.260206	0.841393	0.213325
84	0.087304	0.212132	0.583204	0.150559	0.116210	0.189080	0.632085	0.106830	0.166254	0.600532	0.637267	0.166990	0.635534	0.511604	0.519355	0.247626	0.066958	0.103154	0.528970	0.102617	0.072930	0.115992	0.675450	0.274645	0.087576	0.375563	0.634289	0.232178	0.303564	0.446224	0.658998	0.346170	0.081547	0.161212	0.709505	0.240950	0.131156	0.231096	0.689945	0.201725	0.113210	0.151276	0.607029	0.323051	0.114788	0.153721	0.565122	0.101011	0.151194	0.155323	0.370017	0.259154	0.074605	0.108677	0.474759	0.107750	0.099859	0.101363	0.606730	0.143865	0.095346	0.111571	0.500472	0.594071	0.064486	0.100905	0.525345	0.228048	0.585541	0.386604	0.653831	0.216906	0.221206	0.216064	0.606659	0.301069	0.127408	0.264733	0.861613	0.207048
85	0.128663	0.223206	0.639900	0.143650	0.118366	0.192595	0.602252	0.117302	0.170172	0.605103	0.756421	0.183598	0.661164	0.515115	0.520934	0.201240	0.085410	0.126916	0.549405	0.119084	0.077593	0.108490	0.665164	0.284886	0.090757	0.295717	0.672526	0.219637	0.282403	0.434837	0.666680	0.328891	0.087635	0.141071	0.680770	0.216473	0.129312	0.232484	0.696527	0.210523	0.111473	0.149840	0.608492	0.334717	0.112485	0.152708	0.616239	0.099576	0.157011	0.140853	0.388432	0.238386	0.094281	0.134701	0.454267	0.130652	0.099801	0.100962	0.556392	0.147475	0.071333	0.103087	0.501836	0.561868	0.067532	0.107521	0.584579	0.235856	0.550101	0.347409	0.652866	0.196510	0.223516	0.237014	0.668645	0.313366	0.119437	0.256445	0.870571	0.164314
86	0.134107	0.225245	0.642136	0.144631	0.104992	0.188172	0.645044	0.117669	0.178668	0.664560	0.747214	0.180877	0.664346	0.520917	0.524069	0.094073	0.092304	0.151541	0.513960	0.128073	0.063510	0.093436	0.666611	0.294168	0.082516	0.257728	0.633758	0.229386	0.228465	0.441073	0.621684	0.291990	0.082962	0.116022	0.696021	0.200113	0.129610	0.228156	0.672131	0.221303	0.110666	0.144831	0.597279	0.338373	0.111345	0.153157	0.634267	0.101464	0.142581	0.134355	0.406194	0.252017	0.096414	0.133696	0.440618	0.136453	0.092085	0.093604	0.552407	0.147911	0.066839	0.109242	0.498580	0.505750	0.068125	0.108983	0.583701	0.195120	0.542086	0.301532	0.663098	0.168289	0.232524	0.259213	0.725307	0.300801	0.105543	0.245037	0.861197	0.148174
87	0.134890	0.161350	0.728946	0.130637	0.104620	0.181191	0.613650	0.105881	0.174961	0.665941	0.763939	0.168379	0.679152	0.576726	0.548914	0.076827	0.093977	0.168968	0.584535	0.113965	0.062648	0.090792	0.625872	0.276214	0.076030	0.191767	0.669070	0.194127	0.209716	0.439611	0.635001	0.290812	0.081570	0.091195	0.642886	0.127171	0.125691	0.214616	0.572330	0.198445	0.108166	0.140885	0.569970	0.332348	0.107801	0.148092	0.635831	0.106630	0.140650	0.141458	0.494494	0.218315	0.101411	0.134833	0.428867	0.171621	0.092433	0.090645	0.563017	0.172416	0.065207	0.117654	0.509309	0.490275	0.069402	0.119136	0.582376	0.177267	0.552742	0.308593	0.616463	0.146054	0.244127	0.281910	0.705639	0.220490	0.100890	0.257814	0.867324	0.139780
88	0.136357	0.148355	0.742226	0.136013	0.098621	0.166104	0.600300	0.108757	0.158957	0.655993	0.732197	0.160623	0.758476	0.612281	0.565570	0.082855	0.091661	0.180820	0.566597	0.109143	0.056209	0.106285	0.602991	0.273555	0.076816	0.160958	0.684548	0.154337	0.183135	0.420879	0.601371	0.289696	0.072891	0.077228	0.574932	0.102809	0.102623	0.178685	0.509974	0.173119	0.111756	0.128324	0.569966	0.320508	0.102602	0.134721	0.679175	0.097965	0.144572	0.150428	0.507375	0.205872	0.104955	0.134859	0.475399	0.168221	0.102492	0.099361	0.602050	0.218284	0.061078	0.120482	0.536939	0.493172	0.066827	0.108636	0.582318	0.191658	0.494938	0.248681	0.584464	0.156498	0.248202	0.281606	0.732467	0.188128	0.088450	0.270624	0.762319	0.137286
89	0.240195	0.190734	0.768958	0.182538	0.087892	0.124239	0.570024	0.109794	0.127825	0.586717	0.733448	0.120899	0.747683	0.573973	0.588986	0.084418	0.087946	0.271195	0.525018	0.129310	0.050505	0.144577	0.572668	0.263360	0.095415	0.331883	0.669466	0.177257	0.138512	0.345263	0.565295	0.276711	0.073904	0.071160	0.545049	0.101008	0.076090	0.157251	0.596267	0.176596	0.122010	0.134876	0.637439	0.306845	0.100122	0.122064	0.670689	0.106321	0.140729	0.164225	0.514564	0.209445	0.121950	0.178810	0.484163	0.167515	0.109075	0.113462	0.535259	0.207898	0.048256	0.117044	0.644182	0.503855	0.068976	0.107727	0.649306	0.212498	0.280416	0.170639	0.610341	0.171514	0.266991	0.269030	0.738917	0.177658	0.057987	0.268305	0.745121	0.133014
90	0.304904	0.221656	0.794622	0.251204	0.086466	0.121702	0.593532	0.103078	0.134523	0.629027	0.695067	0.118590	0.630918	0.496622	0.528237	0.103167	0.105438	0.346726	0.515831	0.122596	0.048714	0.143971	0.563329	0.250877	0.083495	0.392896	0.514365	0.212269	0.138005	0.329991	0.580252	0.266728	0.082516	0.096972	0.650048	0.096585	0.075658	0.199900	0.600529	0.205295	0.123689	0.142426	0.630849	0.267468	0.077480	0.122275	0.653760	0.099207	0.099876	0.148537	0.544205	0.186582	0.131914	0.202728	0.487415	0.164162	0.110637	0.159651	0.583890	0.208941	0.054135	0.124268	0.668306	0.444467	0.062854	0.095491	0.647012	0.215045	0.277450	0.168530	0.621360	0.180254	0.363575	0.386260	0.747874	0.168652	0.038867	0.246952	0.723640	0.144227
91	0.372660	0.239758	0.781223	0.284805	0.072905	0.107729	0.623740	0.093918	0.140546	0.664334	0.703065	0.135562	0.491288	0.475193	0.622011	0.115238	0.098614	0.400618	0.498235	0.101989	0.046614	0.136685	0.508658	0.227614	0.127781	0.543869	0.508821	0.203794	0.132769	0.311312	0.641122	0.215001	0.079029	0.116786	0.605999	0.093681	0.074953	0.250229	0.592012	0.254523	0.111230	0.136399	0.691603	0.227389	0.044607	0.097979	0.667272	0.091762	0.107471	0.159581	0.564381	0.190667	0.127817	0.202086	0.474227	0.164555	0.104563	0.185797	0.584982	0.207202	0.088740	0.176148	0.667324	0.363224	0.087879	0.094482	0.643217	0.209881	0.269014	0.160466	0.605525	0.185708	0.600421	0.705351	0.807153	0.170376	0.035975	0.189493	0.741389	0.125858
92	0.442362	0.301755	0.789903	0.309616	0.062041	0.108448	0.597102	0.093660	0.225777	0.841348	0.631375	0.126822	0.478371	0.443269	0.633220	0.115408	0.101001	0.394837	0.475819	0.089696	0.045709	0.137695	0.539056	0.217848	0.144753	0.619222	0.474866	0.236330	0.144764	0.283855	0.607052	0.186664	0.078870	0.125228	0.558414	0.101863	0.088095	0.303764	0.600513	0.294665	0.088537	0.116022	0.753075	0.182357	0.037684	0.089903	0.675734	0.096120	0.125306	0.207472	0.546151	0.188948	0.127331	0.197422	0.455021	0.166165	0.078190	0.290211	0.578315	0.212008	0.145918	0.299113	0.677869	0.331709	0.131548	0.150945	0.585123	0.207161	0.267677	0.159134	0.548267	0.192532	0.794346	0.850976	0.810609	0.173372	0.046346	0.187753	0.595848	0.129206
93	0.443672	0.299559	0.750797	0.332155	0.064139	0.121518	0.618758	0.080378	0.229090	0.785807	0.626041	0.109182	0.461912	0.411561	0.656465	0.115957	0.099742	0.401932	0.474637	0.096273	0.046514	0.141134	0.494590	0.208083	0.151138	0.629260	0.470137	0.235076	0.169557	0.288174	0.602612	0.231245	0.076571	0.133356	0.574951	0.099291	0.090350	0.307452	0.589036	0.318941	0.091379	0.112660	0.738518	0.172608	0.040347	0.129584	0.577471	0.096665	0.121092	0.207880	0.551961	0.140398	0.118286	0.176279	0.508819	0.156344	0.084886	0.342366	0.556413	0.213054	0.174789	0.338753	0.673349	0.365137	0.140576	0.161715	0.591739	0.233297	0.259281	0.148645	0.530644	0.189756	0.850064	0.860357	0.749037	0.156307	0.052534	0.194899	0.630861	0.120539
94	0.464687	0.299153	0.631424	0.333119	0.074803	0.127446	0.574432	0.102979	0.230309	0.779614	0.601649	0.160854	0.441256	0.409520	0.718992	0.126496	0.106425	0.487136	0.476948	0.101784	0.063679	0.221570	0.490157	0.157890	0.149455	0.562467	0.494773	0.192056	0.178905	0.273706	0.631833	0.290555	0.060030	0.140821	0.602618	0.099741	0.089044	0.319972	0.619305	0.328097	0.094608	0.103289	0.724535	0.128760	0.041831	0.140674	0.542464	0.095891	0.108372	0.207990	0.486461	0.144506	0.107620	0.166409	0.516798	0.149270	0.086585	0.347879	0.594288	0.210364	0.190422	0.351060	0.689590	0.434400	0.162882	0.170686	0.631231	0.233213	0.252367	0.144775	0.524369	0.192277	0.866909	0.878161	0.714194	0.129209	0.051406	0.185442	0.623042	0.118855
95	0.465193	0.297074	0.575417	0.358935	0.086971	0.142308	0.609495	0.130188	0.244125	0.799771	0.730693	0.209984	0.423606	0.408230	0.703280	0.128654	0.119556	0.467632	0.514444	0.078666	0.083339	0.281768	0.605664	0.161313	0.170618	0.581784	0.604577	0.162971	0.236541	0.299367	0.624297	0.293891	0.057321	0.213912	0.654976	0.095245	0.086473	0.319582	0.623131	0.330402	0.093823	0.101969	0.769991	0.102136	0.050536	0.167919	0.512026	0.089469	0.110279	0.208994	0.633286	0.175587	0.113398	0.172613	0.512810	0.118783	0.094122	0.386352	0.586655	0.210114	0.205510	0.385015	0.797867	0.484917	0.177926	0.186932	0.723099	0.205686	0.239906	0.149460	0.511785	0.210987	0.925411	0.886583	0.649507	0.093536	0.050912	0.148951	0.582915	0.112105
96	0.434212	0.276648	0.572544	0.418268	0.093088	0.148812	0.626903	0.129545	0.242465	0.779887	0.693266	0.248309	0.412239	0.348833	0.682584	0.117372	0.124647	0.447473	0.580993	0.089823	0.100062	0.285499	0.613155	0.166612	0.143469	0.478947	0.663112	0.153618	0.241409	0.298089	0.641107	0.289270	0.045287	0.252824	0.538931	0.122189	0.084861	0.311915	0.625756	0.328383	0.094032	0.105608	0.794198	0.083309	0.051471	0.166390	0.450650	0.087563	0.109377	0.195964	0.659116	0.265673	0.167349	0.233326	0.502358	0.084141	0.110093	0.459294	0.604716	0.200629	0.205622	0.401250	0.862946	0.516662	0.193811	0.201673	0.639233	0.202760	0.218325	0.150637	0.521975	0.217549	1.008990	0.913928	0.660414	0.090650	0.052782	0.116760	0.559307	0.112296
97	0.390276	0.237921	0.557934	0.404414	0.113157	0.153448	0.642179	0.133640	0.235583	0.741398	0.688698	0.248967	0.259062	0.243625	0.667786	0.112098	0.118350	0.410542	0.567957	0.091945	0.147163	0.272107	0.670279	0.170525	0.132411	0.387412	0.632675	0.116804	0.243047	0.285859	0.651413	0.288554	0.054263	0.321526	0.589544	0.111618	0.091446	0.318843	0.606419	0.325163	0.099649	0.101037	0.790919	0.073774	0.063458	0.171298	0.442589	0.082077	0.109519	0.203982	0.711626	0.279723	0.221084	0.244513	0.458721	0.072587	0.160263	0.556317	0.676667	0.135583	0.211424	0.424419	0.859215	0.524893	0.197951	0.213090	0.689494	0.233255	0.091230	0.097525	0.517740	0.233714	1.087740	1.067997	0.624614	0.088185	0.050035	0.112938	0.487165	0.112206
98	0.335876	0.222830	0.648686	0.440960	0.123292	0.172575	0.734832	0.135836	0.230773	0.707344	0.759485	0.240518	0.136650	0.230993	0.656468	0.110731	0.124871	0.408420	0.552398	0.094745	0.190938	0.280323	0.708603	0.186692	0.163228	0.435854	0.637665	0.132548	0.241962	0.290630	0.618215	0.287357	0.069713	0.336273	0.658817	0.116693	0.105614	0.347241	0.618396	0.313616	0.101915	0.102289	0.790378	0.071937	0.062568	0.176746	0.444996	0.075979	0.119822	0.190029	0.745953	0.309602	0.241659	0.214541	0.476356	0.059481	0.184940	0.664783	0.724891	0.091925	0.223767	0.452154	0.827054	0.522161	0.203723	0.213955	0.743194	0.234122	0.074366	0.101796	0.519013	0.314288	1.092249	1.087458	0.632974	0.071715	0.049226	0.108209	0.438228	0.093253
99	0.207938	0.103300	0.626956	0.438375	0.128671	0.178044	0.688317	0.139752	0.174855	0.471006	0.815220	0.249582	0.136214	0.154186	0.634000	0.098214	0.127142	0.382832	0.521177	0.119396	0.215245	0.305075	0.710982	0.198906	0.170119	0.505455	0.634958	0.135398	0.237392	0.292198	0.533625	0.261613	0.080909	0.352889	0.629984	0.114724	0.114376	0.376541	0.631628	0.309612	0.092528	0.093157	0.735436	0.072643	0.061998	0.175000	0.440125	0.072961	0.169170	0.212028	0.767397	0.317327	0.252166	0.266797	0.650005	0.057486	0.193898	0.703447	0.707187	0.088359	0.233321	0.461412	0.748058	0.493852	0.210011	0.211647	0.811534	0.218432	0.092368	0.121399	0.495967	0.360848	1.064437	1.051831	0.597222	0.068907	0.047572	0.102764	0.389524	0.087038
100	0.194531	0.113178	0.609575	0.426156	0.137174	0.230788	0.656720	0.141441	0.143187	0.335857	0.822542	0.246404	0.142474	0.125741	0.561214	0.079643	0.123415	0.262845	0.531814	0.127160	0.261336	0.331910	0.731185	0.199986	0.154334	0.425446	0.692585	0.156211	0.228119	0.260322	0.538148	0.243655	0.081218	0.354510	0.610328	0.117855	0.113598	0.388447	0.639499	0.307739	0.099381	0.082177	0.733435	0.066847	0.061197	0.175339	0.492236	0.066559	0.172779	0.214674	0.755173	0.314401	0.287104	0.295822	0.676371	0.073821	0.204239	0.701030	0.716760	0.069301	0.238388	0.464658	0.723213	0.469806	0.220112	0.217354	0.845632	0.203289	0.102560	0.129897	0.483092	0.384837	0.960441	0.880110	0.545818	0.065186	0.036692	0.085225	0.418988	0.077758
101	0.160434	0.130550	0.619586	0.431981	0.135621	0.349687	0.651738	0.139969	0.166139	0.302472	0.799961	0.239209	0.144783	0.112586	0.548352	0.138801	0.100962	0.175396	0.636720	0.134690	0.260789	0.351337	0.836102	0.163745	0.156285	0.390977	0.655586	0.185294	0.190333	0.211071	0.544651	0.235336	0.082221	0.323192	0.553626	0.115856	0.113370	0.386364	0.580587	0.307465	0.112612	0.082145	0.704354	0.070291	0.073899	0.172170	0.532575	0.071558	0.167921	0.200460	0.693313	0.305307	0.366502	0.318040	0.677978	0.078416	0.208998	0.672226	0.716363	0.054526	0.232561	0.455514	0.715568	0.455327	0.220412	0.218722	0.961720	0.226693	0.110498	0.153094	0.508588	0.390535	0.799222	0.721324	0.533761	0.055588	0.035591	0.057603	0.461709	0.062904
