	101_F_P_sh_L_ND_A_01.c3d	101_F_P_sh_L_ND_A_01.c3d	101_F_P_sh_L_ND_A_01.c3d	101_F_P_sh_L_ND_A_01.c3d	101_F_P_sh_L_ND_A_01.c3d	101_F_P_sh_L_ND_A_01.c3d	101_F_P_sh_L_ND_A_01.c3d	101_F_P_sh_L_ND_A_01.c3d	101_F_P_sh_L_ND_A_02.c3d	101_F_P_sh_L_ND_A_02.c3d	101_F_P_sh_L_ND_A_02.c3d	101_F_P_sh_L_ND_A_02.c3d	101_F_P_sh_L_ND_A_02.c3d	101_F_P_sh_L_ND_A_02.c3d	101_F_P_sh_L_ND_A_02.c3d	101_F_P_sh_L_ND_A_02.c3d	101_F_P_sh_L_ND_A_03.c3d	101_F_P_sh_L_ND_A_03.c3d	101_F_P_sh_L_ND_A_03.c3d	101_F_P_sh_L_ND_A_03.c3d	101_F_P_sh_L_ND_A_03.c3d	101_F_P_sh_L_ND_A_03.c3d	101_F_P_sh_L_ND_A_03.c3d	101_F_P_sh_L_ND_A_03.c3d	101_F_P_sh_L_ND_A_04.c3d	101_F_P_sh_L_ND_A_04.c3d	101_F_P_sh_L_ND_A_04.c3d	101_F_P_sh_L_ND_A_04.c3d	101_F_P_sh_L_ND_A_04.c3d	101_F_P_sh_L_ND_A_04.c3d	101_F_P_sh_L_ND_A_04.c3d	101_F_P_sh_L_ND_A_04.c3d	101_F_P_sh_L_ND_A_05.c3d	101_F_P_sh_L_ND_A_05.c3d	101_F_P_sh_L_ND_A_05.c3d	101_F_P_sh_L_ND_A_05.c3d	101_F_P_sh_L_ND_A_05.c3d	101_F_P_sh_L_ND_A_05.c3d	101_F_P_sh_L_ND_A_05.c3d	101_F_P_sh_L_ND_A_05.c3d	101_F_P_sh_L_ND_A_06.c3d	101_F_P_sh_L_ND_A_06.c3d	101_F_P_sh_L_ND_A_06.c3d	101_F_P_sh_L_ND_A_06.c3d	101_F_P_sh_L_ND_A_06.c3d	101_F_P_sh_L_ND_A_06.c3d	101_F_P_sh_L_ND_A_06.c3d	101_F_P_sh_L_ND_A_06.c3d	101_F_P_sh_L_ND_A_07.c3d	101_F_P_sh_L_ND_A_07.c3d	101_F_P_sh_L_ND_A_07.c3d	101_F_P_sh_L_ND_A_07.c3d	101_F_P_sh_L_ND_A_07.c3d	101_F_P_sh_L_ND_A_07.c3d	101_F_P_sh_L_ND_A_07.c3d	101_F_P_sh_L_ND_A_07.c3d	101_F_P_sh_L_ND_A_09.c3d	101_F_P_sh_L_ND_A_09.c3d	101_F_P_sh_L_ND_A_09.c3d	101_F_P_sh_L_ND_A_09.c3d	101_F_P_sh_L_ND_A_09.c3d	101_F_P_sh_L_ND_A_09.c3d	101_F_P_sh_L_ND_A_09.c3d	101_F_P_sh_L_ND_A_09.c3d	101_F_P_sh_L_ND_A_10.c3d	101_F_P_sh_L_ND_A_10.c3d	101_F_P_sh_L_ND_A_10.c3d	101_F_P_sh_L_ND_A_10.c3d	101_F_P_sh_L_ND_A_10.c3d	101_F_P_sh_L_ND_A_10.c3d	101_F_P_sh_L_ND_A_10.c3d	101_F_P_sh_L_ND_A_10.c3d
	Biceps femoris_lat	Semitendinosus_lat	Vastus lateralis_lat	Vastus medialis_lat	Biceps femoris_med	Semitendinosus_med	Vastus lateralis_med	Vastus medialis_med	Biceps femoris_lat	Semitendinosus_lat	Vastus lateralis_lat	Vastus medialis_lat	Biceps femoris_med	Semitendinosus_med	Vastus lateralis_med	Vastus medialis_med	Biceps femoris_lat	Semitendinosus_lat	Vastus lateralis_lat	Vastus medialis_lat	Biceps femoris_med	Semitendinosus_med	Vastus lateralis_med	Vastus medialis_med	Biceps femoris_lat	Semitendinosus_lat	Vastus lateralis_lat	Vastus medialis_lat	Biceps femoris_med	Semitendinosus_med	Vastus lateralis_med	Vastus medialis_med	Biceps femoris_lat	Semitendinosus_lat	Vastus lateralis_lat	Vastus medialis_lat	Biceps femoris_med	Semitendinosus_med	Vastus lateralis_med	Vastus medialis_med	Biceps femoris_lat	Semitendinosus_lat	Vastus lateralis_lat	Vastus medialis_lat	Biceps femoris_med	Semitendinosus_med	Vastus lateralis_med	Vastus medialis_med	Biceps femoris_lat	Semitendinosus_lat	Vastus lateralis_lat	Vastus medialis_lat	Biceps femoris_med	Semitendinosus_med	Vastus lateralis_med	Vastus medialis_med	Biceps femoris_lat	Semitendinosus_lat	Vastus lateralis_lat	Vastus medialis_lat	Biceps femoris_med	Semitendinosus_med	Vastus lateralis_med	Vastus medialis_med	Biceps femoris_lat	Semitendinosus_lat	Vastus lateralis_lat	Vastus medialis_lat	Biceps femoris_med	Semitendinosus_med	Vastus lateralis_med	Vastus medialis_med
	P2D	P2D	P2D	P2D	P2D	P2D	P2D	P2D	P2D	P2D	P2D	P2D	P2D	P2D	P2D	P2D	P2D	P2D	P2D	P2D	P2D	P2D	P2D	P2D	P2D	P2D	P2D	P2D	P2D	P2D	P2D	P2D	P2D	P2D	P2D	P2D	P2D	P2D	P2D	P2D	P2D	P2D	P2D	P2D	P2D	P2D	P2D	P2D	P2D	P2D	P2D	P2D	P2D	P2D	P2D	P2D	P2D	P2D	P2D	P2D	P2D	P2D	P2D	P2D	P2D	P2D	P2D	P2D	P2D	P2D	P2D	P2D
	EMG_lat	EMG_lat	EMG_lat	EMG_lat	EMG_med	EMG_med	EMG_med	EMG_med	EMG_lat	EMG_lat	EMG_lat	EMG_lat	EMG_med	EMG_med	EMG_med	EMG_med	EMG_lat	EMG_lat	EMG_lat	EMG_lat	EMG_med	EMG_med	EMG_med	EMG_med	EMG_lat	EMG_lat	EMG_lat	EMG_lat	EMG_med	EMG_med	EMG_med	EMG_med	EMG_lat	EMG_lat	EMG_lat	EMG_lat	EMG_med	EMG_med	EMG_med	EMG_med	EMG_lat	EMG_lat	EMG_lat	EMG_lat	EMG_med	EMG_med	EMG_med	EMG_med	EMG_lat	EMG_lat	EMG_lat	EMG_lat	EMG_med	EMG_med	EMG_med	EMG_med	EMG_lat	EMG_lat	EMG_lat	EMG_lat	EMG_med	EMG_med	EMG_med	EMG_med	EMG_lat	EMG_lat	EMG_lat	EMG_lat	EMG_med	EMG_med	EMG_med	EMG_med
ITEM	Y	Y	Y	Y	Y	Y	Y	Y	Y	Y	Y	Y	Y	Y	Y	Y	Y	Y	Y	Y	Y	Y	Y	Y	Y	Y	Y	Y	Y	Y	Y	Y	Y	Y	Y	Y	Y	Y	Y	Y	Y	Y	Y	Y	Y	Y	Y	Y	Y	Y	Y	Y	Y	Y	Y	Y	Y	Y	Y	Y	Y	Y	Y	Y	Y	Y	Y	Y	Y	Y	Y	Y
1	0.197991	0.191054	0.281929	0.147346	0.295533	0.209615	0.191964	0.205823	0.201453	0.230441	0.324698	0.352211	0.406895	0.226720	0.206850	0.183149	0.195174	0.170443	0.715630	0.537096	0.173869	0.230462	0.209353	0.180005	0.126392	0.162255	0.440770	0.187999	0.159214	0.134950	0.241335	0.269614	0.064268	0.075489	0.573428	0.270595	0.304652	0.276144	0.341727	0.380538	0.099726	0.103948	0.315712	0.144709	0.163042	0.088188	0.240040	0.216614	0.234535	0.362533	0.857382	0.874107	0.239458	0.125970	0.054395	0.028063	0.126642	0.109381	0.450269	0.235915	0.204948	0.128878	0.288804	0.306230	0.272347	0.105175	0.337382	0.267637	0.180891	0.289111	0.257514	0.201138
2	0.199945	0.191669	0.341226	0.152856	0.283035	0.219907	0.217205	0.198700	0.206028	0.230229	0.353646	0.380956	0.411703	0.225895	0.197202	0.183376	0.216922	0.165884	0.690667	0.530081	0.184392	0.227826	0.202911	0.172781	0.212185	0.189674	0.410389	0.185785	0.151786	0.133229	0.238211	0.253466	0.063208	0.078107	0.583159	0.280159	0.308148	0.265768	0.325147	0.372059	0.115577	0.104045	0.319279	0.141548	0.162817	0.086340	0.234084	0.184675	0.242961	0.362629	0.830029	0.861140	0.231918	0.125587	0.055528	0.027721	0.132606	0.108952	0.431665	0.228205	0.184808	0.129794	0.304039	0.325328	0.254274	0.105871	0.397647	0.379947	0.182306	0.289815	0.272315	0.212006
3	0.197729	0.190514	0.387837	0.163204	0.271476	0.222384	0.229460	0.192072	0.209926	0.230175	0.388576	0.425839	0.413098	0.227042	0.193419	0.193419	0.237642	0.164459	0.673270	0.522069	0.190321	0.197893	0.197461	0.161311	0.266963	0.208441	0.407536	0.185948	0.159259	0.127103	0.241516	0.250528	0.064642	0.083327	0.588850	0.296105	0.308525	0.271826	0.319005	0.368672	0.122044	0.104520	0.371905	0.153020	0.161504	0.080548	0.230043	0.149775	0.243564	0.366117	0.773284	0.821313	0.216444	0.127356	0.055575	0.028158	0.120343	0.106818	0.429132	0.223351	0.144117	0.131681	0.331647	0.345457	0.255463	0.122234	0.513757	0.537733	0.178036	0.287262	0.280042	0.214954
4	0.189379	0.184364	0.416531	0.198502	0.232261	0.215872	0.230404	0.190122	0.210579	0.230475	0.424373	0.479554	0.402456	0.225857	0.191293	0.199161	0.244351	0.163516	0.678582	0.526238	0.191637	0.196745	0.189506	0.150547	0.271624	0.215255	0.427813	0.205145	0.165533	0.131682	0.226202	0.251601	0.067144	0.097309	0.587923	0.307085	0.298641	0.269529	0.318587	0.368204	0.121788	0.110364	0.492118	0.194410	0.162428	0.076583	0.228664	0.137994	0.247753	0.375237	0.747575	0.779387	0.205932	0.147930	0.054483	0.027980	0.114256	0.104731	0.438038	0.228075	0.123411	0.133921	0.362168	0.357959	0.262062	0.173215	0.637369	0.765657	0.176308	0.262647	0.278397	0.211947
5	0.186035	0.181620	0.417157	0.232317	0.235648	0.210225	0.236503	0.190299	0.216942	0.231543	0.458429	0.527133	0.378103	0.226701	0.185797	0.197535	0.246012	0.161890	0.701600	0.535294	0.200003	0.187172	0.182740	0.146792	0.271646	0.213248	0.450852	0.233556	0.168433	0.139113	0.195636	0.226696	0.070668	0.147010	0.570036	0.303580	0.290407	0.262892	0.316991	0.366752	0.124544	0.114895	0.558095	0.246230	0.162397	0.074419	0.230393	0.148933	0.260048	0.379654	0.742909	0.756104	0.205393	0.166515	0.047315	0.028458	0.112292	0.103898	0.444787	0.234426	0.120959	0.133475	0.373610	0.354615	0.222883	0.177674	0.729123	0.957562	0.180392	0.223905	0.280171	0.221090
6	0.183709	0.180987	0.417235	0.240505	0.235282	0.204362	0.248464	0.189947	0.237451	0.227037	0.487081	0.558040	0.391553	0.226704	0.191404	0.197836	0.265374	0.153919	0.740185	0.554591	0.203577	0.172967	0.174650	0.146917	0.269534	0.212231	0.458231	0.258891	0.164429	0.145708	0.178246	0.181010	0.096212	0.170686	0.547923	0.288482	0.290642	0.257971	0.308871	0.352749	0.133248	0.110621	0.576659	0.266881	0.157229	0.071364	0.240101	0.165467	0.285547	0.381609	0.757554	0.760091	0.223407	0.167243	0.041957	0.029771	0.114820	0.096689	0.446682	0.227907	0.128994	0.146615	0.376994	0.356663	0.207768	0.177976	0.757560	1.034385	0.214633	0.222792	0.287555	0.238508
7	0.179321	0.163338	0.417492	0.245470	0.249088	0.211516	0.256086	0.186318	0.250108	0.205790	0.501629	0.571554	0.395755	0.223195	0.191511	0.195780	0.294691	0.137798	0.775039	0.586438	0.177692	0.214869	0.163160	0.142968	0.269608	0.210944	0.410016	0.256781	0.166825	0.149869	0.165994	0.149300	0.099612	0.178884	0.542204	0.274078	0.279969	0.240230	0.290051	0.325909	0.155322	0.100492	0.574424	0.266455	0.146028	0.068502	0.252372	0.176618	0.327163	0.383852	0.765629	0.766972	0.246285	0.183184	0.042738	0.030796	0.112838	0.095830	0.433743	0.213423	0.101412	0.150266	0.383790	0.378217	0.221073	0.178102	0.758296	1.039941	0.204616	0.212299	0.291137	0.253109
8	0.153207	0.130924	0.418009	0.246952	0.264272	0.219710	0.262818	0.172164	0.245047	0.161921	0.509000	0.578295	0.395731	0.204750	0.180434	0.187306	0.314962	0.130518	0.779189	0.618978	0.180539	0.228860	0.151973	0.137234	0.270778	0.208075	0.358726	0.261006	0.168156	0.146296	0.155741	0.121945	0.100185	0.179034	0.560871	0.273482	0.267612	0.201607	0.259807	0.290461	0.166723	0.093300	0.573443	0.261165	0.127013	0.069924	0.252125	0.186307	0.345795	0.378400	0.764157	0.764344	0.262980	0.223296	0.043496	0.030871	0.116167	0.108045	0.396111	0.181724	0.098982	0.179351	0.387957	0.395995	0.282036	0.193650	0.793487	1.096235	0.205592	0.186355	0.286556	0.261417
9	0.139197	0.110281	0.419145	0.246421	0.268611	0.228119	0.267059	0.161398	0.238181	0.151799	0.515066	0.582294	0.354542	0.164169	0.164743	0.175967	0.323395	0.127583	0.787075	0.618384	0.196751	0.222792	0.132572	0.126885	0.274090	0.206893	0.400740	0.344377	0.162834	0.154960	0.155095	0.110498	0.100382	0.180927	0.584583	0.278158	0.256185	0.158080	0.220891	0.248919	0.164670	0.104633	0.591551	0.273298	0.113662	0.085911	0.251654	0.190113	0.339537	0.356437	0.793668	0.782831	0.270975	0.222592	0.047546	0.031738	0.096707	0.122755	0.356126	0.172784	0.096643	0.240319	0.391161	0.400178	0.311946	0.241022	0.874485	1.219036	0.223646	0.179049	0.274442	0.262399
10	0.132103	0.111277	0.435637	0.265885	0.268357	0.228819	0.271841	0.159252	0.232406	0.153040	0.517685	0.584155	0.265140	0.134190	0.165044	0.169764	0.323788	0.109155	0.801542	0.621099	0.208713	0.223981	0.127822	0.114904	0.286463	0.204758	0.451812	0.421199	0.155136	0.160130	0.156566	0.110546	0.099210	0.182663	0.599386	0.280310	0.244057	0.148199	0.200227	0.219640	0.164842	0.115890	0.626313	0.301084	0.111559	0.109208	0.250568	0.189395	0.368577	0.317563	0.850414	0.853627	0.287625	0.225437	0.058049	0.031820	0.115720	0.124746	0.323137	0.210239	0.096705	0.242426	0.396075	0.404182	0.332352	0.247396	0.971026	1.381050	0.232991	0.156337	0.264515	0.254991
11	0.112041	0.101340	0.481561	0.336989	0.268862	0.228095	0.274565	0.161613	0.215237	0.151284	0.513547	0.581916	0.248339	0.116245	0.180781	0.170064	0.325226	0.103719	0.803760	0.620090	0.209327	0.224015	0.159139	0.124232	0.301451	0.201703	0.480069	0.455280	0.153611	0.157338	0.157241	0.112259	0.099900	0.184634	0.587313	0.282563	0.241454	0.144749	0.199937	0.211730	0.164997	0.118155	0.648997	0.335724	0.110215	0.128769	0.246881	0.189872	0.432461	0.338840	0.899323	0.910085	0.316395	0.226535	0.060114	0.032634	0.121163	0.120132	0.293185	0.253820	0.095848	0.242960	0.392249	0.404532	0.339275	0.253525	1.016440	1.491231	0.240983	0.124801	0.264623	0.248350
12	0.101680	0.086452	0.516145	0.385552	0.261078	0.207047	0.279682	0.167497	0.221268	0.136302	0.508185	0.575325	0.265611	0.111178	0.184382	0.162753	0.326105	0.099957	0.770512	0.591901	0.209653	0.224127	0.208463	0.189249	0.302679	0.189518	0.484891	0.459776	0.144363	0.158904	0.157923	0.112030	0.111020	0.193215	0.529846	0.271325	0.239053	0.140232	0.201338	0.215001	0.165088	0.120549	0.656873	0.363625	0.106050	0.139798	0.233044	0.189424	0.440443	0.325618	0.900980	0.902341	0.325394	0.228258	0.059908	0.033093	0.133624	0.140519	0.301717	0.288565	0.092732	0.246162	0.378237	0.399977	0.377153	0.259812	1.012557	1.521090	0.250488	0.120997	0.263092	0.243817
13	0.113206	0.079624	0.544344	0.411854	0.289931	0.185114	0.281253	0.167517	0.275636	0.120880	0.495634	0.565248	0.266873	0.111017	0.173402	0.146119	0.320432	0.102638	0.728638	0.556437	0.210472	0.224545	0.249369	0.256783	0.304524	0.181610	0.484719	0.459226	0.141131	0.168209	0.162889	0.112940	0.111467	0.205139	0.509934	0.250079	0.238798	0.135496	0.186328	0.210012	0.165234	0.121469	0.667581	0.371356	0.099931	0.140138	0.219856	0.188094	0.442692	0.304287	0.856258	0.826328	0.325781	0.231559	0.057397	0.033338	0.168711	0.148610	0.321859	0.311793	0.080782	0.242333	0.349418	0.393573	0.381454	0.263223	1.008555	1.529429	0.275233	0.127458	0.262160	0.241313
14	0.141547	0.089990	0.573657	0.424789	0.332078	0.174222	0.279822	0.159086	0.285754	0.105844	0.473796	0.545045	0.268211	0.108789	0.161143	0.128206	0.320471	0.103362	0.728386	0.553535	0.213188	0.224451	0.263290	0.299772	0.310071	0.179851	0.484983	0.458203	0.140346	0.169553	0.168227	0.115642	0.114784	0.208173	0.514814	0.243840	0.229255	0.129999	0.158556	0.174860	0.166488	0.119055	0.679415	0.371668	0.099062	0.142970	0.211899	0.187767	0.460870	0.319125	0.811675	0.747281	0.320222	0.236351	0.062849	0.032603	0.221881	0.193113	0.321390	0.319028	0.086425	0.239678	0.334612	0.388531	0.390569	0.263296	1.008647	1.530846	0.309293	0.151187	0.262482	0.240959
15	0.160562	0.112247	0.585882	0.428164	0.372091	0.182977	0.269933	0.140392	0.285066	0.124366	0.491843	0.524835	0.273581	0.105114	0.153891	0.117947	0.333683	0.105618	0.761424	0.596941	0.222032	0.217393	0.270236	0.321655	0.311663	0.176212	0.480398	0.463380	0.139368	0.174774	0.168781	0.119000	0.122709	0.209414	0.506174	0.240965	0.172154	0.130566	0.135238	0.132734	0.169600	0.114688	0.673970	0.371278	0.100160	0.150163	0.208687	0.187707	0.470371	0.326821	0.795006	0.732071	0.305693	0.249697	0.064742	0.032782	0.244179	0.313683	0.336753	0.324144	0.101051	0.240101	0.333940	0.389963	0.412023	0.259508	1.009480	1.530149	0.315057	0.164617	0.261240	0.241720
16	0.172238	0.114228	0.571944	0.430589	0.375644	0.218767	0.253753	0.116675	0.286877	0.143867	0.546597	0.537349	0.271490	0.100313	0.162919	0.116012	0.360329	0.130903	0.784627	0.640874	0.241010	0.208963	0.268623	0.324578	0.303951	0.177630	0.472399	0.481843	0.143793	0.176346	0.163506	0.114534	0.121858	0.212275	0.494934	0.237388	0.103752	0.128278	0.126990	0.113094	0.167912	0.116263	0.660859	0.373542	0.100835	0.152435	0.209633	0.187372	0.541381	0.332456	0.784920	0.755976	0.298153	0.255660	0.062864	0.033583	0.244900	0.393747	0.412407	0.359328	0.129473	0.254173	0.329988	0.384299	0.418384	0.287075	1.027956	1.531121	0.315474	0.164479	0.254387	0.237435
17	0.173412	0.126083	0.541185	0.430834	0.386017	0.224535	0.232485	0.096926	0.292967	0.156347	0.609068	0.582672	0.267689	0.099072	0.179542	0.107290	0.397793	0.143634	0.779552	0.657737	0.241140	0.203377	0.287085	0.327553	0.303687	0.193203	0.464359	0.489449	0.157762	0.177134	0.155832	0.106452	0.122551	0.216045	0.484551	0.234281	0.088004	0.137459	0.127145	0.106221	0.166529	0.118780	0.676328	0.385955	0.103086	0.152371	0.209262	0.187200	0.588975	0.371875	0.800148	0.780063	0.318635	0.335215	0.062131	0.035393	0.254852	0.406157	0.466840	0.416901	0.150786	0.263854	0.312993	0.368109	0.418116	0.379808	1.042443	1.525929	0.320939	0.159112	0.243896	0.225718
18	0.198890	0.155690	0.507855	0.425339	0.383989	0.242173	0.207888	0.090132	0.299286	0.166681	0.668014	0.631926	0.276206	0.098835	0.194303	0.084167	0.418196	0.154412	0.764466	0.643526	0.234082	0.203243	0.310887	0.350144	0.225249	0.175844	0.459824	0.492801	0.160398	0.179583	0.150079	0.098678	0.123327	0.216731	0.477157	0.228897	0.090557	0.157247	0.128635	0.102402	0.161658	0.119811	0.709735	0.409579	0.102928	0.158151	0.209162	0.185642	0.594992	0.374085	0.795312	0.798381	0.314140	0.353749	0.062062	0.036116	0.288407	0.461781	0.494615	0.468787	0.173842	0.264095	0.276892	0.337442	0.445065	0.400158	1.032270	1.503743	0.319283	0.154215	0.219466	0.206994
19	0.265297	0.171320	0.488882	0.408192	0.386273	0.241500	0.191326	0.091987	0.312289	0.176843	0.696393	0.662349	0.277852	0.093727	0.198183	0.053082	0.416147	0.155762	0.764333	0.636467	0.241406	0.198365	0.321086	0.368720	0.202204	0.156702	0.446911	0.489250	0.156076	0.188530	0.146698	0.097357	0.122460	0.214823	0.473508	0.215709	0.099890	0.153516	0.128832	0.100942	0.149377	0.120670	0.745262	0.434008	0.102925	0.190087	0.209241	0.181848	0.601358	0.367619	0.769423	0.794751	0.315976	0.374006	0.063276	0.036238	0.286694	0.484227	0.503307	0.496540	0.178600	0.267427	0.229031	0.302622	0.462997	0.398573	0.985911	1.461572	0.332552	0.162570	0.193160	0.192201
20	0.302577	0.176691	0.494224	0.393415	0.388764	0.242776	0.190659	0.092803	0.325487	0.183237	0.700107	0.658070	0.278562	0.081692	0.200805	0.035986	0.411610	0.173531	0.755750	0.635691	0.236894	0.192757	0.327938	0.378097	0.220686	0.162915	0.424525	0.476150	0.157356	0.192172	0.142954	0.099055	0.124175	0.191232	0.473021	0.207762	0.089037	0.145402	0.130940	0.100742	0.158668	0.128505	0.743075	0.442395	0.102813	0.215528	0.206061	0.181007	0.615670	0.361306	0.748521	0.785171	0.313736	0.367007	0.063810	0.036642	0.287636	0.488960	0.505584	0.511498	0.183431	0.268411	0.210445	0.292184	0.469816	0.401525	0.916581	1.366395	0.365926	0.172393	0.175001	0.184268
21	0.311103	0.178158	0.501441	0.393049	0.386924	0.252749	0.184972	0.092678	0.328283	0.184484	0.685927	0.632934	0.262733	0.116668	0.197705	0.032602	0.407227	0.205646	0.731139	0.626072	0.216409	0.196904	0.334112	0.391989	0.222884	0.169303	0.399489	0.459963	0.138811	0.191925	0.137674	0.101507	0.119838	0.174542	0.467585	0.206765	0.085129	0.136340	0.133365	0.100657	0.192732	0.145244	0.686207	0.434083	0.109306	0.217068	0.200737	0.181029	0.613399	0.378954	0.725108	0.774479	0.310126	0.366613	0.064047	0.040536	0.289170	0.498709	0.501431	0.514905	0.175854	0.257859	0.202920	0.284547	0.466042	0.413970	0.863311	1.242464	0.366063	0.172605	0.173440	0.185606
22	0.324460	0.179057	0.503660	0.392604	0.388276	0.266379	0.173642	0.099491	0.333681	0.186923	0.670484	0.594765	0.254850	0.128422	0.193820	0.031098	0.415694	0.211741	0.702899	0.613082	0.213837	0.182168	0.344384	0.407434	0.227785	0.190664	0.393449	0.451498	0.133626	0.190594	0.135186	0.100487	0.135028	0.166108	0.440428	0.203498	0.085364	0.134729	0.136020	0.100467	0.220127	0.155096	0.628413	0.408926	0.113415	0.217324	0.197322	0.179029	0.618819	0.404508	0.710153	0.758102	0.297019	0.370336	0.064397	0.050724	0.290583	0.501079	0.497992	0.512320	0.175614	0.240884	0.192632	0.245019	0.462747	0.414206	0.847213	1.175235	0.365742	0.171671	0.170708	0.174696
23	0.329585	0.178312	0.503416	0.391896	0.383783	0.265014	0.181042	0.114368	0.352301	0.216874	0.689414	0.574642	0.248424	0.138799	0.195145	0.031433	0.409662	0.211373	0.660141	0.592795	0.207271	0.160310	0.347568	0.416621	0.230467	0.193402	0.396801	0.459545	0.130194	0.184625	0.134886	0.100557	0.156660	0.167926	0.398292	0.192411	0.116992	0.145143	0.136288	0.100290	0.221850	0.154877	0.605639	0.394084	0.117955	0.216933	0.196398	0.173764	0.604987	0.406564	0.709658	0.752420	0.281742	0.357335	0.067626	0.055816	0.290480	0.503024	0.490668	0.509972	0.207913	0.208856	0.181695	0.196964	0.525271	0.422283	0.860159	1.185138	0.347005	0.166774	0.161630	0.146252
24	0.332876	0.176048	0.502105	0.392408	0.372963	0.260600	0.200376	0.146270	0.371561	0.267586	0.725097	0.584183	0.244545	0.164432	0.200531	0.034119	0.407923	0.212077	0.610675	0.562507	0.194500	0.150623	0.347216	0.417093	0.261875	0.268787	0.366044	0.435619	0.128204	0.185593	0.127394	0.101157	0.169325	0.178564	0.347649	0.182326	0.153820	0.145631	0.136490	0.098527	0.210471	0.154759	0.602078	0.392034	0.141753	0.221013	0.187796	0.163838	0.608829	0.421115	0.689125	0.744255	0.274341	0.342534	0.068731	0.055163	0.301629	0.503578	0.488088	0.507743	0.299527	0.161787	0.155397	0.161593	0.512316	0.420871	0.845578	1.167596	0.347246	0.204628	0.143296	0.118986
25	0.341326	0.175805	0.485136	0.373142	0.367158	0.256693	0.222961	0.183888	0.365698	0.280954	0.761995	0.605160	0.242664	0.197067	0.205167	0.044194	0.389286	0.213735	0.602437	0.522660	0.187628	0.149878	0.345164	0.416964	0.267535	0.359436	0.298488	0.355779	0.128168	0.178592	0.120334	0.101306	0.169725	0.176947	0.320761	0.178283	0.153806	0.155534	0.140163	0.100518	0.201722	0.153011	0.601308	0.393465	0.148454	0.234004	0.153377	0.142791	0.620766	0.420477	0.625821	0.676334	0.271444	0.363989	0.065652	0.055258	0.302244	0.501260	0.490140	0.507301	0.308587	0.159588	0.110075	0.125934	0.491658	0.399539	0.785842	1.068994	0.339243	0.225020	0.124490	0.096975
26	0.342064	0.178589	0.440916	0.310009	0.364442	0.255385	0.246781	0.218637	0.362715	0.285086	0.782833	0.630850	0.242317	0.202267	0.199800	0.051140	0.387412	0.215122	0.596831	0.521567	0.186452	0.164016	0.335372	0.415260	0.269915	0.372154	0.248883	0.277132	0.128135	0.209474	0.113430	0.102469	0.191995	0.174861	0.314807	0.173825	0.181569	0.164121	0.147537	0.102174	0.206387	0.145161	0.586119	0.386040	0.153287	0.240664	0.111845	0.114647	0.629424	0.380730	0.539081	0.585907	0.247751	0.365402	0.065976	0.055176	0.303581	0.500822	0.490679	0.500403	0.312772	0.163626	0.108006	0.110317	0.477534	0.397183	0.661114	0.865056	0.327148	0.232231	0.112532	0.081484
27	0.341234	0.195507	0.403082	0.254095	0.363170	0.256919	0.256650	0.240901	0.364004	0.298690	0.800459	0.666660	0.228742	0.211024	0.194370	0.055971	0.393215	0.214116	0.572824	0.511232	0.186139	0.172700	0.309561	0.395577	0.259311	0.372348	0.224753	0.243135	0.154571	0.255734	0.111673	0.107728	0.201516	0.167131	0.314547	0.174957	0.253857	0.198520	0.147586	0.101607	0.228349	0.139134	0.555497	0.363412	0.153107	0.242558	0.106603	0.084922	0.638086	0.364508	0.482363	0.528188	0.212828	0.365384	0.067749	0.055228	0.301432	0.510643	0.488446	0.483539	0.316106	0.174976	0.110676	0.111412	0.473369	0.417961	0.563272	0.624209	0.320631	0.233362	0.106104	0.074736
28	0.342415	0.209818	0.360088	0.213161	0.362158	0.268861	0.252551	0.242683	0.375520	0.300150	0.815327	0.702388	0.247368	0.229923	0.193955	0.060111	0.392007	0.210211	0.547893	0.488046	0.187947	0.189329	0.275268	0.357183	0.259241	0.372973	0.223184	0.240555	0.168439	0.252510	0.125417	0.119344	0.206492	0.170256	0.293075	0.194646	0.257942	0.262043	0.144178	0.099623	0.253759	0.137684	0.534901	0.330938	0.154453	0.238852	0.106574	0.068250	0.671116	0.363152	0.462205	0.516647	0.206277	0.362452	0.074859	0.059231	0.325390	0.511835	0.484559	0.462646	0.319472	0.200260	0.103348	0.110184	0.493855	0.440055	0.538138	0.518271	0.312611	0.233675	0.092159	0.069531
29	0.332216	0.212210	0.288003	0.180896	0.332257	0.264667	0.266375	0.241825	0.376065	0.298705	0.830007	0.732083	0.308302	0.253721	0.193356	0.060656	0.389249	0.224419	0.545915	0.480511	0.186044	0.203129	0.257225	0.317305	0.254476	0.374910	0.224555	0.240541	0.170457	0.267449	0.139441	0.127977	0.211791	0.175547	0.252840	0.217196	0.257376	0.273884	0.141101	0.096496	0.254499	0.146475	0.550256	0.301811	0.154560	0.229903	0.102472	0.067727	0.738626	0.344872	0.457449	0.504894	0.206854	0.366100	0.080562	0.066968	0.319683	0.512988	0.476645	0.445017	0.326867	0.201461	0.099318	0.105052	0.507652	0.462682	0.543528	0.498789	0.327871	0.245058	0.076595	0.066385
30	0.338289	0.208927	0.215263	0.152143	0.275373	0.263876	0.325682	0.262553	0.341124	0.295453	0.839228	0.751758	0.362684	0.271104	0.194899	0.061622	0.385290	0.233557	0.540464	0.476866	0.182905	0.204684	0.248639	0.289978	0.248831	0.376194	0.222843	0.237997	0.173062	0.268156	0.147600	0.138119	0.207991	0.174963	0.246840	0.229237	0.261238	0.276391	0.134632	0.089793	0.271243	0.160572	0.575984	0.301423	0.155063	0.219455	0.097663	0.065984	0.736486	0.333788	0.413123	0.463078	0.228398	0.371898	0.078558	0.073766	0.297223	0.524830	0.466947	0.432685	0.323856	0.200157	0.097073	0.090499	0.511619	0.474699	0.554248	0.494716	0.345211	0.269117	0.080262	0.067328
31	0.338956	0.210303	0.187084	0.130217	0.195907	0.259759	0.372217	0.294672	0.348517	0.298873	0.834931	0.752514	0.383784	0.297495	0.196544	0.065248	0.442884	0.249908	0.496031	0.439931	0.174503	0.216424	0.245255	0.279541	0.245814	0.375071	0.219298	0.223017	0.191781	0.267490	0.146639	0.143183	0.207057	0.175333	0.252951	0.230123	0.262705	0.278741	0.125557	0.074733	0.315850	0.163887	0.605285	0.351085	0.154076	0.212441	0.099297	0.064569	0.700063	0.329219	0.359878	0.404032	0.271087	0.383826	0.077837	0.075357	0.264541	0.503970	0.466549	0.430900	0.313247	0.178429	0.095766	0.075436	0.514375	0.477245	0.553293	0.494954	0.334391	0.276101	0.088371	0.069164
32	0.373131	0.205093	0.213444	0.128947	0.194164	0.242495	0.401506	0.328390	0.439134	0.297579	0.815956	0.744750	0.391124	0.318247	0.192529	0.075657	0.454651	0.256506	0.426206	0.358712	0.166248	0.220069	0.225563	0.276822	0.246366	0.367334	0.221245	0.213087	0.195297	0.266510	0.142864	0.140200	0.206188	0.184452	0.252172	0.226542	0.263343	0.282827	0.115359	0.055565	0.315820	0.164330	0.634322	0.413797	0.146264	0.211018	0.099129	0.063468	0.679805	0.302251	0.303413	0.356772	0.299651	0.377135	0.080361	0.075500	0.268624	0.434632	0.437849	0.420809	0.309524	0.169788	0.098756	0.056110	0.521293	0.476600	0.530445	0.499525	0.323293	0.274301	0.093320	0.070931
33	0.365415	0.186889	0.262380	0.158916	0.166976	0.240684	0.422911	0.365536	0.516700	0.296362	0.780533	0.726188	0.455300	0.347474	0.177982	0.090322	0.437447	0.245858	0.355029	0.260408	0.171557	0.284180	0.180757	0.251111	0.246295	0.352245	0.228604	0.230572	0.201878	0.282698	0.151310	0.136624	0.205126	0.186673	0.250356	0.216805	0.266042	0.285705	0.110642	0.047526	0.322826	0.167231	0.667688	0.456635	0.139252	0.212106	0.099128	0.060942	0.718528	0.313351	0.284782	0.297267	0.293253	0.311398	0.089775	0.074311	0.387051	0.409018	0.380962	0.383037	0.308318	0.173692	0.096851	0.046748	0.539857	0.450797	0.503443	0.508274	0.323014	0.280749	0.101274	0.073082
34	0.320908	0.187988	0.323736	0.189983	0.165848	0.215374	0.428071	0.380183	0.542714	0.299372	0.734456	0.693242	0.563331	0.358914	0.167688	0.101017	0.408532	0.245779	0.276613	0.174456	0.188273	0.291227	0.154747	0.217892	0.246964	0.350028	0.239112	0.265379	0.201258	0.307611	0.158513	0.135353	0.208499	0.195265	0.249608	0.213688	0.272141	0.286200	0.105034	0.047773	0.329839	0.175531	0.678412	0.473729	0.141656	0.230778	0.097643	0.059598	0.724120	0.324322	0.294670	0.262732	0.293977	0.327835	0.112762	0.078803	0.378307	0.392668	0.375381	0.372562	0.310136	0.162236	0.096647	0.043353	0.526280	0.492339	0.516595	0.519209	0.319806	0.291019	0.116740	0.084751
35	0.300121	0.239629	0.438664	0.263578	0.168613	0.205263	0.427406	0.381273	0.553295	0.295925	0.685903	0.663738	0.601547	0.361193	0.161477	0.103562	0.405158	0.250961	0.229532	0.131830	0.239794	0.298695	0.134696	0.194425	0.273764	0.350004	0.234940	0.290577	0.212161	0.315240	0.168692	0.136684	0.209122	0.195566	0.249329	0.212443	0.275880	0.282019	0.095216	0.047755	0.340823	0.175305	0.654516	0.465089	0.144212	0.264364	0.093867	0.059478	0.709860	0.326012	0.284393	0.235035	0.343140	0.317965	0.130550	0.087762	0.364922	0.336401	0.398844	0.436934	0.311161	0.161944	0.095481	0.043384	0.508441	0.495038	0.528219	0.524390	0.359206	0.290733	0.122258	0.099418
36	0.312363	0.259204	0.564861	0.354637	0.177062	0.209452	0.427721	0.381912	0.606439	0.292948	0.657990	0.652062	0.602179	0.354500	0.166169	0.103661	0.459453	0.267434	0.222801	0.128820	0.263773	0.313933	0.118797	0.164512	0.315193	0.354064	0.250331	0.292819	0.232612	0.313599	0.184338	0.140504	0.204198	0.191292	0.258508	0.220753	0.279903	0.268144	0.090002	0.046951	0.344814	0.176217	0.607906	0.440514	0.142683	0.272444	0.093061	0.059739	0.723138	0.320393	0.256262	0.205277	0.418330	0.323811	0.139984	0.096988	0.363425	0.314587	0.457614	0.538176	0.314999	0.172975	0.098481	0.043661	0.495101	0.506813	0.522357	0.520930	0.392005	0.287823	0.121255	0.105391
37	0.302176	0.259145	0.670249	0.449814	0.184690	0.214006	0.428728	0.385871	0.697474	0.319539	0.673941	0.683464	0.597199	0.345753	0.173816	0.104713	0.485727	0.280466	0.226080	0.129205	0.265757	0.308548	0.090359	0.116434	0.344838	0.373875	0.320693	0.334995	0.255210	0.310698	0.191186	0.151161	0.194007	0.194399	0.315341	0.274032	0.276483	0.275659	0.089499	0.052530	0.340944	0.175691	0.590306	0.434384	0.151769	0.273851	0.092565	0.058801	0.741611	0.279943	0.229142	0.188097	0.473492	0.318271	0.141722	0.101390	0.365467	0.311792	0.529856	0.665752	0.329416	0.177243	0.101084	0.044096	0.486000	0.554591	0.485924	0.501517	0.368055	0.281164	0.117938	0.106904
38	0.313983	0.259738	0.731068	0.532442	0.215839	0.199951	0.429436	0.387912	0.751373	0.340529	0.720916	0.736879	0.594934	0.344173	0.178180	0.105867	0.529615	0.302035	0.224981	0.125143	0.263945	0.294005	0.067611	0.055660	0.346279	0.385927	0.395536	0.451880	0.256886	0.302338	0.192697	0.171389	0.183344	0.206233	0.377336	0.336876	0.278907	0.298165	0.087578	0.058455	0.353691	0.163013	0.615862	0.457348	0.158784	0.260132	0.089823	0.057936	0.743869	0.284772	0.234087	0.187975	0.479945	0.315461	0.143214	0.097193	0.364994	0.295583	0.572184	0.768163	0.307253	0.182941	0.108246	0.049178	0.485290	0.577524	0.446946	0.476796	0.365877	0.284180	0.118280	0.104100
39	0.332608	0.260028	0.749263	0.583225	0.212618	0.197941	0.426231	0.385635	0.765295	0.345043	0.770185	0.789561	0.594122	0.331713	0.176481	0.108529	0.537779	0.324066	0.219369	0.127877	0.263410	0.295378	0.069755	0.032933	0.388775	0.390932	0.429116	0.545364	0.255767	0.302285	0.190817	0.189622	0.225890	0.197572	0.380783	0.344942	0.282891	0.313080	0.081968	0.065615	0.343890	0.194601	0.672284	0.499929	0.161170	0.250705	0.084194	0.058054	0.758955	0.265330	0.235294	0.188430	0.479312	0.314854	0.146995	0.095384	0.363864	0.301581	0.584001	0.809699	0.224349	0.208465	0.109091	0.052689	0.438629	0.576142	0.417372	0.447032	0.366579	0.285063	0.121570	0.103816
40	0.393816	0.259521	0.751068	0.599623	0.209721	0.192802	0.410688	0.376119	0.752793	0.333585	0.773452	0.809137	0.588855	0.312843	0.169980	0.106755	0.539789	0.327153	0.236290	0.180903	0.258968	0.295006	0.072870	0.033828	0.479746	0.340863	0.436377	0.574858	0.257597	0.302209	0.189442	0.194036	0.284560	0.217194	0.370866	0.340595	0.325301	0.321657	0.077742	0.072128	0.367904	0.343916	0.717245	0.535175	0.188578	0.288685	0.078527	0.058381	0.802240	0.253697	0.239754	0.183472	0.477626	0.313837	0.155750	0.096949	0.363514	0.301643	0.585116	0.813616	0.223180	0.230744	0.107858	0.050392	0.421974	0.587295	0.379924	0.395160	0.364900	0.289530	0.130590	0.110247
41	0.416927	0.269604	0.792653	0.602271	0.206170	0.186679	0.395690	0.359635	0.734759	0.294349	0.739503	0.794598	0.587431	0.306895	0.162323	0.104082	0.543484	0.373107	0.310204	0.256832	0.256571	0.296373	0.072509	0.033880	0.506441	0.284078	0.428282	0.580383	0.264244	0.299782	0.189386	0.193795	0.314206	0.253391	0.366754	0.349361	0.350578	0.319520	0.078225	0.075411	0.416642	0.486977	0.732006	0.546548	0.222246	0.296136	0.076166	0.059435	0.806257	0.245124	0.249784	0.177533	0.478201	0.296075	0.160270	0.099650	0.364406	0.304814	0.621101	0.849024	0.216413	0.231134	0.100001	0.046504	0.429409	0.591304	0.348199	0.349384	0.361734	0.270163	0.146016	0.130726
42	0.441900	0.288060	0.902752	0.651274	0.204258	0.187219	0.379032	0.339924	0.741026	0.284315	0.696176	0.781984	0.593834	0.302181	0.154102	0.100392	0.550266	0.401277	0.395136	0.328978	0.274827	0.288210	0.071966	0.034535	0.500299	0.275818	0.416187	0.578006	0.268040	0.298955	0.189324	0.194045	0.307112	0.255242	0.380007	0.365483	0.339356	0.321976	0.078271	0.075715	0.445444	0.534900	0.738907	0.548248	0.255360	0.329846	0.074632	0.059644	0.776216	0.290965	0.271461	0.182779	0.482577	0.298766	0.161088	0.101992	0.372800	0.344968	0.688334	0.929195	0.212609	0.235253	0.104503	0.057937	0.437520	0.592834	0.337406	0.335167	0.364005	0.249417	0.165437	0.157727
43	0.469409	0.298342	1.006405	0.733223	0.208873	0.189190	0.368695	0.324196	0.789404	0.335866	0.687424	0.781039	0.608584	0.291954	0.155151	0.098406	0.551456	0.408258	0.434827	0.382507	0.285045	0.284275	0.072904	0.035298	0.505411	0.285566	0.422919	0.582144	0.271131	0.294636	0.189641	0.195291	0.302647	0.249413	0.382893	0.364750	0.336961	0.324759	0.075031	0.077800	0.485665	0.540953	0.739661	0.547580	0.245123	0.369797	0.071205	0.057155	0.799982	0.296102	0.295884	0.220459	0.498196	0.301452	0.160262	0.102646	0.372296	0.353749	0.745010	1.000687	0.214026	0.227858	0.126552	0.083991	0.523815	0.580536	0.344070	0.347596	0.362270	0.241084	0.181086	0.178989
44	0.473877	0.291339	1.058022	0.808332	0.233164	0.177247	0.366714	0.318097	0.881551	0.420891	0.701756	0.770384	0.591289	0.267781	0.157329	0.097576	0.545152	0.409618	0.450388	0.405601	0.287485	0.268388	0.066909	0.035295	0.509566	0.294648	0.434424	0.592632	0.270628	0.283450	0.188875	0.195276	0.299740	0.242645	0.373623	0.348892	0.334051	0.322996	0.066373	0.085499	0.501548	0.553685	0.737699	0.547303	0.243225	0.365842	0.056091	0.049216	0.812396	0.297806	0.300166	0.241537	0.498516	0.303384	0.156708	0.099601	0.359408	0.345101	0.777991	1.052557	0.206698	0.243107	0.135522	0.094815	0.504588	0.563730	0.345043	0.347349	0.360838	0.239409	0.194908	0.194317
45	0.462689	0.287937	1.076821	0.854608	0.239193	0.172697	0.359885	0.317593	0.968521	0.575200	0.726267	0.755866	0.558306	0.259312	0.159385	0.097241	0.548571	0.412964	0.451424	0.407764	0.289377	0.267832	0.064960	0.035468	0.510940	0.297677	0.442868	0.604278	0.261025	0.233469	0.186474	0.191817	0.300270	0.255026	0.364480	0.333376	0.282453	0.316891	0.069122	0.104138	0.493184	0.557498	0.731893	0.547066	0.244771	0.361774	0.049541	0.042240	0.907516	0.333702	0.311888	0.242230	0.495397	0.294674	0.154258	0.093455	0.353479	0.339762	0.809365	1.101335	0.204786	0.246196	0.139541	0.096167	0.476380	0.550668	0.335370	0.326291	0.358822	0.243020	0.200537	0.199151
46	0.543843	0.316776	1.075799	0.866266	0.238209	0.171779	0.312610	0.304869	0.999712	0.626895	0.741067	0.747784	0.533521	0.220762	0.155504	0.095923	0.569117	0.404899	0.456906	0.422161	0.285143	0.259636	0.070570	0.042632	0.523741	0.303125	0.446542	0.612152	0.249855	0.219912	0.174291	0.182715	0.302266	0.253148	0.359562	0.332284	0.267837	0.268023	0.072416	0.120535	0.517699	0.573529	0.719584	0.545447	0.248864	0.359989	0.054426	0.036750	0.967909	0.354069	0.336411	0.251211	0.483376	0.275025	0.154623	0.089226	0.363632	0.328620	0.829782	1.133930	0.207565	0.251427	0.138416	0.097506	0.475087	0.545000	0.314212	0.314615	0.354906	0.236091	0.202411	0.199371
47	0.578069	0.354843	1.069018	0.865143	0.236099	0.173063	0.249955	0.276411	1.015568	0.625932	0.748631	0.752952	0.532914	0.195362	0.144006	0.089164	0.610111	0.398805	0.500269	0.489192	0.275726	0.255870	0.084112	0.058827	0.525415	0.306114	0.447280	0.611947	0.252145	0.203459	0.161935	0.175092	0.302623	0.296830	0.359675	0.333046	0.271757	0.253191	0.072465	0.124337	0.525905	0.600096	0.694477	0.540576	0.253602	0.358612	0.079597	0.043221	0.965330	0.368788	0.348923	0.263072	0.457589	0.249013	0.157021	0.088201	0.385768	0.313301	0.833863	1.144298	0.199534	0.250954	0.146549	0.102659	0.456384	0.544318	0.313369	0.312712	0.326771	0.207895	0.201397	0.199125
48	0.586885	0.365319	1.061103	0.860055	0.235013	0.161525	0.194837	0.239613	1.070971	0.636166	0.752529	0.761014	0.501440	0.136659	0.132517	0.075393	0.614799	0.387218	0.567241	0.553732	0.279487	0.201441	0.093791	0.077456	0.542418	0.306968	0.445309	0.601097	0.254306	0.199097	0.159947	0.170559	0.332982	0.317760	0.358641	0.334124	0.269937	0.262732	0.073791	0.124229	0.502567	0.609644	0.658194	0.515569	0.262603	0.358443	0.106932	0.071628	0.935760	0.440080	0.349340	0.272613	0.442621	0.253317	0.156600	0.088237	0.393555	0.321067	0.833029	1.145129	0.182612	0.247802	0.189188	0.122789	0.484111	0.559990	0.306007	0.303479	0.301138	0.178715	0.202825	0.198875
49	0.586030	0.355938	1.042867	0.852868	0.233996	0.157877	0.134735	0.175889	1.191199	0.675974	0.753154	0.764187	0.372650	0.084795	0.132872	0.064118	0.594500	0.381339	0.612968	0.569642	0.278233	0.167353	0.098046	0.092418	0.579927	0.355050	0.450882	0.592122	0.243195	0.197685	0.162331	0.168935	0.342067	0.322561	0.360824	0.336492	0.269003	0.270883	0.076435	0.123621	0.502935	0.611009	0.617966	0.467246	0.268280	0.358836	0.134162	0.107302	1.002412	0.437050	0.328662	0.263805	0.433643	0.245416	0.148856	0.087497	0.363300	0.369544	0.832134	1.145950	0.178235	0.246247	0.226547	0.156579	0.507496	0.541106	0.284840	0.288598	0.312581	0.171939	0.206386	0.197085
50	0.589503	0.321297	0.993247	0.829585	0.231825	0.179985	0.120510	0.130376	1.189639	0.723974	0.757301	0.764122	0.293481	0.077042	0.140822	0.077007	0.636423	0.381919	0.622943	0.570166	0.243390	0.160866	0.096451	0.101876	0.633039	0.469692	0.463600	0.579708	0.242200	0.193429	0.165631	0.174966	0.344711	0.376150	0.368724	0.336909	0.269207	0.292335	0.083928	0.125912	0.516742	0.610660	0.579200	0.423538	0.265479	0.359474	0.158037	0.139510	1.096237	0.452656	0.312699	0.254022	0.421205	0.225565	0.130360	0.081437	0.312610	0.359505	0.825150	1.146129	0.169278	0.250647	0.244645	0.185642	0.532129	0.478300	0.274130	0.289764	0.315485	0.143356	0.204577	0.196102
51	0.579492	0.313093	0.935066	0.795643	0.226105	0.191151	0.134243	0.124178	1.171229	0.742467	0.765012	0.765643	0.314539	0.097648	0.137553	0.092864	0.729268	0.380530	0.620613	0.594195	0.197150	0.126253	0.105907	0.103005	0.652766	0.523156	0.475123	0.573856	0.235253	0.179323	0.162140	0.183959	0.344892	0.387449	0.383198	0.356121	0.285884	0.289436	0.092139	0.132587	0.513689	0.609326	0.548839	0.392714	0.267941	0.360463	0.181325	0.170177	1.132242	0.455152	0.310418	0.253002	0.371001	0.222188	0.114617	0.070499	0.313096	0.348764	0.807231	1.123592	0.161352	0.243467	0.244235	0.193370	0.535936	0.473331	0.331890	0.366115	0.315244	0.113963	0.215463	0.194374
52	0.584069	0.319194	0.887410	0.753176	0.211926	0.183666	0.149152	0.124355	1.168501	0.746503	0.765861	0.761349	0.330354	0.128633	0.126293	0.099268	0.773628	0.373740	0.635080	0.662545	0.194864	0.117215	0.118279	0.112493	0.632863	0.514652	0.459902	0.570215	0.238535	0.174995	0.160960	0.193973	0.345108	0.388907	0.368704	0.376648	0.299524	0.293353	0.096379	0.139808	0.523576	0.609961	0.533324	0.379186	0.270918	0.359562	0.198748	0.197058	1.106690	0.459210	0.328547	0.270500	0.278770	0.212934	0.105374	0.056314	0.324507	0.348139	0.779123	1.080866	0.134634	0.243306	0.242052	0.193528	0.539656	0.458763	0.419274	0.493609	0.279974	0.115339	0.236482	0.190339
53	0.582094	0.323968	0.856752	0.707252	0.210409	0.165880	0.151351	0.117886	1.147903	0.751770	0.756635	0.746236	0.334132	0.168645	0.117474	0.099236	0.761760	0.368360	0.684170	0.751864	0.196173	0.126577	0.125264	0.118806	0.626347	0.506138	0.402965	0.530929	0.242650	0.181304	0.151733	0.200913	0.342864	0.397782	0.307037	0.362175	0.302670	0.304609	0.099147	0.143738	0.580620	0.610197	0.531740	0.378865	0.277883	0.345795	0.202446	0.209238	1.103850	0.455258	0.333020	0.278071	0.233844	0.224145	0.105101	0.046966	0.329726	0.347106	0.730764	1.017515	0.125665	0.245400	0.238388	0.192327	0.553940	0.375013	0.533864	0.687249	0.213678	0.118437	0.252155	0.189424
54	0.584470	0.324265	0.849413	0.672181	0.185727	0.154639	0.144772	0.109403	1.103598	0.743792	0.726447	0.706742	0.341828	0.190230	0.113268	0.100222	0.741266	0.385345	0.750322	0.817588	0.195188	0.134608	0.125259	0.123275	0.628781	0.515124	0.333584	0.413447	0.240414	0.196487	0.139891	0.202406	0.324796	0.409000	0.274281	0.346366	0.299014	0.306353	0.098571	0.144577	0.593910	0.610574	0.524023	0.373931	0.300722	0.322768	0.207105	0.210465	1.102521	0.454654	0.331277	0.279139	0.227656	0.225645	0.102643	0.049175	0.333951	0.348673	0.679393	0.929858	0.124338	0.217215	0.238576	0.193714	0.598502	0.332733	0.649994	0.862835	0.185383	0.117078	0.264760	0.193205
55	0.543602	0.323230	0.845593	0.661167	0.173846	0.152383	0.136571	0.104225	1.075701	0.732353	0.674230	0.650643	0.346564	0.192006	0.110015	0.107858	0.717950	0.367343	0.790307	0.830983	0.202538	0.134709	0.123931	0.125995	0.619649	0.519837	0.299354	0.299855	0.227745	0.196151	0.178715	0.197433	0.275601	0.405644	0.290234	0.366066	0.297879	0.304636	0.098695	0.143760	0.609193	0.661543	0.486531	0.361646	0.339124	0.317833	0.234274	0.223224	1.065482	0.460677	0.327807	0.281728	0.237937	0.235080	0.094793	0.050532	0.400958	0.354184	0.653774	0.861010	0.116237	0.200210	0.237104	0.196847	0.631656	0.323603	0.707765	0.948017	0.185875	0.104997	0.280417	0.206986
56	0.534338	0.308530	0.797599	0.655095	0.176143	0.162221	0.133430	0.103087	1.064361	0.735165	0.613006	0.589124	0.351645	0.200544	0.109718	0.109317	0.702720	0.337219	0.812737	0.831273	0.210355	0.128348	0.127201	0.126057	0.565776	0.558608	0.303848	0.269257	0.215599	0.201788	0.245385	0.187131	0.234418	0.382475	0.315318	0.426411	0.294814	0.292391	0.099915	0.142122	0.630444	0.683285	0.417572	0.379647	0.358378	0.313273	0.281399	0.262697	1.027800	0.471290	0.322371	0.281712	0.241574	0.243532	0.077957	0.046733	0.440074	0.363388	0.651931	0.838548	0.127414	0.294085	0.237189	0.199065	0.635491	0.294710	0.709416	0.956356	0.183727	0.103266	0.285890	0.221200
57	0.549319	0.279915	0.670874	0.598806	0.176863	0.171470	0.133895	0.104751	1.085733	0.742873	0.565489	0.554887	0.346170	0.201952	0.108825	0.111769	0.704165	0.357983	0.816207	0.824761	0.197619	0.128212	0.149909	0.127419	0.557873	0.585946	0.312536	0.269245	0.226810	0.203685	0.277085	0.179138	0.231448	0.386584	0.319988	0.483029	0.301172	0.282676	0.105418	0.139734	0.650919	0.634579	0.332292	0.417221	0.370362	0.306467	0.328010	0.297317	1.025024	0.449480	0.307994	0.294370	0.270822	0.329851	0.066547	0.040864	0.444317	0.370337	0.648074	0.833723	0.135623	0.296300	0.231606	0.193768	0.632416	0.288608	0.736719	0.972353	0.183232	0.088620	0.287014	0.226192
58	0.611509	0.320406	0.524661	0.498627	0.182257	0.177467	0.130037	0.104744	1.093808	0.744078	0.549128	0.551660	0.313540	0.222733	0.099692	0.113871	0.698455	0.328080	0.794678	0.811361	0.188322	0.130590	0.179925	0.137308	0.563074	0.614855	0.308181	0.275991	0.238543	0.213049	0.280969	0.176817	0.239149	0.399912	0.319903	0.515661	0.279715	0.325268	0.107648	0.137389	0.636774	0.531264	0.305254	0.466037	0.369216	0.297017	0.354743	0.318018	1.019458	0.440892	0.286021	0.286089	0.276904	0.442854	0.063040	0.034770	0.467129	0.367930	0.594680	0.776161	0.120606	0.337011	0.219388	0.184092	0.639390	0.287304	0.844731	1.065982	0.183052	0.081725	0.280622	0.216681
59	0.664217	0.393370	0.446493	0.384858	0.216133	0.174966	0.125238	0.094224	1.096215	0.742441	0.549235	0.545754	0.296049	0.245053	0.093402	0.117389	0.690667	0.285475	0.760030	0.784819	0.204905	0.131991	0.195949	0.151386	0.569239	0.630031	0.302881	0.272840	0.232792	0.233922	0.282097	0.175308	0.249007	0.411100	0.319708	0.526401	0.224102	0.333408	0.108030	0.135814	0.615082	0.473469	0.308064	0.495244	0.359242	0.262299	0.366742	0.327173	0.956286	0.449863	0.275987	0.263828	0.280503	0.454209	0.062304	0.031890	0.484197	0.339740	0.502490	0.674252	0.113690	0.345868	0.214410	0.179375	0.588515	0.304686	0.967309	1.217585	0.181170	0.080356	0.271309	0.198614
60	0.751766	0.451999	0.424254	0.297861	0.215856	0.227036	0.126877	0.093176	1.068571	0.724969	0.526417	0.515281	0.289267	0.261893	0.088602	0.118276	0.687325	0.280469	0.748190	0.757644	0.206085	0.134079	0.197452	0.157032	0.566096	0.626100	0.319010	0.277933	0.227907	0.232994	0.297569	0.176136	0.270731	0.422063	0.319241	0.526639	0.207523	0.360367	0.112903	0.136706	0.595479	0.476024	0.324556	0.504962	0.366412	0.259320	0.372380	0.332521	0.919256	0.565413	0.270993	0.263981	0.290576	0.499904	0.068032	0.036967	0.499642	0.347248	0.426045	0.575764	0.119180	0.343917	0.211244	0.179555	0.595931	0.326875	1.061967	1.319226	0.183570	0.094690	0.260653	0.178690
61	0.681863	0.448391	0.430895	0.283574	0.212364	0.262405	0.141686	0.115261	1.004733	0.685985	0.477914	0.486425	0.288515	0.267904	0.081097	0.118431	0.689512	0.307492	0.759177	0.746803	0.210709	0.153648	0.202339	0.156717	0.570715	0.625810	0.357645	0.298271	0.226475	0.237708	0.335568	0.189099	0.293393	0.427647	0.316009	0.526324	0.205494	0.364870	0.119005	0.137057	0.594971	0.463304	0.325410	0.507602	0.368807	0.218297	0.376225	0.336158	0.912837	0.726875	0.259726	0.282835	0.290582	0.517064	0.071546	0.042719	0.509066	0.429090	0.355512	0.478011	0.118938	0.340755	0.209986	0.178230	0.618994	0.404617	1.112261	1.356638	0.185541	0.150472	0.250333	0.160939
62	0.650942	0.461916	0.431986	0.289730	0.214355	0.274691	0.157389	0.156949	0.918224	0.663514	0.413188	0.472584	0.286601	0.268130	0.076519	0.118468	0.715680	0.303712	0.802135	0.777292	0.210820	0.159104	0.226492	0.152296	0.568261	0.628694	0.383792	0.355580	0.271128	0.240849	0.391904	0.220882	0.296144	0.447272	0.314553	0.526615	0.212124	0.362503	0.118214	0.132661	0.626452	0.471067	0.341912	0.535923	0.383574	0.135769	0.376739	0.337653	0.907899	0.740738	0.273120	0.311989	0.287725	0.523321	0.075455	0.044929	0.525630	0.516114	0.274671	0.357537	0.125710	0.342994	0.201264	0.174653	0.647852	0.397623	1.133869	1.370059	0.182299	0.195164	0.245131	0.153519
63	0.672006	0.493532	0.423908	0.293258	0.223238	0.284258	0.164667	0.202661	0.871491	0.726250	0.362480	0.463069	0.275454	0.270973	0.076104	0.118739	0.713655	0.334220	0.867314	0.882617	0.208949	0.184063	0.267811	0.150863	0.567379	0.628241	0.410871	0.424441	0.291736	0.243801	0.453710	0.268832	0.278636	0.463180	0.314626	0.527532	0.220317	0.359910	0.111648	0.120422	0.677759	0.530093	0.380270	0.585025	0.403478	0.125814	0.377567	0.337733	0.903442	0.734421	0.276977	0.328604	0.286659	0.524769	0.078063	0.047092	0.515283	0.533324	0.225577	0.268393	0.130033	0.342673	0.155552	0.157897	0.666037	0.393916	1.142522	1.377978	0.177640	0.200565	0.243774	0.155261
64	0.761211	0.556773	0.419716	0.295113	0.224575	0.297661	0.167453	0.234900	0.863626	0.793448	0.332526	0.435701	0.270625	0.280132	0.069014	0.116981	0.683625	0.385937	0.943039	1.022154	0.185265	0.187247	0.291169	0.171136	0.544622	0.627014	0.414006	0.448580	0.293555	0.262800	0.494428	0.308065	0.260369	0.461564	0.314629	0.524090	0.223247	0.361285	0.112035	0.104850	0.689014	0.539715	0.402903	0.626590	0.408930	0.127428	0.379092	0.337726	0.851100	0.723796	0.294576	0.358008	0.285743	0.520149	0.095049	0.059553	0.509771	0.559221	0.218349	0.244179	0.127126	0.343511	0.098466	0.123280	0.644521	0.384567	1.144306	1.381734	0.172365	0.221075	0.244186	0.156310
65	0.819990	0.579071	0.417934	0.294799	0.223645	0.296696	0.167120	0.248341	0.807161	0.797847	0.312483	0.405939	0.261742	0.278829	0.050768	0.107879	0.647281	0.409626	0.972709	1.120733	0.180680	0.237933	0.305626	0.202220	0.505382	0.588123	0.409816	0.445061	0.293746	0.266230	0.513954	0.328086	0.257350	0.430459	0.310370	0.522584	0.227870	0.356296	0.125832	0.103129	0.689191	0.537396	0.407992	0.646574	0.407576	0.126823	0.380284	0.338090	0.746417	0.760875	0.297754	0.366279	0.286922	0.515312	0.126480	0.086459	0.505940	0.547480	0.218247	0.245333	0.135554	0.346359	0.049190	0.077291	0.657049	0.386350	1.141511	1.381505	0.169573	0.225256	0.242098	0.156093
66	0.851963	0.583238	0.382067	0.281037	0.225667	0.287791	0.165728	0.250193	0.608472	0.777516	0.311884	0.395039	0.215031	0.273867	0.036450	0.092731	0.651405	0.409376	0.970230	1.182775	0.206751	0.257748	0.306884	0.218639	0.479280	0.500025	0.424448	0.456742	0.290491	0.272105	0.513503	0.329778	0.262592	0.408220	0.293684	0.514627	0.228225	0.344491	0.140330	0.110525	0.686890	0.535397	0.408204	0.654977	0.404529	0.126746	0.377223	0.337401	0.706758	0.776813	0.294643	0.365220	0.299556	0.522427	0.156303	0.110435	0.500769	0.662342	0.209747	0.239873	0.131600	0.365747	0.041916	0.060815	0.724066	0.439962	1.131854	1.377367	0.171823	0.231199	0.236655	0.155969
67	0.858941	0.587143	0.326891	0.253415	0.226084	0.281680	0.193251	0.282572	0.552428	0.778316	0.306585	0.394576	0.172039	0.261741	0.036537	0.083918	0.622471	0.408338	0.962881	1.206110	0.221148	0.258055	0.301747	0.217114	0.558078	0.473032	0.488857	0.535012	0.290475	0.274584	0.516623	0.333639	0.275216	0.415678	0.270832	0.484812	0.228909	0.343320	0.154576	0.116706	0.681444	0.539574	0.408545	0.659615	0.399289	0.141137	0.371441	0.332829	0.695516	0.803814	0.278411	0.353901	0.299043	0.526848	0.169599	0.122813	0.477187	0.715449	0.177653	0.214878	0.126090	0.377999	0.044264	0.060441	0.738796	0.446569	1.114034	1.361630	0.195989	0.235868	0.236482	0.157247
68	0.855615	0.586113	0.292293	0.230950	0.232007	0.290035	0.223056	0.336010	0.603207	0.817951	0.288627	0.391421	0.169927	0.242555	0.037747	0.087840	0.523507	0.409659	0.962461	1.201469	0.225013	0.254061	0.299338	0.212529	0.759780	0.532163	0.582239	0.646096	0.289650	0.275330	0.523875	0.346201	0.302330	0.408633	0.254215	0.448781	0.229318	0.319262	0.158208	0.119163	0.718575	0.543576	0.407834	0.660991	0.396122	0.177050	0.362318	0.323479	0.691354	0.809928	0.257730	0.343358	0.297719	0.527296	0.170798	0.124001	0.492864	0.830157	0.144568	0.181625	0.129745	0.381740	0.045772	0.058597	0.739296	0.471517	1.093222	1.328516	0.220297	0.237506	0.224025	0.154888
69	0.864185	0.587135	0.281304	0.220766	0.233601	0.293204	0.229935	0.365103	0.613264	0.832548	0.268324	0.377769	0.165389	0.223026	0.034429	0.090367	0.447737	0.409539	0.956240	1.169842	0.224486	0.246692	0.308380	0.211734	0.821561	0.602759	0.649168	0.718919	0.289241	0.274987	0.532801	0.360401	0.327936	0.393743	0.249403	0.433625	0.218450	0.314350	0.154025	0.113595	0.733668	0.553554	0.408042	0.661802	0.396141	0.223417	0.351998	0.311503	0.684966	0.820340	0.256199	0.343195	0.287138	0.521437	0.175125	0.126922	0.585250	0.910518	0.142662	0.164992	0.135259	0.386312	0.042558	0.049990	0.729609	0.469754	1.056027	1.254662	0.229580	0.236709	0.196038	0.150883
70	0.902628	0.590498	0.281147	0.219337	0.231878	0.296551	0.229655	0.368893	0.605186	0.830205	0.254847	0.350838	0.169901	0.221397	0.033361	0.078240	0.426795	0.436163	0.927437	1.117618	0.226479	0.246204	0.320997	0.215166	0.816827	0.616728	0.665598	0.743435	0.290320	0.260857	0.532472	0.359228	0.355851	0.398636	0.237823	0.426560	0.196788	0.313151	0.159906	0.106749	0.682686	0.563232	0.408239	0.661566	0.394268	0.228500	0.340775	0.296221	0.716030	0.866408	0.256502	0.341088	0.281492	0.521559	0.184052	0.134106	0.626461	0.927760	0.165576	0.167697	0.134772	0.380165	0.043192	0.034362	0.697618	0.469375	0.998341	1.143919	0.228034	0.234404	0.173356	0.147590
71	0.939580	0.608174	0.274684	0.218871	0.235304	0.298941	0.235237	0.369426	0.604715	0.834620	0.248157	0.331098	0.151878	0.214948	0.033155	0.074297	0.421543	0.439464	0.879085	1.069129	0.215872	0.243982	0.329547	0.220022	1.024021	0.594970	0.665540	0.748726	0.282435	0.230646	0.533659	0.355610	0.346215	0.401306	0.203420	0.372489	0.184783	0.304245	0.195771	0.119822	0.671510	0.563668	0.408894	0.661383	0.392162	0.232215	0.331789	0.279623	0.722664	0.894169	0.256858	0.343254	0.270627	0.514873	0.197538	0.148304	0.613003	0.932598	0.172436	0.160711	0.124429	0.309818	0.041730	0.021253	0.659953	0.470143	0.955339	1.061165	0.228054	0.233323	0.156943	0.142374
72	0.919136	0.625851	0.254496	0.213657	0.251463	0.295922	0.243418	0.372493	0.609399	0.835188	0.244094	0.310548	0.154646	0.213253	0.033005	0.073523	0.417384	0.434883	0.840088	1.058721	0.214531	0.239350	0.325288	0.221603	1.156177	0.617345	0.660361	0.748835	0.270171	0.210878	0.543995	0.358684	0.352878	0.399881	0.171940	0.273924	0.187489	0.301819	0.220329	0.145471	0.647164	0.519053	0.404710	0.656031	0.385724	0.266585	0.330167	0.271125	0.718571	0.894489	0.260127	0.337237	0.258995	0.501826	0.208726	0.165180	0.570098	0.938416	0.169922	0.144790	0.117810	0.313657	0.039466	0.021046	0.641958	0.523294	0.956442	1.044723	0.227058	0.232999	0.131086	0.124484
73	0.871008	0.597032	0.218876	0.193097	0.261584	0.289468	0.248063	0.373267	0.615940	0.834406	0.240304	0.288125	0.129556	0.198878	0.034967	0.071494	0.438412	0.451122	0.818334	1.066243	0.205603	0.238472	0.310527	0.217975	1.191664	0.644169	0.657559	0.746415	0.252886	0.210326	0.576690	0.373593	0.409579	0.414314	0.134484	0.162591	0.191742	0.303294	0.227179	0.155722	0.639277	0.463502	0.388697	0.622250	0.366991	0.287038	0.327669	0.270391	0.737555	0.903870	0.255151	0.316324	0.219891	0.414188	0.209649	0.174763	0.554563	0.937271	0.164893	0.142393	0.117152	0.256026	0.039573	0.022042	0.636615	0.553723	0.945133	1.035511	0.227401	0.233151	0.118206	0.093897
74	0.827631	0.559409	0.174651	0.162290	0.275276	0.284802	0.248321	0.372386	0.651061	0.835173	0.236290	0.264498	0.127670	0.172247	0.036266	0.067388	0.461393	0.445276	0.814849	1.076004	0.185418	0.236459	0.298181	0.208216	1.190446	0.647621	0.659393	0.743205	0.249202	0.208092	0.594330	0.395823	0.505429	0.444240	0.131600	0.089169	0.200546	0.299210	0.227831	0.158325	0.651804	0.460514	0.366841	0.564675	0.332963	0.285694	0.308335	0.259307	0.809816	0.911496	0.256218	0.313032	0.207530	0.328299	0.211943	0.175720	0.543276	0.937412	0.164687	0.141159	0.116597	0.246087	0.037024	0.019761	0.632205	0.558796	0.863058	0.956762	0.228860	0.232963	0.106880	0.067310
75	0.762156	0.553616	0.132425	0.127249	0.262919	0.284011	0.256215	0.374849	0.636606	0.893560	0.230334	0.255435	0.127359	0.140488	0.037957	0.064726	0.453493	0.478475	0.828195	1.083515	0.174116	0.249189	0.295570	0.202570	1.187858	0.648518	0.660172	0.736990	0.245929	0.204049	0.596297	0.416171	0.509822	0.446939	0.182821	0.106426	0.203399	0.296661	0.226023	0.158105	0.656797	0.465923	0.345856	0.505007	0.308935	0.284735	0.265617	0.218541	0.802821	0.878106	0.261236	0.312556	0.156327	0.295807	0.215999	0.176205	0.512434	0.931864	0.165685	0.134127	0.110584	0.245730	0.037404	0.014076	0.631776	0.548496	0.724308	0.754711	0.229941	0.232676	0.100983	0.062323
76	0.761974	0.554751	0.124427	0.099045	0.255386	0.254773	0.271824	0.383272	0.621743	0.971929	0.225914	0.250836	0.125784	0.121453	0.041658	0.064728	0.513557	0.546492	0.839755	1.094632	0.160880	0.265252	0.293493	0.201294	1.187773	0.653076	0.647214	0.726068	0.234889	0.224223	0.601795	0.426226	0.498423	0.442346	0.265538	0.182338	0.190161	0.246390	0.224644	0.157214	0.651938	0.480267	0.332278	0.465720	0.292518	0.285226	0.205573	0.169042	0.712432	0.742861	0.259841	0.299855	0.151201	0.228038	0.213974	0.174832	0.513096	0.930522	0.166991	0.121507	0.104169	0.252536	0.036204	0.013759	0.606887	0.568187	0.564638	0.523828	0.228562	0.232725	0.096268	0.059910
77	0.767573	0.535702	0.156441	0.090173	0.275307	0.201430	0.278629	0.386317	0.644642	0.994182	0.228664	0.250189	0.125819	0.119649	0.049468	0.064463	0.654520	0.547258	0.842156	1.103942	0.161574	0.268421	0.280206	0.201304	1.182539	0.658166	0.626460	0.707232	0.235411	0.213238	0.605163	0.428484	0.500829	0.417013	0.374916	0.305193	0.189050	0.203010	0.225682	0.157129	0.649675	0.524171	0.325284	0.450831	0.295477	0.286187	0.156335	0.126156	0.671783	0.685932	0.229133	0.258769	0.151738	0.189032	0.215383	0.174621	0.498645	0.920943	0.166452	0.107027	0.101310	0.256585	0.034868	0.016128	0.583745	0.526804	0.441553	0.389014	0.233682	0.230979	0.098736	0.060486
78	0.741747	0.511849	0.181330	0.099299	0.273212	0.193239	0.273349	0.374069	0.645617	1.158936	0.233892	0.248001	0.122525	0.117495	0.052904	0.064115	0.745832	0.617512	0.829978	1.111169	0.165737	0.252475	0.237884	0.198881	1.185119	0.679557	0.610207	0.670439	0.236563	0.212070	0.601515	0.428963	0.526837	0.350932	0.501101	0.461581	0.188746	0.171045	0.224707	0.158592	0.627650	0.561293	0.330622	0.449572	0.297541	0.284841	0.126646	0.099593	0.706639	0.678595	0.201688	0.217103	0.151850	0.173069	0.218156	0.174265	0.487667	0.881727	0.165830	0.099759	0.116058	0.260414	0.031509	0.016667	0.548510	0.518667	0.373348	0.332201	0.248751	0.216491	0.105205	0.062797
79	0.651367	0.453174	0.194838	0.105179	0.264680	0.177273	0.272607	0.350507	0.689671	1.208207	0.226977	0.220706	0.126095	0.095364	0.052946	0.064949	0.761384	0.633281	0.792694	1.099545	0.184415	0.260314	0.206585	0.181536	1.189494	0.684368	0.593966	0.636217	0.239535	0.217512	0.586000	0.424782	0.556086	0.371186	0.593801	0.570909	0.187758	0.118882	0.221750	0.159165	0.596353	0.600542	0.323004	0.423703	0.261515	0.289072	0.109293	0.079052	0.700634	0.681036	0.179669	0.157746	0.152529	0.168948	0.216710	0.173079	0.485217	0.843515	0.163491	0.099336	0.118347	0.263832	0.038246	0.017074	0.517967	0.518429	0.340241	0.297408	0.260208	0.167958	0.110027	0.065874
80	0.590422	0.435664	0.204610	0.112488	0.261697	0.156307	0.285024	0.326454	0.736730	1.171423	0.205349	0.166100	0.139183	0.104405	0.052721	0.065342	0.949696	0.641817	0.726514	1.032169	0.194961	0.233590	0.178003	0.138347	1.188490	0.686795	0.592182	0.628822	0.214216	0.217033	0.557960	0.413611	0.572196	0.380167	0.624721	0.612528	0.184584	0.116689	0.220117	0.159335	0.522312	0.585972	0.269002	0.355712	0.223578	0.291771	0.095498	0.061737	0.685238	0.651452	0.188181	0.127039	0.152731	0.169201	0.211327	0.167447	0.483450	0.838038	0.158347	0.095520	0.128000	0.251293	0.075217	0.043352	0.515473	0.532871	0.326469	0.277102	0.277644	0.160665	0.108786	0.060671
81	0.596516	0.436148	0.207171	0.116058	0.268218	0.175684	0.295261	0.313156	0.780429	1.118866	0.170097	0.096155	0.153443	0.106987	0.052447	0.067950	1.034122	0.674991	0.597605	0.874480	0.174696	0.194735	0.168491	0.096554	1.182599	0.689793	0.580432	0.629100	0.175159	0.214213	0.510300	0.388153	0.570991	0.384046	0.630120	0.614548	0.173637	0.115827	0.220054	0.158725	0.487075	0.543327	0.216728	0.268164	0.199555	0.291834	0.093768	0.053307	0.650520	0.627447	0.197349	0.125219	0.146227	0.154130	0.196592	0.154941	0.483609	0.832472	0.158491	0.095787	0.151823	0.223873	0.137981	0.096184	0.475391	0.605752	0.324685	0.270118	0.278593	0.129213	0.108637	0.061433
82	0.601061	0.451501	0.207281	0.117860	0.267606	0.176213	0.293925	0.312288	0.781705	1.115112	0.161511	0.056283	0.157178	0.121726	0.065911	0.068269	1.109494	0.707591	0.472668	0.684334	0.155725	0.198297	0.168768	0.085818	1.163686	0.693191	0.546287	0.606518	0.167755	0.207404	0.467856	0.359327	0.571880	0.409806	0.671115	0.633392	0.167311	0.112449	0.219145	0.158093	0.490832	0.555315	0.204289	0.203541	0.157876	0.291502	0.090269	0.053031	0.724389	0.596339	0.197982	0.126075	0.123479	0.096177	0.175606	0.139875	0.485202	0.806449	0.154866	0.093316	0.152043	0.208678	0.217218	0.175910	0.314289	0.650224	0.322893	0.270264	0.276958	0.125844	0.107984	0.066308
83	0.607339	0.478218	0.212262	0.118553	0.287467	0.176529	0.278149	0.291022	0.769880	1.111428	0.169299	0.060656	0.185108	0.123623	0.089822	0.070818	1.121615	0.715700	0.399960	0.526824	0.148906	0.197220	0.168129	0.085518	1.091435	0.684997	0.471067	0.519089	0.172460	0.207864	0.440759	0.337880	0.571963	0.449488	0.741113	0.692881	0.156602	0.109081	0.213012	0.153590	0.531036	0.559025	0.217366	0.177227	0.139893	0.291213	0.081120	0.052529	0.748406	0.581021	0.208380	0.127769	0.114298	0.107425	0.167495	0.133952	0.486174	0.674628	0.152688	0.091525	0.148314	0.192047	0.286652	0.239796	0.254388	0.674445	0.307342	0.264708	0.269941	0.124264	0.109559	0.071858
84	0.571068	0.502993	0.233589	0.128095	0.296403	0.174271	0.244645	0.225100	0.749471	1.079275	0.182522	0.077073	0.210801	0.131118	0.097669	0.077049	1.121754	0.729905	0.396477	0.454288	0.151248	0.204786	0.155643	0.082340	0.968331	0.624153	0.341356	0.372612	0.167645	0.200110	0.441541	0.334931	0.567920	0.455970	0.852391	0.794039	0.150612	0.107216	0.204618	0.148324	0.565458	0.622750	0.225533	0.159465	0.153863	0.298216	0.069283	0.049735	0.747689	0.574379	0.218740	0.130112	0.107496	0.145893	0.168829	0.133711	0.521431	0.641761	0.161130	0.095183	0.143510	0.185330	0.330152	0.277619	0.256533	0.660565	0.280275	0.246833	0.246253	0.118155	0.111609	0.076456
85	0.525678	0.547391	0.261040	0.143739	0.309795	0.170007	0.229697	0.161907	0.734763	1.034688	0.203368	0.095675	0.259559	0.154022	0.098267	0.079516	1.134408	0.749870	0.402792	0.441027	0.144420	0.205497	0.129826	0.068915	0.949585	0.560232	0.227108	0.243501	0.166361	0.197374	0.443523	0.335425	0.624446	0.452341	0.938987	0.875912	0.152010	0.099078	0.195282	0.142993	0.528546	0.650630	0.225497	0.145960	0.170874	0.328310	0.061197	0.046924	0.723802	0.530945	0.224621	0.128360	0.128560	0.150561	0.161565	0.128505	0.537222	0.439370	0.169696	0.094927	0.144855	0.192916	0.342423	0.290841	0.270366	0.667603	0.240456	0.214398	0.226207	0.114303	0.113098	0.083586
86	0.497263	0.541651	0.283530	0.161245	0.307481	0.163917	0.232853	0.141817	0.788774	1.017554	0.209978	0.107868	0.277333	0.151061	0.098181	0.078558	1.141492	0.752441	0.403772	0.441244	0.158538	0.206909	0.098093	0.047000	0.922902	0.567753	0.201700	0.189949	0.165402	0.193613	0.437693	0.323485	0.654760	0.481004	0.960589	0.903565	0.159066	0.106971	0.190889	0.139843	0.552114	0.790701	0.226718	0.140438	0.198711	0.340202	0.054242	0.042804	0.716363	0.478380	0.234132	0.124679	0.156556	0.175782	0.150979	0.119057	0.458908	0.328882	0.157384	0.082738	0.152678	0.219681	0.349053	0.293720	0.269503	0.705764	0.199156	0.177410	0.218405	0.116164	0.114442	0.086576
87	0.499412	0.530791	0.292538	0.170854	0.312455	0.180924	0.232743	0.142948	0.861128	1.032823	0.211900	0.114810	0.275490	0.162618	0.100953	0.078219	1.149480	0.749253	0.400696	0.439417	0.165698	0.207434	0.083822	0.031809	0.608922	0.649330	0.204797	0.173335	0.163243	0.193649	0.424861	0.302174	0.648242	0.492517	0.961236	0.909973	0.157263	0.115327	0.192738	0.139726	0.644955	0.839410	0.241082	0.149537	0.207703	0.328512	0.053239	0.038811	0.716769	0.476158	0.233333	0.117870	0.157527	0.181896	0.134207	0.097028	0.449320	0.401008	0.133303	0.071984	0.155701	0.207728	0.402185	0.339257	0.277855	0.745370	0.160092	0.142274	0.219092	0.134442	0.114261	0.086720
88	0.494881	0.527430	0.294741	0.176173	0.366882	0.201841	0.231198	0.140511	0.908020	1.032022	0.213236	0.120654	0.281767	0.165338	0.102962	0.076737	1.182647	0.792457	0.394483	0.430756	0.162503	0.207002	0.088292	0.025763	0.530768	0.788312	0.206206	0.168613	0.161253	0.192086	0.420217	0.292456	0.650420	0.490768	0.962377	0.910461	0.149315	0.120117	0.192873	0.142259	0.651154	0.846574	0.246613	0.154776	0.210966	0.307837	0.056677	0.034470	0.720989	0.621902	0.231981	0.117010	0.176011	0.183338	0.126311	0.066753	0.464977	0.428020	0.128880	0.071215	0.157886	0.210283	0.487083	0.399968	0.342304	0.720323	0.121610	0.116857	0.218915	0.152767	0.112534	0.086661
89	0.483846	0.515089	0.295075	0.178879	0.374126	0.205018	0.237827	0.147051	0.898537	1.031920	0.213417	0.121680	0.287571	0.171725	0.102809	0.074389	1.189324	0.796519	0.392282	0.416919	0.164255	0.206501	0.089634	0.025272	0.612674	0.912859	0.201798	0.168367	0.158345	0.191810	0.419814	0.292692	0.567542	0.452750	0.964494	0.911101	0.141545	0.122060	0.172906	0.137897	0.663588	0.857481	0.246663	0.152672	0.223062	0.322575	0.055485	0.030681	0.640332	0.638597	0.231942	0.116972	0.176404	0.184745	0.128444	0.049588	0.469469	0.423780	0.139501	0.068779	0.161325	0.209979	0.530938	0.438899	0.346007	0.690983	0.103349	0.103529	0.226608	0.167257	0.104332	0.088287
90	0.481456	0.474597	0.294810	0.180987	0.363851	0.208601	0.246873	0.157194	0.889945	1.038124	0.218222	0.121677	0.287380	0.172088	0.101604	0.075670	1.186138	0.862482	0.388671	0.396382	0.174586	0.201639	0.091168	0.025343	0.627499	0.908889	0.186082	0.167795	0.163722	0.194218	0.412869	0.290652	0.580916	0.437207	0.960419	0.912742	0.131678	0.117534	0.131559	0.111149	0.652460	0.866772	0.245631	0.141475	0.235005	0.321760	0.050504	0.026818	0.571364	0.630221	0.230716	0.116155	0.178881	0.184133	0.120504	0.048441	0.478938	0.482177	0.149299	0.066973	0.169763	0.213862	0.552995	0.458114	0.343476	0.682813	0.095389	0.098074	0.228168	0.171541	0.098800	0.092093
91	0.479857	0.449497	0.284168	0.179885	0.358376	0.222003	0.249101	0.157960	0.856732	1.059151	0.233626	0.123130	0.288848	0.171967	0.100211	0.079034	1.174035	0.868785	0.376596	0.369485	0.180587	0.161209	0.093682	0.028772	0.639936	0.989788	0.152280	0.164678	0.174951	0.197990	0.374654	0.283480	0.618691	0.459304	0.944257	0.907258	0.124976	0.112045	0.112860	0.090800	0.614447	0.883204	0.245790	0.127954	0.242078	0.291046	0.048105	0.025920	0.586612	0.631390	0.220999	0.109482	0.196551	0.187564	0.116662	0.046221	0.478213	0.498626	0.159554	0.067052	0.182874	0.207543	0.559883	0.463910	0.328903	0.683891	0.087692	0.095503	0.241168	0.174585	0.099759	0.095741
92	0.463240	0.450506	0.262414	0.171852	0.349593	0.224126	0.233882	0.141647	0.884342	1.021913	0.253404	0.128488	0.288787	0.172144	0.097042	0.080458	1.183759	0.857603	0.346692	0.332950	0.180261	0.138515	0.098180	0.035349	0.674591	1.045608	0.124050	0.159180	0.178078	0.209242	0.293226	0.265200	0.748426	0.542203	0.912275	0.883613	0.126062	0.115540	0.108197	0.080564	0.589764	0.901805	0.242236	0.123144	0.244384	0.271848	0.042829	0.024920	0.584977	0.627774	0.208945	0.100481	0.222568	0.199917	0.117082	0.046782	0.475375	0.538947	0.169413	0.070591	0.183995	0.204584	0.562146	0.465243	0.327520	0.662052	0.083817	0.091383	0.242378	0.226725	0.103996	0.097833
93	0.494209	0.572658	0.248179	0.162306	0.338067	0.231150	0.216395	0.116121	0.923588	0.967137	0.262354	0.131363	0.288134	0.173244	0.094255	0.080938	1.168177	0.811776	0.309633	0.291629	0.179919	0.137739	0.097926	0.043034	0.707674	1.073192	0.109763	0.157088	0.179055	0.209729	0.239334	0.235540	0.823842	0.637038	0.859223	0.820259	0.115559	0.117837	0.108076	0.079852	0.596710	0.902220	0.227935	0.124454	0.243036	0.274909	0.039588	0.021627	0.547894	0.611836	0.206425	0.094538	0.257193	0.226657	0.112200	0.046082	0.499481	0.537007	0.178109	0.081256	0.173140	0.197017	0.562549	0.465555	0.321124	0.646432	0.081101	0.085672	0.249551	0.243823	0.103954	0.097798
94	0.553295	0.734686	0.239793	0.154861	0.343764	0.237139	0.211185	0.110219	0.915857	0.951263	0.274768	0.140363	0.287041	0.175132	0.094460	0.080001	1.112867	0.813195	0.263525	0.246603	0.174160	0.117354	0.091519	0.046283	0.705208	1.116458	0.096540	0.150322	0.176334	0.208423	0.202903	0.204263	0.819923	0.647847	0.793914	0.741102	0.115023	0.117977	0.110801	0.080759	0.596035	0.880854	0.206986	0.125098	0.246709	0.275194	0.037959	0.020029	0.539917	0.594735	0.200318	0.089705	0.312201	0.239539	0.104842	0.045928	0.596354	0.538322	0.178257	0.088651	0.173150	0.192386	0.562278	0.465616	0.323843	0.645093	0.075481	0.074964	0.249235	0.244111	0.103670	0.097609
95	0.536228	0.783915	0.235271	0.151889	0.347445	0.237421	0.209004	0.110357	0.914097	0.773018	0.275666	0.145960	0.282198	0.167105	0.094688	0.078586	1.041008	0.762031	0.242649	0.202560	0.158156	0.112940	0.087423	0.045598	0.702638	1.125050	0.095808	0.142455	0.170032	0.214268	0.192701	0.193769	0.859837	0.690221	0.755874	0.693002	0.115332	0.118849	0.115112	0.083326	0.593746	0.862138	0.189469	0.124449	0.249242	0.281116	0.037492	0.018378	0.544857	0.587897	0.179838	0.080922	0.327817	0.240890	0.099002	0.045844	0.640606	0.561017	0.179422	0.092701	0.152771	0.188805	0.559041	0.464150	0.327721	0.644761	0.072548	0.061131	0.238766	0.234971	0.098478	0.095823
96	0.489719	0.789375	0.246380	0.155515	0.353254	0.241164	0.191929	0.110433	0.891842	0.593128	0.277163	0.151089	0.274728	0.166826	0.094662	0.076644	1.036738	0.734180	0.245263	0.169923	0.157445	0.104314	0.090793	0.044547	0.701002	1.121566	0.096464	0.133423	0.169252	0.233704	0.194947	0.192542	0.912574	0.721289	0.752582	0.687076	0.115299	0.118851	0.116152	0.082810	0.598737	0.864165	0.181577	0.122613	0.254655	0.284900	0.037523	0.018478	0.516982	0.592967	0.166455	0.071421	0.333934	0.241798	0.091592	0.045958	0.657907	0.568207	0.180490	0.096889	0.139967	0.191235	0.545406	0.455119	0.395134	0.633796	0.072273	0.049338	0.223310	0.235865	0.092850	0.092420
97	0.466270	0.778046	0.252418	0.157935	0.368587	0.242581	0.172079	0.110094	0.848843	0.501866	0.276940	0.154584	0.271257	0.172321	0.090398	0.075859	0.868810	0.724505	0.248979	0.155187	0.156895	0.097919	0.092522	0.045927	0.698176	1.137787	0.095469	0.125431	0.174206	0.321523	0.194494	0.192591	0.948798	0.729277	0.724948	0.677635	0.123373	0.122886	0.115692	0.079246	0.603962	0.851784	0.180629	0.122521	0.271843	0.285594	0.038083	0.020980	0.461118	0.585740	0.161535	0.064854	0.335585	0.240998	0.090724	0.044371	0.671185	0.558406	0.182100	0.097216	0.148797	0.194868	0.517725	0.429220	0.435066	0.563059	0.077821	0.050326	0.212317	0.235710	0.092604	0.092337
98	0.459328	0.760631	0.247197	0.157125	0.375309	0.246488	0.170036	0.111276	0.806861	0.476314	0.276780	0.155170	0.265251	0.168951	0.068890	0.072794	0.753961	0.684557	0.250422	0.140946	0.148597	0.103276	0.090516	0.053105	0.695203	1.137804	0.094841	0.117822	0.186931	0.417573	0.207770	0.199532	0.979761	0.737081	0.665489	0.630420	0.148690	0.138539	0.115607	0.077156	0.594765	0.847089	0.183722	0.125437	0.286322	0.280355	0.037915	0.022119	0.362447	0.582178	0.150273	0.066503	0.333695	0.235734	0.093525	0.046020	0.662028	0.553640	0.181449	0.094342	0.148711	0.197423	0.483658	0.398334	0.430538	0.471595	0.103169	0.061232	0.193166	0.236385	0.092374	0.090676
99	0.482309	0.744935	0.225188	0.148318	0.362417	0.266505	0.166165	0.112836	0.798590	0.469271	0.275351	0.155126	0.249174	0.164717	0.050927	0.056276	0.629180	0.666549	0.243785	0.129162	0.145767	0.104539	0.084660	0.055446	0.697526	1.140188	0.095611	0.113776	0.169664	0.419573	0.217014	0.213811	1.005067	0.733104	0.535855	0.515065	0.172740	0.137314	0.115498	0.076888	0.590492	0.825386	0.173511	0.125864	0.288816	0.293076	0.037938	0.021828	0.364158	0.606131	0.136752	0.065053	0.333680	0.221909	0.095344	0.047252	0.665666	0.584192	0.181310	0.091716	0.149010	0.206663	0.458570	0.375887	0.446778	0.446246	0.134336	0.075270	0.199525	0.236818	0.088616	0.086752
100	0.481066	0.738097	0.193664	0.133829	0.352625	0.260933	0.163805	0.112975	0.798621	0.468417	0.271733	0.153963	0.200533	0.138202	0.046583	0.050423	0.590524	0.765200	0.219015	0.115791	0.150295	0.098639	0.081928	0.055771	0.694843	1.151016	0.096898	0.111867	0.172656	0.422174	0.216307	0.217559	0.974032	0.748291	0.330209	0.332768	0.183154	0.142376	0.115558	0.077178	0.558360	0.824376	0.157317	0.119340	0.291065	0.298071	0.039191	0.021803	0.360792	0.612795	0.129752	0.067007	0.325029	0.200140	0.094902	0.051423	0.660993	0.584122	0.178423	0.088066	0.152355	0.236427	0.452945	0.369162	0.499700	0.445363	0.153424	0.086284	0.199754	0.234418	0.085534	0.082160
101	0.471497	0.774344	0.169942	0.115955	0.338383	0.258480	0.163252	0.113055	0.781822	0.469449	0.263841	0.148041	0.166721	0.132693	0.046446	0.050765	0.593351	0.826273	0.182293	0.102588	0.161783	0.091906	0.091617	0.055344	0.689115	1.152105	0.095926	0.112313	0.167734	0.416028	0.212535	0.219314	0.946582	0.810341	0.221101	0.203088	0.184257	0.151248	0.115544	0.076768	0.526375	0.789220	0.139846	0.109994	0.288035	0.320528	0.038503	0.021558	0.357158	0.602141	0.121033	0.068283	0.316021	0.197191	0.096731	0.061998	0.626109	0.584546	0.171022	0.084886	0.150024	0.213356	0.446574	0.366370	0.515335	0.456988	0.155437	0.089784	0.198857	0.245494	0.083984	0.075214
