	102_F_P_sh_R_D_A_01.c3d	102_F_P_sh_R_D_A_01.c3d	102_F_P_sh_R_D_A_01.c3d	102_F_P_sh_R_D_A_01.c3d	102_F_P_sh_R_D_A_01.c3d	102_F_P_sh_R_D_A_01.c3d	102_F_P_sh_R_D_A_01.c3d	102_F_P_sh_R_D_A_01.c3d	102_F_P_sh_R_D_A_03.c3d	102_F_P_sh_R_D_A_03.c3d	102_F_P_sh_R_D_A_03.c3d	102_F_P_sh_R_D_A_03.c3d	102_F_P_sh_R_D_A_03.c3d	102_F_P_sh_R_D_A_03.c3d	102_F_P_sh_R_D_A_03.c3d	102_F_P_sh_R_D_A_03.c3d	102_F_P_sh_R_D_A_04.c3d	102_F_P_sh_R_D_A_04.c3d	102_F_P_sh_R_D_A_04.c3d	102_F_P_sh_R_D_A_04.c3d	102_F_P_sh_R_D_A_04.c3d	102_F_P_sh_R_D_A_04.c3d	102_F_P_sh_R_D_A_04.c3d	102_F_P_sh_R_D_A_04.c3d	102_F_P_sh_R_D_A_05.c3d	102_F_P_sh_R_D_A_05.c3d	102_F_P_sh_R_D_A_05.c3d	102_F_P_sh_R_D_A_05.c3d	102_F_P_sh_R_D_A_05.c3d	102_F_P_sh_R_D_A_05.c3d	102_F_P_sh_R_D_A_05.c3d	102_F_P_sh_R_D_A_05.c3d	102_F_P_sh_R_D_A_06.c3d	102_F_P_sh_R_D_A_06.c3d	102_F_P_sh_R_D_A_06.c3d	102_F_P_sh_R_D_A_06.c3d	102_F_P_sh_R_D_A_06.c3d	102_F_P_sh_R_D_A_06.c3d	102_F_P_sh_R_D_A_06.c3d	102_F_P_sh_R_D_A_06.c3d
	Biceps femoris_lat	Semitendinosus_lat	Vastus lateralis_lat	Vastus medialis_lat	Biceps femoris_med	Semitendinosus_med	Vastus lateralis_med	Vastus medialis_med	Biceps femoris_lat	Semitendinosus_lat	Vastus lateralis_lat	Vastus medialis_lat	Biceps femoris_med	Semitendinosus_med	Vastus lateralis_med	Vastus medialis_med	Biceps femoris_lat	Semitendinosus_lat	Vastus lateralis_lat	Vastus medialis_lat	Biceps femoris_med	Semitendinosus_med	Vastus lateralis_med	Vastus medialis_med	Biceps femoris_lat	Semitendinosus_lat	Vastus lateralis_lat	Vastus medialis_lat	Biceps femoris_med	Semitendinosus_med	Vastus lateralis_med	Vastus medialis_med	Biceps femoris_lat	Semitendinosus_lat	Vastus lateralis_lat	Vastus medialis_lat	Biceps femoris_med	Semitendinosus_med	Vastus lateralis_med	Vastus medialis_med
	P2D	P2D	P2D	P2D	P2D	P2D	P2D	P2D	P2D	P2D	P2D	P2D	P2D	P2D	P2D	P2D	P2D	P2D	P2D	P2D	P2D	P2D	P2D	P2D	P2D	P2D	P2D	P2D	P2D	P2D	P2D	P2D	P2D	P2D	P2D	P2D	P2D	P2D	P2D	P2D
	EMG_lat	EMG_lat	EMG_lat	EMG_lat	EMG_med	EMG_med	EMG_med	EMG_med	EMG_lat	EMG_lat	EMG_lat	EMG_lat	EMG_med	EMG_med	EMG_med	EMG_med	EMG_lat	EMG_lat	EMG_lat	EMG_lat	EMG_med	EMG_med	EMG_med	EMG_med	EMG_lat	EMG_lat	EMG_lat	EMG_lat	EMG_med	EMG_med	EMG_med	EMG_med	EMG_lat	EMG_lat	EMG_lat	EMG_lat	EMG_med	EMG_med	EMG_med	EMG_med
ITEM	Y	Y	Y	Y	Y	Y	Y	Y	Y	Y	Y	Y	Y	Y	Y	Y	Y	Y	Y	Y	Y	Y	Y	Y	Y	Y	Y	Y	Y	Y	Y	Y	Y	Y	Y	Y	Y	Y	Y	Y
1	0.537052	0.278520	0.173006	0.074308	0.206649	0.164036	0.284432	0.327874	0.486143	0.135327	0.160813	0.081738	0.245628	0.133951	0.341356	0.340828	0.879678	0.455473	0.122637	0.141241	0.100689	0.136214	0.230881	0.158903	0.764232	0.570009	0.111305	0.347030	0.248385	0.435834	0.253033	0.432386	0.525810	0.591142	0.365206	0.135640	0.085512	0.202306	0.286210	0.194564
2	0.517064	0.281295	0.197071	0.075530	0.202789	0.167987	0.265329	0.337526	0.396623	0.158573	0.141976	0.081390	0.146775	0.102130	0.332040	0.326607	0.610376	0.460569	0.146759	0.162259	0.085696	0.133311	0.218280	0.167051	0.784300	0.284946	0.091002	0.349714	0.203628	0.435985	0.244679	0.442087	0.483485	0.636914	0.334918	0.129266	0.080796	0.195230	0.285956	0.205020
3	0.520253	0.323119	0.232557	0.078217	0.199014	0.176942	0.236857	0.332985	0.200520	0.190538	0.120589	0.086204	0.109229	0.107901	0.309291	0.317513	0.905319	0.482574	0.148466	0.172447	0.073952	0.118318	0.217218	0.177410	0.788057	0.212745	0.097494	0.348883	0.190276	0.470294	0.239102	0.441934	0.467828	0.636931	0.306424	0.128734	0.086244	0.193222	0.277821	0.229301
4	0.514078	0.337443	0.231152	0.091981	0.194232	0.194837	0.256027	0.333685	0.202527	0.224240	0.154789	0.096405	0.112867	0.122016	0.289015	0.314974	0.910498	0.445564	0.150351	0.174109	0.078298	0.140235	0.217094	0.169433	0.808535	0.216904	0.172050	0.295171	0.198719	0.491276	0.258079	0.445538	0.452514	0.637486	0.286658	0.125999	0.102390	0.280156	0.290546	0.232357
5	0.446085	0.336262	0.234454	0.101861	0.163368	0.195883	0.256411	0.339280	0.214919	0.241713	0.161054	0.104381	0.099122	0.139009	0.278410	0.281338	0.909069	0.439539	0.154244	0.158694	0.081932	0.146794	0.208910	0.150783	0.778906	0.224650	0.177003	0.260074	0.185454	0.499499	0.252941	0.462290	0.453690	0.636561	0.274776	0.092616	0.108022	0.333365	0.293062	0.258306
6	0.432222	0.343395	0.248587	0.101947	0.142746	0.227152	0.254912	0.336918	0.323663	0.244379	0.166517	0.104535	0.095844	0.139272	0.270987	0.243521	0.903313	0.443955	0.154765	0.143143	0.082618	0.154960	0.194959	0.143501	0.782949	0.214417	0.267373	0.254728	0.170068	0.519357	0.199593	0.490103	0.440951	0.635544	0.270299	0.079352	0.108709	0.336408	0.292647	0.284096
7	0.413559	0.369807	0.287068	0.102192	0.129167	0.240075	0.258253	0.332701	0.477767	0.278491	0.170952	0.106707	0.088751	0.138491	0.266474	0.251061	0.903307	0.449577	0.155031	0.147281	0.087280	0.169170	0.241790	0.126542	0.757265	0.211011	0.291349	0.254476	0.224013	0.540801	0.193041	0.501400	0.462552	0.637940	0.266141	0.084362	0.108706	0.429002	0.292384	0.296991
8	0.425217	0.372919	0.291882	0.101831	0.103452	0.258258	0.316295	0.304703	0.487867	0.333100	0.171929	0.108626	0.088755	0.138398	0.261254	0.247940	0.918171	0.433989	0.151754	0.163397	0.111207	0.181242	0.323539	0.113472	0.673103	0.207373	0.307996	0.252885	0.288320	0.539215	0.188469	0.474153	0.502320	0.683367	0.246374	0.091030	0.100314	0.435312	0.301996	0.304260
9	0.503634	0.390846	0.290393	0.102326	0.100399	0.273056	0.343540	0.281017	0.597489	0.333430	0.226680	0.114935	0.079420	0.164275	0.175136	0.232973	0.924261	0.391200	0.146604	0.166747	0.153835	0.226404	0.295825	0.152469	0.730824	0.203941	0.309594	0.250750	0.294545	0.550684	0.216010	0.461153	0.519409	0.615163	0.227536	0.088708	0.096471	0.435358	0.295741	0.313698
10	0.504009	0.517075	0.290608	0.100980	0.100401	0.275431	0.416260	0.278342	0.619767	0.329370	0.298658	0.114095	0.068888	0.166217	0.149433	0.250191	0.901011	0.336043	0.159396	0.166733	0.154981	0.265832	0.289148	0.221984	0.760939	0.199897	0.325567	0.250547	0.299395	0.540399	0.217437	0.470505	0.457403	0.561299	0.260573	0.077498	0.107952	0.423817	0.295935	0.332276
11	0.513611	0.544563	0.278806	0.098877	0.100058	0.308454	0.414367	0.239233	0.618564	0.317068	0.352873	0.106968	0.091189	0.168980	0.147023	0.242023	0.886448	0.326667	0.176325	0.162206	0.171958	0.280406	0.302294	0.298672	0.753721	0.188192	0.327554	0.248627	0.357906	0.420404	0.336787	0.465790	0.433110	0.568312	0.272376	0.074918	0.118018	0.430325	0.283663	0.341770
12	0.520160	0.535877	0.268721	0.144052	0.107288	0.314938	0.393429	0.204913	0.633519	0.316015	0.369477	0.107550	0.091464	0.197660	0.143039	0.206354	0.910843	0.397496	0.193159	0.145151	0.199620	0.355621	0.312478	0.356669	0.720544	0.183811	0.335274	0.242179	0.425935	0.425667	0.413922	0.443589	0.413042	0.434834	0.216107	0.078419	0.123928	0.450094	0.264342	0.349066
13	0.521640	0.535611	0.265171	0.148905	0.108578	0.320162	0.470445	0.199817	0.710876	0.300802	0.451416	0.109403	0.091536	0.245406	0.162841	0.197341	0.732708	0.396951	0.184426	0.124304	0.208025	0.414389	0.358012	0.382032	0.775787	0.219564	0.348240	0.227755	0.426117	0.426099	0.436962	0.436044	0.429491	0.364803	0.209100	0.082184	0.124110	0.448797	0.271667	0.347957
14	0.558621	0.504486	0.321332	0.149822	0.123419	0.330944	0.548674	0.218035	0.716515	0.280474	0.541870	0.116660	0.093038	0.244783	0.171005	0.197551	0.606403	0.357246	0.176084	0.118509	0.212952	0.420790	0.378121	0.377555	0.806929	0.221750	0.317322	0.201900	0.425726	0.390416	0.464481	0.437071	0.442379	0.368299	0.204671	0.088072	0.123967	0.456695	0.382569	0.340002
15	0.550189	0.504356	0.487337	0.140844	0.127599	0.329725	0.554452	0.226878	0.718518	0.266594	0.575891	0.118819	0.095437	0.237421	0.195251	0.205384	0.618514	0.372763	0.210304	0.121460	0.315942	0.417831	0.402220	0.382073	0.740831	0.221460	0.345155	0.167331	0.422991	0.375086	0.456979	0.429847	0.442133	0.367956	0.203602	0.113188	0.124653	0.460152	0.457570	0.345411
16	0.591255	0.526211	0.507547	0.174555	0.131971	0.308949	0.563375	0.227456	0.773713	0.260085	0.601053	0.122256	0.123013	0.228443	0.211622	0.206095	0.650276	0.381212	0.252997	0.133332	0.341095	0.405855	0.401646	0.390461	0.729486	0.217817	0.314709	0.127315	0.424060	0.374066	0.459579	0.423160	0.435704	0.366795	0.218235	0.164039	0.126395	0.466854	0.453364	0.331449
17	0.761992	0.594934	0.543630	0.194955	0.137372	0.297653	0.568073	0.229490	0.728899	0.251981	0.599206	0.132762	0.122203	0.219791	0.205618	0.212342	0.660456	0.375780	0.264168	0.146883	0.340767	0.402467	0.397809	0.401011	0.694821	0.222333	0.289836	0.097974	0.421863	0.332082	0.457765	0.396183	0.427973	0.366455	0.302327	0.226990	0.122497	0.437345	0.442963	0.341107
18	0.861400	0.654262	0.558339	0.198140	0.135137	0.286863	0.544181	0.225373	0.698261	0.164966	0.613531	0.135527	0.122892	0.219247	0.226022	0.252228	0.604060	0.355302	0.293211	0.157445	0.340869	0.407106	0.395970	0.413851	0.690639	0.226824	0.271031	0.082047	0.383508	0.324319	0.455428	0.361344	0.400383	0.369773	0.293453	0.299362	0.119392	0.397596	0.444376	0.319603
19	0.811375	0.661545	0.568973	0.198485	0.132669	0.258725	0.527667	0.255326	0.705071	0.117874	0.628221	0.148227	0.143113	0.219561	0.275049	0.267240	0.575971	0.348050	0.294258	0.225231	0.338005	0.409810	0.322484	0.425810	0.639728	0.228141	0.283935	0.096356	0.376710	0.300259	0.448362	0.357317	0.392997	0.243870	0.293659	0.346468	0.115294	0.395769	0.454766	0.300567
20	0.887617	0.678015	0.569348	0.197912	0.121948	0.262647	0.487070	0.251232	0.618224	0.117764	0.600740	0.147240	0.144740	0.219408	0.287499	0.252606	0.566182	0.325318	0.299425	0.299106	0.325703	0.402763	0.302999	0.421724	0.602237	0.219665	0.266202	0.142035	0.386798	0.266984	0.436624	0.320529	0.374551	0.236526	0.292824	0.364882	0.116907	0.297438	0.465140	0.289213
21	0.914956	0.569344	0.569601	0.196892	0.121876	0.256984	0.447010	0.242881	0.615651	0.117207	0.568068	0.150732	0.148438	0.201065	0.294026	0.246792	0.530791	0.329076	0.301374	0.352123	0.325046	0.363494	0.302658	0.404437	0.604815	0.203504	0.256981	0.189601	0.415831	0.267980	0.433820	0.259292	0.375887	0.228221	0.261910	0.459495	0.123557	0.280282	0.478935	0.280941
22	0.923888	0.555092	0.570831	0.185433	0.122835	0.225865	0.442191	0.236953	0.625592	0.120250	0.549142	0.152689	0.158239	0.203203	0.295978	0.234376	0.514842	0.325498	0.286504	0.374208	0.335598	0.365207	0.291676	0.359749	0.724786	0.204207	0.260537	0.211634	0.344495	0.210534	0.310953	0.238213	0.383833	0.161798	0.245428	0.605596	0.126096	0.273900	0.469878	0.272620
23	0.934455	0.556955	0.562801	0.156543	0.166992	0.291738	0.425590	0.231554	0.550799	0.123878	0.562087	0.150243	0.160737	0.210766	0.297661	0.252428	0.575841	0.388176	0.274478	0.379799	0.387787	0.358361	0.281754	0.325277	0.769504	0.165752	0.250818	0.215946	0.380535	0.198582	0.249146	0.263060	0.363291	0.172471	0.245920	0.909994	0.123446	0.273423	0.462266	0.251345
24	0.929858	0.561198	0.558599	0.153683	0.181044	0.314787	0.261280	0.222116	0.529720	0.144420	0.439266	0.155254	0.165461	0.211036	0.290626	0.249163	0.708410	0.449104	0.274264	0.387618	0.465126	0.303550	0.232479	0.295257	0.776269	0.171557	0.249781	0.215617	0.476923	0.205822	0.176386	0.265379	0.338273	0.210460	0.244246	0.980668	0.124926	0.268242	0.462758	0.252302
25	0.922631	0.565696	0.480264	0.151828	0.168239	0.318954	0.179743	0.200885	0.527233	0.163078	0.383514	0.140325	0.166527	0.177058	0.270029	0.248922	0.713411	0.489827	0.271100	0.392884	0.534801	0.296087	0.202302	0.294559	0.805862	0.174611	0.241677	0.216085	0.478774	0.210379	0.079417	0.280183	0.320841	0.213494	0.243142	0.994935	0.135016	0.220651	0.463528	0.266439
26	0.918480	0.563545	0.342525	0.145840	0.164140	0.364189	0.126001	0.177826	0.492650	0.176711	0.316210	0.144259	0.167028	0.190841	0.274815	0.247906	0.768653	0.483610	0.268411	0.393922	0.540758	0.307142	0.145988	0.290013	0.808756	0.171881	0.217619	0.219786	0.477669	0.196568	0.062892	0.327166	0.327643	0.222727	0.279458	0.993537	0.136760	0.213637	0.462624	0.266356
27	0.867249	0.522169	0.316257	0.095314	0.166693	0.376314	0.121136	0.176052	0.402134	0.192206	0.293406	0.135533	0.165616	0.196544	0.257117	0.241584	0.856515	0.480041	0.275631	0.388839	0.527597	0.338897	0.138391	0.278554	0.810543	0.162014	0.228022	0.220668	0.478837	0.187726	0.035357	0.352573	0.361684	0.449393	0.302818	0.988440	0.151497	0.195482	0.394998	0.288528
28	0.702168	0.415302	0.233877	0.068329	0.163592	0.392759	0.106952	0.174059	0.377326	0.230164	0.284773	0.127837	0.144505	0.196891	0.249024	0.241951	0.874293	0.493103	0.258776	0.382336	0.545285	0.345841	0.146082	0.265414	0.808090	0.167366	0.262530	0.222582	0.478994	0.176212	0.035362	0.376541	0.367645	0.483748	0.226310	0.983516	0.177039	0.191463	0.283453	0.294381
29	0.590254	0.324659	0.165585	0.059603	0.162588	0.397380	0.110614	0.157410	0.359699	0.252319	0.257663	0.116911	0.143184	0.199567	0.248697	0.239918	0.883572	0.497314	0.249925	0.363017	0.616363	0.352987	0.147346	0.247995	0.808228	0.181778	0.275125	0.218757	0.483263	0.170395	0.032111	0.394146	0.351103	0.492687	0.225778	0.975702	0.178918	0.178723	0.280804	0.306280
30	0.579051	0.311003	0.143790	0.059158	0.166836	0.393261	0.116210	0.115160	0.311433	0.311785	0.230619	0.105539	0.154321	0.212457	0.227336	0.196313	0.891508	0.504354	0.255795	0.308423	0.648741	0.344061	0.140143	0.222601	0.808432	0.233033	0.284564	0.196022	0.460729	0.177606	0.033059	0.397191	0.299988	0.812338	0.258509	0.976165	0.173299	0.158218	0.277952	0.299923
31	0.348300	0.178071	0.161449	0.060583	0.169666	0.405867	0.117303	0.095896	0.344870	0.492822	0.246689	0.100097	0.163659	0.255227	0.186050	0.153548	0.892974	0.517915	0.284748	0.264573	0.654336	0.335025	0.156647	0.214964	0.770415	0.256587	0.303721	0.150287	0.448313	0.175986	0.027304	0.399118	0.306013	0.883471	0.281223	0.988483	0.174523	0.156151	0.278016	0.304833
32	0.302733	0.182958	0.204249	0.073397	0.170014	0.412485	0.127255	0.083191	0.380846	0.537105	0.247898	0.090606	0.170887	0.260070	0.185820	0.150637	0.885373	0.553537	0.288792	0.178601	0.651343	0.332975	0.164903	0.218610	0.649559	0.320753	0.299848	0.104834	0.427569	0.169081	0.027763	0.404717	0.310255	0.893349	0.317096	0.966924	0.196154	0.152964	0.263041	0.301718
33	0.232327	0.207588	0.214476	0.077165	0.155407	0.389383	0.133776	0.078443	0.358931	0.541654	0.222995	0.110794	0.170311	0.270036	0.175654	0.150117	0.872906	0.546782	0.301876	0.145241	0.647064	0.338982	0.166286	0.229771	0.516129	0.429941	0.291919	0.084830	0.424459	0.170166	0.038177	0.399376	0.286252	0.897347	0.347215	0.901510	0.239034	0.174283	0.249195	0.298670
34	0.228484	0.245787	0.232034	0.080770	0.109341	0.397588	0.133240	0.076606	0.344036	0.538513	0.201262	0.142349	0.157239	0.269787	0.170893	0.138984	0.751685	0.467233	0.303241	0.134846	0.626752	0.321323	0.155630	0.226777	0.416618	0.463707	0.303365	0.083776	0.300751	0.196817	0.084663	0.399622	0.268306	0.890190	0.369011	0.618004	0.274597	0.201938	0.207380	0.301039
35	0.294526	0.269063	0.234563	0.083671	0.125839	0.382809	0.136094	0.075706	0.327894	0.534962	0.221802	0.155993	0.143445	0.266001	0.168858	0.102110	0.638740	0.452100	0.306872	0.129249	0.574783	0.292463	0.152326	0.198327	0.434284	0.464158	0.293144	0.090903	0.178750	0.194356	0.155515	0.417500	0.258807	0.881601	0.383119	0.523257	0.295336	0.213754	0.156338	0.313255
36	0.358615	0.260655	0.233900	0.087467	0.162459	0.345995	0.130674	0.082074	0.337316	0.523199	0.211930	0.183826	0.143311	0.261171	0.173697	0.090326	0.614315	0.418464	0.301984	0.144973	0.505764	0.272731	0.149655	0.183428	0.638163	0.475078	0.281973	0.094741	0.176622	0.187805	0.189349	0.410171	0.257115	0.878967	0.407667	0.521461	0.301462	0.236207	0.162538	0.332904
37	0.428076	0.284523	0.231722	0.088656	0.192990	0.309142	0.120819	0.082989	0.481456	0.522003	0.227994	0.233747	0.146123	0.304363	0.174482	0.082888	0.361461	0.415439	0.280494	0.180917	0.460903	0.273748	0.138302	0.190710	0.697848	0.484363	0.277446	0.090907	0.177035	0.186008	0.199425	0.370172	0.238013	0.877997	0.418877	0.545273	0.302523	0.276777	0.171570	0.346917
38	0.434111	0.348583	0.228275	0.087445	0.194518	0.304914	0.146159	0.099265	0.598775	0.513273	0.310190	0.329745	0.157153	0.302463	0.180180	0.081048	0.278955	0.405751	0.262006	0.222099	0.417652	0.261805	0.125574	0.197036	0.698375	0.482015	0.239674	0.081053	0.172367	0.180687	0.226027	0.324677	0.191379	0.804352	0.405652	0.594342	0.296087	0.281800	0.172899	0.344907
39	0.457568	0.371597	0.221968	0.085460	0.233074	0.277469	0.174363	0.150041	0.614766	0.500274	0.303209	0.823151	0.159917	0.303331	0.187196	0.081842	0.280398	0.399790	0.260346	0.249682	0.392117	0.280740	0.119526	0.197821	0.712440	0.478136	0.205828	0.101681	0.177248	0.178696	0.250921	0.304812	0.207650	0.820625	0.400887	0.961064	0.304209	0.303898	0.236214	0.333638
40	0.678730	0.372601	0.218900	0.093536	0.267281	0.275934	0.259632	0.183396	0.689386	0.500324	0.306947	1.141236	0.166302	0.356368	0.186533	0.104910	0.405502	0.393434	0.261193	0.271858	0.330964	0.267207	0.123386	0.204502	0.719462	0.459553	0.202538	0.148209	0.166269	0.182320	0.270167	0.304479	0.248163	0.820556	0.404856	0.987446	0.319359	0.423061	0.292197	0.322757
41	0.744335	0.372270	0.216955	0.121064	0.282868	0.267504	0.322525	0.198088	0.761907	0.392323	0.310769	1.152754	0.181529	0.366893	0.231756	0.163269	0.500287	0.387899	0.258358	0.276637	0.175646	0.265790	0.127573	0.224226	0.740761	0.451112	0.174309	0.213557	0.159599	0.267836	0.273840	0.321952	0.291254	0.505442	0.389167	0.979856	0.334578	0.426272	0.315372	0.313854
42	0.769206	0.370225	0.217712	0.125043	0.279991	0.242890	0.399035	0.207149	0.740228	0.221900	0.331981	1.158784	0.173693	0.361399	0.292349	0.184739	0.510094	0.366161	0.270125	0.275300	0.119594	0.264895	0.122891	0.248634	0.744843	0.397436	0.200849	0.338504	0.151264	0.339612	0.342956	0.332066	0.445823	0.410063	0.372580	0.961336	0.343384	0.428806	0.313259	0.303727
43	0.785225	0.356007	0.177800	0.131192	0.280044	0.237835	0.413384	0.281123	0.730729	0.177276	0.374168	1.168988	0.147078	0.336594	0.357122	0.189619	0.560779	0.275129	0.279665	0.275144	0.122746	0.265577	0.113756	0.266151	0.746586	0.312727	0.198192	0.704828	0.128514	0.375067	0.500015	0.324151	0.575890	0.410004	0.349356	0.942568	0.343650	0.429927	0.317762	0.294401
44	0.782171	0.343230	0.156976	0.132178	0.281154	0.203322	0.459676	0.321066	0.733402	0.224352	0.388978	1.168639	0.136299	0.333491	0.352030	0.191331	0.626932	0.248729	0.282195	0.281183	0.122535	0.263477	0.124399	0.282263	0.735281	0.199455	0.190784	0.731792	0.135442	0.438062	0.524258	0.306576	0.586520	0.453977	0.320617	0.924751	0.344606	0.422550	0.318479	0.290106
45	0.766912	0.323801	0.246448	0.146652	0.277783	0.135540	0.528181	0.334577	0.792947	0.232668	0.411648	1.166832	0.151794	0.326530	0.375612	0.204006	0.627443	0.215350	0.306262	0.417643	0.121815	0.251797	0.124152	0.280005	0.650929	0.178903	0.189382	0.731789	0.131618	0.538712	0.521570	0.282890	0.756555	0.458953	0.312573	0.908069	0.334403	0.421356	0.324641	0.296409
46	0.745620	0.324314	0.263068	0.163944	0.264446	0.275759	0.592428	0.337526	0.808370	0.229196	0.423853	1.170544	0.160720	0.325609	0.405505	0.215048	0.633585	0.231453	0.336880	0.471796	0.123249	0.248163	0.124421	0.269017	0.490301	0.144835	0.202656	0.730487	0.152576	0.591841	0.504083	0.264961	0.911131	0.460080	0.357814	0.898330	0.316394	0.414104	0.328174	0.316417
47	0.704929	0.371088	0.274709	0.209836	0.241130	0.352471	0.632039	0.360233	0.789195	0.256888	0.435732	1.222402	0.161654	0.331807	0.407601	0.221295	0.639301	0.320714	0.346250	0.473720	0.130710	0.222912	0.154093	0.271908	0.356699	0.170322	0.196997	0.730384	0.173427	0.596891	0.550204	0.268169	0.942317	0.529213	0.530958	0.900523	0.287047	0.400258	0.341125	0.342243
48	0.707024	0.398871	0.276965	0.223273	0.229343	0.380805	0.634810	0.371009	0.671350	0.277049	0.417285	1.286353	0.159017	0.335246	0.421722	0.222202	0.642031	0.476520	0.330970	0.462825	0.150588	0.223744	0.166926	0.297180	0.338737	0.284430	0.197505	0.734142	0.179437	0.741082	0.544707	0.280685	0.943939	0.579448	0.580665	0.936380	0.266023	0.394685	0.349972	0.358522
49	0.786435	0.527225	0.276946	0.223215	0.223979	0.389852	0.626592	0.364394	0.597909	0.438127	0.400007	1.283266	0.159437	0.302848	0.443524	0.222984	0.659491	0.527467	0.329297	0.451228	0.150481	0.214913	0.218694	0.315603	0.316708	0.436902	0.210332	0.734806	0.218926	0.824481	0.540769	0.278088	0.942866	0.614811	0.576708	0.945528	0.254664	0.387437	0.346357	0.361800
50	0.786092	0.533903	0.274195	0.225299	0.179949	0.392424	0.609596	0.341606	0.592918	0.597530	0.400201	0.910556	0.147556	0.298352	0.438847	0.226426	0.787744	0.667504	0.339926	0.439959	0.147950	0.174244	0.247414	0.323363	0.444200	0.481444	0.227676	0.731186	0.254140	0.827774	0.539320	0.257761	0.936204	0.607153	0.590820	0.581252	0.254030	0.486134	0.345776	0.352455
51	0.679857	0.627770	0.267323	0.224010	0.112059	0.435644	0.577478	0.326007	0.451622	0.749889	0.430099	0.964569	0.145534	0.314702	0.435394	0.225615	0.740870	0.851470	0.338343	0.428749	0.137447	0.161051	0.274353	0.325747	0.621020	0.515046	0.263142	0.730912	0.267477	0.821538	0.543904	0.236776	0.926139	0.603264	0.595538	0.527289	0.253388	0.742049	0.354453	0.334596
52	0.712729	0.660959	0.268397	0.210912	0.147572	0.444498	0.535134	0.320619	0.509806	0.773035	0.425632	1.029031	0.143452	0.293398	0.436903	0.213194	0.702068	0.864240	0.329017	0.428483	0.136600	0.210501	0.279881	0.317200	0.730557	0.518979	0.309857	0.713181	0.267985	0.794454	0.551110	0.221118	0.913608	0.653008	0.652411	0.521326	0.254372	0.848175	0.319313	0.318587
53	0.693457	0.664824	0.267475	0.209931	0.212308	0.455408	0.498368	0.293297	0.594105	0.821400	0.412167	1.030053	0.139168	0.368410	0.413505	0.167003	0.719009	0.861686	0.330218	0.453571	0.146279	0.282097	0.281526	0.301768	0.896346	0.546975	0.323690	0.458647	0.270418	0.771340	0.478750	0.199874	0.843877	0.689409	0.665991	0.535437	0.243254	0.811579	0.266655	0.312082
54	0.706402	0.837678	0.271442	0.207973	0.317384	0.465410	0.501473	0.225345	0.607291	0.899194	0.365214	1.024287	0.139690	0.398181	0.372333	0.141896	0.649632	0.865342	0.343217	0.621038	0.145034	0.337142	0.297958	0.281571	0.950097	0.551989	0.327821	0.419123	0.277789	0.762227	0.348155	0.190173	0.758772	0.691659	0.670284	0.599184	0.220223	0.926452	0.251576	0.312384
55	0.773801	0.917770	0.276342	0.208167	0.397939	0.466872	0.436869	0.183923	0.575668	1.004690	0.353665	1.021976	0.139711	0.418982	0.297779	0.136602	0.636668	0.875425	0.379470	0.727337	0.140040	0.356947	0.324308	0.261141	0.963917	0.560717	0.340658	0.722384	0.287557	0.740972	0.332321	0.190673	0.746701	0.712734	0.671243	0.692661	0.201663	0.984029	0.253398	0.330826
56	0.779759	0.912173	0.200011	0.212061	0.413173	0.461329	0.361453	0.168455	0.530492	1.033739	0.309125	1.020967	0.140476	0.423680	0.295497	0.135990	0.637780	0.930739	0.430678	0.740008	0.170950	0.364917	0.329654	0.238671	0.982126	0.570266	0.420875	0.793568	0.288050	0.650600	0.344456	0.190132	0.575060	0.713987	0.663553	0.755130	0.200948	0.992998	0.256433	0.364302
57	0.774866	0.904197	0.201460	0.210544	0.431537	0.351693	0.217977	0.152758	0.518494	1.042134	0.288392	0.994133	0.120917	0.425126	0.261745	0.121522	0.678882	0.959527	0.445922	0.768319	0.214481	0.383091	0.330947	0.233807	0.983861	0.575052	0.483723	0.796329	0.288693	0.641093	0.325112	0.186536	0.273423	0.718701	0.632361	0.769720	0.203103	0.992381	0.250333	0.411169
58	0.770787	0.883408	0.193674	0.170555	0.642725	0.348830	0.184938	0.079398	0.545808	1.034470	0.263120	0.884610	0.112072	0.551459	0.216966	0.107481	0.677130	1.015793	0.439245	0.808342	0.219675	0.488213	0.325789	0.230505	0.985991	0.543648	0.499486	0.806479	0.293930	0.641231	0.262178	0.174680	0.200709	0.678277	0.508569	0.750705	0.226236	1.004235	0.239921	0.482141
59	0.725035	0.841605	0.210005	0.178858	0.668032	0.314350	0.172317	0.058614	0.546683	1.023158	0.255615	0.825919	0.111213	0.708564	0.220809	0.095431	0.689070	1.042516	0.459119	0.804903	0.215044	0.553903	0.318044	0.205439	0.984801	0.477276	0.506500	0.847131	0.300799	0.407799	0.274081	0.156276	0.270798	0.634957	0.483859	0.685864	0.268484	1.006441	0.251962	0.501186
60	0.639199	0.765464	0.269417	0.200608	0.669569	0.306812	0.185849	0.059102	0.563619	0.935007	0.241440	0.813355	0.107544	0.717201	0.187858	0.093490	0.581582	1.047714	0.507824	0.806949	0.229298	0.554961	0.296408	0.162897	0.956688	0.436782	0.498558	0.899101	0.280281	0.315092	0.263550	0.143611	0.468496	0.580002	0.517277	0.627970	0.321960	1.008169	0.245256	0.489089
61	0.588168	0.757847	0.299590	0.196187	0.673405	0.300548	0.196748	0.072194	0.548982	0.835592	0.213119	0.604614	0.106619	0.711826	0.153241	0.094358	0.431232	0.863087	0.502087	0.896913	0.228320	0.547443	0.273574	0.162903	0.825025	0.393462	0.488359	0.925371	0.246183	0.309047	0.243645	0.154052	0.624727	0.535791	0.527665	0.605442	0.363957	1.010227	0.231666	0.470004
62	0.510580	0.666763	0.300958	0.208781	0.674713	0.232222	0.209387	0.109712	0.495133	0.735803	0.230305	0.457458	0.121934	0.710075	0.175676	0.089992	0.508358	0.799544	0.502234	1.031513	0.230513	0.559356	0.233224	0.167625	0.731022	0.390180	0.460324	0.929222	0.230275	0.306942	0.288109	0.188522	0.630918	0.525570	0.520903	0.594968	0.382784	1.011758	0.235774	0.456375
63	0.421094	0.651966	0.307670	0.207986	0.660627	0.238588	0.216347	0.112523	0.459553	0.720115	0.266533	0.424148	0.128653	0.702530	0.186695	0.119940	0.487565	0.795416	0.494942	1.139722	0.233468	0.583251	0.230504	0.176238	0.597320	0.362755	0.449678	0.912049	0.229701	0.308856	0.291057	0.244866	0.638096	0.463255	0.442188	0.588195	0.388840	0.966729	0.231962	0.463882
64	0.397554	0.643680	0.346923	0.206023	0.637612	0.254038	0.248452	0.150694	0.457017	0.667164	0.276545	0.454217	0.142361	0.692769	0.283925	0.131707	0.464198	0.792376	0.464432	1.187665	0.231939	0.564000	0.223962	0.181757	0.412280	0.365399	0.497406	0.875289	0.231262	0.303537	0.291390	0.301254	0.841759	0.368387	0.441162	0.577859	0.402164	0.795042	0.216152	0.507917
65	0.349974	0.327920	0.420266	0.203059	0.584524	0.302639	0.232206	0.207789	0.442384	0.493953	0.349169	0.452372	0.130234	0.675018	0.292156	0.131509	0.453031	0.787638	0.458371	1.168292	0.230211	0.518271	0.217802	0.180825	0.362676	0.360221	0.575193	0.694733	0.226904	0.260076	0.289271	0.331051	0.911058	0.340806	0.472930	0.520027	0.404930	0.664842	0.214592	0.575226
66	0.183284	0.188318	0.416041	0.204816	0.551273	0.301857	0.238447	0.256431	0.428099	0.294570	0.440812	0.452434	0.128042	0.668691	0.364863	0.132717	0.450944	0.778288	0.394906	1.165505	0.234881	0.512382	0.176561	0.178229	0.314724	0.348900	0.543246	0.606998	0.216544	0.256713	0.278584	0.333715	0.917992	0.202253	0.531510	0.400485	0.440512	0.661435	0.207673	0.635886
67	0.182835	0.193218	0.452895	0.186393	0.550896	0.311562	0.238243	0.284922	0.424652	0.275295	0.442121	0.458413	0.138912	0.656181	0.413236	0.136127	0.405820	0.669853	0.317251	1.139247	0.226240	0.502953	0.140524	0.176797	0.297355	0.320362	0.494185	0.625099	0.214333	0.243370	0.271257	0.333227	0.917272	0.183151	0.537409	0.275855	0.456037	0.504592	0.183753	0.683579
68	0.185449	0.194376	0.466044	0.174352	0.455440	0.306579	0.242854	0.295572	0.407734	0.262039	0.444442	0.494213	0.150961	0.656951	0.434550	0.133030	0.366932	0.650063	0.304731	1.106396	0.193670	0.498782	0.165098	0.176877	0.288196	0.315879	0.505641	0.624978	0.185456	0.169217	0.270691	0.338996	0.916208	0.161644	0.561890	0.217015	0.493901	0.346095	0.183366	0.681288
69	0.186851	0.190954	0.463505	0.185867	0.182201	0.302949	0.270390	0.299119	0.421592	0.287372	0.457921	0.566670	0.151890	0.655703	0.472356	0.129266	0.359434	0.364588	0.320657	1.092914	0.160017	0.467913	0.183444	0.172886	0.288426	0.188404	0.531381	0.575791	0.166930	0.148893	0.254758	0.352525	0.904167	0.132462	0.540685	0.211505	0.587467	0.310396	0.161871	0.670866
70	0.190654	0.187666	0.469502	0.201701	0.175151	0.302650	0.293863	0.300483	0.422560	0.293801	0.494159	0.655630	0.152974	0.542105	0.478325	0.131087	0.355796	0.276829	0.259046	1.097054	0.158264	0.312863	0.182418	0.171720	0.285168	0.189700	0.543562	0.487940	0.138631	0.125943	0.248035	0.366270	0.886475	0.143222	0.483092	0.212624	0.667057	0.311033	0.161490	0.668830
71	0.183790	0.172308	0.426901	0.197991	0.174291	0.301987	0.289789	0.323165	0.417403	0.293135	0.503885	0.743767	0.155079	0.330366	0.497377	0.131244	0.341597	0.214321	0.215597	1.075375	0.124083	0.287878	0.184898	0.163353	0.278612	0.197465	0.591566	0.408028	0.118769	0.125451	0.247612	0.382744	0.799945	0.223163	0.442214	0.216479	0.674488	0.276271	0.162317	0.636447
72	0.178937	0.164646	0.419089	0.230630	0.153730	0.302891	0.281746	0.346687	0.417397	0.311336	0.500560	0.793734	0.158922	0.296798	0.505782	0.137016	0.313507	0.206332	0.211184	0.969919	0.118418	0.287620	0.183323	0.141781	0.212036	0.210038	0.626181	0.369572	0.111333	0.118869	0.227163	0.392938	0.687026	0.312927	0.421233	0.227365	0.658732	0.270150	0.175747	0.621434
73	0.203356	0.161135	0.417867	0.267467	0.162558	0.289999	0.292522	0.364478	0.395072	0.323947	0.462575	0.810033	0.171105	0.294591	0.500019	0.135733	0.186612	0.213068	0.250432	0.835252	0.148606	0.286248	0.181724	0.113585	0.146632	0.211481	0.626774	0.364851	0.110903	0.121395	0.136597	0.390706	0.681016	0.475437	0.425844	0.253469	0.633203	0.270590	0.203530	0.623845
74	0.204612	0.159950	0.405162	0.267271	0.162062	0.275853	0.267896	0.373246	0.290038	0.318234	0.464143	0.846836	0.176778	0.308716	0.492288	0.132179	0.184044	0.215265	0.292611	0.729596	0.156945	0.196673	0.181523	0.088195	0.106065	0.186369	0.619062	0.363089	0.111754	0.115197	0.128204	0.375218	0.675310	0.511178	0.446211	0.298660	0.616635	0.286137	0.200739	0.628225
75	0.206333	0.177321	0.344476	0.268608	0.160643	0.207906	0.249855	0.370761	0.306327	0.392069	0.465484	0.892356	0.180230	0.310162	0.489693	0.115827	0.187667	0.399460	0.301956	0.655877	0.159471	0.164917	0.176021	0.066262	0.104661	0.176081	0.628406	0.361121	0.108788	0.134424	0.141678	0.356191	0.405336	0.568622	0.455834	0.344550	0.603626	0.279353	0.194928	0.628543
76	0.199847	0.214813	0.280254	0.266378	0.157923	0.169429	0.243287	0.344727	0.380815	0.430542	0.427014	0.896240	0.168588	0.293183	0.441896	0.107547	0.203718	0.622440	0.339514	0.568495	0.153603	0.163825	0.174423	0.050360	0.085897	0.177146	0.630499	0.362052	0.103779	0.173797	0.144313	0.353575	0.242685	0.674762	0.413500	0.358194	0.599903	0.277780	0.192285	0.618010
77	0.206194	0.257286	0.259277	0.273506	0.153496	0.097868	0.238370	0.313589	0.552046	0.562082	0.478436	0.907699	0.172567	0.259171	0.445235	0.109326	0.248694	0.727155	0.370162	0.469160	0.170534	0.155288	0.160815	0.047885	0.097560	0.192220	0.646731	0.366159	0.105174	0.193644	0.142876	0.359346	0.216408	0.857983	0.330204	0.344808	0.588949	0.351153	0.191785	0.584085
78	0.225302	0.336887	0.210057	0.295474	0.145076	0.072068	0.238178	0.294593	0.559632	0.604754	0.584985	0.981001	0.186167	0.234318	0.388459	0.111234	0.260418	0.883942	0.415151	0.498741	0.164874	0.144880	0.162891	0.052892	0.124141	0.232181	0.639825	0.377638	0.107740	0.200674	0.155578	0.355461	0.221787	0.915883	0.319663	0.341027	0.583892	0.379198	0.197967	0.519374
79	0.360714	0.376227	0.199042	0.320070	0.140061	0.140594	0.229905	0.288402	0.549815	0.596644	0.631025	1.021770	0.177651	0.230538	0.360833	0.107573	0.258038	0.881710	0.416295	0.590598	0.208751	0.127857	0.155523	0.062256	0.134873	0.246089	0.645398	0.377144	0.115651	0.201312	0.153568	0.343058	0.226705	0.921865	0.273268	0.354827	0.555184	0.338530	0.212691	0.441930
80	0.367677	0.406745	0.189063	0.318470	0.116123	0.166152	0.180744	0.292678	0.532643	0.586837	0.625413	1.023899	0.166984	0.220424	0.339627	0.114864	0.239217	0.894973	0.407867	0.689836	0.227463	0.109835	0.106195	0.072423	0.165347	0.280003	0.697722	0.384131	0.125857	0.244806	0.152701	0.332267	0.266920	0.924679	0.258616	0.376882	0.534789	0.343887	0.213978	0.355479
81	0.394131	0.538825	0.184457	0.313377	0.105852	0.177743	0.190123	0.291871	0.545474	0.589835	0.713880	1.049998	0.165171	0.220147	0.286812	0.116773	0.232605	0.988773	0.399288	0.798743	0.230554	0.097767	0.105983	0.082269	0.185750	0.310556	0.677973	0.420085	0.134015	0.244043	0.169468	0.325978	0.273054	0.979361	0.261344	0.394288	0.516799	0.349203	0.216319	0.334023
82	0.426131	0.573591	0.223580	0.319689	0.097697	0.194748	0.217175	0.259896	0.560967	0.591480	0.743619	0.984607	0.166009	0.201708	0.274971	0.106507	0.231757	0.993819	0.395272	0.909882	0.235703	0.082028	0.106623	0.082687	0.244657	0.324187	0.635110	0.480544	0.128008	0.244404	0.188018	0.313567	0.270135	1.012003	0.259722	0.401208	0.419908	0.346718	0.229407	0.322938
83	0.443313	0.585525	0.229179	0.288229	0.096278	0.194450	0.211583	0.217519	0.566463	0.576497	0.740229	0.940812	0.171351	0.242067	0.236925	0.101855	0.241339	1.006000	0.388612	0.994016	0.236055	0.077486	0.126331	0.080368	0.570391	0.380199	0.652619	0.541424	0.129863	0.243116	0.191760	0.296097	0.285151	0.989746	0.242548	0.396510	0.285220	0.345552	0.264784	0.272548
84	0.465150	0.591943	0.232202	0.262237	0.071860	0.194448	0.213558	0.196042	0.560611	0.583924	0.735607	0.924677	0.170177	0.472863	0.232296	0.098988	0.271648	1.032691	0.431456	1.058271	0.231167	0.068435	0.125046	0.081538	0.590829	0.379796	0.719772	0.595992	0.130133	0.238583	0.214650	0.269654	0.283684	0.923092	0.230224	0.378899	0.252680	0.352170	0.268766	0.215998
85	0.474974	0.596919	0.246080	0.269768	0.068147	0.224564	0.205042	0.160430	0.553785	0.585643	0.742531	0.849726	0.159765	0.640273	0.230893	0.102131	0.296325	1.029593	0.464636	1.081064	0.211102	0.057504	0.138925	0.083878	0.597829	0.379059	0.670105	0.633388	0.127346	0.237918	0.224209	0.240130	0.281565	0.903130	0.217668	0.339896	0.249838	0.377384	0.244921	0.186729
86	0.511928	0.584152	0.306271	0.288543	0.059979	0.226709	0.242502	0.125579	0.548570	0.535097	0.758507	0.849217	0.178334	0.662760	0.226986	0.104103	0.295902	0.938914	0.440123	1.070979	0.213079	0.057576	0.143576	0.085499	0.609510	0.377061	0.631235	0.653391	0.107113	0.205752	0.225051	0.211787	0.268033	0.868392	0.188599	0.283619	0.250957	0.418564	0.207320	0.198595
87	0.536906	0.570068	0.315674	0.304025	0.037570	0.225978	0.268540	0.122272	0.448996	0.474340	0.752187	0.867298	0.221918	0.761030	0.219101	0.091717	0.275356	0.849191	0.421706	1.064342	0.223881	0.057259	0.160083	0.085485	0.646752	0.372913	0.639436	0.658819	0.099690	0.180360	0.230340	0.190914	0.236752	0.795929	0.341135	0.248372	0.231503	0.469073	0.201212	0.249744
88	0.564955	0.546789	0.311475	0.296081	0.036502	0.225636	0.267041	0.121573	0.373719	0.335395	0.706263	0.843240	0.227815	0.891712	0.206982	0.088803	0.271902	0.640212	0.377775	1.059614	0.223525	0.064382	0.161158	0.088728	0.645504	0.367165	0.677656	0.643594	0.097959	0.155239	0.239588	0.184658	0.249355	0.618340	0.386635	0.245966	0.244956	0.486595	0.203113	0.291449
89	0.542185	0.483375	0.293932	0.264449	0.034750	0.215569	0.267223	0.120893	0.385769	0.297812	0.717577	0.730246	0.235033	0.887024	0.190018	0.090122	0.408974	0.583921	0.375307	1.035341	0.216904	0.092453	0.206628	0.093835	0.651568	0.358557	0.643075	0.640674	0.095553	0.146872	0.228522	0.185283	0.304595	0.566869	0.390184	0.238245	0.272710	0.508438	0.203500	0.310166
90	0.481243	0.469255	0.296680	0.237156	0.033233	0.169837	0.270594	0.111204	0.401877	0.381798	0.822427	0.650824	0.235231	0.888737	0.184264	0.091337	0.536040	0.579664	0.387882	0.998407	0.207244	0.094391	0.221858	0.096548	0.644419	0.344620	0.582721	0.654431	0.088820	0.125938	0.230321	0.182316	0.457524	0.579450	0.429063	0.214775	0.287626	0.471357	0.205162	0.314427
91	0.475791	0.449281	0.311739	0.234957	0.038085	0.165451	0.277482	0.083638	0.470930	0.390002	0.817158	0.547227	0.235141	0.890522	0.141835	0.090287	0.572630	0.512094	0.436612	0.961817	0.164530	0.098708	0.222564	0.096159	0.638045	0.323906	0.559808	0.651920	0.074185	0.033938	0.228130	0.167411	0.492069	0.583422	0.469931	0.174822	0.288770	0.438825	0.202504	0.313637
92	0.475746	0.252272	0.292810	0.227296	0.040178	0.131129	0.251031	0.083337	0.452902	0.398649	0.782699	0.454128	0.235859	0.890724	0.135668	0.081392	0.626073	0.371041	0.466007	0.903018	0.172738	0.097944	0.239153	0.095199	0.638899	0.315621	0.655673	0.620313	0.096782	0.033348	0.209973	0.148292	0.511062	0.482212	0.473497	0.128176	0.295459	0.440127	0.184158	0.310900
93	0.453542	0.180603	0.303263	0.235419	0.038993	0.129718	0.248581	0.081261	0.463468	0.407078	0.823062	0.448621	0.236454	0.890344	0.136405	0.077473	0.626154	0.372346	0.468530	0.827791	0.198501	0.098113	0.247862	0.099605	0.358229	0.224589	0.722208	0.572112	0.097251	0.039805	0.198107	0.129794	0.515277	0.370942	0.476573	0.090394	0.290453	0.448349	0.182934	0.307825
94	0.445553	0.149742	0.467077	0.241282	0.038159	0.129708	0.240106	0.072991	0.479088	0.459400	0.895551	0.444843	0.233295	0.891938	0.136372	0.077805	0.619861	0.250808	0.459871	0.733601	0.216967	0.097534	0.244724	0.104215	0.321183	0.208592	0.685485	0.510994	0.100812	0.050544	0.193015	0.117019	0.516796	0.367809	0.501186	0.073611	0.273914	0.538653	0.177741	0.309693
95	0.420858	0.136758	0.523005	0.243878	0.037512	0.114971	0.229735	0.063944	0.483497	0.453845	0.928118	0.428204	0.231887	0.880554	0.136575	0.073840	0.608825	0.197596	0.377744	0.624588	0.290689	0.102866	0.239110	0.103383	0.314007	0.211146	0.706571	0.445626	0.101698	0.055944	0.161190	0.107825	0.667422	0.394336	0.502579	0.074224	0.252801	0.638120	0.162931	0.312281
96	0.423602	0.135591	0.510869	0.231923	0.040748	0.040916	0.249005	0.078436	0.503810	0.437325	0.919391	0.449601	0.242172	0.775552	0.128727	0.069412	0.605257	0.193246	0.379766	0.555268	0.343508	0.139628	0.237437	0.101681	0.298449	0.212730	0.763401	0.388509	0.099933	0.057002	0.151491	0.109281	0.862722	0.400421	0.498090	0.090310	0.229282	0.662708	0.097589	0.312936
97	0.378822	0.160020	0.493632	0.203911	0.042458	0.035920	0.190557	0.086278	0.505342	0.438119	0.892703	0.408081	0.272955	0.644925	0.125714	0.063669	0.606587	0.194509	0.382500	0.535882	0.357870	0.151570	0.230314	0.100046	0.191367	0.209477	0.801369	0.355665	0.099606	0.056593	0.136109	0.112436	0.875187	0.398908	0.533687	0.107009	0.218334	0.674110	0.077793	0.312551
98	0.347847	0.182896	0.545898	0.188031	0.048582	0.035661	0.189555	0.091573	0.492564	0.425485	0.912423	0.368711	0.338567	0.617492	0.127454	0.060147	0.603599	0.169977	0.414661	0.539799	0.362045	0.157293	0.238425	0.100440	0.190358	0.189678	0.801702	0.386515	0.101125	0.056715	0.123882	0.113595	0.879746	0.386090	0.464011	0.123176	0.215196	0.662707	0.080609	0.307656
99	0.312697	0.207113	0.555028	0.191784	0.048657	0.035889	0.207223	0.092416	0.475882	0.425191	0.952708	0.362407	0.335834	0.475042	0.146487	0.057296	0.561555	0.160286	0.424831	0.547761	0.359752	0.199438	0.259803	0.102538	0.156186	0.175339	0.866171	0.403799	0.105980	0.058605	0.087170	0.113353	0.877845	0.348915	0.440395	0.126036	0.210751	0.641441	0.078101	0.285654
100	0.324302	0.208881	0.554256	0.219188	0.049843	0.036760	0.211206	0.090860	0.471528	0.381597	0.899140	0.365784	0.332219	0.140722	0.165111	0.055319	0.475386	0.155053	0.424647	0.535191	0.358071	0.192494	0.241232	0.104453	0.147489	0.163400	0.921970	0.385172	0.103240	0.060420	0.090257	0.111615	0.861831	0.285108	0.449077	0.124544	0.207549	0.587947	0.085504	0.234218
101	0.379484	0.225880	0.570867	0.219876	0.050576	0.034073	0.198277	0.091515	0.412028	0.328835	0.808700	0.373811	0.347148	0.129142	0.173720	0.048815	0.340789	0.131161	0.402075	0.493236	0.361233	0.187046	0.210637	0.111605	0.147337	0.135992	0.994257	0.354219	0.105213	0.061603	0.095437	0.110871	0.790637	0.235417	0.419283	0.120001	0.189734	0.573204	0.084894	0.174647
