	103_F_P_sh_L_ND_A_02.c3d	103_F_P_sh_L_ND_A_02.c3d	103_F_P_sh_L_ND_A_02.c3d	103_F_P_sh_L_ND_A_02.c3d	103_F_P_sh_L_ND_A_02.c3d	103_F_P_sh_L_ND_A_02.c3d	103_F_P_sh_L_ND_A_02.c3d	103_F_P_sh_L_ND_A_02.c3d	103_F_P_sh_L_ND_A_03.c3d	103_F_P_sh_L_ND_A_03.c3d	103_F_P_sh_L_ND_A_03.c3d	103_F_P_sh_L_ND_A_03.c3d	103_F_P_sh_L_ND_A_03.c3d	103_F_P_sh_L_ND_A_03.c3d	103_F_P_sh_L_ND_A_03.c3d	103_F_P_sh_L_ND_A_03.c3d	103_F_P_sh_L_ND_A_04.c3d	103_F_P_sh_L_ND_A_04.c3d	103_F_P_sh_L_ND_A_04.c3d	103_F_P_sh_L_ND_A_04.c3d	103_F_P_sh_L_ND_A_04.c3d	103_F_P_sh_L_ND_A_04.c3d	103_F_P_sh_L_ND_A_04.c3d	103_F_P_sh_L_ND_A_04.c3d	103_F_P_sh_L_ND_A_05.c3d	103_F_P_sh_L_ND_A_05.c3d	103_F_P_sh_L_ND_A_05.c3d	103_F_P_sh_L_ND_A_05.c3d	103_F_P_sh_L_ND_A_05.c3d	103_F_P_sh_L_ND_A_05.c3d	103_F_P_sh_L_ND_A_05.c3d	103_F_P_sh_L_ND_A_05.c3d	103_F_P_sh_L_ND_A_08.c3d	103_F_P_sh_L_ND_A_08.c3d	103_F_P_sh_L_ND_A_08.c3d	103_F_P_sh_L_ND_A_08.c3d	103_F_P_sh_L_ND_A_08.c3d	103_F_P_sh_L_ND_A_08.c3d	103_F_P_sh_L_ND_A_08.c3d	103_F_P_sh_L_ND_A_08.c3d	103_F_P_sh_L_ND_A_10.c3d	103_F_P_sh_L_ND_A_10.c3d	103_F_P_sh_L_ND_A_10.c3d	103_F_P_sh_L_ND_A_10.c3d	103_F_P_sh_L_ND_A_10.c3d	103_F_P_sh_L_ND_A_10.c3d	103_F_P_sh_L_ND_A_10.c3d	103_F_P_sh_L_ND_A_10.c3d
	Biceps femoris_lat	Semitendinosus_lat	Vastus lateralis_lat	Vastus medialis_lat	Biceps femoris_med	Semitendinosus_med	Vastus lateralis_med	Vastus medialis_med	Biceps femoris_lat	Semitendinosus_lat	Vastus lateralis_lat	Vastus medialis_lat	Biceps femoris_med	Semitendinosus_med	Vastus lateralis_med	Vastus medialis_med	Biceps femoris_lat	Semitendinosus_lat	Vastus lateralis_lat	Vastus medialis_lat	Biceps femoris_med	Semitendinosus_med	Vastus lateralis_med	Vastus medialis_med	Biceps femoris_lat	Semitendinosus_lat	Vastus lateralis_lat	Vastus medialis_lat	Biceps femoris_med	Semitendinosus_med	Vastus lateralis_med	Vastus medialis_med	Biceps femoris_lat	Semitendinosus_lat	Vastus lateralis_lat	Vastus medialis_lat	Biceps femoris_med	Semitendinosus_med	Vastus lateralis_med	Vastus medialis_med	Biceps femoris_lat	Semitendinosus_lat	Vastus lateralis_lat	Vastus medialis_lat	Biceps femoris_med	Semitendinosus_med	Vastus lateralis_med	Vastus medialis_med
	P2D	P2D	P2D	P2D	P2D	P2D	P2D	P2D	P2D	P2D	P2D	P2D	P2D	P2D	P2D	P2D	P2D	P2D	P2D	P2D	P2D	P2D	P2D	P2D	P2D	P2D	P2D	P2D	P2D	P2D	P2D	P2D	P2D	P2D	P2D	P2D	P2D	P2D	P2D	P2D	P2D	P2D	P2D	P2D	P2D	P2D	P2D	P2D
	EMG_lat	EMG_lat	EMG_lat	EMG_lat	EMG_med	EMG_med	EMG_med	EMG_med	EMG_lat	EMG_lat	EMG_lat	EMG_lat	EMG_med	EMG_med	EMG_med	EMG_med	EMG_lat	EMG_lat	EMG_lat	EMG_lat	EMG_med	EMG_med	EMG_med	EMG_med	EMG_lat	EMG_lat	EMG_lat	EMG_lat	EMG_med	EMG_med	EMG_med	EMG_med	EMG_lat	EMG_lat	EMG_lat	EMG_lat	EMG_med	EMG_med	EMG_med	EMG_med	EMG_lat	EMG_lat	EMG_lat	EMG_lat	EMG_med	EMG_med	EMG_med	EMG_med
ITEM	Y	Y	Y	Y	Y	Y	Y	Y	Y	Y	Y	Y	Y	Y	Y	Y	Y	Y	Y	Y	Y	Y	Y	Y	Y	Y	Y	Y	Y	Y	Y	Y	Y	Y	Y	Y	Y	Y	Y	Y	Y	Y	Y	Y	Y	Y	Y	Y
1	0.653526	0.295369	0.297630	0.195854	0.287158	0.164905	0.581071	0.281036	0.443587	0.208210	0.372191	0.253573	0.188287	0.144719	0.491038	0.109790	0.584544	0.924695	0.412836	0.143198	0.289650	0.058570	0.181879	0.128587	0.444619	0.459852	0.491100	0.221872	0.286853	0.490941	0.255760	0.071756	0.525878	0.318146	0.330068	0.114450	0.306671	0.246195	0.233763	0.043424	0.598909	0.476031	0.419864	0.171037	0.255967	0.260132	0.231765	0.054889
2	0.647745	0.317368	0.297442	0.195226	0.307061	0.184914	0.581621	0.236173	0.439054	0.176108	0.381869	0.235948	0.256335	0.164810	0.529222	0.141770	0.585792	0.923342	0.377453	0.134318	0.318221	0.062317	0.169658	0.161080	0.439274	0.470201	0.497593	0.152148	0.234614	0.454974	0.285485	0.116681	0.525386	0.317863	0.330340	0.104791	0.207256	0.259908	0.201776	0.042000	0.616751	0.487113	0.410224	0.198082	0.252776	0.247472	0.213129	0.068408
3	0.622642	0.332846	0.294498	0.185965	0.340406	0.201929	0.558855	0.178147	0.430505	0.154266	0.401395	0.210225	0.265793	0.176319	0.546397	0.157909	0.584594	0.921997	0.349812	0.130467	0.344840	0.061914	0.164900	0.202194	0.437849	0.459723	0.497138	0.144901	0.272789	0.406486	0.285079	0.190805	0.523615	0.303543	0.329014	0.094977	0.292941	0.250759	0.197762	0.050166	0.648983	0.482030	0.405042	0.230846	0.261780	0.229537	0.207604	0.078497
4	0.598372	0.331948	0.295328	0.180246	0.341205	0.209030	0.526894	0.127352	0.395003	0.129842	0.408217	0.212216	0.263120	0.179357	0.548413	0.164302	0.584158	0.919290	0.338001	0.128237	0.347354	0.058826	0.159047	0.239846	0.465382	0.436106	0.498547	0.150023	0.260708	0.325415	0.283785	0.212251	0.510363	0.276458	0.324098	0.092798	0.326366	0.243279	0.314651	0.068208	0.561474	0.415594	0.506615	0.257581	0.270148	0.226036	0.205595	0.081269
5	0.597271	0.312734	0.284164	0.174442	0.342231	0.208737	0.485924	0.092458	0.330061	0.112418	0.408940	0.218578	0.259926	0.179707	0.547491	0.163851	0.559231	0.884874	0.336365	0.128045	0.402334	0.074215	0.158991	0.260583	0.490519	0.394685	0.516304	0.166308	0.301022	0.286473	0.285821	0.215618	0.476343	0.277575	0.320381	0.094402	0.385535	0.217236	0.408868	0.079098	0.486353	0.352033	0.551915	0.262648	0.269960	0.209106	0.226612	0.080844
6	0.559654	0.279078	0.275884	0.167782	0.341854	0.200839	0.473673	0.092761	0.348382	0.110657	0.404475	0.221819	0.248405	0.178478	0.546673	0.175032	0.506426	0.816014	0.339996	0.131267	0.432412	0.086522	0.224862	0.276837	0.503180	0.356305	0.536977	0.194095	0.336138	0.240934	0.282583	0.217229	0.426134	0.299218	0.316248	0.099487	0.524097	0.186422	0.490855	0.100202	0.470397	0.318848	0.530544	0.264505	0.268812	0.198458	0.238732	0.080618
7	0.387026	0.259813	0.276130	0.159504	0.340631	0.186745	0.473249	0.116069	0.363226	0.105250	0.384605	0.206981	0.242703	0.177202	0.538602	0.189272	0.489907	0.730217	0.341127	0.164056	0.454971	0.087778	0.296326	0.281445	0.487995	0.342157	0.549810	0.221244	0.335317	0.208426	0.294748	0.240387	0.404000	0.328547	0.264683	0.100206	0.526994	0.184817	0.614922	0.177108	0.484917	0.319765	0.521348	0.288516	0.263993	0.196378	0.247022	0.080036
8	0.291753	0.262267	0.244085	0.157280	0.344833	0.168734	0.468461	0.141211	0.343380	0.100692	0.373402	0.184434	0.243604	0.172517	0.525523	0.202426	0.490965	0.664930	0.353915	0.212295	0.456568	0.087309	0.299654	0.282893	0.480748	0.336893	0.537151	0.240363	0.342690	0.202910	0.300702	0.243551	0.410190	0.347982	0.219190	0.100169	0.540241	0.135872	0.647452	0.214501	0.492299	0.332137	0.546977	0.329324	0.261397	0.193635	0.246595	0.079563
9	0.295506	0.267114	0.216691	0.162779	0.380349	0.159679	0.434435	0.164625	0.330155	0.134918	0.350004	0.162154	0.250694	0.162518	0.509016	0.206906	0.501384	0.635777	0.394695	0.252423	0.456348	0.086987	0.300206	0.302310	0.475843	0.338560	0.511528	0.248219	0.354105	0.214233	0.260670	0.240765	0.427802	0.358611	0.202771	0.100991	0.566432	0.102617	0.649815	0.216904	0.495446	0.340309	0.579336	0.363083	0.250899	0.187826	0.239842	0.079913
10	0.295242	0.267715	0.213733	0.167772	0.400513	0.160135	0.386157	0.178851	0.260523	0.159079	0.329641	0.158307	0.258817	0.156564	0.501682	0.206982	0.407628	0.508226	0.425720	0.280953	0.459686	0.082615	0.319911	0.357731	0.451553	0.337843	0.517171	0.250486	0.391552	0.272844	0.219660	0.232139	0.400205	0.344279	0.193185	0.102849	0.506880	0.097825	0.692792	0.250564	0.479516	0.336232	0.603134	0.377363	0.237010	0.191908	0.245483	0.081284
11	0.297163	0.270899	0.220496	0.164015	0.400870	0.161617	0.375580	0.191643	0.259795	0.157470	0.302193	0.167581	0.259757	0.154825	0.502511	0.207093	0.366146	0.360883	0.472606	0.290087	0.466647	0.080933	0.358405	0.383778	0.423446	0.340763	0.519261	0.246321	0.363560	0.297810	0.214741	0.179411	0.351140	0.322958	0.198911	0.103289	0.504397	0.098000	0.671568	0.295648	0.444380	0.332820	0.601140	0.380692	0.251011	0.205942	0.247482	0.085406
12	0.328179	0.281405	0.266734	0.156361	0.376003	0.163093	0.381883	0.195562	0.255781	0.159950	0.282222	0.169488	0.257077	0.156636	0.498112	0.207156	0.370383	0.310284	0.485913	0.288406	0.464905	0.084035	0.396688	0.403803	0.418799	0.344548	0.499413	0.242146	0.388571	0.297930	0.238855	0.153785	0.282311	0.327264	0.186100	0.098222	0.387654	0.091979	0.637416	0.303552	0.449967	0.320082	0.588421	0.380690	0.246752	0.227405	0.255861	0.088637
13	0.348774	0.320627	0.261019	0.146515	0.338386	0.165164	0.377455	0.195971	0.244586	0.189944	0.245731	0.174999	0.260939	0.153786	0.476929	0.206957	0.377881	0.239507	0.500269	0.293044	0.447148	0.084558	0.414303	0.406767	0.437345	0.351290	0.468352	0.238350	0.366974	0.304788	0.249934	0.149560	0.263146	0.369652	0.169535	0.082279	0.263626	0.093062	0.529233	0.287595	0.450145	0.300461	0.582883	0.381174	0.211696	0.236985	0.283537	0.087835
14	0.381382	0.357515	0.253745	0.131534	0.311796	0.172331	0.364931	0.203994	0.319354	0.242602	0.214538	0.179358	0.265492	0.144205	0.410944	0.203413	0.399067	0.192735	0.501917	0.315041	0.419223	0.082259	0.423783	0.393348	0.474749	0.355208	0.431552	0.237757	0.327363	0.347337	0.287655	0.147198	0.275630	0.393886	0.190417	0.071191	0.260967	0.075672	0.416959	0.247306	0.432732	0.274753	0.583026	0.375042	0.214519	0.232631	0.305402	0.091646
15	0.421805	0.377376	0.265853	0.123654	0.314071	0.182844	0.366833	0.223674	0.374998	0.259381	0.204329	0.198484	0.231140	0.122079	0.318190	0.183865	0.436521	0.191077	0.516098	0.336950	0.391722	0.080435	0.424951	0.375635	0.510480	0.350442	0.392351	0.237460	0.332030	0.385688	0.280973	0.118333	0.276621	0.406126	0.284146	0.082177	0.219818	0.071073	0.379322	0.234566	0.390765	0.257747	0.579270	0.352560	0.217118	0.231462	0.320538	0.101527
16	0.418845	0.387170	0.316519	0.122150	0.333677	0.182547	0.382056	0.247152	0.365043	0.260756	0.199578	0.230441	0.169529	0.096855	0.270954	0.157520	0.471807	0.198278	0.541434	0.348786	0.390225	0.081107	0.429000	0.350675	0.532055	0.341818	0.378721	0.246144	0.346658	0.382249	0.283753	0.154023	0.336450	0.413623	0.339946	0.101695	0.143423	0.065561	0.362906	0.235870	0.321312	0.263893	0.545687	0.321577	0.220129	0.227822	0.302862	0.117436
17	0.391992	0.379204	0.360197	0.124705	0.352493	0.171778	0.389632	0.266278	0.338526	0.260215	0.205084	0.230907	0.178886	0.089398	0.245402	0.139079	0.489383	0.200025	0.572406	0.355209	0.347431	0.076387	0.434120	0.331843	0.553754	0.334690	0.385240	0.253529	0.344600	0.361280	0.369902	0.262660	0.366459	0.413589	0.343137	0.109847	0.131641	0.067306	0.186901	0.179259	0.315638	0.274887	0.444244	0.299361	0.229384	0.228671	0.321122	0.121673
18	0.365449	0.364338	0.380533	0.129786	0.415641	0.165112	0.389249	0.278958	0.327807	0.262411	0.207266	0.232339	0.219208	0.088841	0.250809	0.130782	0.491657	0.198592	0.610914	0.359818	0.241037	0.073514	0.423085	0.317691	0.558841	0.329299	0.416483	0.257975	0.286529	0.315257	0.399924	0.306752	0.376603	0.411440	0.345459	0.113600	0.110863	0.080811	0.124317	0.102063	0.316690	0.284624	0.396487	0.298227	0.248548	0.251985	0.400581	0.120457
19	0.363122	0.354591	0.375469	0.130801	0.468224	0.161938	0.385277	0.284723	0.337695	0.270084	0.186728	0.230942	0.232853	0.089734	0.275038	0.129231	0.493406	0.196553	0.632908	0.360920	0.169848	0.076555	0.372135	0.311482	0.527878	0.322375	0.443722	0.258460	0.404172	0.288618	0.410050	0.302803	0.381666	0.403416	0.345180	0.112764	0.095717	0.080431	0.126961	0.089138	0.318136	0.288927	0.397453	0.293691	0.377601	0.283611	0.425739	0.123512
20	0.369730	0.343964	0.372247	0.132614	0.475491	0.158658	0.385514	0.287228	0.341340	0.258434	0.183921	0.223732	0.233691	0.095140	0.289966	0.109513	0.493632	0.194848	0.641799	0.361737	0.159802	0.076739	0.366544	0.312701	0.486827	0.327928	0.446790	0.252789	0.432165	0.289232	0.507336	0.332373	0.391787	0.383757	0.345041	0.108261	0.100371	0.079669	0.125079	0.093226	0.315038	0.276816	0.378456	0.263445	0.478249	0.313979	0.416364	0.124871
21	0.382477	0.334023	0.371890	0.137299	0.482328	0.162945	0.388272	0.280952	0.363177	0.248149	0.181924	0.211026	0.297909	0.098407	0.294358	0.080608	0.485570	0.191317	0.651838	0.359321	0.161501	0.076365	0.365613	0.305064	0.473131	0.338855	0.435605	0.236604	0.428050	0.293673	0.575166	0.361414	0.384732	0.354018	0.347657	0.108968	0.102726	0.077652	0.104195	0.085364	0.289590	0.250395	0.318141	0.207565	0.532188	0.333271	0.419129	0.125082
22	0.401913	0.332853	0.371484	0.140912	0.498728	0.180153	0.396106	0.270859	0.380243	0.246556	0.195363	0.204935	0.409935	0.113403	0.280690	0.050950	0.448236	0.190675	0.661740	0.342939	0.151081	0.083246	0.351217	0.240058	0.514491	0.355364	0.404294	0.210956	0.456204	0.258132	0.576610	0.407219	0.366055	0.320887	0.347470	0.115902	0.097837	0.067286	0.127358	0.073860	0.280005	0.220150	0.244108	0.150166	0.544223	0.340706	0.442388	0.125181
23	0.407676	0.330902	0.368246	0.141728	0.503161	0.198880	0.395269	0.258297	0.383732	0.236048	0.222132	0.204836	0.444162	0.114541	0.271274	0.058008	0.399915	0.191206	0.656864	0.311479	0.131728	0.087247	0.318329	0.187807	0.533461	0.383481	0.386402	0.182177	0.499374	0.201108	0.565809	0.433900	0.352620	0.300583	0.344422	0.126565	0.089188	0.067341	0.210504	0.145387	0.295811	0.191264	0.204856	0.121775	0.607383	0.342647	0.463994	0.125092
24	0.402770	0.328333	0.364657	0.137345	0.497555	0.205806	0.387657	0.252670	0.369935	0.196877	0.205388	0.195241	0.439211	0.117738	0.302630	0.076940	0.382584	0.189211	0.617916	0.277158	0.123301	0.102100	0.276707	0.135124	0.549135	0.404114	0.394949	0.165566	0.497086	0.197708	0.579799	0.431570	0.352718	0.300488	0.360584	0.135934	0.122363	0.061287	0.224470	0.189655	0.294191	0.182335	0.212466	0.115410	0.734728	0.351459	0.467322	0.124947
25	0.399713	0.342024	0.366483	0.132075	0.497704	0.204610	0.364380	0.247873	0.305309	0.139660	0.171502	0.178142	0.451646	0.141398	0.328873	0.084444	0.387117	0.182398	0.567671	0.249971	0.157157	0.103473	0.223171	0.093848	0.552017	0.404467	0.385743	0.155170	0.509823	0.199248	0.569673	0.467401	0.349196	0.303272	0.377917	0.139879	0.200671	0.054795	0.260378	0.215733	0.280508	0.184296	0.233034	0.110221	0.761946	0.354740	0.487524	0.126019
26	0.397258	0.371938	0.367233	0.132861	0.526391	0.205557	0.349338	0.246270	0.306640	0.144522	0.162766	0.129013	0.490782	0.171573	0.340311	0.086921	0.410423	0.175151	0.521743	0.243239	0.207288	0.103740	0.202394	0.094748	0.551544	0.400856	0.389290	0.154223	0.519690	0.186342	0.545180	0.451018	0.345984	0.270972	0.393421	0.140190	0.218219	0.058220	0.395816	0.310975	0.295875	0.181361	0.223272	0.109147	0.759520	0.364829	0.513204	0.126695
27	0.383157	0.382537	0.343150	0.130352	0.542364	0.205925	0.345985	0.246608	0.324474	0.171190	0.161732	0.076457	0.547431	0.196735	0.340664	0.087554	0.478734	0.173740	0.501945	0.245849	0.211611	0.111101	0.218619	0.096142	0.546584	0.396527	0.389660	0.155206	0.450006	0.165133	0.541835	0.463049	0.347629	0.224479	0.404005	0.142423	0.304644	0.061949	0.439982	0.332599	0.297120	0.169528	0.225622	0.112747	0.762247	0.391231	0.513003	0.125443
28	0.362958	0.359175	0.318633	0.119349	0.542586	0.202465	0.339207	0.244993	0.314971	0.193793	0.161828	0.066095	0.595077	0.230041	0.335365	0.096414	0.508889	0.172601	0.508963	0.237057	0.229550	0.119025	0.215108	0.096478	0.534064	0.388099	0.390131	0.153282	0.370815	0.163459	0.461237	0.464753	0.361815	0.198450	0.385954	0.140320	0.379830	0.055233	0.484678	0.347788	0.281264	0.162339	0.218621	0.124328	0.763265	0.404108	0.500035	0.125132
29	0.333454	0.323583	0.315176	0.113442	0.540011	0.191734	0.310311	0.233050	0.362679	0.194084	0.157421	0.041829	0.604911	0.264757	0.331107	0.115837	0.495180	0.160793	0.571840	0.212398	0.246091	0.129224	0.203689	0.101003	0.511912	0.370488	0.389733	0.148996	0.365305	0.152724	0.342843	0.439766	0.391743	0.182798	0.315018	0.131133	0.381671	0.057388	0.541055	0.367512	0.279344	0.146831	0.215094	0.138554	0.765832	0.416599	0.484712	0.121076
30	0.279137	0.290142	0.323531	0.121022	0.532724	0.174541	0.258923	0.214493	0.375061	0.176421	0.157347	0.047259	0.612196	0.266228	0.346685	0.140966	0.463657	0.140799	0.601015	0.193957	0.248095	0.124739	0.199286	0.116033	0.480779	0.343527	0.386675	0.144197	0.342277	0.141078	0.307170	0.396836	0.413219	0.170078	0.274108	0.117710	0.398478	0.082462	0.525323	0.335619	0.287221	0.125718	0.210710	0.157365	0.769368	0.422485	0.468921	0.110206
31	0.265065	0.263249	0.296143	0.137040	0.507361	0.162006	0.217809	0.186061	0.370196	0.173035	0.162948	0.065231	0.645837	0.278444	0.358312	0.187078	0.423314	0.127806	0.595508	0.208521	0.267101	0.130312	0.194691	0.118339	0.438989	0.313548	0.377993	0.126803	0.274581	0.150212	0.313704	0.368643	0.459297	0.171425	0.316230	0.115052	0.414988	0.109665	0.524217	0.332983	0.283377	0.121648	0.233873	0.173525	0.764294	0.423181	0.468165	0.087406
32	0.269844	0.248625	0.250761	0.154252	0.459223	0.154577	0.210029	0.164176	0.361573	0.174757	0.161457	0.079278	0.654276	0.307894	0.351253	0.224719	0.400620	0.126157	0.582411	0.245648	0.265798	0.172248	0.213501	0.110480	0.396327	0.288444	0.362783	0.106596	0.245595	0.146075	0.291412	0.366924	0.468003	0.187694	0.419058	0.122842	0.381255	0.111709	0.485935	0.294148	0.260960	0.125417	0.243664	0.172486	0.759550	0.419589	0.443718	0.071279
33	0.281638	0.244042	0.203940	0.166804	0.391080	0.152677	0.220223	0.150250	0.363789	0.178552	0.118873	0.086460	0.653223	0.348602	0.330207	0.255276	0.399521	0.126557	0.584459	0.277595	0.264616	0.186531	0.219762	0.120431	0.366282	0.270851	0.327419	0.093954	0.185598	0.138557	0.210343	0.288093	0.463157	0.202220	0.485371	0.132344	0.390564	0.116693	0.421818	0.205489	0.248766	0.128434	0.241396	0.173135	0.746037	0.400982	0.367441	0.061962
34	0.297550	0.241470	0.196426	0.176498	0.360627	0.153738	0.288381	0.155127	0.369272	0.181957	0.105415	0.085642	0.650289	0.368074	0.313104	0.274697	0.400455	0.126438	0.585064	0.302987	0.269847	0.185226	0.219545	0.136837	0.361258	0.266245	0.287557	0.087969	0.139442	0.140102	0.189352	0.243372	0.461982	0.208490	0.520610	0.133888	0.301304	0.133185	0.399171	0.191459	0.249659	0.129167	0.249005	0.189936	0.682041	0.373095	0.344490	0.053192
35	0.308654	0.249912	0.207934	0.182818	0.380230	0.153446	0.304489	0.151356	0.411558	0.190153	0.125992	0.088757	0.609355	0.375794	0.300773	0.275532	0.408771	0.124627	0.575440	0.323867	0.275800	0.190558	0.217324	0.142755	0.360922	0.261472	0.252310	0.084661	0.179775	0.139674	0.184032	0.209421	0.555048	0.211223	0.523773	0.134888	0.268166	0.142561	0.304875	0.135006	0.263138	0.129267	0.260706	0.217667	0.620187	0.348009	0.345684	0.058351
36	0.355882	0.264770	0.214263	0.186087	0.400108	0.139117	0.293044	0.167195	0.423903	0.201077	0.168673	0.098544	0.542490	0.373994	0.299567	0.278191	0.422724	0.122327	0.564531	0.333605	0.283203	0.196791	0.222020	0.142512	0.357997	0.246342	0.225032	0.078584	0.191536	0.141378	0.186381	0.212455	0.668160	0.216732	0.524277	0.146500	0.267459	0.146188	0.226949	0.097591	0.250924	0.136862	0.258121	0.247265	0.579378	0.333336	0.344361	0.069414
37	0.366322	0.268446	0.216747	0.183238	0.404772	0.116929	0.286524	0.169807	0.412399	0.193386	0.181511	0.106342	0.542596	0.376345	0.288577	0.290590	0.433151	0.120146	0.556073	0.333004	0.284043	0.201177	0.232607	0.143497	0.302622	0.229175	0.228316	0.084448	0.230495	0.142482	0.178053	0.200948	0.706960	0.223631	0.552142	0.162200	0.276601	0.143443	0.223343	0.089944	0.296469	0.139618	0.253491	0.264194	0.576087	0.333662	0.316477	0.080927
38	0.413152	0.267777	0.221708	0.178591	0.380003	0.086481	0.285297	0.164486	0.423257	0.170686	0.186772	0.109102	0.561774	0.374552	0.264430	0.304117	0.440113	0.120696	0.552219	0.332879	0.243498	0.211321	0.238846	0.142976	0.255494	0.188090	0.227674	0.112824	0.232670	0.144365	0.182494	0.206705	0.718869	0.221354	0.567392	0.171084	0.253774	0.150626	0.222218	0.058835	0.334911	0.137613	0.232972	0.269000	0.497880	0.338428	0.291220	0.092363
39	0.460540	0.266779	0.250963	0.174882	0.371603	0.083575	0.285356	0.156414	0.402905	0.156204	0.191164	0.115488	0.549351	0.365068	0.256135	0.320330	0.446475	0.120279	0.556551	0.335287	0.245801	0.219242	0.221952	0.139959	0.213871	0.123878	0.211259	0.135244	0.225595	0.123793	0.171846	0.196049	0.722860	0.216619	0.563979	0.176159	0.251445	0.155937	0.213846	0.063501	0.321886	0.136950	0.224928	0.269040	0.324939	0.334155	0.287677	0.099378
40	0.466494	0.255271	0.285983	0.173360	0.355478	0.079155	0.288134	0.163121	0.346633	0.160966	0.208960	0.158559	0.515697	0.350015	0.262186	0.336466	0.451384	0.119915	0.569860	0.342667	0.262802	0.220348	0.218790	0.136991	0.207775	0.107083	0.226136	0.152776	0.227797	0.098147	0.168751	0.167359	0.720978	0.206620	0.558246	0.176918	0.247913	0.170829	0.184596	0.066881	0.321509	0.136959	0.226976	0.266743	0.297745	0.326572	0.238105	0.097347
41	0.468083	0.210365	0.334404	0.171821	0.313296	0.073343	0.302186	0.178045	0.339650	0.163310	0.225034	0.167351	0.461314	0.335715	0.265383	0.353963	0.433056	0.109925	0.594463	0.353675	0.296886	0.218058	0.230814	0.135292	0.232515	0.101793	0.210515	0.156142	0.236737	0.077384	0.177545	0.150446	0.710997	0.180757	0.553216	0.175239	0.360390	0.181538	0.199953	0.064008	0.328337	0.135041	0.217612	0.261161	0.297826	0.299612	0.210454	0.094856
42	0.479468	0.167623	0.362645	0.170636	0.309358	0.072388	0.322130	0.188952	0.339451	0.160927	0.251863	0.161767	0.413969	0.308354	0.261145	0.364746	0.351508	0.084950	0.639537	0.372947	0.311376	0.218984	0.267003	0.122590	0.249513	0.091156	0.202135	0.154709	0.225095	0.078898	0.180877	0.147577	0.694882	0.164441	0.554657	0.180720	0.372967	0.178996	0.325319	0.097644	0.327475	0.138262	0.208358	0.254565	0.290631	0.247635	0.214054	0.095554
43	0.486906	0.158892	0.364485	0.176082	0.310804	0.076675	0.348673	0.191723	0.322543	0.165486	0.251765	0.154858	0.409548	0.285510	0.250352	0.365237	0.298061	0.056113	0.638217	0.398028	0.292274	0.216063	0.283248	0.111593	0.271165	0.088270	0.202510	0.165106	0.216675	0.116147	0.175026	0.135696	0.670201	0.159689	0.559778	0.190661	0.363070	0.171341	0.373022	0.138442	0.323737	0.163384	0.210957	0.241457	0.295631	0.216982	0.218427	0.097988
44	0.489861	0.157445	0.365365	0.186380	0.310000	0.079038	0.350498	0.207928	0.323605	0.175609	0.255655	0.164837	0.382447	0.287349	0.237632	0.358387	0.311154	0.042852	0.589099	0.418155	0.296145	0.189739	0.267808	0.112049	0.286438	0.086305	0.228668	0.192779	0.265326	0.153782	0.171224	0.110291	0.626363	0.160427	0.560105	0.214381	0.330507	0.152267	0.375924	0.182913	0.320660	0.183237	0.182973	0.230369	0.280335	0.188055	0.222158	0.099657
45	0.490015	0.162430	0.360052	0.193106	0.316094	0.081554	0.346645	0.233980	0.295691	0.176040	0.290139	0.189091	0.309493	0.290361	0.224886	0.334493	0.334445	0.060657	0.551644	0.426334	0.327829	0.166151	0.254216	0.108869	0.273187	0.089207	0.294500	0.221972	0.247741	0.159862	0.178921	0.114490	0.598950	0.162907	0.528931	0.259349	0.327139	0.139001	0.376101	0.203950	0.310874	0.188197	0.182761	0.230725	0.269614	0.172137	0.224803	0.099533
46	0.479785	0.166302	0.351295	0.200934	0.357782	0.078647	0.347199	0.253314	0.267023	0.165272	0.292248	0.201857	0.294760	0.280986	0.223107	0.312844	0.350404	0.091810	0.528864	0.416719	0.358627	0.164495	0.268300	0.085394	0.266019	0.104517	0.344350	0.237749	0.239934	0.156064	0.171219	0.134820	0.611199	0.156183	0.451907	0.296667	0.320320	0.129838	0.361400	0.226001	0.310272	0.189615	0.183968	0.228274	0.269316	0.168770	0.229156	0.098698
47	0.474635	0.167391	0.338049	0.203780	0.369922	0.066674	0.394129	0.264472	0.229297	0.151097	0.284056	0.198609	0.298203	0.239623	0.222689	0.291725	0.351534	0.122329	0.501604	0.392048	0.361402	0.158838	0.318893	0.075637	0.260057	0.127139	0.387049	0.244645	0.253571	0.174154	0.187945	0.149178	0.628203	0.153330	0.390970	0.318229	0.298145	0.090460	0.354717	0.256429	0.307017	0.191650	0.171149	0.211369	0.270119	0.168576	0.232259	0.103952
48	0.474538	0.165967	0.340340	0.203029	0.372252	0.068227	0.429002	0.261140	0.216726	0.143303	0.286129	0.206426	0.298470	0.217308	0.233242	0.282737	0.349085	0.140624	0.451419	0.366445	0.359957	0.144869	0.347884	0.084229	0.259236	0.163457	0.400004	0.247112	0.297916	0.194265	0.178982	0.155663	0.627187	0.154398	0.360842	0.329351	0.084097	0.057353	0.344277	0.345436	0.301801	0.192837	0.156126	0.177137	0.267684	0.166421	0.232629	0.116035
49	0.467252	0.175863	0.340428	0.200033	0.362939	0.068818	0.420659	0.266439	0.200651	0.143095	0.300476	0.258735	0.313941	0.215079	0.242003	0.285410	0.346259	0.157058	0.431946	0.345521	0.377575	0.141555	0.366237	0.093437	0.259333	0.195527	0.409327	0.248007	0.294453	0.235959	0.185428	0.152181	0.519937	0.151237	0.359214	0.328041	0.112868	0.053875	0.312452	0.410210	0.315986	0.184403	0.150194	0.134057	0.267848	0.161126	0.232493	0.125314
50	0.465806	0.217062	0.335411	0.195719	0.327776	0.073805	0.420674	0.279728	0.199506	0.133767	0.314707	0.294297	0.351493	0.215631	0.241254	0.278968	0.335763	0.162156	0.431206	0.326678	0.469894	0.167863	0.365751	0.092219	0.263283	0.210414	0.409691	0.247397	0.303078	0.244133	0.181076	0.151717	0.387372	0.144067	0.337834	0.318016	0.128131	0.053470	0.306625	0.403577	0.298090	0.181309	0.182271	0.112411	0.272460	0.149794	0.223468	0.127312
51	0.423379	0.293530	0.329414	0.189402	0.299245	0.072936	0.423950	0.283053	0.199453	0.129988	0.309946	0.281667	0.350133	0.213748	0.240193	0.261535	0.328223	0.163387	0.432527	0.322254	0.502665	0.210095	0.389597	0.090588	0.271552	0.217266	0.412686	0.250794	0.296760	0.234620	0.173941	0.158697	0.330579	0.131983	0.270695	0.306092	0.124881	0.053286	0.312686	0.386487	0.257003	0.188528	0.202829	0.118990	0.265155	0.132458	0.209399	0.122061
52	0.409653	0.366810	0.328434	0.187331	0.306227	0.073821	0.420861	0.286556	0.196957	0.124928	0.285515	0.292518	0.333250	0.213000	0.232181	0.241184	0.316813	0.165471	0.439099	0.328256	0.491777	0.222313	0.420860	0.093096	0.269222	0.216745	0.409694	0.253079	0.242972	0.207910	0.179767	0.169452	0.309060	0.129763	0.215113	0.297753	0.203384	0.056325	0.309767	0.375735	0.271427	0.194808	0.213962	0.140004	0.257630	0.107354	0.195946	0.117265
53	0.378573	0.420676	0.325816	0.189867	0.316340	0.072001	0.420685	0.292670	0.181830	0.123063	0.287677	0.335387	0.329455	0.212156	0.216984	0.219295	0.306748	0.171798	0.465874	0.336247	0.470701	0.229269	0.455751	0.100407	0.272046	0.227834	0.404860	0.246035	0.255657	0.203227	0.179412	0.170401	0.304851	0.130840	0.196358	0.295542	0.232588	0.052782	0.335286	0.374042	0.276348	0.204688	0.208790	0.150509	0.229749	0.074545	0.195735	0.116988
54	0.324101	0.453324	0.311529	0.194442	0.305574	0.072488	0.417560	0.295101	0.171874	0.112401	0.312695	0.380382	0.315866	0.212557	0.197682	0.192014	0.294966	0.197184	0.491890	0.334254	0.469164	0.234399	0.449778	0.106418	0.279348	0.246872	0.404663	0.236579	0.250502	0.209889	0.194454	0.152295	0.307819	0.130536	0.184247	0.297549	0.240807	0.078165	0.368605	0.349756	0.265102	0.218805	0.207078	0.153183	0.185338	0.036063	0.211525	0.124653
55	0.320757	0.457164	0.319338	0.207289	0.295027	0.076784	0.414752	0.286188	0.180290	0.091829	0.322548	0.401701	0.313647	0.212724	0.198441	0.159559	0.281875	0.214470	0.491186	0.325349	0.505832	0.235636	0.428995	0.106925	0.283844	0.262508	0.389320	0.232081	0.252864	0.201045	0.181031	0.132425	0.308952	0.133873	0.184264	0.298315	0.253458	0.114189	0.341828	0.239134	0.271785	0.243450	0.200522	0.150802	0.145019	0.026226	0.214140	0.128698
56	0.323474	0.459511	0.354584	0.227110	0.302424	0.083162	0.414464	0.273290	0.171609	0.080438	0.303646	0.397573	0.319018	0.212675	0.200276	0.148628	0.276701	0.219583	0.458393	0.313655	0.555576	0.235760	0.430680	0.106271	0.314211	0.274571	0.384167	0.251182	0.217607	0.189748	0.179827	0.127087	0.331294	0.149332	0.177331	0.299616	0.243481	0.121650	0.265328	0.141740	0.277758	0.289071	0.194248	0.150623	0.141643	0.026382	0.187414	0.130084
57	0.318098	0.481485	0.394303	0.239684	0.315513	0.084833	0.402780	0.271535	0.145005	0.076904	0.302757	0.393164	0.324403	0.212172	0.196457	0.160712	0.277409	0.223062	0.391893	0.296592	0.578026	0.239356	0.443902	0.099506	0.358450	0.295808	0.401756	0.309493	0.211642	0.130876	0.158545	0.134001	0.388158	0.166773	0.172490	0.317316	0.245807	0.146730	0.225115	0.135872	0.295767	0.362120	0.188124	0.157114	0.140522	0.025962	0.191782	0.128896
58	0.347343	0.539705	0.413799	0.245608	0.326271	0.083029	0.390328	0.264004	0.178448	0.078968	0.291763	0.394956	0.324468	0.203203	0.184217	0.167686	0.270319	0.228314	0.360089	0.266967	0.558796	0.252733	0.468511	0.097376	0.389135	0.319698	0.461310	0.368594	0.197892	0.105226	0.143143	0.134006	0.429210	0.173579	0.237482	0.359385	0.239855	0.172399	0.234045	0.133676	0.300838	0.420346	0.179690	0.168991	0.118062	0.023815	0.193834	0.127069
59	0.361430	0.583677	0.414708	0.242027	0.323873	0.079178	0.389731	0.242637	0.188609	0.079710	0.280453	0.390016	0.319665	0.161591	0.175864	0.172594	0.228085	0.230754	0.347604	0.238121	0.571397	0.281333	0.449787	0.094096	0.389029	0.333340	0.513130	0.406156	0.186146	0.104637	0.147245	0.130801	0.430457	0.167245	0.297523	0.399149	0.160065	0.192287	0.227323	0.119625	0.341406	0.438222	0.199472	0.163840	0.114938	0.024074	0.195730	0.126898
60	0.370132	0.601375	0.423746	0.234622	0.294866	0.077888	0.388634	0.218436	0.188425	0.076939	0.259093	0.369859	0.314361	0.108756	0.177668	0.168780	0.194571	0.225656	0.344184	0.246973	0.609611	0.307812	0.417956	0.082512	0.400960	0.340369	0.510033	0.416496	0.188834	0.105397	0.148741	0.117334	0.406570	0.152574	0.345584	0.441408	0.154286	0.198354	0.165678	0.095784	0.392734	0.439492	0.250744	0.158328	0.115689	0.023959	0.193767	0.131173
61	0.415568	0.607392	0.436552	0.221847	0.255753	0.077730	0.368192	0.211447	0.203569	0.086045	0.239638	0.357669	0.312839	0.108745	0.172168	0.164538	0.186455	0.213952	0.352085	0.301760	0.628377	0.325469	0.390687	0.067675	0.403388	0.337739	0.479847	0.408512	0.148113	0.098922	0.148360	0.096473	0.380179	0.140478	0.358135	0.463623	0.161112	0.180140	0.104250	0.071234	0.401383	0.480819	0.280727	0.161172	0.115686	0.024722	0.184355	0.140940
62	0.435555	0.609596	0.474766	0.206501	0.254279	0.075411	0.299709	0.213766	0.222122	0.094769	0.237224	0.356214	0.316359	0.107908	0.156428	0.162917	0.212659	0.198150	0.375403	0.342457	0.585046	0.319323	0.394625	0.066023	0.404490	0.332124	0.442518	0.415399	0.147819	0.082716	0.131810	0.083455	0.361901	0.134503	0.364325	0.467591	0.142196	0.164577	0.115948	0.053508	0.393986	0.556626	0.397025	0.168059	0.114371	0.028168	0.175572	0.148159
63	0.433630	0.610249	0.499123	0.192293	0.255334	0.073376	0.218117	0.219967	0.227082	0.096056	0.232669	0.336274	0.303938	0.095757	0.156737	0.158424	0.221073	0.185379	0.401799	0.352939	0.544888	0.287734	0.376010	0.065214	0.408543	0.321844	0.429181	0.460643	0.132427	0.063580	0.107427	0.080204	0.354057	0.134328	0.362671	0.467980	0.174777	0.162911	0.115486	0.046698	0.401691	0.662516	0.503558	0.173142	0.114602	0.029178	0.176374	0.144217
64	0.428491	0.608816	0.505170	0.182068	0.270847	0.069276	0.211431	0.200508	0.232157	0.093735	0.207931	0.296590	0.274141	0.089941	0.164473	0.158744	0.219263	0.173888	0.403926	0.353648	0.545971	0.268929	0.341653	0.064520	0.421136	0.308049	0.431282	0.534698	0.104205	0.049027	0.107877	0.072074	0.353818	0.132245	0.362929	0.481251	0.168411	0.134103	0.125424	0.047864	0.452062	0.707343	0.510691	0.167775	0.109968	0.028029	0.176456	0.136230
65	0.424910	0.597285	0.506904	0.176824	0.275791	0.071533	0.210323	0.183053	0.249511	0.097509	0.165850	0.239825	0.252865	0.089620	0.169677	0.159530	0.219797	0.175377	0.404253	0.366504	0.553695	0.259550	0.291268	0.059591	0.440042	0.296594	0.439835	0.594077	0.118345	0.047159	0.108692	0.054053	0.356015	0.130384	0.362775	0.509093	0.170835	0.096896	0.128823	0.046231	0.559178	0.719666	0.519476	0.154322	0.094120	0.027266	0.176797	0.131621
66	0.419824	0.562304	0.511208	0.177251	0.295734	0.092482	0.219398	0.187857	0.251346	0.113114	0.168924	0.222362	0.251763	0.089529	0.153704	0.157059	0.208291	0.182215	0.401096	0.414139	0.542553	0.250382	0.259555	0.046006	0.467819	0.292760	0.441924	0.624001	0.129431	0.055542	0.111667	0.051282	0.364515	0.130796	0.362659	0.532040	0.195521	0.077192	0.203389	0.046588	0.656019	0.724050	0.577373	0.146829	0.090562	0.025889	0.175516	0.133545
67	0.413448	0.512341	0.520948	0.178467	0.308784	0.109095	0.223233	0.195079	0.250078	0.126610	0.206358	0.303092	0.250340	0.091650	0.181211	0.154918	0.239337	0.186260	0.385249	0.490642	0.516134	0.249085	0.269715	0.043568	0.519564	0.294902	0.455288	0.644145	0.151657	0.068364	0.118280	0.050564	0.372049	0.133203	0.362705	0.549067	0.214656	0.116750	0.335939	0.034813	0.667954	0.719780	0.624454	0.144634	0.087147	0.028126	0.190225	0.135211
68	0.412472	0.465483	0.525990	0.176553	0.309644	0.114258	0.227403	0.193160	0.246231	0.127174	0.245163	0.391871	0.260351	0.105818	0.202035	0.154621	0.297211	0.184407	0.375449	0.549645	0.474661	0.251175	0.271496	0.042920	0.570435	0.289215	0.486780	0.655873	0.166308	0.078197	0.199315	0.047931	0.398503	0.134760	0.375991	0.564587	0.238566	0.150151	0.362740	0.035091	0.671370	0.709339	0.629206	0.144038	0.151171	0.030675	0.188979	0.130200
69	0.407385	0.425631	0.526769	0.172248	0.325578	0.113432	0.224846	0.196151	0.235145	0.125148	0.264060	0.417498	0.297517	0.119619	0.201359	0.150193	0.363222	0.159308	0.436824	0.592158	0.439173	0.254405	0.254599	0.043415	0.587853	0.273909	0.531341	0.660791	0.168675	0.081203	0.255781	0.045643	0.435989	0.128917	0.392828	0.580163	0.229515	0.160832	0.459918	0.034995	0.686462	0.685175	0.636791	0.144039	0.231205	0.031998	0.171456	0.120462
70	0.400539	0.416211	0.514974	0.161437	0.340454	0.112404	0.208033	0.202611	0.230594	0.123977	0.262410	0.406614	0.306599	0.122895	0.204557	0.126004	0.429628	0.137960	0.513438	0.610187	0.432372	0.251153	0.223230	0.053652	0.589759	0.256370	0.565500	0.661250	0.193630	0.097487	0.258601	0.040714	0.452285	0.111785	0.409341	0.588814	0.218888	0.176196	0.535034	0.034003	0.703609	0.647571	0.644363	0.133293	0.288557	0.032282	0.187573	0.115459
71	0.398953	0.415408	0.479541	0.131634	0.340067	0.116900	0.196895	0.203941	0.231649	0.122880	0.268116	0.427791	0.314058	0.123544	0.204025	0.097016	0.445751	0.135718	0.599097	0.613377	0.417840	0.228733	0.217297	0.073003	0.574445	0.244267	0.587494	0.655523	0.206475	0.116139	0.345850	0.040378	0.434330	0.103995	0.448099	0.580070	0.227535	0.197597	0.549607	0.023039	0.710190	0.621724	0.653971	0.115233	0.313405	0.036643	0.225632	0.115217
72	0.405478	0.399757	0.453835	0.102409	0.337208	0.116274	0.239887	0.210746	0.246167	0.121147	0.278815	0.499500	0.318125	0.124049	0.212760	0.089167	0.450924	0.136567	0.654333	0.610247	0.362476	0.193546	0.245346	0.079841	0.559646	0.220939	0.586513	0.635004	0.212185	0.124382	0.422850	0.039894	0.396161	0.100864	0.461924	0.544189	0.216408	0.208397	0.543512	0.015987	0.697663	0.614732	0.651488	0.111170	0.320020	0.052696	0.245710	0.122067
73	0.386587	0.330558	0.444970	0.077399	0.342197	0.141541	0.288183	0.228711	0.318505	0.115789	0.350227	0.545997	0.315093	0.124203	0.215448	0.106401	0.483893	0.140745	0.673938	0.607639	0.351255	0.158934	0.247591	0.084568	0.588712	0.186156	0.551048	0.602638	0.213901	0.127681	0.436411	0.037624	0.403059	0.100932	0.464931	0.491768	0.210135	0.200140	0.508503	0.011569	0.745284	0.610878	0.638688	0.110909	0.362994	0.061591	0.255346	0.131736
74	0.368876	0.232660	0.445260	0.065633	0.351394	0.159600	0.310227	0.255673	0.361744	0.117377	0.428713	0.562878	0.312316	0.123007	0.213701	0.130964	0.543894	0.148955	0.675678	0.605835	0.353329	0.135092	0.242001	0.085668	0.601406	0.155814	0.504347	0.573036	0.204315	0.127485	0.435355	0.033205	0.431271	0.110002	0.448419	0.434747	0.145740	0.177679	0.433324	0.011327	0.762145	0.570366	0.626833	0.103464	0.384127	0.062778	0.251746	0.134405
75	0.387656	0.163119	0.436467	0.065361	0.357173	0.173063	0.315123	0.273654	0.370727	0.121947	0.496758	0.563610	0.313403	0.115662	0.215891	0.148554	0.623629	0.157542	0.686234	0.600066	0.353806	0.128814	0.259175	0.092249	0.603517	0.135831	0.488694	0.557009	0.191951	0.120210	0.435276	0.025448	0.472880	0.120275	0.435636	0.402554	0.148018	0.154248	0.423909	0.013243	0.770600	0.486356	0.548208	0.083136	0.389127	0.062828	0.261859	0.130090
76	0.355782	0.134965	0.434828	0.072347	0.354301	0.183293	0.315327	0.274207	0.427853	0.113377	0.499833	0.564398	0.310713	0.102674	0.224542	0.169005	0.651982	0.157624	0.719530	0.599358	0.352397	0.129792	0.304424	0.100102	0.608949	0.132968	0.498888	0.560198	0.172787	0.115058	0.426633	0.022341	0.523735	0.142362	0.432452	0.396265	0.162743	0.147383	0.265371	0.015303	0.794301	0.330973	0.459660	0.057073	0.392424	0.067245	0.270210	0.119007
77	0.318795	0.132427	0.424236	0.079517	0.352809	0.189215	0.317600	0.266594	0.444746	0.099446	0.490492	0.562562	0.295958	0.095356	0.229770	0.180095	0.649316	0.157577	0.770418	0.621257	0.333813	0.133198	0.318208	0.100514	0.611885	0.133320	0.517472	0.568012	0.169286	0.129315	0.419021	0.022763	0.537941	0.164579	0.443461	0.394962	0.140358	0.123167	0.137259	0.046358	0.807397	0.253554	0.463995	0.048578	0.392683	0.073176	0.276023	0.104426
78	0.314498	0.130769	0.390315	0.080569	0.344085	0.192854	0.326059	0.266334	0.436357	0.101687	0.493318	0.527572	0.277840	0.093330	0.228128	0.182937	0.648410	0.157547	0.809157	0.657702	0.341740	0.134701	0.318518	0.103343	0.608984	0.126711	0.534420	0.551495	0.143133	0.134408	0.421523	0.023887	0.542293	0.177126	0.445249	0.375929	0.126245	0.077661	0.107961	0.141320	0.734077	0.215353	0.444834	0.037862	0.392765	0.076343	0.278346	0.098368
79	0.313403	0.133735	0.378388	0.084908	0.333033	0.192957	0.327637	0.271056	0.432861	0.105477	0.513049	0.498213	0.269519	0.093261	0.217214	0.182683	0.649618	0.155498	0.854476	0.700281	0.350223	0.131582	0.309783	0.111898	0.600896	0.112378	0.532344	0.494945	0.120841	0.125519	0.379524	0.023712	0.540052	0.177981	0.448045	0.341357	0.130442	0.060451	0.130749	0.183174	0.669940	0.200379	0.382298	0.044932	0.395500	0.078626	0.278117	0.098736
80	0.313401	0.135557	0.375316	0.096686	0.310102	0.186275	0.321381	0.266140	0.437549	0.111910	0.534606	0.503423	0.267271	0.093246	0.223777	0.185699	0.649065	0.151123	0.893257	0.718800	0.340549	0.127807	0.303040	0.117635	0.587775	0.105644	0.524249	0.417471	0.100633	0.111760	0.330667	0.025676	0.534763	0.178186	0.452844	0.312780	0.147367	0.065002	0.132166	0.203505	0.713138	0.200585	0.316602	0.087132	0.398970	0.081043	0.279788	0.124029
81	0.313379	0.136787	0.371550	0.103167	0.260993	0.175188	0.314050	0.256518	0.434817	0.122630	0.534490	0.497979	0.266538	0.087550	0.219788	0.205985	0.646257	0.142128	0.910499	0.693167	0.316552	0.117922	0.305831	0.121550	0.565386	0.099458	0.519925	0.361055	0.089685	0.112870	0.305390	0.028676	0.524106	0.177005	0.459133	0.292609	0.169316	0.060567	0.182944	0.251221	0.726388	0.194038	0.328653	0.142777	0.400451	0.081050	0.292534	0.211515
82	0.308606	0.135703	0.358656	0.105209	0.248097	0.168671	0.307863	0.247395	0.432499	0.122131	0.534142	0.446396	0.236401	0.065784	0.247191	0.240816	0.632352	0.136231	0.908874	0.639232	0.312615	0.102963	0.300893	0.119875	0.522949	0.087593	0.508376	0.317563	0.086644	0.115135	0.310387	0.027396	0.501516	0.176562	0.454465	0.265406	0.155835	0.055166	0.217475	0.262206	0.705054	0.177585	0.345678	0.211097	0.399199	0.079882	0.322542	0.323746
83	0.294459	0.133902	0.347512	0.105198	0.229612	0.168040	0.296948	0.240780	0.415185	0.121837	0.522259	0.371526	0.169299	0.045460	0.255961	0.279170	0.608297	0.136800	0.888872	0.608587	0.316805	0.087239	0.296730	0.128278	0.462552	0.083606	0.480857	0.284136	0.080552	0.134627	0.312039	0.027406	0.469226	0.179526	0.456198	0.234958	0.143036	0.056477	0.240364	0.265026	0.693769	0.147231	0.367879	0.302569	0.377158	0.079575	0.343327	0.409201
84	0.280839	0.130474	0.347608	0.104796	0.211247	0.170149	0.300682	0.232843	0.382306	0.122059	0.494951	0.348035	0.134553	0.050722	0.255464	0.315503	0.575261	0.153450	0.838028	0.607845	0.303474	0.074235	0.275415	0.146897	0.424002	0.076643	0.438292	0.266509	0.080406	0.135346	0.305103	0.030302	0.428492	0.178683	0.457398	0.204507	0.146143	0.056663	0.240190	0.254463	0.688880	0.127400	0.429919	0.403376	0.332787	0.079320	0.361375	0.453914
85	0.286743	0.132466	0.344605	0.105111	0.181569	0.170769	0.298515	0.233593	0.366339	0.129334	0.453480	0.350040	0.111765	0.054717	0.265070	0.358869	0.537930	0.187575	0.798970	0.628562	0.266355	0.060808	0.271829	0.155050	0.415108	0.064227	0.392398	0.259219	0.082153	0.127762	0.260045	0.030357	0.399117	0.171284	0.433150	0.188637	0.153582	0.048982	0.236007	0.210088	0.663477	0.133846	0.447780	0.476234	0.286244	0.079088	0.358569	0.465648
86	0.294969	0.134720	0.330968	0.106972	0.164898	0.172539	0.273254	0.244110	0.403556	0.147506	0.424373	0.353653	0.104686	0.054868	0.284925	0.398686	0.561195	0.231493	0.750385	0.648934	0.216381	0.059050	0.270614	0.155362	0.416147	0.059080	0.371040	0.258661	0.117862	0.135736	0.239733	0.032450	0.396823	0.168124	0.397567	0.187526	0.155815	0.042608	0.234468	0.192418	0.598781	0.137516	0.448755	0.509072	0.267235	0.076667	0.333576	0.469284
87	0.290954	0.134809	0.281585	0.117693	0.167050	0.165529	0.220034	0.247357	0.360010	0.151348	0.434709	0.346229	0.111665	0.055025	0.304952	0.430042	0.637750	0.257491	0.723558	0.665030	0.192427	0.059743	0.252653	0.170995	0.409053	0.062961	0.364098	0.262423	0.136842	0.151554	0.228430	0.039851	0.369070	0.164460	0.364387	0.199414	0.121360	0.042150	0.230575	0.151212	0.601446	0.138383	0.437139	0.513668	0.255839	0.067947	0.321703	0.508774
88	0.296680	0.136069	0.216298	0.129279	0.160959	0.144215	0.176429	0.224477	0.355863	0.141949	0.431340	0.314949	0.107314	0.055257	0.309981	0.448042	0.690165	0.258500	0.733498	0.675342	0.186389	0.058547	0.210375	0.191729	0.363797	0.077804	0.365718	0.263843	0.140262	0.161513	0.154476	0.042615	0.346693	0.164729	0.366087	0.216031	0.095415	0.039992	0.194877	0.070378	0.581853	0.136736	0.432066	0.561629	0.184022	0.062164	0.317827	0.563697
89	0.317005	0.135019	0.200985	0.145641	0.138874	0.126866	0.154707	0.207094	0.358330	0.137868	0.401298	0.279699	0.099557	0.054814	0.312395	0.444390	0.688695	0.251954	0.741009	0.677108	0.186255	0.049322	0.178034	0.200059	0.365017	0.079404	0.358623	0.254569	0.143038	0.158877	0.130896	0.040492	0.321560	0.160205	0.372990	0.226156	0.101142	0.039253	0.144033	0.071966	0.514535	0.132289	0.428426	0.644898	0.147760	0.061874	0.326543	0.597697
90	0.299165	0.127938	0.239315	0.166182	0.135629	0.110323	0.156349	0.205519	0.361502	0.135418	0.353688	0.265227	0.088642	0.054529	0.303184	0.447404	0.644174	0.256180	0.769456	0.670117	0.161750	0.040399	0.194080	0.200804	0.403724	0.081658	0.367119	0.239476	0.190417	0.166164	0.119525	0.038739	0.321516	0.142697	0.370366	0.227473	0.103243	0.039251	0.122110	0.106060	0.459595	0.135267	0.422954	0.697422	0.131828	0.064570	0.324160	0.609287
91	0.280061	0.121005	0.256875	0.195193	0.136224	0.099946	0.154621	0.231771	0.358378	0.128189	0.337324	0.282362	0.086586	0.052463	0.310854	0.498858	0.622965	0.282531	0.778227	0.640685	0.126476	0.039815	0.196237	0.197056	0.431703	0.086243	0.399065	0.220848	0.208720	0.159670	0.125023	0.038629	0.372268	0.120066	0.371992	0.225384	0.101890	0.040147	0.118041	0.109890	0.490759	0.152607	0.428701	0.739689	0.122569	0.062024	0.322458	0.610486
92	0.279780	0.106288	0.226799	0.208103	0.137420	0.093485	0.143311	0.272963	0.376336	0.125806	0.338209	0.333668	0.081822	0.048981	0.339121	0.567641	0.734770	0.323853	0.743815	0.601085	0.122316	0.039656	0.197693	0.194893	0.461474	0.091609	0.411257	0.191352	0.210292	0.156470	0.124760	0.035623	0.393517	0.105854	0.402117	0.229318	0.084322	0.040057	0.123861	0.113182	0.563204	0.160257	0.456815	0.764558	0.121385	0.056470	0.324786	0.610536
93	0.283209	0.095599	0.203674	0.209988	0.145147	0.092776	0.127197	0.299718	0.369075	0.121134	0.339453	0.361046	0.077476	0.048139	0.399801	0.630010	0.903746	0.356108	0.690349	0.566244	0.103622	0.040460	0.201047	0.200831	0.465092	0.096225	0.432756	0.151705	0.248748	0.153974	0.119985	0.033540	0.396648	0.110872	0.454763	0.246058	0.074962	0.032713	0.113240	0.116549	0.570082	0.159625	0.505893	0.772959	0.132546	0.052934	0.328731	0.610637
94	0.292085	0.091317	0.210144	0.209759	0.147218	0.093311	0.146056	0.309911	0.342221	0.121346	0.320497	0.349239	0.087847	0.047973	0.435860	0.664268	0.959842	0.364071	0.677737	0.550270	0.100218	0.039054	0.195370	0.205868	0.508999	0.104500	0.452332	0.123342	0.238575	0.137240	0.141697	0.031567	0.422391	0.116047	0.516166	0.272285	0.079236	0.021733	0.112731	0.131048	0.583941	0.154762	0.577948	0.773851	0.148377	0.048994	0.353202	0.610440
95	0.304616	0.087799	0.220233	0.205175	0.179375	0.093353	0.236563	0.309787	0.330803	0.117723	0.280952	0.339662	0.097751	0.048176	0.462257	0.675106	0.968152	0.363773	0.698529	0.568247	0.080639	0.037999	0.169256	0.199674	0.557422	0.106624	0.451054	0.133246	0.228219	0.114384	0.149863	0.022847	0.434662	0.120531	0.554888	0.296961	0.073729	0.021408	0.109987	0.131683	0.586284	0.154241	0.629143	0.767190	0.153275	0.045860	0.380171	0.604895
96	0.324987	0.089907	0.229359	0.204235	0.225217	0.094412	0.288424	0.317658	0.298914	0.094471	0.245023	0.387000	0.106379	0.047778	0.458839	0.671073	0.970157	0.363653	0.730208	0.599585	0.079625	0.033921	0.166379	0.183479	0.599021	0.116490	0.474387	0.165647	0.221857	0.093770	0.159118	0.014680	0.431854	0.122781	0.574563	0.314458	0.066990	0.020822	0.112405	0.137410	0.599249	0.149277	0.634845	0.744311	0.151335	0.046139	0.373779	0.575221
97	0.330511	0.102070	0.244112	0.215139	0.237126	0.096841	0.338050	0.364443	0.197325	0.058141	0.244599	0.431614	0.107647	0.041240	0.458911	0.657471	0.970050	0.363109	0.749803	0.614868	0.093155	0.035420	0.170340	0.173375	0.659009	0.119975	0.489550	0.186612	0.221352	0.095702	0.159585	0.021972	0.431986	0.119255	0.572049	0.326766	0.072551	0.017251	0.117680	0.134696	0.644855	0.133098	0.586532	0.697413	0.152264	0.045547	0.342927	0.521730
98	0.330879	0.123359	0.246362	0.230707	0.236372	0.098355	0.366624	0.463672	0.185471	0.063389	0.213652	0.441534	0.109186	0.032530	0.456959	0.640057	0.968950	0.359266	0.754372	0.598711	0.109178	0.035787	0.170805	0.172245	0.707877	0.120107	0.502684	0.192815	0.182889	0.086146	0.157510	0.028985	0.442896	0.115951	0.559792	0.331859	0.059979	0.015601	0.113470	0.135336	0.698648	0.136774	0.579814	0.654652	0.169828	0.044110	0.329295	0.471109
99	0.343169	0.143871	0.246248	0.242064	0.235858	0.092614	0.399571	0.540456	0.194454	0.075728	0.212641	0.443116	0.140645	0.033141	0.450339	0.618332	0.964879	0.350632	0.753274	0.557446	0.113234	0.034507	0.176319	0.164647	0.726516	0.123321	0.525029	0.193658	0.160264	0.063383	0.149639	0.036907	0.497843	0.114558	0.539956	0.330775	0.074441	0.015415	0.107961	0.135509	0.710166	0.160858	0.594293	0.636568	0.185870	0.043889	0.315504	0.439756
100	0.352837	0.145742	0.254271	0.258116	0.230359	0.083633	0.416671	0.572781	0.215482	0.084276	0.225791	0.450220	0.162849	0.033084	0.443704	0.596720	0.958085	0.331417	0.741567	0.520077	0.117925	0.028056	0.167340	0.140718	0.731192	0.131329	0.538277	0.209690	0.169129	0.065460	0.154564	0.039256	0.527977	0.114459	0.547828	0.327125	0.131787	0.019918	0.128038	0.128851	0.697111	0.181986	0.661825	0.636845	0.190482	0.046528	0.318730	0.431589
101	0.341965	0.144361	0.292447	0.277879	0.217814	0.079718	0.423256	0.573966	0.256676	0.087483	0.234212	0.435552	0.165193	0.031428	0.455801	0.577502	0.934336	0.299904	0.731054	0.497008	0.118821	0.032144	0.154714	0.124752	0.730059	0.137795	0.530689	0.252506	0.112946	0.071746	0.153492	0.042724	0.530067	0.113168	0.590350	0.328779	0.147908	0.027554	0.177393	0.116981	0.694353	0.189616	0.693462	0.596353	0.187072	0.048267	0.329969	0.425962
