	104_F_P_sh_R_D_A_01.c3d	104_F_P_sh_R_D_A_01.c3d	104_F_P_sh_R_D_A_01.c3d	104_F_P_sh_R_D_A_01.c3d	104_F_P_sh_R_D_A_01.c3d	104_F_P_sh_R_D_A_01.c3d	104_F_P_sh_R_D_A_01.c3d	104_F_P_sh_R_D_A_01.c3d	104_F_P_sh_R_D_A_02.c3d	104_F_P_sh_R_D_A_02.c3d	104_F_P_sh_R_D_A_02.c3d	104_F_P_sh_R_D_A_02.c3d	104_F_P_sh_R_D_A_02.c3d	104_F_P_sh_R_D_A_02.c3d	104_F_P_sh_R_D_A_02.c3d	104_F_P_sh_R_D_A_02.c3d	104_F_P_sh_R_D_A_03.c3d	104_F_P_sh_R_D_A_03.c3d	104_F_P_sh_R_D_A_03.c3d	104_F_P_sh_R_D_A_03.c3d	104_F_P_sh_R_D_A_03.c3d	104_F_P_sh_R_D_A_03.c3d	104_F_P_sh_R_D_A_03.c3d	104_F_P_sh_R_D_A_03.c3d	104_F_P_sh_R_D_A_05.c3d	104_F_P_sh_R_D_A_05.c3d	104_F_P_sh_R_D_A_05.c3d	104_F_P_sh_R_D_A_05.c3d	104_F_P_sh_R_D_A_05.c3d	104_F_P_sh_R_D_A_05.c3d	104_F_P_sh_R_D_A_05.c3d	104_F_P_sh_R_D_A_05.c3d	104_F_P_sh_R_D_A_06.c3d	104_F_P_sh_R_D_A_06.c3d	104_F_P_sh_R_D_A_06.c3d	104_F_P_sh_R_D_A_06.c3d	104_F_P_sh_R_D_A_06.c3d	104_F_P_sh_R_D_A_06.c3d	104_F_P_sh_R_D_A_06.c3d	104_F_P_sh_R_D_A_06.c3d	104_F_P_sh_R_D_A_08.c3d	104_F_P_sh_R_D_A_08.c3d	104_F_P_sh_R_D_A_08.c3d	104_F_P_sh_R_D_A_08.c3d	104_F_P_sh_R_D_A_08.c3d	104_F_P_sh_R_D_A_08.c3d	104_F_P_sh_R_D_A_08.c3d	104_F_P_sh_R_D_A_08.c3d	104_F_P_sh_R_D_A_09.c3d	104_F_P_sh_R_D_A_09.c3d	104_F_P_sh_R_D_A_09.c3d	104_F_P_sh_R_D_A_09.c3d	104_F_P_sh_R_D_A_09.c3d	104_F_P_sh_R_D_A_09.c3d	104_F_P_sh_R_D_A_09.c3d	104_F_P_sh_R_D_A_09.c3d	104_F_P_sh_R_D_A_10.c3d	104_F_P_sh_R_D_A_10.c3d	104_F_P_sh_R_D_A_10.c3d	104_F_P_sh_R_D_A_10.c3d	104_F_P_sh_R_D_A_10.c3d	104_F_P_sh_R_D_A_10.c3d	104_F_P_sh_R_D_A_10.c3d	104_F_P_sh_R_D_A_10.c3d	104_F_P_sh_R_D_A_12.c3d	104_F_P_sh_R_D_A_12.c3d	104_F_P_sh_R_D_A_12.c3d	104_F_P_sh_R_D_A_12.c3d	104_F_P_sh_R_D_A_12.c3d	104_F_P_sh_R_D_A_12.c3d	104_F_P_sh_R_D_A_12.c3d	104_F_P_sh_R_D_A_12.c3d
	Biceps femoris_lat	Semitendinosus_lat	Vastus lateralis_lat	Vastus medialis_lat	Biceps femoris_med	Semitendinosus_med	Vastus lateralis_med	Vastus medialis_med	Biceps femoris_lat	Semitendinosus_lat	Vastus lateralis_lat	Vastus medialis_lat	Biceps femoris_med	Semitendinosus_med	Vastus lateralis_med	Vastus medialis_med	Biceps femoris_lat	Semitendinosus_lat	Vastus lateralis_lat	Vastus medialis_lat	Biceps femoris_med	Semitendinosus_med	Vastus lateralis_med	Vastus medialis_med	Biceps femoris_lat	Semitendinosus_lat	Vastus lateralis_lat	Vastus medialis_lat	Biceps femoris_med	Semitendinosus_med	Vastus lateralis_med	Vastus medialis_med	Biceps femoris_lat	Semitendinosus_lat	Vastus lateralis_lat	Vastus medialis_lat	Biceps femoris_med	Semitendinosus_med	Vastus lateralis_med	Vastus medialis_med	Biceps femoris_lat	Semitendinosus_lat	Vastus lateralis_lat	Vastus medialis_lat	Biceps femoris_med	Semitendinosus_med	Vastus lateralis_med	Vastus medialis_med	Biceps femoris_lat	Semitendinosus_lat	Vastus lateralis_lat	Vastus medialis_lat	Biceps femoris_med	Semitendinosus_med	Vastus lateralis_med	Vastus medialis_med	Biceps femoris_lat	Semitendinosus_lat	Vastus lateralis_lat	Vastus medialis_lat	Biceps femoris_med	Semitendinosus_med	Vastus lateralis_med	Vastus medialis_med	Biceps femoris_lat	Semitendinosus_lat	Vastus lateralis_lat	Vastus medialis_lat	Biceps femoris_med	Semitendinosus_med	Vastus lateralis_med	Vastus medialis_med
	P2D	P2D	P2D	P2D	P2D	P2D	P2D	P2D	P2D	P2D	P2D	P2D	P2D	P2D	P2D	P2D	P2D	P2D	P2D	P2D	P2D	P2D	P2D	P2D	P2D	P2D	P2D	P2D	P2D	P2D	P2D	P2D	P2D	P2D	P2D	P2D	P2D	P2D	P2D	P2D	P2D	P2D	P2D	P2D	P2D	P2D	P2D	P2D	P2D	P2D	P2D	P2D	P2D	P2D	P2D	P2D	P2D	P2D	P2D	P2D	P2D	P2D	P2D	P2D	P2D	P2D	P2D	P2D	P2D	P2D	P2D	P2D
	EMG_lat	EMG_lat	EMG_lat	EMG_lat	EMG_med	EMG_med	EMG_med	EMG_med	EMG_lat	EMG_lat	EMG_lat	EMG_lat	EMG_med	EMG_med	EMG_med	EMG_med	EMG_lat	EMG_lat	EMG_lat	EMG_lat	EMG_med	EMG_med	EMG_med	EMG_med	EMG_lat	EMG_lat	EMG_lat	EMG_lat	EMG_med	EMG_med	EMG_med	EMG_med	EMG_lat	EMG_lat	EMG_lat	EMG_lat	EMG_med	EMG_med	EMG_med	EMG_med	EMG_lat	EMG_lat	EMG_lat	EMG_lat	EMG_med	EMG_med	EMG_med	EMG_med	EMG_lat	EMG_lat	EMG_lat	EMG_lat	EMG_med	EMG_med	EMG_med	EMG_med	EMG_lat	EMG_lat	EMG_lat	EMG_lat	EMG_med	EMG_med	EMG_med	EMG_med	EMG_lat	EMG_lat	EMG_lat	EMG_lat	EMG_med	EMG_med	EMG_med	EMG_med
ITEM	Y	Y	Y	Y	Y	Y	Y	Y	Y	Y	Y	Y	Y	Y	Y	Y	Y	Y	Y	Y	Y	Y	Y	Y	Y	Y	Y	Y	Y	Y	Y	Y	Y	Y	Y	Y	Y	Y	Y	Y	Y	Y	Y	Y	Y	Y	Y	Y	Y	Y	Y	Y	Y	Y	Y	Y	Y	Y	Y	Y	Y	Y	Y	Y	Y	Y	Y	Y	Y	Y	Y	Y
1	0.173203	0.300673	0.324580	0.248083	0.573177	0.494041	0.315533	0.365840	0.242383	0.674740	0.282814	0.243548	0.071677	0.099037	0.328719	0.166046	0.169943	0.125335	0.239915	0.148324	0.365047	0.153396	0.362686	0.273486	0.100312	0.382577	0.293635	0.183057	0.233254	0.450373	0.278024	0.288745	0.076719	0.076584	0.152848	0.227992	0.506104	0.312149	0.179783	0.159040	0.347276	0.411929	0.287434	0.251301	0.502040	0.364776	0.244689	0.165221	0.142513	0.414378	0.135370	0.124048	0.159565	0.130339	0.291735	0.312952	0.222538	0.168376	0.224399	0.211131	0.399078	0.526626	0.205422	0.230432	0.121912	0.251231	0.218477	0.153135	0.266381	0.295939	0.217992	0.192005
2	0.177904	0.200436	0.314183	0.256600	0.555264	0.450440	0.427983	0.378992	0.242199	0.659346	0.271628	0.240226	0.061227	0.264545	0.364244	0.180514	0.162759	0.128620	0.206345	0.159957	0.336580	0.170435	0.355811	0.304368	0.125030	0.417758	0.298874	0.175551	0.215873	0.545998	0.266807	0.284510	0.086386	0.077844	0.160475	0.238926	0.553732	0.244090	0.180246	0.136489	0.301377	0.402690	0.335216	0.251117	0.294366	0.192846	0.334274	0.205190	0.149575	0.421116	0.142604	0.130498	0.155075	0.127425	0.302912	0.319321	0.211582	0.151904	0.224240	0.211918	0.450364	0.518659	0.199846	0.230555	0.121151	0.255940	0.215073	0.155920	0.265495	0.224564	0.222734	0.185724
3	0.180768	0.118297	0.328597	0.228414	0.543649	0.377735	0.430257	0.388522	0.236625	0.617279	0.252769	0.237334	0.063988	0.373341	0.348412	0.192101	0.168564	0.131992	0.220296	0.146092	0.317171	0.210170	0.348986	0.303507	0.163045	0.426611	0.314502	0.174768	0.127510	0.585297	0.261166	0.238889	0.087833	0.078708	0.185872	0.245197	0.566960	0.254052	0.206678	0.237467	0.269918	0.380841	0.354731	0.251250	0.196416	0.130168	0.348843	0.210161	0.149146	0.423481	0.143565	0.136063	0.136215	0.121045	0.406964	0.324628	0.164392	0.165474	0.229549	0.201024	0.454301	0.495914	0.196343	0.225291	0.130377	0.301425	0.214562	0.166264	0.265650	0.170017	0.209620	0.150267
4	0.149550	0.120765	0.317502	0.209581	0.382473	0.386491	0.429134	0.394614	0.225817	0.491563	0.228285	0.225249	0.062830	0.384288	0.342908	0.300307	0.176999	0.127849	0.224200	0.143093	0.188189	0.255890	0.435334	0.304706	0.165257	0.421601	0.293164	0.181176	0.100284	0.559460	0.230927	0.175801	0.087599	0.079051	0.215529	0.252998	1.035702	0.248730	0.291994	0.295903	0.227116	0.332832	0.355665	0.251957	0.170303	0.074719	0.348327	0.216146	0.144908	0.413083	0.148999	0.149327	0.111433	0.108389	0.430205	0.308199	0.059914	0.124589	0.229232	0.182356	0.451872	0.464006	0.184724	0.156162	0.137016	0.319719	0.213651	0.168863	0.250020	0.142514	0.174878	0.146228
5	0.142930	0.112236	0.295644	0.223133	0.350814	0.449017	0.445466	0.400501	0.215171	0.369594	0.209776	0.219057	0.065581	0.470337	0.358839	0.370863	0.161412	0.119857	0.211289	0.142994	0.178858	0.394349	0.452664	0.275249	0.168222	0.409513	0.291863	0.205773	0.101283	0.556869	0.215627	0.169207	0.088917	0.087798	0.215204	0.258250	1.180002	0.169780	0.332241	0.296909	0.211698	0.291462	0.355363	0.252597	0.160214	0.070726	0.355610	0.234885	0.140501	0.392842	0.177051	0.150022	0.138221	0.096120	0.461339	0.248995	0.062559	0.124271	0.234727	0.166411	0.445550	0.440924	0.185649	0.125859	0.142815	0.325277	0.223540	0.170894	0.223304	0.143619	0.183869	0.139056
6	0.132974	0.097717	0.289377	0.239788	0.357067	0.467071	0.502515	0.415844	0.237357	0.357185	0.203723	0.221623	0.054457	0.530128	0.364301	0.417017	0.144964	0.098939	0.185802	0.145233	0.181351	0.398922	0.499260	0.285641	0.167661	0.388128	0.295454	0.236606	0.101623	0.560153	0.216829	0.105757	0.096886	0.104635	0.231007	0.260075	1.183889	0.156180	0.354199	0.304432	0.202894	0.288001	0.353708	0.253280	0.157614	0.121808	0.364552	0.238885	0.140242	0.368322	0.226709	0.154690	0.134681	0.110939	0.529706	0.247312	0.067812	0.130740	0.201093	0.154229	0.399382	0.360566	0.323040	0.136830	0.149220	0.327653	0.221128	0.172152	0.208994	0.209636	0.235364	0.141003
7	0.124223	0.098501	0.274468	0.363205	0.390202	0.478336	0.563850	0.417214	0.237201	0.230110	0.132286	0.222475	0.052362	0.532181	0.349260	0.448231	0.119390	0.087455	0.181660	0.166134	0.169236	0.397883	0.533798	0.314306	0.164420	0.367765	0.294793	0.240192	0.083853	0.576313	0.215733	0.073697	0.113556	0.120731	0.233388	0.250862	1.181257	0.156329	0.395790	0.326139	0.206083	0.297505	0.352794	0.269476	0.160923	0.331356	0.347400	0.233591	0.136445	0.338126	0.248089	0.144876	0.121905	0.191420	0.525856	0.232190	0.091214	0.138634	0.206535	0.158220	0.388737	0.309927	0.346715	0.134118	0.155620	0.341023	0.217056	0.171650	0.200486	0.270227	0.292560	0.153181
8	0.119505	0.100479	0.263263	0.401356	0.410810	0.475304	0.567411	0.325805	0.228224	0.171473	0.097352	0.202967	0.054188	0.541989	0.386518	0.453603	0.103983	0.095124	0.174087	0.151762	0.132668	0.397331	0.538432	0.295897	0.161310	0.347865	0.292923	0.241119	0.055053	0.517589	0.208008	0.073769	0.132396	0.138424	0.230296	0.247737	1.177092	0.155770	0.407052	0.339457	0.206076	0.300124	0.355112	0.286379	0.182465	0.606285	0.354971	0.229433	0.130219	0.321836	0.250378	0.139516	0.118197	0.241648	0.507047	0.187637	0.096055	0.148664	0.232369	0.170979	0.354916	0.229602	0.336956	0.137769	0.163725	0.380658	0.222585	0.171086	0.172501	0.274033	0.365892	0.208703
9	0.113013	0.100935	0.258418	0.411148	0.408971	0.455035	0.559968	0.312767	0.216583	0.179004	0.101587	0.197370	0.057344	0.554902	0.418048	0.487831	0.101852	0.097073	0.181861	0.140033	0.130055	0.393958	0.541835	0.301872	0.158474	0.307348	0.292919	0.253700	0.066140	0.490419	0.164549	0.074685	0.169082	0.150664	0.230549	0.235950	1.132783	0.161659	0.389916	0.345408	0.209634	0.300816	0.356811	0.270968	0.182941	0.633917	0.407006	0.214944	0.121582	0.307029	0.257154	0.139607	0.118973	0.282270	0.490126	0.124215	0.102777	0.166421	0.221017	0.177238	0.281550	0.226606	0.427087	0.237954	0.162522	0.382996	0.238558	0.163600	0.172690	0.295814	0.393846	0.221810
10	0.093377	0.103918	0.213019	0.445106	0.371998	0.408139	0.541211	0.314634	0.202453	0.165172	0.118922	0.222567	0.123367	0.591437	0.420731	0.495758	0.106128	0.094317	0.208553	0.150345	0.122701	0.378496	0.518112	0.307235	0.157900	0.278687	0.288133	0.260534	0.080320	0.480435	0.180154	0.065651	0.173311	0.152578	0.225649	0.221656	1.076143	0.166062	0.387197	0.355409	0.218175	0.299312	0.356168	0.221677	0.180418	0.782821	0.370506	0.162853	0.117136	0.307672	0.254516	0.136574	0.119157	0.288037	0.475042	0.115050	0.116130	0.176066	0.216444	0.198388	0.165538	0.233961	0.448748	0.235471	0.149639	0.381597	0.252533	0.157207	0.177034	0.410606	0.452552	0.224090
11	0.076727	0.085424	0.148653	0.443906	0.305098	0.342468	0.526603	0.388163	0.199137	0.110830	0.192971	0.218938	0.135073	0.661677	0.424776	0.493552	0.108530	0.091007	0.203606	0.238441	0.118043	0.371642	0.529527	0.285120	0.156250	0.262762	0.276042	0.248802	0.083268	0.459659	0.287399	0.069167	0.173086	0.156724	0.207471	0.218930	1.057645	0.175261	0.390235	0.347758	0.224899	0.293525	0.350329	0.213258	0.197614	0.847721	0.342967	0.156564	0.121652	0.315345	0.243843	0.140823	0.126832	0.298100	0.384366	0.091664	0.131316	0.170489	0.239923	0.201996	0.149119	0.236229	0.453094	0.264863	0.196757	0.354760	0.232807	0.157243	0.177792	0.432728	0.451812	0.305845
12	0.037426	0.072160	0.134825	0.458704	0.279747	0.331441	0.433252	0.377925	0.197696	0.102060	0.278418	0.211316	0.133016	0.620353	0.417032	0.492742	0.101384	0.091230	0.177150	0.276673	0.117025	0.367745	0.518995	0.273164	0.154991	0.222439	0.261864	0.237771	0.086195	0.259399	0.370333	0.135474	0.174227	0.174452	0.209979	0.221942	1.047248	0.149417	0.379467	0.296847	0.225163	0.277320	0.337565	0.245262	0.270127	0.858207	0.394585	0.147114	0.138448	0.314874	0.247353	0.141906	0.140306	0.319502	0.387456	0.111255	0.136166	0.151401	0.284644	0.216407	0.151508	0.191975	0.475642	0.265668	0.235918	0.333947	0.208613	0.130171	0.187467	0.429139	0.453237	0.347329
13	0.045210	0.067854	0.174200	0.462598	0.254483	0.330716	0.411206	0.371769	0.188356	0.102792	0.344896	0.223859	0.132435	0.622246	0.389586	0.446042	0.083774	0.115374	0.213554	0.293014	0.107028	0.379966	0.442960	0.273504	0.152393	0.218027	0.252385	0.239017	0.084853	0.221063	0.383504	0.199194	0.181692	0.201146	0.228257	0.217035	0.539305	0.130612	0.320753	0.256793	0.218451	0.234283	0.312433	0.281579	0.271477	0.859799	0.398991	0.122809	0.147456	0.259769	0.254227	0.141846	0.103784	0.322608	0.316174	0.117965	0.139543	0.142536	0.289708	0.305753	0.136619	0.171641	0.506847	0.263829	0.278352	0.333495	0.212421	0.128214	0.194681	0.429480	0.456194	0.348219
14	0.048847	0.068527	0.245546	0.475922	0.250097	0.302995	0.415983	0.378803	0.188538	0.103275	0.352075	0.252217	0.129984	0.569001	0.368439	0.391103	0.082861	0.129915	0.273794	0.345789	0.121210	0.274919	0.379155	0.264069	0.151611	0.212888	0.240102	0.239517	0.085655	0.226909	0.423768	0.202284	0.181547	0.217147	0.245068	0.194940	0.253563	0.130832	0.324179	0.268213	0.209361	0.177275	0.306225	0.306741	0.266843	0.857568	0.380627	0.117832	0.165394	0.186694	0.251128	0.141670	0.089908	0.310225	0.184606	0.123357	0.141267	0.142231	0.290921	0.357277	0.137583	0.171223	0.441457	0.257417	0.289240	0.333112	0.219658	0.125982	0.194035	0.417266	0.486378	0.347793
15	0.052161	0.067698	0.250109	0.417862	0.241979	0.202025	0.399557	0.395071	0.186884	0.103824	0.362303	0.278247	0.129059	0.511891	0.360762	0.338226	0.084463	0.135799	0.279450	0.351601	0.150515	0.235503	0.330657	0.232521	0.131787	0.131471	0.225361	0.241506	0.102240	0.221866	0.537112	0.203582	0.183825	0.227595	0.247125	0.181088	0.244403	0.130816	0.300412	0.263712	0.195340	0.164702	0.324095	0.322252	0.249387	0.816020	0.373118	0.118084	0.182096	0.165964	0.253094	0.136997	0.087614	0.264097	0.164435	0.153777	0.139731	0.135440	0.289324	0.378763	0.134036	0.177908	0.401758	0.255782	0.290604	0.324392	0.227054	0.111053	0.192949	0.371656	0.479253	0.352638
16	0.060650	0.063804	0.285863	0.357601	0.232108	0.156739	0.341672	0.395197	0.193295	0.105880	0.457400	0.296341	0.129783	0.512108	0.335470	0.287861	0.085251	0.135680	0.289540	0.340214	0.136882	0.242867	0.266612	0.177954	0.061353	0.064146	0.205388	0.247993	0.116396	0.208799	0.587165	0.252063	0.194012	0.232860	0.232553	0.180177	0.243670	0.130224	0.261670	0.239767	0.166508	0.165501	0.311312	0.327281	0.232181	0.653321	0.344205	0.111595	0.190706	0.156864	0.269666	0.129973	0.085175	0.229522	0.154912	0.162459	0.128887	0.132229	0.283748	0.400821	0.104744	0.170718	0.401233	0.249778	0.310240	0.280639	0.234758	0.087366	0.160012	0.372748	0.431441	0.333649
17	0.070230	0.079387	0.315748	0.351006	0.171537	0.114849	0.237499	0.385876	0.201885	0.105444	0.519166	0.322612	0.132197	0.509207	0.262711	0.289027	0.079763	0.125786	0.289699	0.338348	0.137684	0.261544	0.247746	0.170838	0.055378	0.056060	0.158760	0.247524	0.123466	0.174503	0.602323	0.303863	0.214252	0.233055	0.199607	0.176236	0.226297	0.131233	0.246899	0.221099	0.160125	0.163918	0.259424	0.330986	0.223743	0.601200	0.293110	0.095629	0.195517	0.150991	0.274815	0.110883	0.083076	0.174885	0.154441	0.156575	0.157648	0.188993	0.263802	0.425253	0.079534	0.165880	0.320352	0.147671	0.350973	0.269162	0.234369	0.081831	0.151675	0.378794	0.393328	0.308479
18	0.069690	0.078628	0.318389	0.306642	0.112233	0.110045	0.220901	0.379731	0.190162	0.110218	0.536580	0.339276	0.131245	0.504201	0.201121	0.293861	0.075372	0.123061	0.287010	0.339505	0.139038	0.274777	0.228964	0.149468	0.058776	0.049924	0.139069	0.226617	0.126882	0.189143	0.605149	0.310471	0.226180	0.230480	0.218337	0.173459	0.207340	0.124693	0.253828	0.209276	0.144944	0.163656	0.218188	0.344096	0.221421	0.457972	0.259511	0.102461	0.278378	0.147509	0.259874	0.112577	0.082276	0.175120	0.150651	0.154847	0.222200	0.258951	0.265042	0.509016	0.073489	0.157828	0.271007	0.145555	0.372123	0.249185	0.224230	0.080865	0.140809	0.301601	0.317925	0.308770
19	0.071222	0.073317	0.319110	0.440365	0.105773	0.118117	0.199960	0.474200	0.167259	0.117145	0.540749	0.341893	0.074141	0.475319	0.186397	0.293760	0.071582	0.124277	0.268582	0.335370	0.139366	0.305370	0.228575	0.123075	0.069530	0.040391	0.125313	0.193432	0.119319	0.195740	0.609644	0.316833	0.224261	0.223930	0.258487	0.173734	0.202864	0.118195	0.248386	0.194849	0.137277	0.154432	0.213146	0.358661	0.209334	0.302699	0.251313	0.141621	0.325171	0.146285	0.225397	0.102358	0.067139	0.177003	0.129879	0.157316	0.319842	0.292739	0.264711	0.529917	0.070665	0.148975	0.263741	0.075564	0.371219	0.238860	0.226823	0.081205	0.136104	0.189634	0.301431	0.271679
20	0.073882	0.075864	0.322246	0.433658	0.105392	0.118465	0.200923	0.510115	0.159356	0.117594	0.544406	0.342591	0.044391	0.297657	0.081220	0.308766	0.064616	0.126134	0.266328	0.281006	0.151385	0.314075	0.208576	0.118968	0.069527	0.037897	0.137297	0.198310	0.137325	0.195034	0.613335	0.341143	0.219002	0.220707	0.271976	0.185038	0.193075	0.109568	0.239380	0.187660	0.129143	0.149270	0.217265	0.366086	0.113227	0.259270	0.164053	0.142639	0.333070	0.147979	0.198689	0.097204	0.038328	0.139617	0.060622	0.139743	0.329571	0.300338	0.248851	0.526142	0.049151	0.175069	0.229326	0.041252	0.368821	0.191362	0.219371	0.081985	0.132676	0.174071	0.305340	0.175500
21	0.074685	0.083075	0.301345	0.442026	0.102365	0.120622	0.192846	0.486241	0.165475	0.111865	0.563065	0.366769	0.048614	0.272301	0.130681	0.344927	0.059887	0.132016	0.266217	0.250672	0.189187	0.318049	0.149144	0.106340	0.070868	0.062763	0.162721	0.223875	0.152764	0.175498	0.572347	0.349101	0.231125	0.255734	0.275776	0.191670	0.167227	0.172361	0.219944	0.157658	0.125837	0.132949	0.234593	0.368937	0.064267	0.257880	0.067348	0.134078	0.333345	0.149419	0.195701	0.099750	0.037239	0.139799	0.069260	0.136996	0.342386	0.391333	0.184317	0.514727	0.056543	0.210846	0.115577	0.105417	0.365954	0.097776	0.200457	0.081036	0.085372	0.173899	0.305328	0.160804
22	0.075722	0.086223	0.260078	0.477260	0.095607	0.138768	0.188516	0.494933	0.204027	0.098120	0.592406	0.400393	0.052644	0.252401	0.141867	0.368260	0.058535	0.121750	0.230059	0.234101	0.252187	0.301927	0.129012	0.112196	0.072407	0.097982	0.177169	0.233266	0.153111	0.185922	0.530332	0.318253	0.234994	0.287266	0.275676	0.186330	0.087118	0.240272	0.210496	0.144002	0.121262	0.090481	0.259586	0.361882	0.065319	0.275709	0.057079	0.126491	0.333295	0.151377	0.185667	0.099117	0.035818	0.141477	0.070927	0.138313	0.371342	0.414068	0.185709	0.469628	0.074589	0.247581	0.122246	0.144433	0.364973	0.085098	0.171648	0.083065	0.079861	0.168372	0.261823	0.145838
23	0.088908	0.088975	0.321008	0.507127	0.091498	0.149799	0.173649	0.490663	0.238979	0.085677	0.614989	0.422722	0.055950	0.246718	0.141803	0.420368	0.057680	0.111744	0.230384	0.145184	0.271234	0.279868	0.125926	0.109915	0.072786	0.122149	0.191459	0.219436	0.165594	0.186902	0.527704	0.303779	0.236814	0.294729	0.276367	0.174990	0.065086	0.301553	0.150326	0.125068	0.118130	0.079837	0.259712	0.346982	0.065441	0.306565	0.060206	0.137503	0.333304	0.143998	0.176012	0.101304	0.041584	0.178906	0.082309	0.174192	0.384161	0.413341	0.169307	0.430600	0.081006	0.245923	0.117822	0.149342	0.359087	0.087215	0.179295	0.119027	0.072794	0.161090	0.161199	0.118750
24	0.085413	0.091477	0.342751	0.507272	0.081818	0.132882	0.167294	0.476712	0.276412	0.085080	0.605152	0.435687	0.058812	0.248698	0.141013	0.436557	0.055837	0.108861	0.328499	0.130482	0.282916	0.306090	0.122890	0.142575	0.071925	0.129255	0.198011	0.220010	0.167664	0.176451	0.468334	0.327828	0.251635	0.295611	0.281341	0.177306	0.059357	0.375915	0.117069	0.098137	0.117773	0.094294	0.261486	0.339162	0.066246	0.324759	0.061121	0.139835	0.332411	0.133026	0.174090	0.093763	0.060825	0.223906	0.110084	0.173712	0.426623	0.412945	0.170247	0.414868	0.086383	0.250366	0.120028	0.164245	0.330915	0.091808	0.186994	0.121049	0.061095	0.155577	0.135823	0.086479
25	0.107886	0.099270	0.318850	0.500112	0.080522	0.129807	0.174814	0.461213	0.351170	0.090505	0.570635	0.432734	0.059159	0.264391	0.140074	0.446995	0.056728	0.109716	0.346341	0.132595	0.376687	0.375044	0.096657	0.147010	0.070883	0.136811	0.199794	0.238787	0.157552	0.163305	0.341079	0.335302	0.268250	0.286782	0.310997	0.263623	0.121026	0.438757	0.110290	0.100484	0.114146	0.123912	0.270902	0.339640	0.072508	0.319460	0.059694	0.141231	0.325974	0.124927	0.170555	0.092853	0.061985	0.226111	0.113120	0.185015	0.429194	0.413602	0.163591	0.421616	0.085795	0.255418	0.123156	0.167924	0.303734	0.095754	0.185804	0.121460	0.057859	0.136631	0.132883	0.068643
26	0.120272	0.107825	0.378669	0.491744	0.141750	0.297198	0.147307	0.467521	0.380437	0.090897	0.548461	0.417024	0.050357	0.257507	0.136405	0.441005	0.058346	0.110710	0.367850	0.138301	0.420194	0.371389	0.070159	0.131082	0.070729	0.146976	0.224397	0.258692	0.149651	0.153096	0.292727	0.291531	0.271014	0.284632	0.335959	0.300614	0.199310	0.442568	0.100181	0.101644	0.109724	0.147239	0.270431	0.337540	0.076124	0.289782	0.060341	0.140168	0.319215	0.113976	0.159237	0.092925	0.068558	0.236240	0.116566	0.185007	0.421378	0.399350	0.160261	0.419498	0.090016	0.252153	0.127731	0.168323	0.275160	0.112398	0.175675	0.126455	0.064715	0.145437	0.134403	0.065316
27	0.121141	0.110696	0.378985	0.409198	0.171957	0.351552	0.199845	0.458740	0.555579	0.100796	0.566424	0.400406	0.048539	0.271718	0.138216	0.394865	0.054248	0.117437	0.485211	0.140678	0.436782	0.364126	0.057850	0.127765	0.067268	0.173497	0.278580	0.261225	0.146805	0.169029	0.269597	0.271096	0.266857	0.284370	0.346753	0.307149	0.224082	0.444236	0.096569	0.139350	0.118524	0.163629	0.264191	0.319930	0.089240	0.236438	0.127536	0.097510	0.302583	0.103447	0.169636	0.091368	0.071411	0.268379	0.178501	0.184323	0.404933	0.362526	0.170754	0.332511	0.106298	0.250316	0.128464	0.174393	0.288793	0.126401	0.175353	0.130751	0.076633	0.149241	0.140495	0.058173
28	0.121648	0.109232	0.379408	0.450482	0.175374	0.358750	0.242940	0.462971	0.684347	0.100035	0.565999	0.387949	0.132637	0.307346	0.137687	0.380305	0.049156	0.118341	0.533435	0.177122	0.437252	0.344980	0.058535	0.130727	0.082328	0.201274	0.313825	0.261539	0.147703	0.188191	0.268115	0.268285	0.321167	0.330797	0.349291	0.308249	0.255218	0.450695	0.120172	0.257629	0.142427	0.171872	0.259154	0.285041	0.090813	0.222033	0.144196	0.109840	0.287050	0.130876	0.197353	0.106991	0.077914	0.277163	0.220212	0.189405	0.335537	0.332302	0.168041	0.263199	0.212790	0.225893	0.131235	0.176838	0.312532	0.132409	0.175599	0.133132	0.086092	0.156810	0.171646	0.092802
29	0.119784	0.100684	0.376890	0.441786	0.191406	0.357591	0.248705	0.363151	0.685467	0.097987	0.489008	0.378865	0.291801	0.378484	0.142297	0.364884	0.044694	0.119640	0.546269	0.217334	0.438443	0.329187	0.050494	0.140784	0.097566	0.203809	0.315785	0.256495	0.141784	0.190215	0.219663	0.329324	0.353969	0.383903	0.354828	0.305954	0.429947	0.457220	0.229376	0.310394	0.154791	0.173277	0.257582	0.246829	0.083619	0.214360	0.179755	0.162795	0.280548	0.177410	0.188960	0.128320	0.131256	0.307659	0.339115	0.208858	0.305570	0.323782	0.170678	0.261919	0.236501	0.225393	0.209298	0.175212	0.294513	0.132549	0.256676	0.133305	0.159090	0.163381	0.243453	0.190711
30	0.119268	0.101139	0.416818	0.395604	0.197366	0.373643	0.269970	0.308473	0.683309	0.102157	0.439594	0.355224	0.374094	0.423390	0.106146	0.322799	0.045496	0.106029	0.552935	0.216658	0.433047	0.329333	0.064261	0.149716	0.106048	0.217625	0.324622	0.251981	0.112809	0.249867	0.160961	0.339177	0.370288	0.446492	0.364964	0.301881	0.522018	0.428754	0.264002	0.449306	0.161615	0.172140	0.232787	0.208497	0.084283	0.202303	0.195055	0.208588	0.278389	0.188805	0.172268	0.171217	0.135869	0.353808	0.437765	0.193539	0.301692	0.232563	0.191238	0.265616	0.249530	0.181409	0.293010	0.198722	0.254955	0.128648	0.278339	0.209389	0.224798	0.220122	0.299889	0.193779
31	0.109590	0.097653	0.421714	0.768319	0.198864	0.450234	0.296848	0.246351	0.679070	0.113267	0.425796	0.338592	0.415970	0.433499	0.146301	0.305092	0.046258	0.089020	0.561071	0.356059	0.405633	0.300879	0.109795	0.145721	0.101719	0.224113	0.343108	0.252603	0.097218	0.262740	0.165713	0.396242	0.368779	0.502521	0.429519	0.299233	0.525860	0.400779	0.266722	0.581775	0.165519	0.170591	0.225609	0.190333	0.086353	0.166004	0.207426	0.258103	0.203875	0.189970	0.164614	0.204227	0.183758	0.327514	0.470698	0.205082	0.272222	0.164016	0.193365	0.269144	0.349046	0.242779	0.384246	0.206516	0.250836	0.129585	0.281002	0.263972	0.244725	0.267716	0.404475	0.229002
32	0.107617	0.101348	0.381686	0.774862	0.197048	0.552861	0.300004	0.237142	0.674975	0.128205	0.421654	0.335012	0.506371	0.523247	0.240155	0.308860	0.041228	0.078336	0.548850	0.406151	0.384851	0.298298	0.183115	0.146183	0.095601	0.228256	0.351993	0.257505	0.091639	0.256260	0.295801	0.420209	0.370994	0.507883	0.452801	0.294968	0.531356	0.369510	0.274801	0.589875	0.168452	0.174599	0.231709	0.187503	0.086860	0.141410	0.244381	0.312681	0.099890	0.199706	0.157780	0.206238	0.196868	0.305828	0.634289	0.265260	0.252906	0.200951	0.257451	0.270528	0.437677	0.280128	0.407750	0.218065	0.264150	0.133591	0.278807	0.265689	0.265581	0.264858	0.467588	0.239712
33	0.109080	0.098776	0.381737	0.814973	0.196347	0.641071	0.299662	0.394560	0.673670	0.129269	0.412372	0.332715	0.913900	0.653727	0.264683	0.290249	0.046599	0.087532	0.531485	0.411162	0.380518	0.285433	0.195288	0.142481	0.106772	0.248504	0.347972	0.260476	0.081637	0.257131	0.454763	0.418308	0.372217	0.507761	0.443831	0.288319	0.536507	0.324702	0.305457	0.590489	0.168363	0.195998	0.233101	0.205878	0.083438	0.125871	0.257936	0.331119	0.057660	0.206527	0.157496	0.205130	0.200818	0.302660	0.654924	0.275662	0.182509	0.224741	0.256527	0.265208	0.438677	0.274069	0.515368	0.220478	0.280367	0.137830	0.309168	0.282928	0.268121	0.261174	0.543260	0.303844
34	0.136063	0.087205	0.356329	0.849334	0.196724	0.668234	0.293949	0.408863	0.669492	0.141304	0.382990	0.307936	0.931965	0.651404	0.285043	0.332537	0.096406	0.107128	0.594227	0.417652	0.285117	0.273511	0.253516	0.157098	0.162204	0.258265	0.343375	0.243228	0.088738	0.259012	0.496580	0.443376	0.362662	0.489289	0.444896	0.283141	0.527820	0.282544	0.347379	0.614174	0.187216	0.224759	0.241562	0.242909	0.081025	0.126945	0.265659	0.338782	0.047984	0.223834	0.158433	0.208520	0.198267	0.288864	0.658384	0.330040	0.162372	0.223924	0.269514	0.249943	0.442346	0.281310	0.656093	0.234190	0.292121	0.140806	0.382486	0.287476	0.280960	0.259098	0.592481	0.372367
35	0.156302	0.130805	0.489764	0.846121	0.188555	0.672890	0.288491	0.402566	0.657722	0.146665	0.332169	0.267939	0.932143	0.648783	0.371819	0.343227	0.126802	0.126830	0.598999	0.446442	0.199980	0.245680	0.288833	0.212067	0.188085	0.247873	0.343360	0.220410	0.129328	0.259931	0.498971	0.450090	0.346384	0.466499	0.450134	0.282782	0.509454	0.301180	0.353712	0.629481	0.250990	0.242028	0.243778	0.269910	0.075895	0.126952	0.243467	0.344269	0.056490	0.220881	0.159956	0.234165	0.196486	0.249820	0.655762	0.350642	0.160932	0.237219	0.288665	0.276286	0.445611	0.289414	0.657131	0.238903	0.296150	0.145236	0.437730	0.286858	0.280593	0.251480	0.629701	0.400647
36	0.157562	0.336442	0.522639	0.830582	0.155222	0.634403	0.326740	0.390295	0.645694	0.158263	0.286576	0.220712	0.932816	0.634718	0.390754	0.348070	0.194613	0.125558	0.596745	0.458204	0.189569	0.249948	0.338791	0.224823	0.187743	0.236883	0.336318	0.211429	0.148480	0.273105	0.543329	0.488251	0.341926	0.459853	0.451544	0.295941	0.501520	0.328868	0.349293	0.624196	0.266495	0.256085	0.248306	0.319732	0.066500	0.121636	0.237315	0.347109	0.060983	0.216920	0.160097	0.258087	0.191314	0.266991	0.649015	0.348883	0.138264	0.238411	0.309208	0.297120	0.407094	0.283578	0.658225	0.241025	0.302680	0.144293	0.439141	0.284263	0.279615	0.262197	0.623297	0.403574
37	0.186016	0.345265	0.528093	0.836659	0.124489	0.611684	0.330015	0.417635	0.627183	0.178177	0.269483	0.207193	0.925420	0.608673	0.418779	0.380799	0.206466	0.150393	0.602011	0.453149	0.235948	0.249369	0.364754	0.236615	0.188701	0.232728	0.331971	0.217012	0.153695	0.244800	0.630369	0.498584	0.333427	0.458317	0.450853	0.318204	0.474219	0.412918	0.370558	0.607019	0.274272	0.271138	0.300369	0.384001	0.064926	0.118560	0.247353	0.333807	0.057484	0.212988	0.163707	0.259957	0.165585	0.241451	0.602695	0.340230	0.136640	0.230917	0.325885	0.366587	0.396210	0.258029	0.637568	0.234130	0.306701	0.136157	0.437433	0.336751	0.265219	0.262766	0.621540	0.397324
38	0.235215	0.347132	0.539842	0.836599	0.123492	0.607422	0.305404	0.410452	0.587285	0.175560	0.269146	0.207513	0.889868	0.558605	0.425537	0.479997	0.214601	0.156492	0.610892	0.433531	0.235252	0.255785	0.368804	0.254671	0.191840	0.229643	0.353182	0.206328	0.196204	0.241310	0.692340	0.495400	0.319421	0.458134	0.432690	0.260117	0.319528	0.412296	0.426896	0.598520	0.283100	0.283139	0.389597	0.398414	0.075627	0.119342	0.257445	0.294235	0.055816	0.210143	0.176372	0.269254	0.156877	0.234998	0.566961	0.339707	0.136850	0.224871	0.333487	0.372857	0.386761	0.253838	0.606465	0.179049	0.304492	0.123287	0.440265	0.393710	0.214340	0.259999	0.583167	0.383739
39	0.258905	0.347945	0.501570	0.591517	0.102378	0.608074	0.306924	0.406626	0.575732	0.178987	0.240683	0.202611	0.861061	0.521137	0.456632	0.489427	0.217980	0.156267	0.660175	0.431421	0.226310	0.268325	0.379166	0.269749	0.195158	0.222327	0.392481	0.209203	0.218387	0.236370	0.699994	0.531749	0.311719	0.449402	0.417033	0.200345	0.168590	0.415311	0.428440	0.545495	0.289222	0.287726	0.453835	0.401899	0.149297	0.206205	0.247878	0.268930	0.055758	0.209237	0.207773	0.290211	0.128454	0.238811	0.511440	0.302057	0.117893	0.227141	0.323310	0.398121	0.318283	0.201378	0.551277	0.175606	0.296236	0.108284	0.482530	0.419793	0.156531	0.161328	0.558472	0.385102
40	0.396724	0.392322	0.518012	0.513734	0.096041	0.601302	0.354431	0.406579	0.322907	0.185122	0.197707	0.195798	0.845390	0.522624	0.532938	0.500642	0.232412	0.175958	0.677145	0.343167	0.231778	0.282992	0.449151	0.273018	0.195109	0.206268	0.379373	0.220228	0.241785	0.160412	0.705568	0.587844	0.311060	0.440667	0.406117	0.195078	0.159702	0.410619	0.430389	0.549411	0.295827	0.283453	0.464084	0.415462	0.186871	0.278669	0.228554	0.201223	0.060891	0.214674	0.256728	0.304326	0.144704	0.283473	0.312130	0.251151	0.098830	0.242183	0.324452	0.421359	0.127672	0.120152	0.525524	0.157794	0.273794	0.092592	0.520469	0.427818	0.130039	0.149529	0.466451	0.368664
41	0.441530	0.434652	0.538197	0.450521	0.102847	0.549971	0.370593	0.403948	0.099669	0.255010	0.167511	0.186190	0.806421	0.454684	0.536388	0.452801	0.241406	0.199721	0.666725	0.298575	0.236855	0.292196	0.474212	0.271503	0.190803	0.176176	0.348272	0.219671	0.256981	0.155939	0.708601	0.585249	0.259848	0.410610	0.403097	0.202345	0.145473	0.403603	0.439267	0.564275	0.297428	0.271786	0.464468	0.442941	0.197437	0.369234	0.202409	0.209589	0.078104	0.221753	0.261568	0.301398	0.175711	0.284442	0.283544	0.235276	0.089648	0.266053	0.285151	0.436581	0.122172	0.119810	0.451663	0.150335	0.251424	0.086016	0.539408	0.430162	0.136205	0.150124	0.414980	0.345397
42	0.445181	0.451815	0.535452	0.466187	0.104959	0.445725	0.372974	0.400097	0.098773	0.279367	0.156635	0.182979	0.273082	0.259514	0.540558	0.559587	0.245409	0.239261	0.637339	0.300881	0.236147	0.292368	0.492899	0.269441	0.185595	0.172724	0.340753	0.241863	0.257666	0.155481	0.636637	0.573653	0.201354	0.351555	0.404988	0.204849	0.135090	0.367418	0.454728	0.582235	0.293473	0.261529	0.479180	0.476283	0.280610	0.542378	0.195865	0.183987	0.094918	0.210641	0.273606	0.301171	0.246398	0.291989	0.267277	0.137383	0.091233	0.336055	0.296021	0.442104	0.107473	0.103359	0.118478	0.125204	0.234036	0.128071	0.527097	0.429662	0.137208	0.142180	0.340248	0.255181
43	0.437891	0.505658	0.406506	0.443254	0.103569	0.302848	0.372797	0.248114	0.101942	0.289805	0.147558	0.218688	0.194731	0.245576	0.552804	0.658505	0.233303	0.256245	0.565257	0.306791	0.232275	0.224734	0.472606	0.246664	0.184251	0.174211	0.338760	0.270248	0.266768	0.159767	0.553603	0.573477	0.147155	0.289746	0.402735	0.206340	0.117690	0.352592	0.435398	0.556418	0.283022	0.254807	0.517977	0.498022	0.328325	0.562324	0.204165	0.184658	0.097639	0.211695	0.274796	0.284799	0.251574	0.286733	0.226712	0.079009	0.094482	0.339561	0.284649	0.438350	0.078742	0.084256	0.107862	0.108279	0.234323	0.152569	0.533983	0.386748	0.117635	0.155537	0.215660	0.205770
44	0.589609	0.409209	0.351203	0.448256	0.102859	0.236446	0.372729	0.222951	0.101646	0.295664	0.142542	0.239426	0.200350	0.246140	0.621319	0.683620	0.229151	0.249948	0.592092	0.267984	0.232172	0.199624	0.456366	0.221691	0.182126	0.172073	0.369467	0.343182	0.269395	0.197746	0.531921	0.526383	0.124403	0.167754	0.334854	0.229722	0.092290	0.331467	0.433523	0.546850	0.277696	0.257115	0.580806	0.544699	0.339817	0.562874	0.202132	0.184399	0.097702	0.218214	0.284120	0.271878	0.276591	0.265154	0.210776	0.136801	0.100403	0.367057	0.293891	0.404100	0.064766	0.098942	0.099951	0.102920	0.205885	0.162138	0.536932	0.362808	0.123914	0.157479	0.188480	0.176531
45	0.654259	0.409883	0.336796	0.462772	0.102324	0.218667	0.371022	0.217624	0.103612	0.375031	0.141201	0.321399	0.199991	0.244577	0.638490	0.686781	0.241186	0.259486	0.545285	0.270008	0.203494	0.188560	0.421743	0.189217	0.180499	0.168060	0.391398	0.377098	0.265774	0.212178	0.524770	0.511926	0.120602	0.154739	0.253613	0.259047	0.087609	0.287590	0.433093	0.545797	0.278760	0.266555	0.607156	0.552451	0.372654	0.563282	0.207991	0.190859	0.097285	0.220109	0.318016	0.273979	0.289995	0.246254	0.151317	0.193693	0.120673	0.418069	0.325179	0.403908	0.040195	0.124574	0.105237	0.253000	0.190660	0.176742	0.538378	0.363905	0.134429	0.160406	0.143213	0.146228
46	0.656614	0.438870	0.301558	0.469643	0.090365	0.164335	0.333831	0.187547	0.105843	0.387887	0.136573	0.392840	0.199905	0.242323	0.621868	0.678619	0.255579	0.271284	0.538732	0.262548	0.151708	0.205660	0.405555	0.179195	0.175245	0.140328	0.393601	0.416252	0.267593	0.204535	0.450780	0.497730	0.126753	0.157863	0.265076	0.287344	0.085829	0.152172	0.393920	0.518467	0.281337	0.273931	0.617423	0.555259	0.379080	0.564048	0.294923	0.223184	0.098671	0.269179	0.385903	0.298181	0.288975	0.210710	0.165919	0.209742	0.135072	0.497782	0.395965	0.363306	0.020308	0.165247	0.120173	0.497663	0.175330	0.194723	0.537008	0.349904	0.181506	0.221950	0.143819	0.111896
47	0.663297	0.441976	0.264291	0.428943	0.085135	0.140335	0.290044	0.108617	0.105896	0.387073	0.145905	0.457674	0.208821	0.238923	0.626535	0.643094	0.263353	0.267266	0.522963	0.257551	0.120669	0.204936	0.409228	0.159351	0.131724	0.112004	0.388818	0.444563	0.267752	0.194810	0.316162	0.502578	0.149769	0.153721	0.286368	0.303198	0.105716	0.137483	0.283446	0.504791	0.281774	0.275755	0.622221	0.555439	0.371613	0.545667	0.356261	0.223273	0.103698	0.278650	0.449419	0.324983	0.280276	0.207483	0.179404	0.211627	0.137085	0.526129	0.406804	0.358934	0.024981	0.213105	0.130212	0.539955	0.184369	0.194744	0.504901	0.347355	0.183043	0.252198	0.127456	0.076374
48	0.610216	0.421165	0.247854	0.422761	0.080841	0.138444	0.284804	0.136707	0.105946	0.407750	0.151241	0.537476	0.196231	0.247301	0.614367	0.658520	0.277823	0.276245	0.451507	0.255523	0.121631	0.199221	0.411316	0.106395	0.076847	0.113041	0.381698	0.454514	0.234421	0.187975	0.204393	0.494076	0.149003	0.156455	0.354597	0.316399	0.119595	0.142408	0.300635	0.432676	0.282002	0.265851	0.625325	0.547880	0.389634	0.519616	0.366047	0.235851	0.101569	0.299235	0.487092	0.311684	0.269143	0.147103	0.344409	0.216449	0.135647	0.526770	0.519313	0.341439	0.028725	0.299841	0.139364	0.750138	0.203270	0.193840	0.495738	0.519874	0.189722	0.274723	0.107555	0.087359
49	0.555027	0.369168	0.198945	0.435369	0.073998	0.131573	0.280334	0.157325	0.107985	0.400951	0.170246	0.536715	0.176041	0.233359	0.542026	0.644710	0.379087	0.298059	0.418876	0.235278	0.108435	0.167326	0.341728	0.088962	0.079027	0.116699	0.381766	0.453378	0.215387	0.185961	0.193343	0.416904	0.147423	0.183003	0.461152	0.329756	0.121766	0.142706	0.323329	0.285767	0.278105	0.242536	0.626470	0.524605	0.396636	0.448127	0.495880	0.251596	0.110722	0.315043	0.496799	0.289129	0.252211	0.145160	0.417080	0.219107	0.133896	0.518598	0.540384	0.313489	0.068042	0.324922	0.207492	1.012168	0.215113	0.193521	0.612074	0.731404	0.209110	0.285190	0.224024	0.258007
50	0.554781	0.347915	0.179949	0.453102	0.071325	0.127462	0.205355	0.175482	0.111839	0.412066	0.309698	0.535428	0.142283	0.233033	0.513966	0.644803	0.425549	0.313437	0.433301	0.210823	0.077813	0.140677	0.272354	0.094474	0.078642	0.117047	0.384519	0.453118	0.194184	0.201730	0.160346	0.333708	0.146589	0.208513	0.467219	0.320839	0.122574	0.141786	0.296322	0.267739	0.225469	0.223417	0.626766	0.503716	0.363763	0.273319	0.584907	0.257987	0.119643	0.314526	0.499337	0.317971	0.226349	0.131547	0.426691	0.225694	0.125877	0.502402	0.541874	0.293373	0.141230	0.341649	0.396385	1.073095	0.207852	0.197306	0.695532	0.744678	0.210158	0.292573	0.422502	0.412586
51	0.562030	0.255896	0.200921	0.408145	0.065530	0.158905	0.159423	0.181545	0.115763	0.431407	0.477681	0.583882	0.152101	0.353834	0.517901	0.555809	0.424475	0.286942	0.450286	0.199291	0.077494	0.138750	0.210765	0.097791	0.071607	0.140833	0.369512	0.468688	0.187828	0.219854	0.114149	0.338756	0.146508	0.217131	0.468462	0.312543	0.122907	0.154428	0.259619	0.230021	0.194307	0.208098	0.626695	0.490733	0.295929	0.139613	0.592931	0.275255	0.189040	0.315877	0.517483	0.361321	0.276600	0.155378	0.528685	0.266055	0.122308	0.444005	0.536026	0.287735	0.155978	0.343109	0.551999	1.079459	0.206576	0.198414	0.715125	0.719548	0.210185	0.287020	0.509935	0.437578
52	0.491621	0.232471	0.203643	0.409900	0.068686	0.199880	0.158283	0.179156	0.113877	0.443508	0.595488	0.628440	0.212364	0.476998	0.538407	0.411735	0.422976	0.267264	0.447212	0.218390	0.103335	0.146312	0.194217	0.110391	0.061687	0.209761	0.319948	0.462035	0.185860	0.223009	0.119592	0.353540	0.146352	0.215873	0.460627	0.315827	0.130592	0.165730	0.268143	0.216105	0.182525	0.190948	0.602680	0.445329	0.286717	0.135109	0.591344	0.270349	0.263145	0.316520	0.557105	0.377711	0.264048	0.174906	0.601629	0.365575	0.125447	0.437136	0.533706	0.290537	0.168758	0.344619	0.577033	1.101727	0.207778	0.212379	0.687154	0.706866	0.235029	0.278138	0.537937	0.480601
53	0.289118	0.232641	0.210708	0.361679	0.087018	0.224735	0.161059	0.178700	0.102710	0.434787	0.696419	0.665234	0.227563	0.668883	0.460898	0.386651	0.417489	0.273566	0.387434	0.217512	0.135223	0.154256	0.192896	0.110732	0.060449	0.284366	0.285655	0.482344	0.174062	0.210399	0.182267	0.403601	0.146526	0.212000	0.487526	0.324963	0.130812	0.166276	0.276710	0.216786	0.170303	0.169384	0.554694	0.423215	0.243584	0.133584	0.588564	0.270675	0.261999	0.313575	0.565893	0.390787	0.255501	0.158893	0.608824	0.392468	0.124668	0.408836	0.523352	0.269671	0.195602	0.343538	0.713240	1.096998	0.204658	0.245131	0.669648	0.709882	0.245733	0.274577	0.738459	0.618897
54	0.259852	0.186465	0.210406	0.361159	0.112034	0.254785	0.187020	0.186786	0.095038	0.403711	0.721205	0.738811	0.241008	0.696353	0.436296	0.381089	0.384144	0.292792	0.326278	0.184017	0.165461	0.180830	0.188616	0.109064	0.059609	0.344364	0.289326	0.533395	0.153428	0.187823	0.384752	0.434366	0.165593	0.220725	0.549680	0.348736	0.130953	0.170163	0.276150	0.209273	0.159028	0.151064	0.502259	0.447025	0.237100	0.135018	0.544219	0.266620	0.257864	0.299622	0.566711	0.392906	0.254044	0.154686	0.591018	0.420373	0.106354	0.373704	0.521473	0.370889	0.215785	0.347286	0.805569	1.027187	0.198289	0.258628	0.682337	0.722459	0.245864	0.270541	0.773712	0.732675
55	0.208167	0.185061	0.209278	0.386707	0.145029	0.258738	0.209058	0.194595	0.087369	0.393345	0.779564	0.752455	0.255928	0.696644	0.435673	0.362823	0.371225	0.304934	0.227793	0.174358	0.175198	0.173517	0.206405	0.188104	0.067346	0.379885	0.339098	0.559378	0.132872	0.202061	0.499065	0.435331	0.196357	0.233436	0.653469	0.384237	0.130218	0.181454	0.271192	0.206959	0.150817	0.138117	0.529324	0.529675	0.247143	0.134811	0.498073	0.268056	0.252104	0.283655	0.565106	0.402612	0.252298	0.147454	0.585946	0.422604	0.073919	0.242630	0.558178	0.363896	0.240284	0.348625	0.823683	1.006395	0.198251	0.284347	0.775960	0.744279	0.241345	0.237694	0.774307	0.750628
56	0.201834	0.189572	0.196303	0.439639	0.177184	0.259006	0.215223	0.205058	0.091390	0.386798	0.857920	0.749502	0.249748	0.697889	0.445558	0.301112	0.363067	0.311744	0.225481	0.177795	0.302833	0.189156	0.274182	0.282370	0.056082	0.390263	0.414013	0.560689	0.112968	0.270599	0.534640	0.476169	0.250437	0.250250	0.716764	0.407317	0.118814	0.208778	0.259868	0.195098	0.131466	0.138392	0.654611	0.700093	0.187920	0.110797	0.485425	0.255088	0.251785	0.274591	0.570954	0.412961	0.238451	0.148422	0.497308	0.471615	0.065467	0.167158	0.585374	0.404472	0.247780	0.299074	0.825489	0.903614	0.221654	0.298635	0.801053	0.777876	0.246265	0.216575	0.774180	0.768403
57	0.197261	0.183641	0.196558	0.429892	0.195927	0.261311	0.245556	0.242487	0.109101	0.364096	0.899898	0.744692	0.253489	0.697108	0.443513	0.250815	0.352331	0.311364	0.323796	0.240897	0.386896	0.378608	0.349976	0.287578	0.070967	0.491190	0.432780	0.523940	0.114436	0.309930	0.546335	0.543329	0.304134	0.260847	0.722919	0.399470	0.115713	0.221133	0.254612	0.177732	0.133581	0.139177	0.752126	0.698099	0.148291	0.114141	0.403206	0.201938	0.254458	0.277739	0.583511	0.428091	0.239428	0.150291	0.456663	0.502149	0.072839	0.187017	0.509085	0.437194	0.242247	0.303838	0.811688	0.639370	0.233356	0.297548	0.814944	0.801338	0.229384	0.199234	0.771357	0.770405
58	0.165212	0.187493	0.202394	0.353540	0.327654	0.300713	0.294177	0.231170	0.180146	0.287196	0.934227	0.702612	0.254042	0.695282	0.437709	0.239201	0.230717	0.285999	0.337439	0.253602	0.408857	0.446847	0.412225	0.299734	0.183557	0.547593	0.417621	0.495546	0.115768	0.399098	0.675161	0.549810	0.330601	0.260907	0.721267	0.381655	0.121599	0.231902	0.305056	0.184231	0.132063	0.141455	0.795582	0.718503	0.145812	0.117046	0.171549	0.186253	0.255611	0.283681	0.568094	0.505919	0.186566	0.135611	0.449951	0.503171	0.081313	0.188274	0.486735	0.453052	0.220588	0.363909	0.757199	0.514885	0.247123	0.327718	0.836360	0.808559	0.205257	0.187865	0.704107	0.694791
59	0.125009	0.204049	0.184289	0.329516	0.484952	0.351920	0.302296	0.238682	0.211326	0.290476	0.959821	0.683506	0.251695	0.689994	0.426437	0.232228	0.108797	0.277745	0.404549	0.320776	0.426643	0.446881	0.430602	0.314412	0.374649	0.563260	0.417417	0.460675	0.117550	0.397581	0.782484	0.547522	0.336460	0.259109	0.725034	0.362140	0.115368	0.243237	0.329653	0.162038	0.130134	0.143713	0.769773	0.794370	0.144273	0.114586	0.109379	0.156300	0.259440	0.246334	0.547578	0.540776	0.107436	0.105057	0.295861	0.471567	0.086650	0.182879	0.538908	0.456954	0.280898	0.428057	0.682541	0.625584	0.260676	0.330626	0.837016	0.814005	0.198664	0.198404	0.615099	0.649919
60	0.095451	0.200600	0.185222	0.319332	0.519781	0.351334	0.296724	0.290355	0.218520	0.285988	0.979108	0.634943	0.232344	0.627884	0.399933	0.227077	0.109559	0.284160	0.604237	0.323898	0.428690	0.447322	0.635935	0.318492	0.534753	0.567383	0.435450	0.430650	0.104613	0.409297	0.803180	0.576571	0.336054	0.263484	0.735456	0.351164	0.106348	0.245278	0.313112	0.146898	0.120250	0.125254	0.743780	0.810626	0.146004	0.114224	0.095792	0.149997	0.262516	0.221119	0.589380	0.521975	0.061153	0.124035	0.149006	0.376593	0.101760	0.194151	0.576498	0.454256	0.278834	0.425812	0.680926	0.633672	0.261474	0.347751	0.841336	0.814153	0.195569	0.204209	0.588746	0.643236
61	0.067581	0.188235	0.190126	0.314451	0.521050	0.331376	0.343683	0.306867	0.263190	0.296531	0.985716	0.588010	0.178403	0.574885	0.349357	0.188712	0.109440	0.280656	0.765412	0.319475	0.426376	0.445912	0.713451	0.324189	0.670862	0.581625	0.460959	0.421546	0.095548	0.462705	0.803457	0.613455	0.339763	0.274080	0.717497	0.340617	0.096533	0.319578	0.314407	0.154648	0.107349	0.108081	0.732294	0.812247	0.144639	0.114285	0.085643	0.143279	0.263798	0.194831	0.711599	0.521589	0.057558	0.161699	0.115073	0.329823	0.123428	0.206503	0.630160	0.453163	0.261013	0.422421	0.548639	0.608460	0.244863	0.352593	0.823630	0.669893	0.147142	0.205694	0.447648	0.556488
62	0.062120	0.197598	0.201211	0.308744	0.522512	0.302326	0.362354	0.308587	0.322578	0.330155	0.981170	0.594231	0.156232	0.402461	0.269433	0.126140	0.114592	0.275339	0.778443	0.331138	0.420247	0.440986	0.727974	0.343212	0.693164	0.599569	0.518230	0.429431	0.097638	0.476199	0.812574	0.647207	0.385705	0.265062	0.648853	0.319817	0.095659	0.461235	0.333472	0.157182	0.103967	0.097604	0.753112	0.848444	0.132296	0.111074	0.088108	0.117858	0.260390	0.163339	0.878673	0.522144	0.053073	0.176603	0.112199	0.293121	0.148846	0.220567	0.654313	0.475162	0.249476	0.410486	0.397495	0.579653	0.260847	0.352421	0.731957	0.462105	0.125901	0.180179	0.166872	0.364860
63	0.070993	0.223339	0.250283	0.301256	0.520806	0.283669	0.362649	0.310766	0.334330	0.357365	0.938445	0.597492	0.131711	0.357547	0.316954	0.125279	0.113448	0.250450	0.837444	0.346370	0.410045	0.433311	0.731002	0.420227	0.716424	0.639760	0.544864	0.435039	0.092549	0.527823	0.798180	0.620971	0.447552	0.251237	0.641124	0.323187	0.097209	0.510182	0.337404	0.157273	0.105100	0.103285	0.785535	1.049666	0.090452	0.109641	0.089805	0.084227	0.255277	0.162468	0.944368	0.507071	0.052452	0.185768	0.088034	0.285564	0.162327	0.258396	0.646903	0.409447	0.230073	0.443405	0.416416	0.572193	0.312386	0.384821	0.666555	0.428761	0.080105	0.141806	0.142286	0.237788
64	0.069647	0.217124	0.267584	0.192556	0.516064	0.267354	0.358217	0.309537	0.355726	0.348467	0.861838	0.539803	0.096381	0.356480	0.354439	0.124878	0.105508	0.203754	0.906839	0.375984	0.403603	0.427692	0.729074	0.409187	0.720417	0.724338	0.549625	0.417757	0.091136	0.541941	0.719004	0.595626	0.465400	0.259491	0.640350	0.330769	0.092073	0.571842	0.338622	0.170403	0.106831	0.132156	0.810751	1.173045	0.109781	0.119002	0.143896	0.112404	0.221695	0.160056	0.939967	0.480279	0.055641	0.222661	0.127349	0.192299	0.181839	0.301256	0.632213	0.360538	0.233701	0.498487	0.422952	0.555212	0.355701	0.440977	0.648754	0.429768	0.066486	0.151173	0.147096	0.178633
65	0.069241	0.217220	0.240416	0.198612	0.507510	0.297159	0.369579	0.307549	0.372978	0.458602	0.788413	0.503696	0.095801	0.353272	0.323419	0.127388	0.098706	0.191306	0.938633	0.386075	0.346117	0.441970	0.713865	0.338928	0.820755	0.772706	0.544942	0.407144	0.091375	0.532369	0.667869	0.607813	0.488197	0.275850	0.647182	0.327884	0.100597	0.566228	0.366802	0.205658	0.108188	0.197511	0.836788	1.181267	0.104818	0.109973	0.155606	0.110818	0.114609	0.158616	0.942599	0.483615	0.074383	0.247962	0.144649	0.274094	0.250207	0.357508	0.685801	0.321500	0.240425	0.521693	0.422748	0.495422	0.366487	0.433245	0.644283	0.430404	0.065797	0.162623	0.150511	0.214493
66	0.067523	0.215328	0.292378	0.224935	0.497596	0.324172	0.384116	0.308072	0.373225	0.536117	0.700228	0.418373	0.084994	0.350211	0.361775	0.124824	0.091319	0.178823	0.917441	0.349162	0.261621	0.393723	0.677302	0.325091	0.906120	0.795862	0.543992	0.378398	0.085746	0.494728	0.659033	0.522373	0.501965	0.277711	0.630970	0.334783	0.137736	0.577294	0.355793	0.221528	0.108748	0.292358	0.854964	1.374512	0.102360	0.102409	0.156044	0.106746	0.148474	0.157273	0.986711	0.493810	0.078278	0.266882	0.139443	0.272199	0.275010	0.494287	0.694603	0.265969	0.244868	0.601747	0.413540	0.493005	0.403016	0.436477	0.638744	0.415268	0.089026	0.184230	0.162068	0.267852
67	0.071694	0.204221	0.337714	0.273593	0.498584	0.332331	0.369211	0.285957	0.388789	0.532316	0.687816	0.311369	0.085466	0.360884	0.421572	0.143600	0.115135	0.186134	0.911848	0.336978	0.208401	0.202074	0.634348	0.319420	1.014551	0.932551	0.541348	0.302666	0.075741	0.446832	0.627086	0.502970	0.498176	0.269837	0.582274	0.371213	0.165990	0.579881	0.296582	0.215858	0.113710	0.368405	0.874816	1.469146	0.110759	0.109129	0.174503	0.115241	0.194232	0.158163	1.057533	0.501680	0.081928	0.269225	0.140430	0.274151	0.286387	0.500320	0.719617	0.225168	0.189695	0.560969	0.350835	0.356950	0.589673	0.487478	0.575240	0.398139	0.121385	0.195616	0.283373	0.324378
68	0.074194	0.212072	0.348640	0.289679	0.446569	0.344907	0.358029	0.292354	0.437485	0.532225	0.609150	0.309041	0.085958	0.364345	0.430057	0.148338	0.254714	0.183478	0.877102	0.272733	0.205788	0.205407	0.621432	0.299717	1.089773	0.941893	0.515621	0.225995	0.074091	0.404339	0.449445	0.462304	0.487743	0.258710	0.476220	0.379320	0.164681	0.574837	0.276057	0.217556	0.135134	0.470272	0.888269	1.475574	0.108646	0.111759	0.244055	0.114568	0.256833	0.157727	1.105297	0.498305	0.112893	0.242401	0.146560	0.306991	0.380800	0.503809	0.686334	0.204308	0.246347	0.559572	0.306043	0.256772	0.649472	0.544035	0.486490	0.395937	0.130317	0.204923	0.458961	0.339913
69	0.080791	0.213186	0.449562	0.576138	0.289024	0.323364	0.380020	0.277329	0.498311	0.534530	0.508097	0.306030	0.083167	0.358439	0.429146	0.148211	0.376606	0.189879	0.745753	0.264943	0.203297	0.233197	0.478182	0.290147	1.095869	0.958754	0.456783	0.183561	0.070984	0.401296	0.313306	0.428174	0.463141	0.235738	0.393117	0.365130	0.167769	0.565042	0.284072	0.217736	0.173350	0.546010	0.890467	1.494518	0.113807	0.116898	0.249338	0.122428	0.327418	0.164780	1.120670	0.497952	0.200754	0.221832	0.175747	0.352243	0.571795	0.498789	0.659659	0.216214	0.257814	0.558958	0.383070	0.251596	0.659583	0.567924	0.482266	0.338045	0.127886	0.205502	0.535194	0.362574
70	0.097129	0.201330	0.559829	0.625607	0.227004	0.325188	0.382274	0.219007	0.560017	0.548300	0.436728	0.336433	0.084854	0.307414	0.430219	0.158836	0.479362	0.193011	0.586131	0.239400	0.294524	0.331020	0.243811	0.283279	1.095411	0.927297	0.397640	0.204196	0.069473	0.353018	0.300810	0.373471	0.429372	0.251613	0.406860	0.360051	0.222303	0.513751	0.269264	0.214506	0.199530	0.550295	0.873623	1.476341	0.114150	0.118878	0.258827	0.118659	0.444133	0.170673	1.122215	0.486278	0.201275	0.213963	0.176458	0.373358	0.584034	0.497865	0.623657	0.233705	0.257379	0.558669	0.542610	0.258535	0.663414	0.580409	0.458229	0.312349	0.134800	0.206101	0.563469	0.406607
71	0.100831	0.141230	0.563847	0.629241	0.233120	0.326349	0.323899	0.211689	0.610851	0.578569	0.390078	0.462226	0.087080	0.206159	0.460324	0.172443	0.508075	0.189236	0.612659	0.216808	0.340750	0.389938	0.167682	0.275604	1.087188	0.893871	0.377699	0.209153	0.063277	0.289530	0.304138	0.282136	0.410383	0.271776	0.461161	0.361162	0.232371	0.404684	0.241752	0.207872	0.228694	0.629690	0.794568	1.439926	0.111906	0.115798	0.309498	0.141139	0.501545	0.157319	1.125290	0.404721	0.200937	0.202140	0.191004	0.374227	0.579216	0.495351	0.592960	0.186455	0.255282	0.531276	0.520706	0.244430	0.659447	0.608206	0.423923	0.306664	0.136931	0.206027	0.655745	0.423699
72	0.125492	0.131113	0.622613	0.647092	0.228871	0.329681	0.298401	0.223309	0.619608	0.587176	0.483528	0.482684	0.091903	0.255653	0.446601	0.167275	0.797361	0.181317	0.557303	0.192327	0.339760	0.505254	0.131960	0.092019	1.043885	0.884027	0.373264	0.215740	0.045980	0.255288	0.257909	0.216256	0.400736	0.320596	0.467319	0.368634	0.232763	0.347803	0.251171	0.211998	0.278009	0.768808	0.689894	1.441079	0.076139	0.086105	0.315730	0.146874	0.506045	0.134730	1.117127	0.329172	0.199199	0.145233	0.338611	0.351719	0.576671	0.471764	0.598362	0.176758	0.252101	0.466522	0.584486	0.224258	0.651117	0.621371	0.398054	0.296296	0.143173	0.205991	0.680389	0.428294
73	0.126221	0.130190	0.730259	0.650311	0.226271	0.332638	0.297136	0.239988	0.736525	0.630312	0.592547	0.473824	0.094758	0.264114	0.421078	0.175612	0.892280	0.186547	0.438465	0.138162	0.341351	0.565220	0.155904	0.101728	0.978578	0.880395	0.349890	0.225990	0.050184	0.113525	0.224372	0.231840	0.393402	0.367545	0.450676	0.384019	0.233437	0.270484	0.248428	0.200759	0.304756	0.851599	0.599280	1.477623	0.076136	0.084346	0.320419	0.141768	0.506536	0.122914	1.075741	0.329160	0.194289	0.117079	0.419549	0.261933	0.571870	0.440516	0.546336	0.192136	0.245730	0.420822	0.676419	0.203437	0.644979	0.619049	0.382865	0.334235	0.143164	0.194035	0.708154	0.410281
74	0.126218	0.128256	0.718715	0.658732	0.226090	0.327969	0.291812	0.242948	0.784635	0.625504	0.626148	0.511816	0.090020	0.277913	0.433327	0.177383	0.894282	0.211895	0.359903	0.111875	0.341541	0.558430	0.140700	0.108359	0.892966	0.871933	0.326670	0.228505	0.055771	0.039048	0.251847	0.240614	0.394667	0.370184	0.466244	0.391820	0.228261	0.269578	0.191922	0.156370	0.313427	0.866659	0.560704	1.479461	0.076183	0.110369	0.437224	0.147593	0.508661	0.139045	0.987000	0.332264	0.199855	0.069995	0.438526	0.261800	0.548425	0.412608	0.488706	0.381669	0.246078	0.206021	0.698591	0.185665	0.644474	0.617525	0.366400	0.413740	0.132558	0.183958	0.708039	0.361927
75	0.125423	0.107780	0.692793	0.641631	0.226832	0.297862	0.264191	0.244369	0.768932	0.603657	0.625381	0.587363	0.089360	0.278851	0.438494	0.190452	0.903037	0.318879	0.391656	0.103947	0.334715	0.570801	0.133473	0.100619	0.874021	0.859927	0.261807	0.220417	0.055221	0.036154	0.285627	0.232398	0.371595	0.409093	0.475935	0.396531	0.203574	0.227974	0.154200	0.120214	0.313384	0.868417	0.551175	1.451073	0.069542	0.106093	0.450356	0.170458	0.563460	0.139262	0.837927	0.333523	0.210096	0.079641	0.559681	0.257013	0.530268	0.171994	0.564708	0.390047	0.239695	0.145779	0.701380	0.179198	0.630617	0.618760	0.368939	0.444802	0.112608	0.164395	0.695382	0.301830
76	0.129368	0.090918	0.687806	0.703977	0.226419	0.287002	0.236930	0.381781	0.764892	0.580040	0.634449	0.622376	0.087426	0.261096	0.381744	0.174390	0.916062	0.322727	0.396768	0.149593	0.316150	0.580826	0.159730	0.093569	0.855654	0.834165	0.216330	0.208915	0.055652	0.053733	0.275783	0.216045	0.318786	0.443734	0.476722	0.383330	0.186461	0.211339	0.155789	0.123850	0.314390	0.869800	0.551003	1.487285	0.071520	0.105916	0.420345	0.170460	0.746453	0.168019	0.749287	0.334868	0.186073	0.094909	0.620626	0.210258	0.525821	0.127245	0.578665	0.390706	0.184602	0.140318	0.701042	0.172038	0.607394	0.590419	0.373899	0.443494	0.094630	0.124717	0.621708	0.284167
77	0.135138	0.102317	0.654865	0.705265	0.210780	0.289423	0.230513	0.387361	0.773452	0.571683	0.765442	0.649860	0.086523	0.232946	0.373912	0.170237	0.887612	0.310289	0.399054	0.213643	0.297359	0.596894	0.161210	0.106755	0.855712	0.765858	0.208401	0.200027	0.056232	0.062935	0.310107	0.228468	0.341429	0.541171	0.481856	0.376732	0.195919	0.209864	0.151588	0.132481	0.313664	0.874040	0.528920	1.487600	0.062777	0.099160	0.411740	0.168886	0.894689	0.215783	0.748891	0.326191	0.120436	0.101148	0.620021	0.123533	0.498341	0.116262	0.564151	0.399638	0.172781	0.133821	0.671397	0.205318	0.591750	0.577446	0.404650	0.458329	0.092603	0.107543	0.507193	0.269408
78	0.120764	0.104153	0.551108	0.631078	0.157543	0.253583	0.186647	0.390031	0.774484	0.457679	0.843495	0.679507	0.087922	0.235743	0.374244	0.172664	0.842408	0.296265	0.419404	0.222915	0.283003	0.616362	0.208290	0.155255	0.778532	0.694271	0.206312	0.197805	0.057963	0.091213	0.344655	0.237461	0.362732	0.650053	0.474105	0.376122	0.187446	0.209574	0.125285	0.158067	0.323618	0.875339	0.468889	1.368585	0.062243	0.100951	0.414493	0.179364	0.931374	0.277531	0.714818	0.345594	0.121709	0.102812	0.620473	0.072078	0.218973	0.124830	0.550986	0.433563	0.200519	0.112894	0.548880	0.230201	0.590950	0.597607	0.454923	0.463093	0.088958	0.105712	0.503261	0.204915
79	0.110827	0.104879	0.517290	0.625510	0.113848	0.235965	0.115407	0.390023	0.775040	0.398353	0.874976	0.691426	0.089104	0.240691	0.367248	0.161517	0.789162	0.295931	0.419699	0.346500	0.241161	0.572674	0.228299	0.205124	0.680609	0.662355	0.209256	0.200830	0.057585	0.108759	0.370328	0.252991	0.378186	0.657365	0.463267	0.362888	0.121760	0.204904	0.114016	0.158958	0.502214	0.894779	0.422509	1.249705	0.061137	0.119129	0.421104	0.178617	0.932480	0.321629	0.630842	0.380872	0.121879	0.102493	0.613808	0.089500	0.130282	0.106802	0.543168	0.550693	0.266225	0.059975	0.520624	0.246141	0.547679	0.607773	0.470566	0.482200	0.078495	0.103162	0.388262	0.124364
80	0.090084	0.124601	0.493534	0.602148	0.102690	0.299038	0.088915	0.383851	0.770002	0.397501	0.879414	0.774139	0.077864	0.249024	0.312142	0.131495	0.771743	0.295595	0.360118	0.373611	0.055704	0.545359	0.229714	0.202079	0.529261	0.397252	0.223644	0.227061	0.057001	0.185037	0.376868	0.265186	0.391965	0.695464	0.462340	0.297452	0.119139	0.165292	0.109519	0.205616	0.703783	0.931972	0.363586	1.235226	0.059601	0.120163	0.411353	0.158072	0.927053	0.349819	0.499763	0.420814	0.119896	0.102242	0.534316	0.089006	0.155734	0.142339	0.592955	0.611408	0.261178	0.055763	0.443658	0.246042	0.329159	0.578146	0.475825	0.478320	0.074954	0.107193	0.296718	0.101530
81	0.107284	0.155330	0.278646	0.634940	0.105415	0.373639	0.092159	0.371646	0.743264	0.398072	0.896096	0.883021	0.072205	0.193097	0.265311	0.138170	0.475569	0.294673	0.334191	0.373637	0.048296	0.417412	0.230203	0.199958	0.318107	0.328097	0.261654	0.299300	0.055497	0.219029	0.375000	0.268632	0.389713	0.821344	0.447241	0.227020	0.118253	0.141758	0.112164	0.218703	0.756049	0.928604	0.338238	1.127442	0.054907	0.122506	0.418356	0.157435	0.912476	0.355226	0.437059	0.453685	0.116092	0.104771	0.476695	0.090833	0.205054	0.169335	0.691350	0.619161	0.259151	0.039318	0.277825	0.243748	0.233965	0.522922	0.491648	0.445665	0.059408	0.098241	0.222769	0.113735
82	0.122442	0.165211	0.273882	0.620671	0.141761	0.377367	0.111140	0.373203	0.708377	0.393053	0.953676	0.886105	0.078632	0.184050	0.256606	0.300318	0.243121	0.295167	0.441038	0.382553	0.039955	0.341159	0.220865	0.227745	0.288406	0.260635	0.291908	0.394480	0.053291	0.234285	0.371331	0.254008	0.401006	0.879185	0.420339	0.201447	0.116800	0.090138	0.111771	0.220806	0.762058	0.909010	0.403738	0.881552	0.054167	0.107873	0.326090	0.164492	0.890386	0.352417	0.522131	0.447818	0.097623	0.094915	0.447670	0.091677	0.211657	0.172653	0.743909	0.617647	0.250579	0.057193	0.199642	0.235246	0.188843	0.508905	0.509049	0.452708	0.060868	0.087865	0.179116	0.123304
83	0.125970	0.163755	0.282632	0.641115	0.149309	0.378356	0.120807	0.364879	0.654179	0.373406	1.067968	0.873458	0.071161	0.166712	0.230967	0.378448	0.235473	0.282502	0.522720	0.383117	0.053453	0.337835	0.216949	0.264327	0.288082	0.198949	0.307836	0.417552	0.045499	0.236637	0.356580	0.317864	0.463117	0.883129	0.386208	0.200400	0.110909	0.056651	0.111299	0.224716	0.763671	0.866991	0.504522	0.893775	0.045793	0.101753	0.297923	0.132250	0.841728	0.343813	0.582072	0.444713	0.076129	0.080671	0.271049	0.265999	0.214594	0.175089	0.716864	0.529283	0.237303	0.067670	0.184567	0.216459	0.189542	0.489392	0.505096	0.462098	0.058482	0.118804	0.174174	0.124976
84	0.121426	0.155299	0.345592	0.605828	0.149426	0.374956	0.189779	0.364433	0.602583	0.328972	1.127661	0.862226	0.074985	0.160179	0.105999	0.384825	0.202718	0.164939	0.517266	0.393244	0.055816	0.310961	0.217436	0.265740	0.279789	0.183627	0.308352	0.417219	0.039706	0.238080	0.335775	0.324202	0.490887	0.875857	0.319802	0.198070	0.108259	0.055050	0.166841	0.269846	0.761510	0.811170	0.640317	0.923158	0.050424	0.102435	0.302417	0.136334	0.807253	0.343167	0.576557	0.472442	0.075900	0.079147	0.186196	0.329107	0.215194	0.171737	0.631835	0.512102	0.223168	0.088388	0.218067	0.207951	0.198296	0.430301	0.522366	0.476632	0.046602	0.129414	0.157652	0.142520
85	0.107006	0.142237	0.340263	0.477952	0.148189	0.374129	0.261742	0.384513	0.585617	0.334670	1.069409	0.874007	0.083386	0.161761	0.095768	0.403792	0.126170	0.145914	0.524953	0.397842	0.062416	0.266615	0.203434	0.271131	0.264392	0.181003	0.314938	0.437362	0.028334	0.240502	0.332678	0.334649	0.492092	0.862760	0.275902	0.183815	0.089227	0.055022	0.204433	0.294413	0.754574	0.805997	0.779123	0.910850	0.056081	0.103058	0.321310	0.148745	0.808357	0.350150	0.607033	0.544826	0.076341	0.077680	0.226509	0.343176	0.224490	0.170113	0.579339	0.603057	0.215362	0.095482	0.242756	0.258614	0.204858	0.405830	0.585303	0.483025	0.043518	0.170532	0.153644	0.161526
86	0.106177	0.137744	0.333294	0.444615	0.148879	0.359625	0.270470	0.278081	0.427985	0.243826	1.057193	0.877744	0.091274	0.170764	0.086952	0.424556	0.129990	0.135358	0.596626	0.379746	0.068682	0.236381	0.194996	0.281413	0.246961	0.178552	0.327479	0.549692	0.024759	0.273739	0.328378	0.344918	0.509698	0.839866	0.254004	0.144192	0.072307	0.057261	0.208021	0.284686	0.753395	0.779657	0.863600	0.880901	0.059968	0.102754	0.343926	0.170169	0.815205	0.365255	0.630426	0.630655	0.080107	0.102269	0.227800	0.370959	0.231925	0.181408	0.641114	0.722295	0.198544	0.112909	0.221398	0.302831	0.202550	0.402223	0.629785	0.447875	0.042745	0.205310	0.116274	0.167863
87	0.106131	0.139107	0.325103	0.442590	0.145311	0.349522	0.288126	0.264223	0.385865	0.247038	1.092442	0.840294	0.091759	0.183655	0.086589	0.435992	0.138404	0.140553	0.601589	0.390109	0.074496	0.136756	0.188693	0.279480	0.229302	0.177932	0.345707	0.611120	0.029981	0.279633	0.282851	0.351511	0.526769	0.835836	0.181263	0.116531	0.082651	0.061965	0.208239	0.277962	0.744094	0.670319	0.869995	0.836718	0.062977	0.080588	0.295693	0.163222	0.821689	0.373647	0.659755	0.675601	0.090235	0.105473	0.222429	0.393548	0.250638	0.205454	0.807409	0.751922	0.087279	0.124257	0.203501	0.294740	0.204419	0.404370	0.633888	0.385711	0.040948	0.231837	0.068631	0.202644
88	0.108838	0.133301	0.307320	0.442222	0.144887	0.334176	0.313641	0.259519	0.402759	0.253814	1.105940	0.792647	0.088045	0.169862	0.100850	0.453578	0.138364	0.145889	0.593633	0.295316	0.077099	0.126773	0.138350	0.264007	0.218450	0.175546	0.352965	0.632721	0.044026	0.275928	0.258592	0.346819	0.517389	0.817014	0.162026	0.127001	0.092571	0.140970	0.211771	0.274639	0.742318	0.574649	0.915991	0.745437	0.060823	0.066336	0.268381	0.175542	0.802432	0.384099	0.708406	0.679048	0.091140	0.109872	0.317664	0.413506	0.250890	0.218559	0.858929	0.677084	0.090168	0.125754	0.226425	0.321269	0.203806	0.405334	0.632777	0.361376	0.041754	0.236948	0.074678	0.210267
89	0.106926	0.099075	0.273001	0.396283	0.148911	0.319906	0.317534	0.278170	0.414342	0.243999	1.148138	0.771867	0.123929	0.150776	0.099555	0.457760	0.128152	0.145929	0.588780	0.258415	0.079007	0.125112	0.150479	0.262648	0.208231	0.169749	0.350138	0.640583	0.056128	0.257544	0.247253	0.344000	0.500826	0.803002	0.188039	0.127865	0.076938	0.168016	0.220047	0.243435	0.759321	0.570114	0.982625	0.644227	0.060937	0.063604	0.264227	0.199494	0.650173	0.378800	0.715000	0.679399	0.090394	0.121381	0.358303	0.415226	0.247775	0.202633	0.835714	0.616543	0.107871	0.131238	0.256269	0.339457	0.197177	0.395918	0.627137	0.360243	0.038187	0.234919	0.129796	0.215811
90	0.099975	0.112411	0.262331	0.431732	0.148530	0.255155	0.331491	0.288530	0.391855	0.236961	1.113606	0.748667	0.184734	0.134465	0.079202	0.460993	0.116667	0.145720	0.578734	0.259833	0.079896	0.114849	0.181142	0.266562	0.195176	0.161460	0.345396	0.648107	0.055366	0.244888	0.239277	0.346023	0.468759	0.750588	0.356610	0.170967	0.075247	0.174748	0.254054	0.231832	0.774778	0.599375	1.035383	0.642367	0.058733	0.044010	0.243275	0.271592	0.410363	0.353451	0.712796	0.689642	0.085984	0.121270	0.362866	0.414714	0.203652	0.174431	0.782699	0.675438	0.123790	0.148289	0.249249	0.366518	0.175006	0.371912	0.604892	0.333271	0.036402	0.248569	0.134699	0.211045
91	0.101341	0.115571	0.302316	0.431674	0.128652	0.120819	0.337485	0.296358	0.386657	0.242727	1.080750	0.726123	0.268921	0.135065	0.074554	0.373511	0.119168	0.146098	0.512987	0.257419	0.079218	0.101703	0.180001	0.254787	0.179324	0.155488	0.348835	0.651022	0.055307	0.210445	0.249025	0.378879	0.432522	0.655521	0.493579	0.189312	0.072399	0.175747	0.257972	0.231127	0.783998	0.620841	1.061651	0.560591	0.058621	0.054692	0.218712	0.323068	0.295262	0.310419	0.721448	0.668423	0.084643	0.116575	0.385258	0.319951	0.202361	0.173457	0.726370	0.722581	0.131319	0.172528	0.253033	0.390043	0.173414	0.345554	0.568391	0.327984	0.048741	0.260419	0.269484	0.209582
92	0.114767	0.115996	0.261129	0.407536	0.085881	0.096690	0.331731	0.289328	0.386264	0.261213	1.063193	0.703673	0.434183	0.136316	0.082086	0.297092	0.127176	0.139580	0.436452	0.265253	0.070782	0.067241	0.175470	0.199410	0.135015	0.147319	0.354843	0.659955	0.055970	0.222735	0.249332	0.376764	0.399793	0.653152	0.561189	0.191386	0.074502	0.181481	0.274722	0.220254	0.789981	0.634586	1.067670	0.544207	0.053272	0.052562	0.216728	0.321383	0.273636	0.264310	0.723219	0.627935	0.083243	0.107629	0.359222	0.282087	0.222776	0.172793	0.716181	0.751133	0.129753	0.180701	0.234174	0.388222	0.243283	0.307100	0.561043	0.303875	0.048938	0.251620	0.300615	0.208545
93	0.198252	0.116526	0.230260	0.307242	0.088421	0.073557	0.337232	0.288167	0.371801	0.283217	1.059125	0.588496	0.484044	0.136817	0.082834	0.291182	0.130555	0.131695	0.394073	0.257008	0.069910	0.053765	0.159840	0.200259	0.072211	0.141158	0.363818	0.657561	0.057317	0.222542	0.265099	0.351725	0.380729	0.624313	0.583875	0.197263	0.076828	0.199433	0.244081	0.157512	0.792057	0.638706	1.067575	0.564938	0.047494	0.054141	0.200600	0.479811	0.262365	0.220121	0.719272	0.607328	0.086186	0.106021	0.337274	0.258130	0.229217	0.173718	0.740269	0.755706	0.130222	0.188088	0.200371	0.356210	0.306202	0.269354	0.531974	0.297765	0.046587	0.234827	0.318136	0.199250
94	0.225727	0.116457	0.260171	0.300216	0.100685	0.072591	0.330926	0.288102	0.366925	0.300796	1.033437	0.449403	0.582403	0.135690	0.092746	0.287371	0.133388	0.156636	0.379772	0.227477	0.065856	0.080398	0.157694	0.193314	0.068761	0.137367	0.355915	0.632464	0.064241	0.221109	0.275032	0.363190	0.390282	0.453697	0.587421	0.258284	0.076503	0.205242	0.216162	0.107978	0.734485	0.629099	1.066622	0.581074	0.064301	0.055653	0.193665	0.898723	0.263080	0.209572	0.680034	0.589645	0.083982	0.087561	0.347604	0.208329	0.233478	0.175854	0.751498	0.721448	0.127891	0.219137	0.221829	0.304480	0.322593	0.257194	0.471924	0.293590	0.067570	0.232310	0.358820	0.179142
95	0.267581	0.119340	0.266521	0.288367	0.105386	0.072489	0.307900	0.255128	0.417681	0.308770	0.966297	0.451251	0.583264	0.120834	0.107166	0.285786	0.158354	0.191152	0.277720	0.206030	0.070897	0.156225	0.155837	0.198838	0.066795	0.132669	0.342237	0.579141	0.069379	0.211750	0.263946	0.370446	0.385937	0.317866	0.661143	0.325163	0.073420	0.223344	0.213254	0.104616	0.532947	0.555722	1.066086	0.573228	0.089816	0.055922	0.198102	0.962449	0.263448	0.207664	0.582019	0.597861	0.081685	0.085176	0.376159	0.158224	0.213474	0.174386	0.720671	0.619101	0.121455	0.213532	0.228577	0.305717	0.322033	0.237424	0.456602	0.277727	0.069014	0.203345	0.392460	0.162580
96	0.272214	0.121731	0.266475	0.286937	0.115073	0.071121	0.303361	0.211271	0.466529	0.301926	0.832550	0.408966	0.804215	0.087089	0.123512	0.266641	0.174832	0.211605	0.234667	0.174043	0.082339	0.216657	0.142312	0.218397	0.089954	0.135140	0.338674	0.550784	0.075758	0.179542	0.279585	0.416203	0.325532	0.278875	0.790379	0.346625	0.058868	0.224983	0.214253	0.078430	0.406288	0.512081	1.060867	0.551960	0.089142	0.056078	0.200038	0.981707	0.260559	0.207289	0.498870	0.602433	0.090984	0.078763	0.315470	0.103243	0.195109	0.146722	0.537731	0.616939	0.119441	0.211873	0.206211	0.275969	0.312561	0.248880	0.470042	0.229743	0.068777	0.187445	0.393643	0.127473
97	0.269745	0.196056	0.266041	0.287396	0.117922	0.066275	0.327541	0.212619	0.469491	0.279765	0.757433	0.358566	0.827867	0.089564	0.149497	0.252986	0.184462	0.221612	0.226704	0.156178	0.080659	0.261855	0.130788	0.185774	0.129528	0.147938	0.338177	0.557402	0.075607	0.192890	0.296994	0.447681	0.287199	0.271738	0.827744	0.347791	0.040204	0.181609	0.210856	0.076318	0.383827	0.502282	1.034933	0.604123	0.089825	0.055772	0.196646	1.019497	0.246390	0.203396	0.501404	0.583948	0.098451	0.059130	0.282142	0.098984	0.206800	0.110448	0.465314	0.620650	0.102045	0.237421	0.156502	0.259516	0.306974	0.352811	0.435733	0.192344	0.076371	0.184339	0.387202	0.122301
98	0.461552	0.194490	0.261807	0.234818	0.117138	0.063914	0.338725	0.201014	0.448550	0.243828	0.791969	0.569385	0.824819	0.097755	0.163571	0.313912	0.237844	0.229334	0.225306	0.162427	0.080041	0.262723	0.126535	0.166789	0.146822	0.170685	0.336805	0.553389	0.070392	0.193270	0.272258	0.472852	0.296073	0.268595	0.841574	0.356470	0.036861	0.164639	0.197039	0.064948	0.376970	0.507448	1.018174	0.774541	0.091516	0.054467	0.185714	1.018721	0.235648	0.232012	0.477120	0.524652	0.098744	0.057165	0.377366	0.094855	0.196636	0.124546	0.452256	0.619709	0.083478	0.238677	0.173684	0.222460	0.386394	0.420265	0.326431	0.198454	0.078441	0.183645	0.380790	0.104655
99	0.479492	0.196486	0.212978	0.142057	0.111071	0.063168	0.337773	0.170588	0.426781	0.230636	0.805337	0.713808	0.813887	0.100929	0.161687	0.352870	0.265346	0.426157	0.230103	0.208069	0.075983	0.266485	0.093321	0.160178	0.157560	0.175858	0.334878	0.447865	0.067262	0.190816	0.251639	0.532453	0.274698	0.267513	0.851196	0.365483	0.036870	0.158909	0.151571	0.072911	0.367985	0.517586	0.976661	0.854252	0.099135	0.042781	0.221457	0.999653	0.216645	0.301665	0.453210	0.421232	0.095561	0.056814	0.391059	0.074585	0.196808	0.146733	0.453554	0.550321	0.075405	0.222443	0.196041	0.183862	0.518334	0.432006	0.247624	0.219653	0.075246	0.135311	0.366889	0.156881
100	0.478924	0.248308	0.152246	0.146382	0.106715	0.065679	0.324150	0.148800	0.387134	0.214089	0.841963	0.728957	0.790438	0.094259	0.173107	0.370466	0.365821	0.531452	0.252199	0.274293	0.076421	0.272245	0.091640	0.159138	0.157897	0.208252	0.322884	0.344009	0.076991	0.170299	0.256268	0.591556	0.223979	0.270557	0.852527	0.380835	0.041997	0.157507	0.142841	0.079903	0.367012	0.528225	0.881199	0.835516	0.101593	0.040706	0.244403	0.999264	0.198516	0.357132	0.417772	0.335376	0.085654	0.059049	0.387194	0.066504	0.191119	0.156002	0.444603	0.491219	0.076187	0.289586	0.240771	0.201446	0.641041	0.434971	0.255725	0.265877	0.076584	0.137110	0.310683	0.176879
101	0.463024	0.312978	0.144940	0.181021	0.105842	0.066806	0.322242	0.139664	0.372174	0.208189	0.887894	0.739111	0.713122	0.083976	0.195561	0.366214	0.383753	0.535652	0.315861	0.263443	0.077223	0.272678	0.098307	0.155923	0.160539	0.240773	0.292358	0.290506	0.085813	0.154411	0.254124	0.576779	0.222714	0.293904	0.849085	0.377248	0.068914	0.144975	0.146010	0.103509	0.357387	0.530531	0.777006	0.832869	0.101780	0.039485	0.242489	0.989697	0.193791	0.437043	0.319739	0.323600	0.076393	0.052275	0.385104	0.066969	0.156087	0.152665	0.449351	0.434684	0.074774	0.364581	0.308503	0.199437	0.661859	0.431950	0.258446	0.288790	0.078679	0.135919	0.305197	0.167755
