	108_F_P_sh_L_ND_A_01.c3d	108_F_P_sh_L_ND_A_01.c3d	108_F_P_sh_L_ND_A_01.c3d	108_F_P_sh_L_ND_A_01.c3d	108_F_P_sh_L_ND_A_01.c3d	108_F_P_sh_L_ND_A_01.c3d	108_F_P_sh_L_ND_A_01.c3d	108_F_P_sh_L_ND_A_01.c3d	108_F_P_sh_L_ND_A_02.c3d	108_F_P_sh_L_ND_A_02.c3d	108_F_P_sh_L_ND_A_02.c3d	108_F_P_sh_L_ND_A_02.c3d	108_F_P_sh_L_ND_A_02.c3d	108_F_P_sh_L_ND_A_02.c3d	108_F_P_sh_L_ND_A_02.c3d	108_F_P_sh_L_ND_A_02.c3d	108_F_P_sh_L_ND_A_03.c3d	108_F_P_sh_L_ND_A_03.c3d	108_F_P_sh_L_ND_A_03.c3d	108_F_P_sh_L_ND_A_03.c3d	108_F_P_sh_L_ND_A_03.c3d	108_F_P_sh_L_ND_A_03.c3d	108_F_P_sh_L_ND_A_03.c3d	108_F_P_sh_L_ND_A_03.c3d	108_F_P_sh_L_ND_A_05.c3d	108_F_P_sh_L_ND_A_05.c3d	108_F_P_sh_L_ND_A_05.c3d	108_F_P_sh_L_ND_A_05.c3d	108_F_P_sh_L_ND_A_05.c3d	108_F_P_sh_L_ND_A_05.c3d	108_F_P_sh_L_ND_A_05.c3d	108_F_P_sh_L_ND_A_05.c3d	108_F_P_sh_L_ND_A_07.c3d	108_F_P_sh_L_ND_A_07.c3d	108_F_P_sh_L_ND_A_07.c3d	108_F_P_sh_L_ND_A_07.c3d	108_F_P_sh_L_ND_A_07.c3d	108_F_P_sh_L_ND_A_07.c3d	108_F_P_sh_L_ND_A_07.c3d	108_F_P_sh_L_ND_A_07.c3d	108_F_P_sh_L_ND_A_08.c3d	108_F_P_sh_L_ND_A_08.c3d	108_F_P_sh_L_ND_A_08.c3d	108_F_P_sh_L_ND_A_08.c3d	108_F_P_sh_L_ND_A_08.c3d	108_F_P_sh_L_ND_A_08.c3d	108_F_P_sh_L_ND_A_08.c3d	108_F_P_sh_L_ND_A_08.c3d	108_F_P_sh_L_ND_A_09.c3d	108_F_P_sh_L_ND_A_09.c3d	108_F_P_sh_L_ND_A_09.c3d	108_F_P_sh_L_ND_A_09.c3d	108_F_P_sh_L_ND_A_09.c3d	108_F_P_sh_L_ND_A_09.c3d	108_F_P_sh_L_ND_A_09.c3d	108_F_P_sh_L_ND_A_09.c3d	108_F_P_sh_L_ND_A_10.c3d	108_F_P_sh_L_ND_A_10.c3d	108_F_P_sh_L_ND_A_10.c3d	108_F_P_sh_L_ND_A_10.c3d	108_F_P_sh_L_ND_A_10.c3d	108_F_P_sh_L_ND_A_10.c3d	108_F_P_sh_L_ND_A_10.c3d	108_F_P_sh_L_ND_A_10.c3d
	Biceps femoris_lat	Semitendinosus_lat	Vastus lateralis_lat	Vastus medialis_lat	Biceps femoris_med	Semitendinosus_med	Vastus lateralis_med	Vastus medialis_med	Biceps femoris_lat	Semitendinosus_lat	Vastus lateralis_lat	Vastus medialis_lat	Biceps femoris_med	Semitendinosus_med	Vastus lateralis_med	Vastus medialis_med	Biceps femoris_lat	Semitendinosus_lat	Vastus lateralis_lat	Vastus medialis_lat	Biceps femoris_med	Semitendinosus_med	Vastus lateralis_med	Vastus medialis_med	Biceps femoris_lat	Semitendinosus_lat	Vastus lateralis_lat	Vastus medialis_lat	Biceps femoris_med	Semitendinosus_med	Vastus lateralis_med	Vastus medialis_med	Biceps femoris_lat	Semitendinosus_lat	Vastus lateralis_lat	Vastus medialis_lat	Biceps femoris_med	Semitendinosus_med	Vastus lateralis_med	Vastus medialis_med	Biceps femoris_lat	Semitendinosus_lat	Vastus lateralis_lat	Vastus medialis_lat	Biceps femoris_med	Semitendinosus_med	Vastus lateralis_med	Vastus medialis_med	Biceps femoris_lat	Semitendinosus_lat	Vastus lateralis_lat	Vastus medialis_lat	Biceps femoris_med	Semitendinosus_med	Vastus lateralis_med	Vastus medialis_med	Biceps femoris_lat	Semitendinosus_lat	Vastus lateralis_lat	Vastus medialis_lat	Biceps femoris_med	Semitendinosus_med	Vastus lateralis_med	Vastus medialis_med
	P2D	P2D	P2D	P2D	P2D	P2D	P2D	P2D	P2D	P2D	P2D	P2D	P2D	P2D	P2D	P2D	P2D	P2D	P2D	P2D	P2D	P2D	P2D	P2D	P2D	P2D	P2D	P2D	P2D	P2D	P2D	P2D	P2D	P2D	P2D	P2D	P2D	P2D	P2D	P2D	P2D	P2D	P2D	P2D	P2D	P2D	P2D	P2D	P2D	P2D	P2D	P2D	P2D	P2D	P2D	P2D	P2D	P2D	P2D	P2D	P2D	P2D	P2D	P2D
	EMG_lat	EMG_lat	EMG_lat	EMG_lat	EMG_med	EMG_med	EMG_med	EMG_med	EMG_lat	EMG_lat	EMG_lat	EMG_lat	EMG_med	EMG_med	EMG_med	EMG_med	EMG_lat	EMG_lat	EMG_lat	EMG_lat	EMG_med	EMG_med	EMG_med	EMG_med	EMG_lat	EMG_lat	EMG_lat	EMG_lat	EMG_med	EMG_med	EMG_med	EMG_med	EMG_lat	EMG_lat	EMG_lat	EMG_lat	EMG_med	EMG_med	EMG_med	EMG_med	EMG_lat	EMG_lat	EMG_lat	EMG_lat	EMG_med	EMG_med	EMG_med	EMG_med	EMG_lat	EMG_lat	EMG_lat	EMG_lat	EMG_med	EMG_med	EMG_med	EMG_med	EMG_lat	EMG_lat	EMG_lat	EMG_lat	EMG_med	EMG_med	EMG_med	EMG_med
ITEM	Y	Y	Y	Y	Y	Y	Y	Y	Y	Y	Y	Y	Y	Y	Y	Y	Y	Y	Y	Y	Y	Y	Y	Y	Y	Y	Y	Y	Y	Y	Y	Y	Y	Y	Y	Y	Y	Y	Y	Y	Y	Y	Y	Y	Y	Y	Y	Y	Y	Y	Y	Y	Y	Y	Y	Y	Y	Y	Y	Y	Y	Y	Y	Y
1	0.332440	0.246348	0.534169	0.800806	0.318488	0.379213	0.396157	0.276679	0.199244	0.263766	0.357582	0.168557	0.203220	0.184824	0.251780	0.158751	0.364478	0.507663	0.694180	0.227322	0.965739	0.427888	0.294933	0.109923	0.200860	0.368985	0.404701	0.207448	0.266670	0.279860	0.258245	0.069788	0.288994	0.336407	0.378442	0.082539	0.303692	0.271793	0.524628	0.194501	0.226970	0.512337	0.412537	0.162156	0.350816	0.366480	0.445096	0.120987	0.180289	0.266529	0.481178	0.447119	0.527295	0.460082	0.342319	0.132931	0.243515	0.353332	0.442906	0.178974	0.608570	0.341940	0.321677	0.214474
2	0.333338	0.207205	0.534812	0.803278	0.321100	0.376472	0.406373	0.280121	0.201929	0.263964	0.339960	0.171574	0.164738	0.179540	0.254270	0.161306	0.368271	0.445439	0.695311	0.222140	1.024197	0.568267	0.280170	0.107347	0.197886	0.364026	0.382501	0.203665	0.276311	0.274718	0.234970	0.047544	0.286930	0.338953	0.374666	0.083021	0.304587	0.279922	0.469892	0.192674	0.208811	0.481891	0.398702	0.160915	0.352235	0.324132	0.415576	0.113698	0.192557	0.270353	0.508320	0.459249	0.520019	0.470477	0.337348	0.139518	0.256460	0.375426	0.510711	0.190059	0.595561	0.327395	0.358243	0.213539
3	0.299342	0.174194	0.536285	0.803068	0.337658	0.355424	0.404860	0.281408	0.199218	0.266958	0.343136	0.175095	0.176176	0.167523	0.270072	0.171691	0.329429	0.433918	0.691108	0.225047	1.159660	0.604306	0.255210	0.106556	0.206729	0.382406	0.339791	0.192284	0.279980	0.272642	0.210435	0.050680	0.282971	0.332485	0.366876	0.079041	0.304824	0.316232	0.456651	0.198260	0.243791	0.466419	0.398769	0.157903	0.353480	0.265303	0.288537	0.104984	0.241481	0.293296	0.504309	0.460872	0.526226	0.486226	0.348713	0.161391	0.265879	0.374261	0.530907	0.194739	0.597173	0.327824	0.401066	0.259416
4	0.268303	0.211002	0.546944	0.803139	0.275695	0.306936	0.389027	0.279613	0.214923	0.253910	0.361712	0.181075	0.171409	0.166973	0.327982	0.200440	0.345762	0.435402	0.688815	0.232205	1.213237	0.647933	0.246084	0.091973	0.219628	0.389261	0.327751	0.184942	0.275464	0.255939	0.213549	0.073044	0.277399	0.346476	0.354260	0.079192	0.309180	0.351278	0.464673	0.199871	0.273848	0.466108	0.392908	0.150748	0.349210	0.282206	0.239467	0.112339	0.249770	0.291556	0.495392	0.460972	0.468566	0.475641	0.388358	0.187552	0.291352	0.369931	0.548610	0.200430	0.598847	0.326510	0.423439	0.305774
5	0.251245	0.213996	0.521759	0.760897	0.264419	0.290772	0.390438	0.273647	0.220430	0.216267	0.394022	0.184933	0.171269	0.168634	0.392105	0.261766	0.388533	0.404906	0.687695	0.242843	1.207050	0.644696	0.214989	0.064137	0.219389	0.395493	0.307279	0.201942	0.265314	0.247511	0.234606	0.082616	0.307178	0.326192	0.330147	0.079382	0.305351	0.375266	0.433437	0.187829	0.258658	0.445977	0.401348	0.151601	0.334688	0.292607	0.229344	0.130320	0.252547	0.293510	0.475428	0.454451	0.456921	0.441054	0.417469	0.196638	0.302959	0.368143	0.590193	0.214302	0.602172	0.321615	0.439459	0.324912
6	0.258337	0.218927	0.455104	0.667813	0.267507	0.296313	0.406924	0.268091	0.203469	0.216739	0.368520	0.185813	0.174386	0.165437	0.430004	0.281859	0.375192	0.406082	0.673007	0.259884	1.176159	0.649589	0.162980	0.057848	0.198818	0.402977	0.268355	0.198995	0.267519	0.250049	0.248011	0.088870	0.311539	0.315973	0.300163	0.078366	0.253814	0.384910	0.387787	0.169357	0.257822	0.469234	0.418159	0.146199	0.352064	0.275119	0.249125	0.143846	0.248561	0.291589	0.460025	0.412287	0.453428	0.378693	0.392673	0.193918	0.315905	0.366846	0.598130	0.223238	0.580042	0.310305	0.447060	0.323561
7	0.268790	0.235723	0.413442	0.601237	0.270639	0.295362	0.423463	0.243309	0.202898	0.234852	0.334974	0.196380	0.184831	0.153092	0.440783	0.281556	0.364830	0.358173	0.617840	0.265707	1.167775	0.686351	0.238128	0.084558	0.185160	0.399071	0.282057	0.205684	0.272916	0.249380	0.242268	0.092637	0.321434	0.327039	0.325940	0.081811	0.151023	0.393933	0.312604	0.128598	0.307767	0.467305	0.404860	0.138678	0.408964	0.260248	0.239826	0.140555	0.251917	0.288862	0.494776	0.362092	0.445383	0.343155	0.365535	0.187856	0.337250	0.364914	0.584083	0.221752	0.577185	0.269815	0.451316	0.308070
8	0.284265	0.258624	0.397295	0.571838	0.278025	0.283807	0.391305	0.218294	0.240064	0.210966	0.364421	0.200842	0.201913	0.146827	0.452007	0.279325	0.359120	0.337099	0.550870	0.265827	1.028048	0.684287	0.271659	0.102185	0.184418	0.399904	0.349643	0.211541	0.272481	0.266724	0.241510	0.092575	0.326339	0.308566	0.333686	0.079459	0.137264	0.387123	0.299928	0.094128	0.318601	0.479222	0.401248	0.134055	0.407036	0.227637	0.236424	0.144302	0.256510	0.278742	0.513020	0.352218	0.408978	0.360285	0.386260	0.172651	0.337505	0.361369	0.575122	0.232655	0.563068	0.256982	0.424620	0.297448
9	0.317262	0.269956	0.381644	0.563629	0.291383	0.267721	0.364637	0.213708	0.276342	0.209397	0.410444	0.200532	0.220153	0.149068	0.455536	0.284794	0.377549	0.329086	0.471545	0.265741	0.992834	0.664412	0.283149	0.108634	0.185182	0.402974	0.415598	0.251118	0.301029	0.278471	0.230912	0.094074	0.325535	0.300865	0.334094	0.071638	0.141646	0.354121	0.298621	0.096719	0.318992	0.473177	0.406111	0.135935	0.407722	0.208538	0.261560	0.149604	0.259066	0.276631	0.514518	0.360031	0.431789	0.342372	0.411972	0.169021	0.331277	0.365345	0.600812	0.291459	0.530497	0.267100	0.398125	0.309373
10	0.325894	0.286638	0.393990	0.566086	0.299082	0.257003	0.357685	0.215295	0.309671	0.217103	0.428371	0.187646	0.220229	0.220922	0.476551	0.303030	0.373191	0.316813	0.467739	0.254853	0.992621	0.749534	0.285111	0.107386	0.187343	0.398926	0.424002	0.294964	0.291776	0.280806	0.248181	0.107285	0.333406	0.298313	0.354664	0.067530	0.166003	0.340162	0.293513	0.103553	0.305169	0.476024	0.427000	0.148363	0.341555	0.218878	0.316247	0.151243	0.258822	0.282117	0.502157	0.357353	0.432619	0.333717	0.407554	0.171391	0.325145	0.364814	0.607726	0.326599	0.489402	0.277264	0.397185	0.320781
11	0.331756	0.289855	0.384603	0.559431	0.299678	0.271489	0.356360	0.207322	0.303922	0.206115	0.458277	0.168762	0.236686	0.241777	0.521029	0.319479	0.390463	0.282728	0.351787	0.228868	0.992927	0.772310	0.313523	0.108735	0.188671	0.420376	0.417229	0.299271	0.290257	0.320689	0.294775	0.127510	0.328428	0.296065	0.388614	0.062510	0.184011	0.386803	0.321943	0.105798	0.303810	0.464047	0.529737	0.166201	0.332602	0.252829	0.331167	0.151235	0.256284	0.274971	0.488110	0.311639	0.436937	0.318626	0.431235	0.195773	0.290859	0.352737	0.607653	0.343641	0.485501	0.256446	0.385204	0.323195
12	0.332782	0.297335	0.362208	0.504813	0.309663	0.273852	0.341657	0.176383	0.307940	0.205472	0.475259	0.160928	0.223977	0.280079	0.517204	0.321573	0.374665	0.261743	0.299065	0.201633	0.991923	0.759973	0.340590	0.108754	0.200538	0.369810	0.434088	0.295895	0.307724	0.349336	0.314486	0.127332	0.324928	0.294330	0.386160	0.077799	0.229154	0.417930	0.308777	0.115921	0.297815	0.337657	0.577652	0.196952	0.340331	0.288101	0.375995	0.151726	0.259226	0.268904	0.435921	0.251852	0.421221	0.312148	0.492156	0.296570	0.291327	0.318462	0.609116	0.349572	0.356211	0.263469	0.362313	0.322875
13	0.325268	0.304378	0.326765	0.407880	0.267300	0.293796	0.340654	0.144231	0.354218	0.234065	0.489850	0.160572	0.260751	0.298469	0.517782	0.318709	0.371202	0.251610	0.244025	0.180223	0.950917	0.739428	0.345740	0.109313	0.197530	0.341010	0.468629	0.300083	0.297223	0.375538	0.346290	0.127590	0.344109	0.318230	0.401041	0.102874	0.249316	0.421359	0.299932	0.103284	0.307453	0.304504	0.563338	0.210583	0.330114	0.426432	0.402810	0.149228	0.286613	0.254116	0.350940	0.228330	0.422120	0.302219	0.547198	0.408799	0.290667	0.275102	0.595090	0.373334	0.252349	0.214601	0.363082	0.322828
14	0.332107	0.316650	0.305773	0.310781	0.271641	0.318000	0.362561	0.124375	0.365979	0.244513	0.487672	0.170198	0.277098	0.323166	0.518733	0.319040	0.358571	0.250417	0.268055	0.200118	0.759716	0.726521	0.394273	0.119347	0.166897	0.340219	0.494418	0.323440	0.280081	0.421867	0.348888	0.127807	0.348209	0.382706	0.422232	0.119819	0.309763	0.518196	0.344005	0.128114	0.323891	0.311154	0.555111	0.208865	0.326563	0.492232	0.436579	0.124010	0.274446	0.235227	0.350237	0.235980	0.442240	0.267891	0.598989	0.451581	0.288584	0.253650	0.562751	0.387564	0.209583	0.203382	0.359019	0.323052
15	0.328770	0.317149	0.265286	0.257517	0.260458	0.325530	0.351700	0.115544	0.370149	0.254563	0.484441	0.183715	0.291433	0.324608	0.513701	0.312825	0.333649	0.237380	0.257011	0.231541	0.734079	0.694212	0.520644	0.155664	0.192159	0.301156	0.538684	0.363895	0.268324	0.474880	0.353934	0.132948	0.379449	0.369861	0.457738	0.127552	0.332119	0.534867	0.373684	0.134166	0.319997	0.294946	0.558554	0.209322	0.337410	0.617943	0.536645	0.098009	0.254360	0.189990	0.381752	0.248953	0.456111	0.248892	0.643493	0.454824	0.271288	0.233732	0.509651	0.385251	0.211440	0.221562	0.325904	0.318156
16	0.315829	0.309121	0.257318	0.248077	0.251486	0.300697	0.345540	0.109688	0.369763	0.249641	0.488253	0.184857	0.290703	0.322989	0.492211	0.301684	0.312012	0.214517	0.255372	0.244524	0.481804	0.696942	0.567187	0.195709	0.188138	0.277343	0.608177	0.396756	0.260591	0.473368	0.378955	0.134356	0.377676	0.374839	0.525254	0.140545	0.516794	0.606988	0.433820	0.134660	0.298684	0.299968	0.601539	0.212182	0.421246	0.790470	0.638151	0.112684	0.250304	0.169256	0.414423	0.262751	0.401480	0.214371	0.669555	0.449662	0.262097	0.245262	0.508593	0.380959	0.251383	0.270803	0.286223	0.279642
17	0.321602	0.303322	0.274902	0.252832	0.253936	0.281022	0.357972	0.116628	0.370578	0.234289	0.488131	0.183458	0.296768	0.320946	0.451212	0.255007	0.246833	0.203670	0.258781	0.247991	0.485065	0.690073	0.620221	0.231534	0.169139	0.269103	0.653687	0.403226	0.259670	0.474961	0.368967	0.122138	0.378514	0.380683	0.581458	0.144441	0.544189	0.622164	0.407478	0.137611	0.285281	0.293278	0.643009	0.218141	0.531855	0.795711	0.649189	0.113420	0.255823	0.199771	0.438025	0.265194	0.393650	0.205782	0.679696	0.457746	0.226132	0.244431	0.491814	0.379501	0.257708	0.362978	0.249083	0.224586
18	0.335220	0.275005	0.299275	0.251293	0.254269	0.284463	0.364685	0.127504	0.360508	0.223151	0.497900	0.185334	0.301395	0.366893	0.400132	0.226267	0.248401	0.159327	0.278637	0.233016	0.534054	0.687572	0.640718	0.237956	0.177567	0.290133	0.660529	0.391782	0.289190	0.493110	0.363744	0.116649	0.356461	0.376532	0.603336	0.150013	0.571869	0.628961	0.411596	0.139652	0.284788	0.275649	0.652478	0.225153	0.575415	0.798754	0.631012	0.102493	0.257623	0.202789	0.440901	0.265033	0.397025	0.200435	0.669774	0.483616	0.195859	0.237118	0.443031	0.374836	0.248761	0.384236	0.223084	0.191517
19	0.349049	0.264856	0.296852	0.241727	0.307905	0.283189	0.349134	0.132543	0.351799	0.220058	0.522218	0.215958	0.303569	0.392471	0.397567	0.225764	0.261799	0.157943	0.313914	0.226303	0.534766	0.657559	0.628171	0.235740	0.182133	0.419701	0.693285	0.390984	0.312775	0.504927	0.356098	0.111660	0.335666	0.370376	0.617501	0.178037	0.565096	0.623797	0.461549	0.137278	0.271800	0.215810	0.636960	0.232315	0.585390	0.809624	0.655018	0.103600	0.250349	0.202388	0.364411	0.245552	0.420916	0.211293	0.702276	0.514919	0.179673	0.223838	0.434691	0.389340	0.239226	0.539880	0.206128	0.178810
20	0.350134	0.273870	0.298303	0.231725	0.309922	0.294642	0.328804	0.133891	0.350331	0.220477	0.566427	0.263468	0.291907	0.430765	0.385386	0.225675	0.260059	0.146284	0.346810	0.231243	0.533321	0.633114	0.600742	0.229786	0.184816	0.432972	0.773293	0.391269	0.380516	0.507795	0.355940	0.108022	0.332836	0.359707	0.615229	0.197419	0.562480	0.608773	0.522499	0.137792	0.210778	0.211906	0.638048	0.247788	0.589535	0.893018	0.727619	0.128572	0.247291	0.203698	0.357977	0.222303	0.447598	0.220911	0.879393	0.542345	0.128108	0.220022	0.427473	0.423424	0.221875	0.587120	0.231376	0.177753
21	0.350401	0.271033	0.326345	0.230393	0.332724	0.307888	0.290142	0.131399	0.352991	0.213895	0.587117	0.283858	0.347296	0.470309	0.385074	0.220609	0.224328	0.181248	0.346035	0.235197	0.539234	0.637116	0.615923	0.229880	0.183437	0.434522	0.787886	0.387782	0.383551	0.522100	0.358157	0.107858	0.316228	0.364520	0.692094	0.196882	0.548260	0.552602	0.554170	0.126080	0.202385	0.180277	0.640275	0.268344	0.596857	0.907614	0.748751	0.136903	0.245577	0.191467	0.363073	0.215779	0.444768	0.193276	0.994577	0.558202	0.121432	0.182917	0.398732	0.426045	0.226350	0.619649	0.308513	0.165319
22	0.331830	0.249353	0.419205	0.216430	0.321334	0.304095	0.286106	0.136944	0.335259	0.215028	0.572165	0.281759	0.366378	0.465865	0.367645	0.197021	0.200268	0.190248	0.394017	0.236339	0.543617	0.590832	0.623193	0.230660	0.211428	0.432001	0.767199	0.361550	0.454297	0.598215	0.357994	0.104498	0.329305	0.365270	0.751284	0.202535	0.544201	0.518059	0.557285	0.123887	0.201238	0.171905	0.654421	0.285322	0.607526	0.863097	0.736628	0.137388	0.245798	0.185637	0.371372	0.220354	0.416605	0.231634	1.034434	0.572061	0.134005	0.171560	0.320904	0.386702	0.231412	0.630249	0.303998	0.119577
23	0.304897	0.281450	0.437223	0.195818	0.318877	0.305594	0.285564	0.154887	0.310346	0.210862	0.536728	0.283477	0.404207	0.463294	0.302491	0.158258	0.149675	0.212554	0.414854	0.239750	0.544953	0.524907	0.621097	0.230373	0.218143	0.429655	0.768627	0.316092	0.516188	0.649363	0.347230	0.087050	0.311006	0.363831	0.812763	0.216244	0.546597	0.424775	0.547791	0.100131	0.205699	0.165439	0.635063	0.278620	0.606252	0.814638	0.733193	0.137929	0.237794	0.167232	0.391759	0.288751	0.424449	0.281211	1.037872	0.576713	0.120628	0.203036	0.289961	0.388649	0.309198	0.672745	0.305723	0.069933
24	0.330200	0.277626	0.447720	0.190336	0.379623	0.388873	0.301383	0.155587	0.269142	0.202036	0.512898	0.296450	0.400122	0.447753	0.253264	0.124056	0.149541	0.221979	0.425258	0.241715	0.552803	0.509289	0.603719	0.231660	0.228880	0.412207	0.770684	0.306176	0.552604	0.673486	0.322619	0.061802	0.289606	0.371662	0.895246	0.242580	0.533648	0.380523	0.580606	0.095043	0.217897	0.159850	0.546979	0.280519	0.590631	0.789801	0.711875	0.129114	0.190543	0.157567	0.394739	0.390522	0.440811	0.289307	1.029466	0.574611	0.158675	0.252456	0.279734	0.446840	0.328239	0.706078	0.303693	0.052173
25	0.324016	0.280880	0.457709	0.178954	0.395781	0.416778	0.341066	0.158404	0.268728	0.205428	0.507903	0.343071	0.377044	0.435171	0.239639	0.121123	0.172530	0.251662	0.471834	0.248163	0.543839	0.512169	0.604600	0.232439	0.217324	0.396686	0.761846	0.307925	0.551264	0.696900	0.291374	0.064183	0.281144	0.388141	0.953699	0.280399	0.498723	0.280442	0.584677	0.097349	0.220678	0.166186	0.473927	0.274568	0.493371	0.549181	0.624480	0.111215	0.164678	0.165240	0.396385	0.444257	0.477301	0.286741	1.024394	0.545462	0.257518	0.266089	0.287921	0.538976	0.331519	0.708257	0.301994	0.050961
26	0.330746	0.293218	0.474933	0.177005	0.395602	0.431206	0.370504	0.161970	0.270497	0.224569	0.510774	0.392959	0.369235	0.426277	0.227812	0.121573	0.247675	0.291084	0.470963	0.232170	0.569736	0.510109	0.595672	0.233414	0.214073	0.388209	0.740315	0.297557	0.556365	0.692441	0.280236	0.066795	0.262931	0.385418	0.947450	0.304345	0.365590	0.228782	0.564035	0.095286	0.203150	0.164186	0.461323	0.286193	0.397403	0.522845	0.632650	0.110573	0.142006	0.160885	0.390119	0.485825	0.506735	0.300527	0.999558	0.471585	0.268017	0.319094	0.313729	0.591876	0.415796	0.717702	0.301603	0.050986
27	0.370304	0.284994	0.478071	0.177022	0.425978	0.422945	0.420879	0.162778	0.257736	0.201735	0.503942	0.401465	0.361584	0.426380	0.224846	0.121592	0.258664	0.287276	0.479574	0.191166	0.583892	0.455909	0.517410	0.233155	0.212894	0.386027	0.715666	0.276184	0.561650	0.666512	0.294045	0.067311	0.275243	0.329204	0.934328	0.312168	0.337840	0.189727	0.558428	0.087199	0.185386	0.151707	0.483480	0.313368	0.287197	0.539596	0.646981	0.116155	0.132592	0.174084	0.382240	0.486322	0.532503	0.313134	0.971105	0.439568	0.268040	0.351423	0.335342	0.615803	0.437424	0.714938	0.296875	0.057717
28	0.362544	0.269919	0.471574	0.171371	0.454357	0.423191	0.489434	0.164185	0.313147	0.183351	0.503740	0.401777	0.363943	0.428681	0.207114	0.124839	0.287377	0.292521	0.484402	0.179841	0.537061	0.413852	0.447369	0.217658	0.193587	0.386313	0.679804	0.225533	0.559637	0.680535	0.279302	0.112622	0.238297	0.315609	0.930303	0.314543	0.341717	0.241248	0.534682	0.088970	0.174660	0.171253	0.511772	0.324035	0.283196	0.534852	0.638136	0.113735	0.170805	0.211637	0.359550	0.501927	0.504225	0.312655	0.958112	0.518197	0.266528	0.355028	0.349171	0.628029	0.448925	0.713920	0.291171	0.062108
29	0.355953	0.259915	0.463680	0.148629	0.455920	0.405393	0.536350	0.168357	0.307298	0.196635	0.510724	0.403619	0.361485	0.434218	0.234843	0.121740	0.306258	0.312719	0.483276	0.192714	0.530480	0.313532	0.383514	0.183424	0.214443	0.388147	0.620021	0.153643	0.558699	0.691520	0.248118	0.154477	0.238426	0.317063	0.906201	0.309424	0.342654	0.370086	0.462638	0.102124	0.158267	0.191499	0.511864	0.325172	0.261406	0.369777	0.559422	0.091839	0.239813	0.211000	0.297152	0.593616	0.447481	0.312823	0.982581	0.683137	0.270164	0.353044	0.398866	0.631485	0.435021	0.700122	0.278591	0.065349
30	0.371596	0.278469	0.464823	0.106484	0.448678	0.402171	0.542512	0.165580	0.363189	0.246172	0.511862	0.424476	0.368888	0.403279	0.237941	0.114149	0.309527	0.347767	0.471605	0.220565	0.458147	0.301721	0.336091	0.154194	0.231270	0.419804	0.578327	0.129722	0.556525	0.713635	0.256115	0.198072	0.236273	0.286525	0.912700	0.308264	0.347717	0.406896	0.411875	0.124028	0.184922	0.183522	0.510507	0.324337	0.282258	0.325072	0.499056	0.069920	0.242803	0.217845	0.292518	0.687430	0.446804	0.312850	1.010589	0.795298	0.284551	0.348941	0.456176	0.627003	0.430099	0.655209	0.270221	0.070246
31	0.373276	0.276740	0.461487	0.084719	0.451953	0.403668	0.536600	0.158225	0.382650	0.280363	0.517494	0.451623	0.371973	0.363580	0.228750	0.105416	0.355895	0.354268	0.449576	0.234059	0.441917	0.298980	0.359062	0.154469	0.234203	0.413857	0.584548	0.129529	0.540486	0.736092	0.266964	0.213171	0.236002	0.285259	0.923088	0.308382	0.359192	0.411450	0.399437	0.122565	0.191589	0.181108	0.491803	0.316041	0.297686	0.331766	0.483670	0.067099	0.271888	0.249418	0.295652	0.701163	0.444092	0.313013	1.027061	0.820520	0.287195	0.357279	0.540889	0.624475	0.434014	0.654769	0.276791	0.080198
32	0.357207	0.280938	0.462312	0.082604	0.437540	0.402176	0.536688	0.161129	0.387282	0.288617	0.553751	0.461375	0.377413	0.340951	0.218363	0.104725	0.373856	0.358930	0.419427	0.228246	0.440486	0.291873	0.356822	0.157205	0.230791	0.303716	0.591021	0.134633	0.563167	0.771568	0.273826	0.214976	0.235111	0.278687	0.915298	0.296921	0.355637	0.410204	0.392600	0.124335	0.209663	0.205558	0.493865	0.307101	0.269374	0.332254	0.487226	0.069246	0.280672	0.274418	0.287250	0.699235	0.423339	0.305631	1.009697	0.821377	0.303926	0.356178	0.615892	0.609479	0.440391	0.569976	0.277611	0.080641
33	0.346103	0.289063	0.439462	0.086762	0.419783	0.394421	0.541234	0.181415	0.403085	0.289113	0.610266	0.449031	0.346255	0.322219	0.224055	0.108419	0.382017	0.341610	0.416396	0.224873	0.434436	0.285456	0.330917	0.164050	0.228427	0.274638	0.489642	0.129720	0.515621	0.777932	0.288512	0.232070	0.221431	0.275602	0.908355	0.283899	0.364833	0.506311	0.346407	0.158918	0.222024	0.239582	0.501758	0.298540	0.279116	0.295883	0.431560	0.066131	0.287662	0.274093	0.285566	0.701559	0.392820	0.300779	0.869697	0.806152	0.374469	0.359499	0.644925	0.582946	0.441429	0.526207	0.295710	0.088398
34	0.326598	0.344482	0.492894	0.093853	0.400865	0.385551	0.542169	0.195205	0.402229	0.290086	0.588423	0.429887	0.314617	0.357062	0.221672	0.109816	0.379866	0.347602	0.364857	0.231522	0.428321	0.302599	0.328565	0.180037	0.235549	0.283618	0.433897	0.135267	0.623759	0.794017	0.304863	0.255203	0.222114	0.280574	0.846563	0.284802	0.291243	0.641682	0.302484	0.213053	0.224317	0.324844	0.551822	0.294911	0.281844	0.281566	0.386585	0.096050	0.299045	0.274422	0.247768	0.699054	0.379032	0.267459	0.716306	0.812677	0.413836	0.379474	0.648374	0.575043	0.434513	0.547384	0.274565	0.098316
35	0.357511	0.360872	0.542718	0.091242	0.396418	0.405239	0.587240	0.238481	0.397954	0.301191	0.577415	0.428288	0.252547	0.338992	0.219245	0.110587	0.380259	0.335086	0.340358	0.234970	0.431053	0.310496	0.349685	0.187658	0.216579	0.288168	0.462441	0.149070	0.560228	0.738736	0.295258	0.284024	0.201858	0.283281	0.795042	0.282246	0.286940	0.659307	0.286758	0.231657	0.242540	0.414306	0.646880	0.307470	0.288279	0.279985	0.347108	0.100572	0.300009	0.276260	0.243530	0.661559	0.378664	0.240135	0.615998	0.824681	0.409824	0.386967	0.650113	0.573843	0.450813	0.526784	0.287285	0.105952
36	0.420400	0.381392	0.496572	0.092716	0.390606	0.452297	0.621373	0.267936	0.393960	0.302902	0.584605	0.447959	0.296128	0.343274	0.211220	0.108493	0.388061	0.328206	0.301542	0.234918	0.507714	0.307650	0.348342	0.190215	0.205680	0.290738	0.436626	0.150354	0.537258	0.718680	0.289259	0.296624	0.201351	0.294040	0.733408	0.271451	0.340443	0.675041	0.295478	0.239968	0.244042	0.422892	0.651363	0.308773	0.287051	0.234124	0.283287	0.089924	0.306392	0.282332	0.258599	0.608158	0.370367	0.173438	0.611420	0.830145	0.409200	0.375789	0.650739	0.552507	0.431216	0.474174	0.284565	0.106211
37	0.443220	0.383997	0.451595	0.101541	0.369170	0.452337	0.639254	0.283976	0.393268	0.323936	0.602467	0.465731	0.295754	0.351717	0.205740	0.089179	0.375681	0.306443	0.249607	0.246379	0.586219	0.307664	0.341399	0.199909	0.188939	0.296415	0.431188	0.164570	0.537336	0.648595	0.314324	0.301038	0.207838	0.302167	0.607966	0.249933	0.330132	0.699446	0.298384	0.246678	0.265184	0.432989	0.672887	0.307197	0.268263	0.229047	0.294550	0.102483	0.303168	0.282716	0.301417	0.565488	0.354836	0.153504	0.623058	0.838403	0.401023	0.349808	0.682208	0.492751	0.410859	0.421759	0.288079	0.106281
38	0.434630	0.396313	0.441539	0.109009	0.298109	0.425373	0.634095	0.283778	0.393247	0.341971	0.694960	0.473416	0.316621	0.334548	0.205579	0.077076	0.334463	0.269321	0.334311	0.283330	0.588372	0.293107	0.339054	0.212206	0.197347	0.296789	0.428972	0.177323	0.546350	0.640603	0.385037	0.303910	0.206553	0.282421	0.501518	0.207413	0.331988	0.678744	0.303999	0.346444	0.268998	0.450815	0.693545	0.306173	0.255720	0.242198	0.219798	0.132785	0.298405	0.280646	0.343598	0.543977	0.309677	0.150933	0.594769	0.848309	0.348074	0.343434	0.679585	0.380712	0.410233	0.407309	0.351315	0.111297
39	0.465485	0.390506	0.417237	0.114325	0.305011	0.406160	0.618253	0.281297	0.396969	0.346096	0.737906	0.450139	0.348014	0.337312	0.222332	0.076779	0.322833	0.262923	0.381038	0.328471	0.590831	0.255078	0.352880	0.218422	0.251493	0.300188	0.437478	0.185850	0.541368	0.633174	0.433293	0.307035	0.213838	0.261878	0.482531	0.153850	0.357996	0.640959	0.354780	0.481983	0.268737	0.486768	0.705790	0.313516	0.308623	0.206772	0.216327	0.151828	0.292676	0.259179	0.395005	0.543225	0.268032	0.138241	0.571865	0.869372	0.348643	0.291259	0.672946	0.281341	0.339796	0.390540	0.402382	0.118651
40	0.463588	0.370922	0.402444	0.150814	0.284868	0.390596	0.582122	0.284878	0.406293	0.336024	0.749105	0.407291	0.475000	0.333458	0.249726	0.072512	0.297022	0.262128	0.384723	0.356384	0.563235	0.273860	0.390520	0.210820	0.253411	0.308600	0.564366	0.222783	0.568873	0.629523	0.489816	0.307412	0.200395	0.252308	0.464821	0.117970	0.365417	0.642051	0.414742	0.544252	0.272001	0.494752	0.696018	0.317871	0.257465	0.136881	0.210577	0.157207	0.237727	0.232383	0.432135	0.500742	0.166203	0.113447	0.572653	0.885674	0.349817	0.273340	0.703864	0.283307	0.300272	0.385011	0.438915	0.117582
41	0.428210	0.371364	0.390444	0.251737	0.233702	0.382224	0.526210	0.298295	0.402415	0.333498	0.757489	0.395309	0.544376	0.338320	0.240968	0.066016	0.295441	0.262674	0.384362	0.359241	0.563344	0.283600	0.414871	0.202480	0.250676	0.307103	0.723365	0.259706	0.587779	0.567971	0.506106	0.291971	0.188562	0.255519	0.443226	0.110825	0.389595	0.650550	0.498468	0.549539	0.269992	0.485848	0.690481	0.345611	0.244867	0.148549	0.277650	0.166250	0.205751	0.225360	0.440502	0.369112	0.172392	0.128656	0.571605	0.855090	0.350687	0.260643	0.740356	0.404993	0.297457	0.378093	0.450721	0.114562
42	0.421437	0.369979	0.395426	0.346787	0.192030	0.457873	0.454738	0.315305	0.341274	0.333930	0.764314	0.421491	0.605873	0.338277	0.245837	0.068098	0.299006	0.211788	0.424953	0.344057	0.555831	0.288883	0.415847	0.206665	0.230549	0.298968	0.804173	0.290551	0.589861	0.560208	0.506405	0.268009	0.202411	0.235152	0.428429	0.112437	0.379359	0.621704	0.506936	0.593803	0.257879	0.491743	0.630953	0.361427	0.241691	0.207207	0.303301	0.168103	0.199495	0.199759	0.472434	0.302758	0.169483	0.146115	0.511056	0.741138	0.345457	0.258196	0.753194	0.605113	0.330117	0.377699	0.452382	0.115508
43	0.425116	0.370092	0.432719	0.409390	0.187195	0.528415	0.430217	0.329408	0.345406	0.323039	0.762169	0.501940	0.597553	0.336585	0.255573	0.069266	0.254437	0.200256	0.584795	0.385870	0.555671	0.291473	0.386246	0.207454	0.215733	0.262017	0.826302	0.316397	0.592200	0.527741	0.506378	0.242186	0.217453	0.231248	0.374928	0.110207	0.380549	0.460080	0.518447	0.645212	0.240279	0.491721	0.614667	0.368800	0.231564	0.217815	0.311082	0.158367	0.160410	0.162585	0.557039	0.297636	0.171005	0.156053	0.397896	0.600332	0.338885	0.267940	0.765817	0.730924	0.360559	0.382554	0.453015	0.119484
44	0.420182	0.361161	0.447316	0.426677	0.202076	0.561468	0.438685	0.339609	0.292916	0.282417	0.807163	0.585473	0.589801	0.330386	0.286414	0.071095	0.237411	0.236809	0.710059	0.450439	0.591358	0.395850	0.387158	0.207113	0.214921	0.245078	0.824232	0.330875	0.587031	0.496655	0.540094	0.262684	0.217469	0.233852	0.305074	0.102613	0.418944	0.370780	0.573722	0.673487	0.237282	0.491821	0.619173	0.367852	0.226737	0.223589	0.329042	0.159049	0.156207	0.145810	0.576327	0.294805	0.171937	0.165216	0.326475	0.533567	0.339273	0.260872	0.741959	0.764844	0.371386	0.363977	0.456702	0.118735
45	0.432652	0.354528	0.446786	0.430204	0.222503	0.567990	0.466294	0.347381	0.259717	0.249380	0.870882	0.638270	0.590628	0.308273	0.414017	0.077324	0.230362	0.243834	0.739755	0.487464	0.607721	0.407647	0.433129	0.204544	0.239409	0.205236	0.799112	0.336346	0.552139	0.441411	0.588376	0.309940	0.214105	0.249601	0.306467	0.104431	0.369422	0.363572	0.583799	0.676547	0.218513	0.477580	0.620264	0.366116	0.231090	0.224937	0.336415	0.176989	0.137912	0.154084	0.582786	0.280424	0.179550	0.181170	0.318664	0.497976	0.311462	0.258532	0.725570	0.768254	0.428536	0.343860	0.458220	0.120312
46	0.436639	0.355666	0.435238	0.433829	0.269848	0.569807	0.481138	0.343044	0.256104	0.237793	0.877171	0.659043	0.587636	0.242847	0.486951	0.084260	0.237238	0.227348	0.747065	0.495560	0.648137	0.395715	0.496595	0.185950	0.268035	0.213947	0.804865	0.334856	0.552424	0.420918	0.638074	0.342139	0.216201	0.257328	0.306424	0.137658	0.356884	0.295267	0.581969	0.675733	0.218725	0.464691	0.627505	0.361579	0.229016	0.258901	0.322793	0.223467	0.130904	0.206362	0.580666	0.256722	0.249372	0.258751	0.346613	0.491417	0.210793	0.250030	0.717642	0.798061	0.468778	0.310602	0.441709	0.115112
47	0.436723	0.361469	0.436087	0.447220	0.288694	0.570291	0.498026	0.335429	0.298901	0.248041	0.809983	0.661820	0.586067	0.198251	0.510129	0.089892	0.253724	0.233853	0.753615	0.493377	0.643718	0.375430	0.485387	0.170963	0.281822	0.227864	0.816484	0.335911	0.422838	0.321134	0.686289	0.364263	0.239279	0.251046	0.297456	0.188157	0.353425	0.200227	0.586636	0.648646	0.244179	0.395443	0.576323	0.348372	0.233804	0.249835	0.360550	0.274685	0.154055	0.199727	0.574906	0.251170	0.283542	0.310285	0.376220	0.463707	0.184540	0.255777	0.780723	0.901374	0.486434	0.226556	0.409271	0.102881
48	0.461461	0.341236	0.490243	0.461903	0.294165	0.567475	0.467330	0.318084	0.320488	0.271688	0.810747	0.675253	0.563921	0.197950	0.527439	0.097969	0.240527	0.260505	0.761205	0.493321	0.634745	0.395503	0.484147	0.169640	0.276226	0.221634	0.789828	0.351401	0.428378	0.312035	0.698113	0.353507	0.238194	0.238116	0.318818	0.244301	0.356289	0.162645	0.563235	0.555382	0.276259	0.309577	0.469986	0.333496	0.194152	0.285126	0.355395	0.281804	0.182057	0.187533	0.569646	0.256322	0.304547	0.309836	0.379246	0.422277	0.295875	0.277372	0.837298	1.022021	0.478118	0.263343	0.397161	0.093417
49	0.483169	0.322909	0.562306	0.474624	0.304291	0.532597	0.409347	0.284061	0.325467	0.251693	0.858957	0.713608	0.565507	0.173725	0.543460	0.118860	0.261436	0.273264	0.749475	0.483727	0.525882	0.428959	0.497500	0.168249	0.276206	0.218252	0.836608	0.443911	0.420228	0.295621	0.698756	0.347072	0.236408	0.213608	0.376925	0.286759	0.289557	0.144366	0.514438	0.471368	0.305659	0.309798	0.469269	0.339447	0.161579	0.281221	0.360416	0.291178	0.189097	0.187255	0.533340	0.262911	0.332376	0.326993	0.388914	0.402223	0.376189	0.261010	0.899000	1.085699	0.519232	0.261923	0.397800	0.091957
50	0.430245	0.371352	0.598804	0.478795	0.307531	0.495840	0.372468	0.254948	0.337956	0.254227	0.900056	0.766118	0.553720	0.175792	0.548617	0.144739	0.278637	0.315195	0.714438	0.461816	0.510373	0.438745	0.514663	0.172102	0.282308	0.238660	0.875556	0.521375	0.399217	0.293425	0.693736	0.367583	0.234234	0.183056	0.423104	0.299734	0.264230	0.096687	0.452222	0.459189	0.293049	0.296456	0.435325	0.341248	0.172335	0.281534	0.319433	0.346282	0.196072	0.251345	0.492214	0.264482	0.342377	0.348005	0.369870	0.381853	0.377552	0.286223	0.978916	1.114202	0.549783	0.257315	0.395986	0.091913
51	0.429800	0.328450	0.601908	0.479863	0.314621	0.462993	0.412473	0.242278	0.404350	0.225458	0.893648	0.785054	0.544528	0.198786	0.546769	0.152132	0.310498	0.376122	0.697889	0.430407	0.455848	0.434794	0.510761	0.170716	0.285234	0.238359	0.903216	0.549522	0.396350	0.274371	0.672513	0.389006	0.236710	0.200721	0.433145	0.298150	0.269995	0.082684	0.402676	0.430271	0.303432	0.243319	0.429703	0.327284	0.174445	0.261400	0.304168	0.419828	0.270312	0.268356	0.468937	0.247579	0.343183	0.361827	0.368081	0.352565	0.379647	0.307170	0.983489	1.118565	0.549886	0.260533	0.347140	0.107240
52	0.415010	0.313940	0.628151	0.486141	0.319916	0.469146	0.454241	0.242037	0.418861	0.207640	0.831514	0.784428	0.498393	0.208774	0.539112	0.154009	0.316631	0.394551	0.700928	0.404346	0.522070	0.428304	0.485182	0.168750	0.252625	0.233759	0.913847	0.554782	0.393860	0.251854	0.671306	0.400270	0.236087	0.233664	0.452247	0.312932	0.246176	0.112097	0.381905	0.316355	0.388914	0.202768	0.455106	0.304630	0.212514	0.254946	0.326620	0.468168	0.294669	0.275966	0.473665	0.231046	0.332020	0.380137	0.366482	0.300800	0.448031	0.306505	0.981968	1.115558	0.572577	0.258701	0.295653	0.122974
53	0.388028	0.337061	0.641934	0.500987	0.362308	0.534265	0.463390	0.240638	0.421637	0.199029	0.783848	0.783466	0.367925	0.208419	0.554073	0.160382	0.313978	0.387561	0.706780	0.389269	0.546776	0.414735	0.453309	0.169833	0.250262	0.246538	0.886022	0.545140	0.356038	0.247745	0.660526	0.401868	0.269935	0.269002	0.486528	0.346673	0.258562	0.116866	0.252525	0.190861	0.422110	0.181320	0.457662	0.289099	0.210125	0.267321	0.317675	0.475276	0.295487	0.278761	0.452350	0.209588	0.339226	0.393023	0.361014	0.294791	0.536603	0.308729	0.960835	1.097071	0.572497	0.253166	0.238566	0.136630
54	0.359963	0.347933	0.648694	0.521725	0.406888	0.588628	0.474078	0.228500	0.554640	0.232707	0.751894	0.782863	0.286029	0.214976	0.560752	0.185786	0.333213	0.387221	0.686067	0.385609	0.549397	0.410227	0.447938	0.167375	0.253446	0.271874	0.776777	0.529904	0.458713	0.249059	0.653433	0.401455	0.272445	0.286992	0.495175	0.382807	0.273200	0.122289	0.178122	0.137846	0.454434	0.173575	0.446867	0.284954	0.228494	0.261565	0.306905	0.495363	0.294387	0.294073	0.379453	0.219923	0.346376	0.393037	0.336507	0.336500	0.629317	0.330344	0.916498	1.053694	0.565284	0.246822	0.233935	0.147117
55	0.383383	0.348596	0.648508	0.517236	0.436026	0.605568	0.474373	0.202027	0.553492	0.233283	0.748430	0.782841	0.319143	0.218868	0.600633	0.202952	0.354011	0.396887	0.546106	0.330717	0.553519	0.420810	0.485153	0.163943	0.260230	0.301819	0.681374	0.513951	0.462699	0.248726	0.653287	0.401496	0.263440	0.352261	0.490400	0.410764	0.281821	0.129795	0.203669	0.143143	0.453814	0.153159	0.456688	0.284387	0.231710	0.248576	0.345230	0.508025	0.298494	0.328514	0.319053	0.238058	0.349509	0.400826	0.333727	0.360237	0.648732	0.328429	0.883353	0.959856	0.546981	0.249849	0.235586	0.146223
56	0.471310	0.348358	0.646250	0.478241	0.477433	0.588656	0.478790	0.172121	0.577595	0.255605	0.754314	0.772181	0.341221	0.217706	0.607467	0.208785	0.399112	0.396797	0.376389	0.234206	0.546228	0.402157	0.497610	0.163712	0.263602	0.308580	0.679834	0.507049	0.464207	0.241298	0.645013	0.398432	0.273514	0.349284	0.455346	0.424877	0.279582	0.130179	0.221168	0.156822	0.454871	0.173613	0.462091	0.280818	0.226497	0.235325	0.354718	0.485434	0.299793	0.363591	0.329976	0.249801	0.350171	0.410609	0.370085	0.372506	0.662438	0.359078	0.845079	0.891248	0.528626	0.249993	0.236204	0.147317
57	0.483723	0.381669	0.631164	0.419646	0.563023	0.549077	0.471585	0.147381	0.577978	0.306241	0.828959	0.725429	0.394060	0.217236	0.542155	0.205534	0.456630	0.405032	0.342052	0.143280	0.542810	0.334538	0.482623	0.156309	0.262226	0.334247	0.726845	0.517181	0.525215	0.208363	0.609716	0.374446	0.270289	0.360291	0.449407	0.431931	0.341915	0.129765	0.222811	0.163013	0.460168	0.198476	0.472865	0.279155	0.226992	0.235318	0.353173	0.479917	0.298272	0.369058	0.331899	0.248576	0.356194	0.418719	0.383917	0.374587	0.675050	0.400985	0.818604	0.870286	0.521855	0.257040	0.225862	0.154006
58	0.483918	0.456196	0.624918	0.379614	0.567608	0.554565	0.448795	0.124352	0.586763	0.312769	0.854998	0.653016	0.393488	0.218798	0.463906	0.201537	0.513387	0.407316	0.382536	0.099237	0.496075	0.337801	0.463770	0.159437	0.243954	0.353544	0.798889	0.528541	0.550224	0.229543	0.585837	0.334811	0.270935	0.351858	0.441829	0.434047	0.346143	0.127443	0.235259	0.165258	0.467177	0.237186	0.502878	0.284416	0.258796	0.232734	0.411495	0.485630	0.298713	0.371462	0.363298	0.251098	0.351741	0.416730	0.422098	0.374419	0.678575	0.403800	0.820676	0.868537	0.488878	0.240588	0.260841	0.170237
59	0.496548	0.469946	0.618624	0.373141	0.563088	0.554892	0.447958	0.107630	0.591854	0.311446	0.811044	0.577951	0.391408	0.206376	0.431944	0.197615	0.521258	0.434751	0.368677	0.096160	0.482911	0.340083	0.465092	0.167964	0.228993	0.350218	0.823011	0.536618	0.605586	0.250332	0.527453	0.291572	0.282063	0.367883	0.448012	0.425798	0.355339	0.130407	0.226534	0.157781	0.461580	0.236917	0.503812	0.294042	0.252516	0.236101	0.406558	0.466583	0.276071	0.418865	0.363055	0.258438	0.314433	0.380843	0.429161	0.393266	0.677773	0.401235	0.809070	0.828951	0.473559	0.306629	0.283388	0.186056
60	0.512131	0.468507	0.619555	0.374384	0.563086	0.558528	0.434397	0.106164	0.599304	0.312910	0.786427	0.539318	0.401242	0.211625	0.426667	0.192323	0.525229	0.417632	0.375472	0.091677	0.491850	0.343797	0.495716	0.170397	0.204545	0.332248	0.836055	0.542727	0.624933	0.306873	0.464237	0.252389	0.274553	0.411570	0.462083	0.406186	0.343341	0.137527	0.229091	0.134120	0.447634	0.243272	0.489356	0.311729	0.264733	0.222873	0.393543	0.453376	0.303126	0.427209	0.367408	0.261081	0.286562	0.332588	0.404142	0.410633	0.672585	0.375702	0.764594	0.693706	0.471421	0.314221	0.305273	0.195511
61	0.513657	0.466133	0.624574	0.364195	0.558489	0.558610	0.429096	0.109937	0.596675	0.313719	0.782185	0.533340	0.414443	0.232001	0.434605	0.183130	0.536573	0.416123	0.400516	0.092955	0.496388	0.291788	0.498582	0.168377	0.204111	0.328795	0.868087	0.541758	0.707842	0.305529	0.451725	0.247520	0.272038	0.430834	0.525539	0.375381	0.347667	0.123895	0.236302	0.122679	0.433237	0.250197	0.486114	0.317042	0.249645	0.221176	0.364552	0.403145	0.349139	0.435825	0.383706	0.262879	0.264044	0.349596	0.410431	0.415320	0.653151	0.360233	0.726026	0.513825	0.460968	0.282267	0.366414	0.203699
62	0.537503	0.462126	0.622142	0.345649	0.552312	0.557139	0.436643	0.105844	0.588712	0.338588	0.771269	0.513912	0.430620	0.236210	0.439613	0.161153	0.535210	0.384456	0.417819	0.115446	0.494366	0.261292	0.478589	0.155596	0.206700	0.327873	0.834650	0.475331	0.731148	0.400470	0.449377	0.241223	0.273012	0.447785	0.531710	0.345454	0.339717	0.112228	0.243438	0.140387	0.405845	0.345407	0.485418	0.310523	0.256104	0.197483	0.408350	0.393103	0.319177	0.425222	0.384308	0.262817	0.231777	0.351526	0.414838	0.415033	0.627184	0.415933	0.619065	0.379814	0.451220	0.306724	0.367840	0.204336
63	0.517804	0.458413	0.548946	0.323694	0.565707	0.560332	0.435043	0.111437	0.636310	0.355056	0.745135	0.448184	0.445362	0.219910	0.440300	0.152669	0.525936	0.330017	0.405877	0.133012	0.516043	0.283262	0.471743	0.135243	0.205551	0.311646	0.793055	0.381133	0.804594	0.415676	0.434304	0.197064	0.271718	0.448420	0.502708	0.332277	0.289543	0.112902	0.289887	0.263973	0.426615	0.404702	0.499879	0.296941	0.251859	0.204244	0.578588	0.387633	0.310090	0.419517	0.415666	0.255109	0.282768	0.340196	0.427486	0.413398	0.646615	0.396532	0.494381	0.291977	0.459449	0.344560	0.403387	0.204335
64	0.533873	0.510178	0.451314	0.311848	0.590573	0.572977	0.402546	0.113541	0.653380	0.356789	0.730057	0.320895	0.455976	0.199613	0.438743	0.155054	0.531062	0.306473	0.392907	0.119691	0.499526	0.311531	0.474391	0.113004	0.196014	0.325307	0.761105	0.322331	0.831453	0.458790	0.394227	0.154549	0.267869	0.439698	0.494239	0.332692	0.281274	0.104206	0.303435	0.352302	0.416856	0.414199	0.461039	0.292855	0.240299	0.202024	0.647993	0.361177	0.352195	0.419554	0.430758	0.233602	0.273290	0.364173	0.432863	0.408619	0.677040	0.377694	0.495074	0.275242	0.493607	0.345616	0.409593	0.195491
65	0.562133	0.492324	0.448208	0.310582	0.596506	0.591961	0.320934	0.113895	0.639357	0.369578	0.742956	0.232058	0.459979	0.191638	0.401233	0.152738	0.524080	0.295090	0.383567	0.113776	0.366185	0.331157	0.484492	0.103642	0.234486	0.329114	0.748029	0.302938	0.843988	0.470164	0.340976	0.121962	0.271868	0.426852	0.507868	0.324246	0.279810	0.102746	0.315098	0.365148	0.373416	0.422270	0.407172	0.287589	0.239064	0.202555	0.647717	0.358106	0.389336	0.455768	0.567472	0.220822	0.396007	0.416072	0.463235	0.399930	0.627495	0.397318	0.477166	0.276446	0.502454	0.352198	0.399877	0.184679
66	0.564938	0.490097	0.481711	0.316012	0.589341	0.548910	0.284048	0.114801	0.635208	0.366516	0.737439	0.201078	0.466237	0.185299	0.386535	0.122985	0.502286	0.294881	0.412660	0.118209	0.358146	0.354790	0.493904	0.100798	0.239624	0.314898	0.726048	0.298306	0.842495	0.493773	0.299748	0.119395	0.256892	0.422243	0.474729	0.290960	0.261097	0.099725	0.311135	0.375610	0.466543	0.423494	0.419133	0.265196	0.245328	0.165110	0.659170	0.349529	0.408389	0.459394	0.720601	0.203775	0.396399	0.407293	0.499545	0.362000	0.556142	0.403826	0.462418	0.255570	0.500866	0.372085	0.397531	0.188584
67	0.560992	0.477406	0.585798	0.317075	0.551146	0.486177	0.275890	0.119439	0.638729	0.364083	0.729207	0.190874	0.463588	0.214911	0.328042	0.086948	0.506576	0.284023	0.421000	0.147352	0.396281	0.347756	0.476839	0.096984	0.244347	0.291898	0.730778	0.293761	0.790489	0.528072	0.339053	0.116638	0.268668	0.426986	0.474245	0.241135	0.219772	0.095461	0.332517	0.452224	0.490779	0.437588	0.462772	0.232167	0.257388	0.143395	0.687827	0.328307	0.478213	0.457851	0.777035	0.193239	0.396939	0.419048	0.515441	0.287110	0.506312	0.399043	0.456184	0.208417	0.551404	0.386526	0.432841	0.201368
68	0.560493	0.508685	0.668435	0.299754	0.547155	0.475943	0.264816	0.123964	0.524790	0.344938	0.730709	0.202620	0.442037	0.226513	0.333814	0.064814	0.520670	0.253373	0.421270	0.179424	0.398174	0.336280	0.439930	0.094183	0.246384	0.257393	0.752626	0.297771	0.792394	0.523694	0.365678	0.116943	0.280488	0.388548	0.485163	0.188092	0.220851	0.086851	0.327509	0.473488	0.500797	0.439156	0.453990	0.208000	0.230702	0.196345	0.747622	0.327844	0.502864	0.430779	0.836907	0.202143	0.453780	0.415132	0.519862	0.236949	0.485028	0.399940	0.458288	0.119096	0.662970	0.386550	0.464119	0.213457
69	0.571808	0.633195	0.702450	0.257829	0.545575	0.355423	0.260348	0.130441	0.534327	0.386031	0.725655	0.212238	0.399565	0.232382	0.366445	0.069122	0.501516	0.253057	0.401331	0.190230	0.382901	0.330152	0.447364	0.117355	0.244759	0.245221	0.755557	0.294135	0.785688	0.528320	0.360894	0.115484	0.253990	0.388327	0.489045	0.150940	0.217192	0.081542	0.328416	0.478543	0.504323	0.434283	0.468257	0.210897	0.214315	0.202381	0.755552	0.267288	0.508705	0.458797	0.837377	0.201121	0.465863	0.428888	0.550902	0.207851	0.459767	0.354723	0.452780	0.139418	0.755110	0.383647	0.466948	0.212261
70	0.549968	0.642182	0.703846	0.221133	0.448350	0.351373	0.240239	0.132659	0.579601	0.390707	0.729784	0.210763	0.391787	0.247430	0.376081	0.071546	0.439146	0.264475	0.377626	0.196067	0.352319	0.320051	0.412589	0.147307	0.239226	0.214366	0.736904	0.275124	0.742894	0.523275	0.339229	0.114485	0.256418	0.380579	0.485299	0.131054	0.214051	0.090311	0.409430	0.531858	0.502493	0.419286	0.450906	0.212886	0.214249	0.200313	0.767198	0.252145	0.505344	0.443958	0.877385	0.197166	0.465079	0.436734	0.548651	0.202140	0.445971	0.355160	0.425035	0.201048	0.833727	0.378038	0.465966	0.204594
71	0.536566	0.644965	0.704345	0.207509	0.430546	0.347285	0.239803	0.133112	0.650532	0.354948	0.696666	0.195167	0.405300	0.266916	0.383284	0.072438	0.440936	0.216485	0.404648	0.200403	0.362011	0.326992	0.358438	0.150704	0.246013	0.175902	0.646915	0.263826	0.765081	0.503546	0.293957	0.110582	0.259210	0.397638	0.546081	0.117210	0.205207	0.080300	0.423477	0.594514	0.507279	0.425707	0.429859	0.203926	0.191238	0.190039	0.769722	0.260113	0.578071	0.427009	0.943096	0.183437	0.571395	0.439805	0.527689	0.200647	0.460992	0.397725	0.376670	0.262944	0.877140	0.378065	0.447664	0.196090
72	0.555530	0.667873	0.720844	0.211846	0.564051	0.331817	0.221073	0.131727	0.682094	0.350569	0.647283	0.180697	0.407507	0.269143	0.371069	0.072047	0.449887	0.215838	0.380504	0.216540	0.358152	0.327140	0.274645	0.145348	0.264302	0.171169	0.602359	0.274327	0.734572	0.497930	0.289744	0.092058	0.257401	0.380843	0.588783	0.111062	0.199017	0.078220	0.410992	0.597976	0.510222	0.430870	0.439542	0.183933	0.199700	0.206010	0.682033	0.233564	0.586301	0.478014	1.004428	0.177388	0.587874	0.469494	0.505296	0.164542	0.482579	0.425891	0.377339	0.289441	0.954467	0.336326	0.426254	0.190452
73	0.548536	0.649731	0.725986	0.214245	0.608933	0.346163	0.210259	0.125282	0.679969	0.366870	0.616790	0.185282	0.394056	0.247099	0.335421	0.076534	0.432775	0.213209	0.349959	0.233786	0.345995	0.315408	0.245873	0.143984	0.271834	0.172440	0.552643	0.279371	0.709570	0.481468	0.300203	0.075885	0.256318	0.348542	0.646045	0.110990	0.200277	0.102444	0.385774	0.547905	0.502379	0.440153	0.475410	0.143482	0.204676	0.210853	0.582870	0.207855	0.591781	0.466333	1.025919	0.169103	0.610077	0.532139	0.506396	0.111083	0.486155	0.445358	0.302205	0.290750	0.965986	0.349478	0.407185	0.183354
74	0.530535	0.649120	0.726897	0.210721	0.610480	0.335911	0.195345	0.116169	0.693745	0.373198	0.645840	0.200057	0.379918	0.245647	0.311449	0.116540	0.445788	0.229935	0.331319	0.234950	0.347279	0.308079	0.255444	0.151590	0.276260	0.176695	0.524628	0.269859	0.616238	0.465826	0.342327	0.074291	0.262050	0.456836	0.669622	0.110709	0.210824	0.148388	0.479854	0.614596	0.501291	0.434776	0.480717	0.123703	0.248424	0.211103	0.543932	0.180818	0.587204	0.451982	1.003648	0.168889	0.640042	0.538529	0.500317	0.083676	0.461683	0.450224	0.253421	0.297595	0.992607	0.389570	0.361721	0.173823
75	0.561628	0.651537	0.724510	0.209165	0.630624	0.336975	0.174821	0.114897	0.676969	0.419073	0.767077	0.221039	0.366337	0.237027	0.346496	0.174076	0.446768	0.226532	0.357592	0.226545	0.293392	0.288861	0.272916	0.165725	0.274184	0.188282	0.557152	0.274899	0.566645	0.406209	0.349027	0.076571	0.276280	0.523544	0.667756	0.104868	0.227661	0.155974	0.555400	0.723833	0.501168	0.393122	0.472755	0.124746	0.270938	0.206538	0.517921	0.203774	0.575036	0.452020	0.990000	0.167606	0.644655	0.535294	0.491584	0.081073	0.494449	0.431625	0.235235	0.324702	0.987166	0.388003	0.384981	0.174644
76	0.627548	0.722468	0.717982	0.209840	0.670310	0.350964	0.192855	0.101914	0.676087	0.473908	0.781970	0.228125	0.326005	0.237108	0.395150	0.213037	0.451743	0.227592	0.360292	0.230702	0.267922	0.240784	0.277277	0.175864	0.291575	0.237519	0.586730	0.278514	0.472392	0.404423	0.345702	0.073824	0.356102	0.534563	0.662766	0.101466	0.208568	0.158290	0.614416	0.777136	0.517465	0.340248	0.474143	0.124139	0.243090	0.204905	0.497728	0.280638	0.553058	0.439383	0.955137	0.154175	0.635023	0.542518	0.492406	0.082375	0.468124	0.492315	0.216323	0.341200	0.973359	0.372577	0.359590	0.174719
77	0.612996	0.738173	0.696697	0.214911	0.647021	0.365725	0.192827	0.091085	0.723950	0.457864	0.754429	0.229034	0.319408	0.234126	0.402768	0.237230	0.453790	0.227414	0.381283	0.240186	0.272906	0.223492	0.272075	0.179881	0.319715	0.385306	0.589811	0.278352	0.416704	0.351870	0.355115	0.068469	0.483563	0.557029	0.709654	0.102778	0.215922	0.175683	0.690741	0.786807	0.538105	0.348416	0.490114	0.124980	0.236453	0.175151	0.489859	0.348133	0.561277	0.436641	0.847432	0.141037	0.640710	0.533661	0.518949	0.082150	0.464614	0.511469	0.210104	0.346048	0.958923	0.367617	0.354429	0.175297
78	0.674594	0.695984	0.678533	0.219580	0.644411	0.348818	0.188630	0.089661	0.743629	0.465870	0.704185	0.229455	0.285343	0.230343	0.405598	0.248449	0.488832	0.228571	0.353608	0.245589	0.273606	0.172168	0.246780	0.179495	0.346612	0.409965	0.618394	0.279096	0.413486	0.384732	0.339874	0.066545	0.524800	0.570128	0.703318	0.093717	0.371788	0.176234	0.698216	0.787014	0.528515	0.339608	0.489745	0.127151	0.238539	0.141420	0.499041	0.354397	0.494164	0.519449	0.783820	0.146857	0.579718	0.483405	0.512511	0.076714	0.493841	0.496037	0.209717	0.347393	0.946701	0.367248	0.364146	0.171685
79	0.695942	0.681942	0.689075	0.219802	0.648143	0.340193	0.188951	0.092352	0.727338	0.469974	0.678066	0.220273	0.216251	0.192297	0.399835	0.252947	0.545823	0.245766	0.372550	0.229977	0.264739	0.155070	0.205388	0.186877	0.350019	0.413323	0.619946	0.277478	0.393055	0.345014	0.375520	0.060506	0.540945	0.560331	0.752208	0.103160	0.420381	0.195988	0.676095	0.775379	0.408682	0.340801	0.454303	0.127455	0.238486	0.140850	0.523173	0.341516	0.502545	0.518550	0.713901	0.138423	0.571470	0.477812	0.486102	0.069133	0.503635	0.486288	0.224186	0.349630	0.954469	0.347278	0.367998	0.155573
80	0.727024	0.709918	0.722531	0.212573	0.654784	0.352054	0.192501	0.081657	0.730699	0.469365	0.684411	0.207617	0.215823	0.181117	0.375085	0.276548	0.508379	0.280698	0.373063	0.205655	0.194385	0.148757	0.208724	0.202209	0.349825	0.444404	0.597466	0.304080	0.384803	0.361035	0.387528	0.063873	0.578016	0.553841	0.755671	0.099832	0.437317	0.213177	0.679996	0.739054	0.391587	0.328802	0.425622	0.128922	0.239376	0.138210	0.616074	0.327512	0.536487	0.522292	0.697295	0.129286	0.616587	0.470964	0.457942	0.060806	0.507787	0.523130	0.240639	0.350520	0.931201	0.357388	0.319964	0.126687
81	0.762138	0.721673	0.661877	0.183867	0.653831	0.336047	0.198890	0.072673	0.728665	0.472261	0.683413	0.194384	0.224681	0.163442	0.323861	0.296781	0.477073	0.267480	0.385196	0.197101	0.191440	0.141127	0.209817	0.208615	0.344705	0.462469	0.576546	0.328347	0.388755	0.374275	0.395690	0.067656	0.572558	0.569103	0.760220	0.088537	0.436882	0.222516	0.779381	0.785207	0.401079	0.328234	0.454800	0.124483	0.225815	0.115716	0.653662	0.337759	0.547476	0.500455	0.690616	0.190708	0.587212	0.476941	0.432870	0.060502	0.513057	0.584766	0.371826	0.349946	0.859757	0.359677	0.259610	0.100243
82	0.764354	0.725310	0.544854	0.150529	0.634648	0.317783	0.203531	0.059194	0.828421	0.476116	0.682121	0.178903	0.227058	0.148475	0.317699	0.313796	0.475887	0.240715	0.362999	0.191508	0.192174	0.148991	0.197352	0.189311	0.350574	0.473257	0.548853	0.351688	0.387063	0.367912	0.397426	0.068450	0.586628	0.623114	0.765198	0.087376	0.438426	0.227180	0.844553	0.893499	0.409481	0.328544	0.477182	0.115808	0.229670	0.090595	0.654076	0.370849	0.518894	0.504488	0.613619	0.411206	0.586116	0.464543	0.377502	0.053460	0.594488	0.584327	0.448073	0.328427	0.800944	0.362735	0.289670	0.096991
83	0.776607	0.638391	0.465440	0.131980	0.635304	0.340752	0.215921	0.050186	0.837524	0.449245	0.713987	0.168241	0.206390	0.089459	0.312106	0.326188	0.465867	0.243956	0.335943	0.186957	0.178575	0.147999	0.208089	0.177660	0.361365	0.469727	0.639337	0.400900	0.396646	0.372950	0.407772	0.068921	0.590464	0.662064	0.786214	0.085786	0.437062	0.199212	0.845154	0.894262	0.427322	0.339755	0.548846	0.128376	0.233547	0.147136	0.657961	0.437555	0.437313	0.439501	0.616516	0.657624	0.632920	0.447647	0.381312	0.058085	0.601574	0.583720	0.450587	0.290727	0.886208	0.370850	0.345848	0.101612
84	0.772533	0.579111	0.450889	0.130953	0.633049	0.320004	0.247289	0.053883	0.831763	0.434340	0.741212	0.169025	0.200529	0.082214	0.318764	0.331361	0.477858	0.258086	0.343042	0.169959	0.175983	0.105294	0.214721	0.180527	0.392879	0.477380	0.744827	0.482361	0.337708	0.376544	0.410051	0.068394	0.610363	0.660442	0.791850	0.090949	0.421795	0.199038	0.787843	0.807776	0.449526	0.318706	0.581584	0.147267	0.338422	0.188298	0.671148	0.502252	0.422687	0.429012	0.707929	0.821099	0.552910	0.438683	0.371403	0.060804	0.593143	0.572349	0.453306	0.234361	0.881832	0.380996	0.355842	0.093434
85	0.771931	0.579454	0.449302	0.131676	0.508965	0.315323	0.300415	0.062584	0.788250	0.434869	0.748736	0.171093	0.209982	0.080024	0.341358	0.332602	0.478218	0.253832	0.361067	0.144968	0.178934	0.104996	0.237833	0.182753	0.400246	0.478478	0.754317	0.505533	0.340326	0.362962	0.409219	0.067503	0.658554	0.678844	0.767600	0.093746	0.418556	0.208457	0.740416	0.785065	0.488580	0.313195	0.581532	0.163449	0.393397	0.233876	0.692653	0.506411	0.416710	0.439781	0.831869	0.872906	0.531297	0.415480	0.374393	0.066682	0.618609	0.555388	0.490562	0.212093	0.795800	0.379619	0.356598	0.069976
86	0.749824	0.520378	0.433301	0.129059	0.421192	0.305857	0.293542	0.063998	0.751037	0.434651	0.722404	0.167269	0.212562	0.089128	0.344674	0.325024	0.467759	0.239916	0.349567	0.125352	0.177531	0.104940	0.234559	0.180024	0.396324	0.484511	0.756745	0.507462	0.433430	0.357132	0.396477	0.064478	0.659577	0.675724	0.722859	0.100564	0.416997	0.193628	0.678752	0.799400	0.494090	0.299757	0.556163	0.177648	0.469720	0.259519	0.624844	0.459906	0.493331	0.453742	0.840395	0.886734	0.508574	0.324923	0.420375	0.094926	0.638163	0.588082	0.580902	0.214446	0.907551	0.344429	0.362126	0.063652
87	0.754061	0.482267	0.392626	0.118220	0.414218	0.294640	0.303280	0.065027	0.813894	0.437861	0.721659	0.158318	0.199005	0.097012	0.324053	0.299748	0.461732	0.244225	0.321681	0.127151	0.190057	0.104878	0.198999	0.167238	0.396498	0.486006	0.734200	0.507850	0.427950	0.421597	0.374206	0.059935	0.659849	0.622622	0.657718	0.106793	0.313271	0.198558	0.653840	0.809166	0.488882	0.280523	0.584212	0.177055	0.590716	0.266383	0.600333	0.454801	0.537071	0.456172	0.865394	1.006417	0.459882	0.293798	0.432570	0.108148	0.616565	0.598794	0.602931	0.199534	0.892637	0.303545	0.346261	0.066937
88	0.757622	0.483211	0.388185	0.115030	0.417761	0.294358	0.319475	0.065720	0.830025	0.546541	0.706351	0.140991	0.201839	0.102920	0.251160	0.269128	0.447590	0.252070	0.311368	0.123909	0.182799	0.130707	0.206129	0.154959	0.436454	0.487968	0.710376	0.509954	0.445242	0.468121	0.367831	0.056439	0.663801	0.555053	0.622125	0.112479	0.176270	0.187341	0.650029	0.804381	0.510095	0.245047	0.683662	0.175295	0.630138	0.269081	0.599398	0.573572	0.527131	0.464319	0.901347	1.151958	0.455017	0.280145	0.435828	0.111013	0.620597	0.575297	0.603671	0.150058	0.879123	0.287462	0.317469	0.062094
89	0.760544	0.479627	0.392227	0.114468	0.372310	0.281909	0.337633	0.067791	0.832239	0.588996	0.586828	0.108768	0.203890	0.102292	0.221417	0.245382	0.445495	0.252766	0.287399	0.108772	0.161946	0.163214	0.203577	0.146414	0.492011	0.491614	0.679557	0.537008	0.445258	0.461052	0.365184	0.054513	0.633136	0.538785	0.616814	0.112545	0.140748	0.175817	0.650428	0.792242	0.456190	0.270869	0.706677	0.179855	0.632872	0.270470	0.569042	0.771463	0.538118	0.292240	0.992365	1.217413	0.428820	0.255375	0.425754	0.110952	0.618049	0.534053	0.620185	0.129475	0.865512	0.295705	0.311840	0.061678
90	0.735512	0.441654	0.409032	0.114598	0.315717	0.246370	0.368742	0.068079	0.845220	0.586702	0.625046	0.103158	0.221832	0.110235	0.212980	0.229067	0.406595	0.250106	0.279559	0.097238	0.152067	0.191966	0.254724	0.145255	0.511445	0.387885	0.711626	0.590072	0.481714	0.436118	0.385296	0.048813	0.570089	0.526299	0.564491	0.108756	0.143547	0.161098	0.570410	0.742204	0.443380	0.275746	0.713929	0.185410	0.632500	0.271785	0.632769	0.882388	0.540443	0.296477	1.061651	1.242965	0.413356	0.235359	0.387231	0.119169	0.580157	0.523979	0.617846	0.114718	0.862295	0.308049	0.322422	0.062727
91	0.740055	0.355450	0.422413	0.109470	0.299145	0.221552	0.402632	0.067593	0.782688	0.595074	0.759121	0.144344	0.238135	0.112263	0.220457	0.226272	0.273503	0.229710	0.240444	0.100486	0.160574	0.193910	0.372028	0.150800	0.509878	0.348723	0.703096	0.630643	0.515483	0.417186	0.444599	0.051152	0.595600	0.549592	0.548021	0.107374	0.137676	0.147100	0.434601	0.612901	0.444970	0.272530	0.713004	0.187485	0.631954	0.272457	0.677041	0.889596	0.497546	0.275158	1.095534	1.251569	0.410896	0.227322	0.361888	0.135219	0.565250	0.535343	0.627726	0.120483	0.854007	0.302421	0.318892	0.065407
92	0.779408	0.346453	0.417463	0.098133	0.290689	0.214892	0.412269	0.062980	0.745913	0.603149	0.811432	0.172204	0.240730	0.115847	0.216495	0.201335	0.259028	0.185454	0.275402	0.100444	0.208346	0.194238	0.438211	0.145204	0.506651	0.354445	0.684631	0.652979	0.518727	0.410865	0.410741	0.051582	0.570851	0.573661	0.478031	0.093572	0.132587	0.143176	0.329988	0.565969	0.475835	0.293851	0.805228	0.217222	0.625193	0.258212	0.663188	0.883906	0.475931	0.276097	1.094933	1.253677	0.407650	0.225542	0.348191	0.142393	0.542304	0.555454	0.703470	0.169369	0.842988	0.303004	0.312935	0.066893
93	0.765853	0.440315	0.405403	0.094206	0.292426	0.204754	0.411809	0.060987	0.749896	0.598971	0.819725	0.179931	0.233015	0.118267	0.239615	0.166560	0.259000	0.189753	0.268361	0.100299	0.212229	0.205700	0.441416	0.128950	0.514716	0.327387	0.680914	0.661802	0.518733	0.369249	0.363621	0.044228	0.525941	0.573190	0.460539	0.088203	0.126658	0.137950	0.304621	0.591451	0.478290	0.283755	0.895892	0.254925	0.587399	0.212308	0.657663	0.909472	0.483037	0.273811	1.097124	1.225901	0.341772	0.222512	0.351894	0.143110	0.571345	0.765200	0.698696	0.206060	0.841633	0.311248	0.327186	0.066514
94	0.743343	0.450332	0.317156	0.088232	0.330134	0.189986	0.409037	0.063294	0.749261	0.608241	0.822115	0.180466	0.231383	0.129799	0.259899	0.141142	0.257161	0.221641	0.261640	0.104944	0.242637	0.204159	0.437975	0.123966	0.564087	0.303679	0.684207	0.654681	0.516830	0.380654	0.344284	0.042808	0.525562	0.558669	0.474772	0.089514	0.122429	0.164017	0.301817	0.543596	0.463233	0.302589	0.893328	0.257694	0.509742	0.185341	0.628586	0.917761	0.486846	0.264733	1.079895	1.137450	0.348336	0.202407	0.368761	0.144921	0.695036	0.849798	0.621665	0.220220	0.841087	0.319538	0.327589	0.067355
95	0.724896	0.418474	0.294348	0.085274	0.333125	0.188163	0.430535	0.065277	0.772571	0.606013	0.828993	0.181119	0.233258	0.129784	0.265076	0.109486	0.260833	0.255615	0.263063	0.106108	0.251902	0.202873	0.437446	0.120701	0.558822	0.286081	0.688042	0.639600	0.543520	0.390101	0.341830	0.048916	0.509994	0.505587	0.546356	0.098278	0.121049	0.196582	0.273927	0.417877	0.466031	0.337171	0.976974	0.268632	0.483061	0.121374	0.639805	0.939025	0.491802	0.284506	0.988686	1.015755	0.340855	0.209759	0.351333	0.146175	0.740410	0.928282	0.590400	0.221064	0.836945	0.319097	0.293687	0.064453
96	0.721967	0.411979	0.389925	0.094469	0.338503	0.129005	0.435296	0.067051	0.659235	0.685417	0.828134	0.184849	0.257157	0.123903	0.259483	0.097076	0.231405	0.247074	0.280389	0.108070	0.257049	0.203523	0.432824	0.108683	0.559991	0.291731	0.604296	0.607493	0.538147	0.386282	0.364198	0.049803	0.507334	0.502977	0.543634	0.106885	0.123317	0.191101	0.264612	0.404289	0.448946	0.323837	1.006250	0.287941	0.318564	0.104741	0.666239	0.959395	0.494712	0.303476	0.904603	0.963708	0.243415	0.214630	0.324906	0.155096	0.759626	0.918144	0.587352	0.223425	0.658020	0.309911	0.226978	0.056113
97	0.727627	0.457494	0.437051	0.098864	0.347046	0.132977	0.429040	0.066032	0.628407	0.732147	0.819381	0.191640	0.240148	0.132819	0.239971	0.098603	0.241706	0.242395	0.272202	0.140917	0.250700	0.202377	0.421178	0.096220	0.542830	0.280772	0.470184	0.532174	0.538133	0.393791	0.472823	0.055925	0.489250	0.491413	0.494242	0.110928	0.128484	0.191318	0.266273	0.408707	0.400935	0.322945	1.062236	0.310186	0.134253	0.113118	0.686221	0.937000	0.456704	0.292472	0.900969	0.988937	0.259847	0.225434	0.317381	0.165080	0.744878	0.913951	0.582288	0.232489	0.583915	0.302862	0.205087	0.050573
98	0.728347	0.464856	0.466340	0.097533	0.343395	0.130787	0.397764	0.060728	0.752953	0.735046	0.876593	0.203755	0.231426	0.139610	0.233334	0.100946	0.306398	0.285874	0.270030	0.191916	0.247178	0.216822	0.418618	0.096429	0.548943	0.296196	0.448073	0.491588	0.611961	0.423161	0.528592	0.060626	0.406024	0.464551	0.490566	0.113966	0.120220	0.182342	0.229539	0.435808	0.376198	0.322546	1.129649	0.321895	0.180164	0.118725	0.666168	0.804160	0.357568	0.282252	0.938875	0.957710	0.253779	0.229107	0.321258	0.166183	0.717551	0.919817	0.535837	0.235149	0.560385	0.298184	0.205696	0.050788
99	0.749493	0.474741	0.478298	0.095969	0.343111	0.140233	0.381037	0.053630	0.743970	0.736794	0.903139	0.206811	0.230915	0.150110	0.244689	0.102834	0.311341	0.291943	0.271256	0.211508	0.238644	0.227767	0.445363	0.105561	0.600376	0.286752	0.441106	0.478025	0.612588	0.417535	0.553332	0.064271	0.397804	0.460018	0.488349	0.108917	0.108699	0.182635	0.210279	0.442631	0.416182	0.328582	1.163857	0.321198	0.184070	0.125509	0.541608	0.643711	0.320728	0.276242	0.932598	0.784627	0.259227	0.234190	0.258913	0.152440	0.698797	0.889984	0.453070	0.234677	0.312607	0.299878	0.198359	0.054191
100	0.728196	0.516829	0.486547	0.098155	0.339402	0.150206	0.374213	0.054002	0.739928	0.746278	0.979984	0.211782	0.230151	0.158327	0.268432	0.112189	0.326655	0.282274	0.292716	0.210045	0.293832	0.230635	0.469739	0.118221	0.615609	0.295788	0.441828	0.470464	0.702897	0.348144	0.556879	0.067228	0.454212	0.450340	0.474788	0.103111	0.097786	0.182520	0.206883	0.464999	0.474434	0.324100	1.156073	0.321562	0.185349	0.142244	0.421929	0.612221	0.300093	0.274983	0.883672	0.621730	0.259225	0.234386	0.220396	0.144794	0.703812	0.895948	0.437521	0.235255	0.255604	0.308321	0.198776	0.051713
101	0.729850	0.576455	0.492017	0.098406	0.328494	0.154139	0.357717	0.052312	0.675963	0.739695	0.999367	0.212150	0.226863	0.169107	0.269802	0.121060	0.324784	0.281180	0.309727	0.230649	0.334565	0.207842	0.483275	0.123324	0.599418	0.291403	0.419623	0.467486	0.681207	0.299516	0.566580	0.069903	0.446033	0.459591	0.464579	0.097237	0.096673	0.182539	0.212567	0.461553	0.454444	0.337653	1.103830	0.325961	0.200172	0.141293	0.448776	0.709626	0.327376	0.280735	0.762275	0.551138	0.258860	0.235583	0.205122	0.153163	0.685934	0.910981	0.434627	0.233608	0.256352	0.296684	0.203900	0.052032
