	110_F_P_sh_R_D_A_01.c3d	110_F_P_sh_R_D_A_01.c3d	110_F_P_sh_R_D_A_01.c3d	110_F_P_sh_R_D_A_01.c3d	110_F_P_sh_R_D_A_01.c3d	110_F_P_sh_R_D_A_01.c3d	110_F_P_sh_R_D_A_01.c3d	110_F_P_sh_R_D_A_01.c3d	110_F_P_sh_R_D_A_02.c3d	110_F_P_sh_R_D_A_02.c3d	110_F_P_sh_R_D_A_02.c3d	110_F_P_sh_R_D_A_02.c3d	110_F_P_sh_R_D_A_02.c3d	110_F_P_sh_R_D_A_02.c3d	110_F_P_sh_R_D_A_02.c3d	110_F_P_sh_R_D_A_02.c3d	110_F_P_sh_R_D_A_03.c3d	110_F_P_sh_R_D_A_03.c3d	110_F_P_sh_R_D_A_03.c3d	110_F_P_sh_R_D_A_03.c3d	110_F_P_sh_R_D_A_03.c3d	110_F_P_sh_R_D_A_03.c3d	110_F_P_sh_R_D_A_03.c3d	110_F_P_sh_R_D_A_03.c3d	110_F_P_sh_R_D_A_04.c3d	110_F_P_sh_R_D_A_04.c3d	110_F_P_sh_R_D_A_04.c3d	110_F_P_sh_R_D_A_04.c3d	110_F_P_sh_R_D_A_04.c3d	110_F_P_sh_R_D_A_04.c3d	110_F_P_sh_R_D_A_04.c3d	110_F_P_sh_R_D_A_04.c3d	110_F_P_sh_R_D_A_06.c3d	110_F_P_sh_R_D_A_06.c3d	110_F_P_sh_R_D_A_06.c3d	110_F_P_sh_R_D_A_06.c3d	110_F_P_sh_R_D_A_06.c3d	110_F_P_sh_R_D_A_06.c3d	110_F_P_sh_R_D_A_06.c3d	110_F_P_sh_R_D_A_06.c3d	110_F_P_sh_R_D_A_07.c3d	110_F_P_sh_R_D_A_07.c3d	110_F_P_sh_R_D_A_07.c3d	110_F_P_sh_R_D_A_07.c3d	110_F_P_sh_R_D_A_07.c3d	110_F_P_sh_R_D_A_07.c3d	110_F_P_sh_R_D_A_07.c3d	110_F_P_sh_R_D_A_07.c3d	110_F_P_sh_R_D_A_08.c3d	110_F_P_sh_R_D_A_08.c3d	110_F_P_sh_R_D_A_08.c3d	110_F_P_sh_R_D_A_08.c3d	110_F_P_sh_R_D_A_08.c3d	110_F_P_sh_R_D_A_08.c3d	110_F_P_sh_R_D_A_08.c3d	110_F_P_sh_R_D_A_08.c3d	110_F_P_sh_R_D_A_09.c3d	110_F_P_sh_R_D_A_09.c3d	110_F_P_sh_R_D_A_09.c3d	110_F_P_sh_R_D_A_09.c3d	110_F_P_sh_R_D_A_09.c3d	110_F_P_sh_R_D_A_09.c3d	110_F_P_sh_R_D_A_09.c3d	110_F_P_sh_R_D_A_09.c3d	110_F_P_sh_R_D_A_10.c3d	110_F_P_sh_R_D_A_10.c3d	110_F_P_sh_R_D_A_10.c3d	110_F_P_sh_R_D_A_10.c3d	110_F_P_sh_R_D_A_10.c3d	110_F_P_sh_R_D_A_10.c3d	110_F_P_sh_R_D_A_10.c3d	110_F_P_sh_R_D_A_10.c3d	110_F_P_sh_R_D_A_11.c3d	110_F_P_sh_R_D_A_11.c3d	110_F_P_sh_R_D_A_11.c3d	110_F_P_sh_R_D_A_11.c3d	110_F_P_sh_R_D_A_11.c3d	110_F_P_sh_R_D_A_11.c3d	110_F_P_sh_R_D_A_11.c3d	110_F_P_sh_R_D_A_11.c3d
	Biceps femoris_lat	Semitendinosus_lat	Vastus lateralis_lat	Vastus medialis_lat	Biceps femoris_med	Semitendinosus_med	Vastus lateralis_med	Vastus medialis_med	Biceps femoris_lat	Semitendinosus_lat	Vastus lateralis_lat	Vastus medialis_lat	Biceps femoris_med	Semitendinosus_med	Vastus lateralis_med	Vastus medialis_med	Biceps femoris_lat	Semitendinosus_lat	Vastus lateralis_lat	Vastus medialis_lat	Biceps femoris_med	Semitendinosus_med	Vastus lateralis_med	Vastus medialis_med	Biceps femoris_lat	Semitendinosus_lat	Vastus lateralis_lat	Vastus medialis_lat	Biceps femoris_med	Semitendinosus_med	Vastus lateralis_med	Vastus medialis_med	Biceps femoris_lat	Semitendinosus_lat	Vastus lateralis_lat	Vastus medialis_lat	Biceps femoris_med	Semitendinosus_med	Vastus lateralis_med	Vastus medialis_med	Biceps femoris_lat	Semitendinosus_lat	Vastus lateralis_lat	Vastus medialis_lat	Biceps femoris_med	Semitendinosus_med	Vastus lateralis_med	Vastus medialis_med	Biceps femoris_lat	Semitendinosus_lat	Vastus lateralis_lat	Vastus medialis_lat	Biceps femoris_med	Semitendinosus_med	Vastus lateralis_med	Vastus medialis_med	Biceps femoris_lat	Semitendinosus_lat	Vastus lateralis_lat	Vastus medialis_lat	Biceps femoris_med	Semitendinosus_med	Vastus lateralis_med	Vastus medialis_med	Biceps femoris_lat	Semitendinosus_lat	Vastus lateralis_lat	Vastus medialis_lat	Biceps femoris_med	Semitendinosus_med	Vastus lateralis_med	Vastus medialis_med	Biceps femoris_lat	Semitendinosus_lat	Vastus lateralis_lat	Vastus medialis_lat	Biceps femoris_med	Semitendinosus_med	Vastus lateralis_med	Vastus medialis_med
	P2D	P2D	P2D	P2D	P2D	P2D	P2D	P2D	P2D	P2D	P2D	P2D	P2D	P2D	P2D	P2D	P2D	P2D	P2D	P2D	P2D	P2D	P2D	P2D	P2D	P2D	P2D	P2D	P2D	P2D	P2D	P2D	P2D	P2D	P2D	P2D	P2D	P2D	P2D	P2D	P2D	P2D	P2D	P2D	P2D	P2D	P2D	P2D	P2D	P2D	P2D	P2D	P2D	P2D	P2D	P2D	P2D	P2D	P2D	P2D	P2D	P2D	P2D	P2D	P2D	P2D	P2D	P2D	P2D	P2D	P2D	P2D	P2D	P2D	P2D	P2D	P2D	P2D	P2D	P2D
	EMG_lat	EMG_lat	EMG_lat	EMG_lat	EMG_med	EMG_med	EMG_med	EMG_med	EMG_lat	EMG_lat	EMG_lat	EMG_lat	EMG_med	EMG_med	EMG_med	EMG_med	EMG_lat	EMG_lat	EMG_lat	EMG_lat	EMG_med	EMG_med	EMG_med	EMG_med	EMG_lat	EMG_lat	EMG_lat	EMG_lat	EMG_med	EMG_med	EMG_med	EMG_med	EMG_lat	EMG_lat	EMG_lat	EMG_lat	EMG_med	EMG_med	EMG_med	EMG_med	EMG_lat	EMG_lat	EMG_lat	EMG_lat	EMG_med	EMG_med	EMG_med	EMG_med	EMG_lat	EMG_lat	EMG_lat	EMG_lat	EMG_med	EMG_med	EMG_med	EMG_med	EMG_lat	EMG_lat	EMG_lat	EMG_lat	EMG_med	EMG_med	EMG_med	EMG_med	EMG_lat	EMG_lat	EMG_lat	EMG_lat	EMG_med	EMG_med	EMG_med	EMG_med	EMG_lat	EMG_lat	EMG_lat	EMG_lat	EMG_med	EMG_med	EMG_med	EMG_med
ITEM	Y	Y	Y	Y	Y	Y	Y	Y	Y	Y	Y	Y	Y	Y	Y	Y	Y	Y	Y	Y	Y	Y	Y	Y	Y	Y	Y	Y	Y	Y	Y	Y	Y	Y	Y	Y	Y	Y	Y	Y	Y	Y	Y	Y	Y	Y	Y	Y	Y	Y	Y	Y	Y	Y	Y	Y	Y	Y	Y	Y	Y	Y	Y	Y	Y	Y	Y	Y	Y	Y	Y	Y	Y	Y	Y	Y	Y	Y	Y	Y
1	0.417656	0.217938	0.075800	0.066741	0.747284	0.121526	0.106290	0.190736	0.634656	0.532551	0.267594	0.139694	0.483855	0.130917	0.370677	0.144196	0.479577	0.319156	0.113608	0.120838	0.509391	0.335677	0.278942	0.168254	0.575388	0.261423	0.186824	0.067928	0.348740	0.113095	0.121048	0.110667	0.396062	0.528473	0.183974	0.121621	0.086830	0.106517	0.216732	0.169114	0.364462	0.343823	0.128051	0.122293	0.735425	0.137677	0.263917	0.220983	0.156928	0.070647	0.138119	0.144395	0.407157	0.163111	0.165170	0.099957	0.375558	0.263317	0.053488	0.081357	0.549263	0.055732	0.168183	0.091842	0.387475	0.100431	0.356537	0.256352	0.589320	0.165114	0.155126	0.129838	0.064491	0.104388	0.260849	0.157732	0.302426	0.075418	0.220402	0.159369
2	0.417909	0.229491	0.088331	0.069748	0.748362	0.093086	0.121030	0.152645	0.636319	0.559095	0.266304	0.152983	0.418013	0.150097	0.365293	0.117290	0.458098	0.165435	0.113610	0.144123	0.512615	0.269327	0.278873	0.173754	0.503588	0.239802	0.178182	0.066377	0.345437	0.120443	0.128380	0.106388	0.391907	0.530376	0.179100	0.118562	0.089504	0.112526	0.214254	0.167159	0.364006	0.269546	0.140596	0.151359	0.706237	0.119394	0.265504	0.218951	0.153761	0.072891	0.130454	0.165028	0.400624	0.149566	0.172189	0.129758	0.399786	0.293835	0.053888	0.071189	0.536230	0.053656	0.160221	0.087779	0.375831	0.099738	0.360041	0.259206	0.602132	0.165127	0.147439	0.164412	0.068522	0.112670	0.255458	0.144510	0.302305	0.068016	0.226054	0.126269
3	0.420511	0.253078	0.088975	0.081666	0.748539	0.079820	0.128914	0.126715	0.641131	0.569267	0.259368	0.152222	0.376994	0.177832	0.385549	0.078319	0.219131	0.166911	0.104822	0.247009	0.419246	0.218052	0.273803	0.167588	0.416994	0.213115	0.147288	0.225759	0.337998	0.123354	0.151092	0.097880	0.365072	0.530804	0.141173	0.110389	0.093200	0.111221	0.204721	0.167058	0.355513	0.253997	0.153007	0.166242	0.694816	0.107882	0.267038	0.219047	0.151078	0.077250	0.169199	0.165127	0.386741	0.120641	0.174189	0.138253	0.461294	0.292733	0.055201	0.101636	0.530140	0.053748	0.158546	0.084537	0.362141	0.099139	0.374202	0.263262	0.601473	0.163091	0.167724	0.179684	0.070466	0.124551	0.230814	0.141792	0.301583	0.058039	0.216320	0.163671
4	0.424521	0.262675	0.088490	0.083294	0.750144	0.081056	0.128785	0.125310	0.619215	0.548967	0.290434	0.144066	0.155385	0.184270	0.329311	0.062175	0.217287	0.186994	0.089377	0.304327	0.396756	0.197531	0.271703	0.162083	0.403243	0.216631	0.110662	0.367772	0.336164	0.131646	0.165500	0.093996	0.337617	0.530778	0.127648	0.146779	0.093590	0.109864	0.202737	0.165011	0.323732	0.209314	0.154168	0.168341	0.690293	0.094953	0.262735	0.218074	0.137206	0.073286	0.183262	0.169773	0.281605	0.122830	0.219283	0.138263	0.515128	0.297804	0.076638	0.145134	0.528736	0.053839	0.152108	0.070409	0.307562	0.104912	0.381513	0.263202	0.601112	0.162055	0.213260	0.181275	0.071032	0.130767	0.188521	0.146670	0.301645	0.058916	0.244250	0.168887
5	0.374910	0.272113	0.093756	0.083012	0.748879	0.080838	0.124336	0.108015	0.554915	0.500673	0.253747	0.136233	0.161702	0.237263	0.345206	0.040564	0.213783	0.231553	0.104126	0.309603	0.392131	0.177612	0.271708	0.152114	0.394806	0.220384	0.146786	0.389611	0.336100	0.131075	0.167802	0.095933	0.226398	0.530325	0.126293	0.168525	0.091346	0.108868	0.203110	0.151950	0.331898	0.198343	0.180304	0.182254	0.667567	0.090529	0.255346	0.217703	0.119459	0.065949	0.187687	0.185862	0.214829	0.134305	0.314806	0.139029	0.520304	0.340451	0.099026	0.162606	0.521765	0.053315	0.147527	0.046663	0.212189	0.141543	0.379692	0.261578	0.600042	0.160715	0.219262	0.180704	0.068415	0.122231	0.177829	0.188489	0.282364	0.059966	0.246927	0.166962
6	0.343397	0.277680	0.139717	0.083925	0.740696	0.081152	0.123804	0.076392	0.536463	0.493469	0.238970	0.136084	0.124335	0.271094	0.346040	0.041478	0.196499	0.317613	0.146790	0.306518	0.370815	0.159056	0.261109	0.145815	0.259094	0.224562	0.235175	0.396765	0.334785	0.143065	0.164639	0.092086	0.201899	0.524316	0.141560	0.177422	0.079587	0.102104	0.204445	0.138479	0.376149	0.169998	0.206629	0.189997	0.667746	0.090188	0.254034	0.216147	0.117201	0.065368	0.191731	0.216419	0.208616	0.133586	0.334881	0.167798	0.514134	0.363085	0.103945	0.163552	0.469735	0.041822	0.136026	0.043751	0.265521	0.167452	0.375740	0.257454	0.594358	0.156233	0.238902	0.180089	0.069473	0.114707	0.162203	0.185679	0.189430	0.051127	0.240676	0.184619
7	0.279490	0.277896	0.165735	0.103657	0.702134	0.081807	0.123753	0.074997	0.532621	0.485943	0.238349	0.138467	0.138634	0.333968	0.345205	0.042197	0.175526	0.355012	0.187007	0.313026	0.271695	0.151030	0.233299	0.145807	0.225775	0.205707	0.323634	0.429011	0.301423	0.205431	0.158218	0.093110	0.202679	0.493867	0.164637	0.175964	0.065374	0.090794	0.158001	0.137580	0.412052	0.171888	0.210662	0.196061	0.606958	0.088334	0.252571	0.205936	0.106038	0.073975	0.202824	0.254816	0.154998	0.131709	0.337455	0.206289	0.521523	0.376575	0.106671	0.164457	0.414725	0.036546	0.104142	0.061282	0.320912	0.178272	0.368976	0.239503	0.577928	0.140005	0.270523	0.181876	0.077661	0.113596	0.170523	0.182565	0.129592	0.050059	0.255354	0.201413
8	0.254964	0.277994	0.178817	0.124613	0.593294	0.081630	0.119156	0.091363	0.407139	0.411713	0.239127	0.150909	0.144867	0.333864	0.348251	0.042803	0.171959	0.360005	0.199786	0.346804	0.180671	0.151672	0.201285	0.132991	0.188874	0.205813	0.336497	0.487685	0.299581	0.205419	0.152264	0.093933	0.200788	0.427636	0.182234	0.181436	0.054046	0.081640	0.116473	0.137347	0.379557	0.189911	0.211426	0.206670	0.557197	0.060028	0.237780	0.159048	0.100625	0.081840	0.249719	0.272242	0.127169	0.135008	0.337029	0.233713	0.519985	0.379135	0.109473	0.195734	0.302550	0.039087	0.101194	0.086628	0.367343	0.192556	0.356040	0.232275	0.575132	0.122853	0.287295	0.181684	0.079795	0.126217	0.145965	0.198294	0.108813	0.049750	0.257371	0.202745
9	0.200105	0.277015	0.182771	0.119674	0.551263	0.077354	0.102680	0.095556	0.365291	0.343958	0.239249	0.148747	0.146817	0.333373	0.349746	0.080272	0.137600	0.373752	0.206084	0.372801	0.175954	0.149802	0.197194	0.112077	0.179579	0.228401	0.374498	0.512160	0.294288	0.234710	0.154474	0.127196	0.170086	0.405276	0.182920	0.209858	0.046344	0.074281	0.116450	0.136944	0.501510	0.190278	0.221235	0.214703	0.334374	0.044682	0.197487	0.130922	0.114663	0.085404	0.303750	0.263560	0.115859	0.144257	0.335687	0.237003	0.520146	0.379093	0.143129	0.238193	0.286124	0.056537	0.100489	0.089884	0.375356	0.257886	0.351287	0.239695	0.522606	0.120821	0.290198	0.178233	0.088527	0.140251	0.156407	0.209992	0.062908	0.048147	0.252876	0.203991
10	0.197356	0.269524	0.181592	0.118922	0.422310	0.080208	0.098409	0.100558	0.331250	0.342213	0.231893	0.136101	0.148446	0.375599	0.345568	0.106524	0.140938	0.383105	0.206296	0.373290	0.184749	0.141598	0.203834	0.096867	0.189811	0.230733	0.391209	0.518785	0.269345	0.386815	0.182283	0.170802	0.159263	0.396614	0.176803	0.227114	0.044365	0.067120	0.115777	0.137927	0.501264	0.190986	0.238853	0.218763	0.163151	0.063716	0.172192	0.127373	0.121273	0.084434	0.331325	0.261714	0.119219	0.148890	0.331898	0.241391	0.520096	0.378381	0.188692	0.254368	0.249986	0.062031	0.100396	0.093034	0.398014	0.257469	0.326686	0.247533	0.500121	0.112122	0.292517	0.170348	0.107366	0.154186	0.174707	0.236008	0.062729	0.041837	0.220777	0.201778
11	0.173087	0.262357	0.188704	0.121414	0.487015	0.077049	0.100084	0.104173	0.324469	0.338487	0.206024	0.135712	0.147613	0.381280	0.315049	0.112867	0.135132	0.386846	0.207015	0.374437	0.186833	0.123618	0.180986	0.094724	0.194911	0.228852	0.409966	0.523082	0.184133	0.406642	0.214106	0.184244	0.157937	0.255787	0.174244	0.241954	0.044125	0.061298	0.111536	0.137617	0.524437	0.206010	0.242214	0.220555	0.136069	0.110825	0.160884	0.117545	0.118582	0.091573	0.336004	0.283069	0.115005	0.144940	0.324026	0.259916	0.520218	0.377276	0.220615	0.257401	0.178672	0.061355	0.092459	0.102100	0.427522	0.257029	0.249905	0.260128	0.478918	0.097110	0.291207	0.166115	0.108764	0.147131	0.188758	0.245349	0.061260	0.038871	0.207353	0.187747
12	0.168163	0.249732	0.194451	0.124645	0.395803	0.068924	0.115178	0.127861	0.316313	0.321062	0.178070	0.131132	0.146204	0.362586	0.248997	0.131872	0.127311	0.393173	0.217916	0.382660	0.183531	0.107478	0.162282	0.096621	0.196786	0.213197	0.417044	0.523561	0.166551	0.428479	0.244199	0.183365	0.162776	0.239609	0.191027	0.250749	0.043902	0.060461	0.101313	0.130255	0.524439	0.234791	0.243228	0.219854	0.147871	0.128006	0.159006	0.093219	0.109011	0.103454	0.363447	0.306817	0.113649	0.134025	0.303995	0.279469	0.508010	0.370734	0.240942	0.271066	0.133760	0.060635	0.081720	0.115560	0.440235	0.257934	0.224002	0.261646	0.384237	0.073620	0.289728	0.166985	0.108171	0.141570	0.192991	0.248816	0.060789	0.038915	0.203898	0.148188
13	0.161843	0.225245	0.196986	0.127498	0.395547	0.066322	0.128736	0.162357	0.311382	0.268529	0.178572	0.119560	0.138660	0.359329	0.224057	0.147416	0.128556	0.390303	0.254455	0.387072	0.196868	0.095488	0.163186	0.095502	0.197106	0.205403	0.418417	0.523578	0.161303	0.429629	0.257901	0.188475	0.160172	0.230987	0.199481	0.251630	0.044240	0.061647	0.100216	0.114648	0.519293	0.237162	0.244845	0.204773	0.150064	0.126841	0.141305	0.061628	0.116775	0.110756	0.363767	0.313175	0.114862	0.129187	0.301435	0.294022	0.461595	0.350485	0.240986	0.311146	0.133711	0.063657	0.080281	0.128443	0.446349	0.258203	0.219089	0.251718	0.206433	0.053480	0.288967	0.166854	0.107947	0.140248	0.195472	0.220487	0.055770	0.037294	0.169337	0.145778
14	0.146243	0.207954	0.190301	0.134543	0.395134	0.065835	0.135374	0.172801	0.290957	0.252220	0.131901	0.134560	0.114906	0.342985	0.153379	0.147826	0.128739	0.389101	0.265237	0.387653	0.198113	0.084934	0.158283	0.088108	0.196597	0.203785	0.418580	0.524884	0.166987	0.430435	0.281023	0.218450	0.157614	0.222034	0.203115	0.254457	0.043557	0.060088	0.092973	0.107318	0.518273	0.236425	0.249681	0.192907	0.148223	0.128461	0.102894	0.036016	0.125269	0.109587	0.375535	0.306387	0.114769	0.126619	0.299036	0.287341	0.388816	0.309070	0.251091	0.341307	0.089882	0.067158	0.075073	0.137451	0.449047	0.257224	0.217672	0.222802	0.126889	0.045340	0.285955	0.141141	0.113970	0.140080	0.244698	0.215306	0.051757	0.038074	0.149133	0.157579
15	0.145944	0.194685	0.191091	0.139743	0.398848	0.066569	0.123598	0.176386	0.285366	0.181331	0.093792	0.137477	0.095367	0.310794	0.098015	0.147740	0.127665	0.392025	0.266090	0.386517	0.233118	0.072130	0.150918	0.075068	0.195973	0.204897	0.417293	0.476301	0.177675	0.433457	0.346259	0.259182	0.152892	0.224320	0.202017	0.272907	0.042426	0.052370	0.089550	0.110917	0.517738	0.238188	0.263308	0.183628	0.133240	0.141954	0.078614	0.029337	0.119933	0.105212	0.373263	0.329847	0.115864	0.131998	0.295876	0.281586	0.367083	0.265191	0.295866	0.343691	0.072027	0.075511	0.060343	0.138757	0.447195	0.254596	0.219331	0.201017	0.104655	0.045753	0.282152	0.100817	0.104773	0.137691	0.310671	0.220636	0.050087	0.038508	0.138503	0.136834
16	0.133812	0.194535	0.192292	0.137340	0.426062	0.065113	0.120412	0.176404	0.277542	0.123094	0.133091	0.139953	0.092517	0.254756	0.105475	0.147985	0.129039	0.394969	0.265609	0.371119	0.240902	0.063841	0.150833	0.074236	0.199566	0.248329	0.419229	0.383182	0.183922	0.439024	0.354138	0.272373	0.153197	0.227284	0.206252	0.306270	0.029710	0.037972	0.090634	0.111970	0.518321	0.239103	0.257548	0.157915	0.116234	0.142764	0.066749	0.037877	0.118673	0.105805	0.371600	0.335410	0.114758	0.130829	0.281676	0.284451	0.286448	0.257287	0.366892	0.340304	0.105315	0.078688	0.047870	0.139122	0.447929	0.254724	0.215916	0.194360	0.104706	0.049143	0.260848	0.086881	0.107224	0.139340	0.312653	0.209573	0.035799	0.035887	0.081974	0.109354
17	0.124671	0.186049	0.197042	0.161457	0.423793	0.060255	0.120552	0.177389	0.226090	0.137323	0.157564	0.165141	0.063441	0.246499	0.095071	0.152141	0.129897	0.395326	0.267632	0.306459	0.237676	0.061377	0.150806	0.076337	0.212372	0.305358	0.411517	0.364033	0.187791	0.450393	0.349572	0.272921	0.144431	0.233257	0.217885	0.331550	0.025910	0.031870	0.087767	0.100044	0.516216	0.238035	0.257120	0.165369	0.117068	0.143275	0.055592	0.059888	0.129502	0.110150	0.371424	0.331049	0.095030	0.111536	0.165035	0.286278	0.142891	0.241225	0.383366	0.356535	0.151720	0.078957	0.049644	0.139077	0.446615	0.254723	0.197479	0.187326	0.103431	0.052783	0.232612	0.087707	0.098765	0.124694	0.307204	0.214361	0.033712	0.038458	0.104105	0.123291
18	0.109869	0.183720	0.217750	0.224930	0.423429	0.061010	0.137725	0.178021	0.219537	0.129160	0.195971	0.192052	0.069934	0.260182	0.104989	0.155196	0.130452	0.378600	0.265846	0.273272	0.237164	0.061360	0.151205	0.118055	0.213643	0.338936	0.367124	0.354587	0.188986	0.465194	0.346538	0.272739	0.139566	0.238899	0.217397	0.335419	0.025684	0.031472	0.082330	0.079920	0.514078	0.227905	0.256485	0.192549	0.115350	0.149160	0.080156	0.085828	0.135612	0.111137	0.381624	0.329163	0.077091	0.106826	0.088383	0.274254	0.144243	0.192108	0.389042	0.374919	0.186324	0.079065	0.050114	0.138101	0.446329	0.251625	0.163298	0.184812	0.096489	0.055129	0.224523	0.095063	0.077370	0.100093	0.319790	0.197822	0.029228	0.054359	0.103153	0.126956
19	0.126897	0.190243	0.214769	0.256745	0.417234	0.061677	0.171563	0.180086	0.090290	0.134129	0.233938	0.199347	0.068336	0.216581	0.108716	0.149654	0.127649	0.342137	0.255414	0.292840	0.237221	0.062483	0.158749	0.138092	0.221419	0.395672	0.296496	0.312244	0.186632	0.474937	0.346016	0.270791	0.133721	0.238308	0.189293	0.345416	0.025821	0.031298	0.074873	0.075055	0.486378	0.217052	0.251246	0.188681	0.110907	0.153468	0.106552	0.183510	0.133651	0.105238	0.378534	0.323876	0.072875	0.111929	0.074789	0.243477	0.139530	0.172747	0.420365	0.379542	0.222437	0.085203	0.052708	0.135188	0.459805	0.239263	0.156510	0.194859	0.081545	0.059559	0.186426	0.114813	0.095548	0.112244	0.331748	0.217716	0.031904	0.088388	0.104942	0.130090
20	0.130246	0.191045	0.204824	0.248675	0.403772	0.060794	0.179096	0.173838	0.083468	0.142225	0.236781	0.194528	0.065412	0.153000	0.116905	0.147982	0.127783	0.262765	0.240380	0.316289	0.234595	0.064773	0.157548	0.142450	0.206493	0.398633	0.282984	0.209255	0.179233	0.477766	0.345948	0.269365	0.118100	0.235453	0.170047	0.376347	0.026556	0.035228	0.071493	0.075521	0.443566	0.204407	0.252358	0.182908	0.110015	0.155582	0.136669	0.284508	0.128220	0.098943	0.348509	0.317833	0.072556	0.110476	0.074570	0.217933	0.109531	0.184768	0.437303	0.378073	0.287184	0.090575	0.066653	0.121030	0.434839	0.217467	0.174947	0.297409	0.067678	0.065734	0.151288	0.118185	0.097361	0.113480	0.367841	0.259820	0.038946	0.115683	0.114553	0.130617
21	0.133272	0.196079	0.192045	0.244165	0.392048	0.072864	0.184060	0.168945	0.089168	0.202232	0.236416	0.193187	0.066144	0.147488	0.113413	0.136227	0.126087	0.233310	0.251966	0.319118	0.237151	0.086719	0.157844	0.138410	0.175702	0.386105	0.225075	0.144886	0.171332	0.462547	0.346047	0.272130	0.116052	0.231665	0.171563	0.391874	0.026743	0.039980	0.076583	0.075655	0.393930	0.181777	0.251921	0.192498	0.112100	0.157111	0.154636	0.318814	0.113108	0.100910	0.303153	0.315119	0.066612	0.126563	0.073754	0.213326	0.108599	0.190403	0.440514	0.358576	0.333869	0.083749	0.095453	0.111277	0.403854	0.202483	0.268353	0.440249	0.065416	0.068015	0.135897	0.118449	0.098187	0.109988	0.371961	0.251161	0.039572	0.117919	0.135369	0.131669
22	0.139188	0.197594	0.191733	0.257898	0.398272	0.151987	0.223051	0.185378	0.095178	0.210726	0.233933	0.194880	0.079165	0.150119	0.112392	0.132999	0.123262	0.227681	0.319481	0.281290	0.244490	0.151098	0.148346	0.140839	0.165631	0.382276	0.191476	0.116494	0.171834	0.458487	0.347408	0.290582	0.113200	0.210310	0.174797	0.394015	0.027264	0.040493	0.096813	0.079599	0.340024	0.166722	0.262786	0.211220	0.110527	0.158430	0.159875	0.320862	0.106588	0.107723	0.278773	0.312111	0.068768	0.156039	0.072330	0.209356	0.106920	0.192514	0.427461	0.335210	0.333925	0.073139	0.097674	0.111205	0.348992	0.187197	0.390017	0.500645	0.073129	0.138653	0.135126	0.123541	0.089854	0.104668	0.345863	0.235944	0.039190	0.122120	0.147404	0.129369
23	0.152814	0.233929	0.201785	0.278266	0.407998	0.214749	0.238887	0.194297	0.094403	0.212883	0.242724	0.235138	0.092130	0.147348	0.118527	0.128714	0.126548	0.205264	0.355707	0.255055	0.263901	0.238382	0.134750	0.151870	0.165352	0.383233	0.147495	0.096136	0.166505	0.437226	0.350161	0.286912	0.108080	0.200948	0.175815	0.386665	0.032412	0.117710	0.104977	0.106939	0.185822	0.174254	0.270436	0.219958	0.126679	0.158971	0.159505	0.349006	0.106226	0.102279	0.270024	0.290254	0.076768	0.155443	0.080961	0.189110	0.111025	0.205645	0.410787	0.327981	0.333810	0.071635	0.116451	0.109961	0.337394	0.139057	0.486429	0.498678	0.131832	0.296130	0.134359	0.126819	0.089071	0.104939	0.273407	0.236988	0.040177	0.130715	0.149593	0.115269
24	0.158035	0.267965	0.209633	0.285317	0.288883	0.244745	0.239754	0.198573	0.094491	0.213170	0.303447	0.238777	0.104408	0.148378	0.123229	0.129287	0.121982	0.226521	0.358246	0.264097	0.257630	0.263995	0.129893	0.163443	0.174399	0.385961	0.125778	0.093711	0.146787	0.306570	0.340141	0.269420	0.101246	0.145480	0.184451	0.381187	0.042517	0.226504	0.103513	0.123354	0.171741	0.178173	0.276311	0.219347	0.129452	0.193455	0.160778	0.390423	0.099557	0.088490	0.224215	0.260594	0.087383	0.249375	0.092287	0.159738	0.116296	0.240388	0.395618	0.327319	0.333412	0.098458	0.127236	0.101615	0.317123	0.083435	0.518628	0.502574	0.143324	0.384718	0.136658	0.127548	0.084511	0.090744	0.246233	0.312313	0.053200	0.133614	0.154699	0.117017
25	0.157446	0.276694	0.206427	0.289027	0.275754	0.290424	0.234049	0.191191	0.096812	0.212279	0.373126	0.238251	0.104332	0.133987	0.119043	0.128645	0.109483	0.258888	0.369370	0.280504	0.256095	0.339205	0.121219	0.173064	0.179353	0.388939	0.120332	0.093484	0.136139	0.285246	0.325690	0.260997	0.100830	0.132177	0.184794	0.381822	0.044630	0.278793	0.101422	0.124159	0.099309	0.140075	0.270139	0.218279	0.141004	0.214957	0.193433	0.452855	0.098802	0.078122	0.206313	0.243572	0.116970	0.276614	0.105641	0.123049	0.120779	0.256448	0.389513	0.309075	0.333715	0.171632	0.136817	0.091327	0.276253	0.097545	0.531067	0.532310	0.166935	0.504033	0.136471	0.122823	0.081451	0.082687	0.248703	0.353451	0.051957	0.154939	0.152149	0.118190
26	0.173150	0.423985	0.219700	0.291633	0.265649	0.355522	0.223442	0.175679	0.102004	0.220345	0.386301	0.245700	0.103231	0.109816	0.132180	0.127108	0.143297	0.281942	0.385368	0.292559	0.242013	0.363750	0.142249	0.182994	0.179730	0.390083	0.121632	0.085397	0.125912	0.256543	0.313147	0.260922	0.099449	0.127827	0.181448	0.381350	0.082348	0.330068	0.104069	0.130536	0.099999	0.108999	0.263678	0.219782	0.130917	0.213724	0.219127	0.480512	0.096245	0.081488	0.177302	0.241230	0.115290	0.294002	0.104113	0.107813	0.123610	0.260389	0.390418	0.266264	0.333197	0.210833	0.138316	0.091964	0.265820	0.140607	0.617892	0.577703	0.196049	0.594680	0.136297	0.119767	0.085961	0.081876	0.234214	0.353604	0.065445	0.227013	0.138446	0.102504
27	0.180266	0.443446	0.261186	0.288390	0.252592	0.356727	0.219555	0.165581	0.148771	0.275358	0.415134	0.246646	0.097990	0.092459	0.193823	0.129124	0.144983	0.286580	0.398335	0.302947	0.232030	0.363331	0.162830	0.186965	0.179426	0.384034	0.119800	0.082091	0.139655	0.261784	0.309307	0.256650	0.090439	0.120462	0.183016	0.363879	0.107669	0.398916	0.105835	0.138359	0.105345	0.103014	0.262393	0.223551	0.132212	0.301998	0.223839	0.489452	0.099766	0.093431	0.146558	0.209420	0.114945	0.323746	0.110779	0.124635	0.120052	0.262306	0.380533	0.235875	0.341017	0.255204	0.147204	0.096505	0.279716	0.167496	0.707017	0.614281	0.199109	0.595012	0.136190	0.117591	0.054766	0.060753	0.220693	0.346361	0.068213	0.252358	0.139864	0.121086
28	0.179132	0.434888	0.270526	0.285029	0.239159	0.357704	0.219317	0.163461	0.150262	0.329661	0.474814	0.222620	0.092671	0.073556	0.189616	0.104983	0.145636	0.312912	0.404180	0.308051	0.188098	0.365935	0.166414	0.187306	0.169516	0.350695	0.118330	0.110643	0.132265	0.268884	0.271067	0.221002	0.087454	0.117229	0.185023	0.317838	0.114173	0.408776	0.106534	0.149665	0.107055	0.095654	0.252783	0.233037	0.137051	0.331314	0.229986	0.491713	0.098721	0.096249	0.137362	0.203454	0.116405	0.328781	0.107663	0.122662	0.120011	0.264798	0.339654	0.234436	0.342347	0.317765	0.180504	0.101472	0.279346	0.178145	0.728833	0.623713	0.199767	0.595665	0.135349	0.118885	0.064658	0.069244	0.153721	0.330660	0.084920	0.398068	0.150021	0.137326
29	0.172222	0.428702	0.271956	0.287268	0.182268	0.358760	0.216649	0.191353	0.163630	0.369347	0.461102	0.199760	0.090935	0.075602	0.183678	0.095896	0.148004	0.334422	0.406247	0.308901	0.162732	0.368576	0.166315	0.191347	0.154060	0.299861	0.122165	0.140410	0.117968	0.265798	0.198330	0.174486	0.088815	0.108159	0.182066	0.280884	0.118027	0.418191	0.106063	0.149880	0.102660	0.093273	0.237841	0.248419	0.140752	0.349677	0.235556	0.491739	0.083688	0.093651	0.132348	0.197553	0.117476	0.332818	0.107395	0.117570	0.119597	0.264158	0.264952	0.218329	0.323575	0.324360	0.210473	0.117420	0.278286	0.179275	0.732929	0.627062	0.201388	0.597079	0.127122	0.120431	0.063270	0.068130	0.139308	0.355649	0.087560	0.395363	0.189499	0.138231
30	0.174553	0.426449	0.266828	0.282332	0.191220	0.358807	0.215447	0.218544	0.178769	0.417495	0.459363	0.195821	0.090037	0.074953	0.180204	0.108671	0.170029	0.337763	0.407257	0.310486	0.166787	0.370922	0.166932	0.191270	0.149669	0.255717	0.121551	0.191646	0.109524	0.251148	0.181988	0.162609	0.089948	0.095548	0.175126	0.272724	0.118649	0.419116	0.133190	0.162685	0.132081	0.095875	0.237413	0.259148	0.138903	0.356931	0.235598	0.491220	0.075723	0.091503	0.091289	0.166068	0.117385	0.333288	0.108622	0.114048	0.112367	0.259429	0.248254	0.153700	0.313176	0.324939	0.219401	0.118724	0.273831	0.178162	0.734376	0.629210	0.203492	0.598752	0.126984	0.117380	0.065500	0.071808	0.153392	0.370487	0.087430	0.394739	0.184553	0.136909
31	0.161086	0.419011	0.242655	0.269986	0.197415	0.358403	0.207738	0.233044	0.182492	0.419429	0.459304	0.195579	0.084780	0.072138	0.181377	0.096810	0.194940	0.338286	0.406489	0.319255	0.178574	0.372165	0.167768	0.169194	0.135384	0.151057	0.115552	0.214921	0.103176	0.232686	0.180909	0.162096	0.089286	0.095085	0.187169	0.258362	0.118703	0.419606	0.180096	0.169270	0.147551	0.100486	0.235493	0.248587	0.141623	0.406724	0.234831	0.489267	0.075790	0.091423	0.079126	0.132063	0.117351	0.332321	0.108007	0.114297	0.103019	0.250511	0.223407	0.108873	0.272189	0.324540	0.222403	0.119950	0.273696	0.179588	0.735168	0.629415	0.206560	0.599095	0.124319	0.102179	0.065961	0.076120	0.158167	0.368417	0.090637	0.395836	0.207014	0.159899
32	0.146697	0.415830	0.230576	0.263124	0.190609	0.357991	0.180293	0.238377	0.178500	0.404149	0.460264	0.211090	0.065456	0.066612	0.182020	0.102930	0.201805	0.341446	0.405892	0.322955	0.181038	0.372119	0.162003	0.152464	0.119676	0.106002	0.110472	0.227452	0.102350	0.213360	0.197478	0.162065	0.086800	0.094638	0.184129	0.198451	0.119159	0.419802	0.209422	0.169387	0.149655	0.106641	0.237325	0.226882	0.145752	0.413004	0.227295	0.486446	0.073767	0.091345	0.075951	0.115149	0.117136	0.332346	0.107555	0.102989	0.097063	0.230943	0.150016	0.103190	0.249445	0.322251	0.225424	0.119974	0.271569	0.182825	0.735715	0.631590	0.207358	0.598584	0.110876	0.080814	0.066069	0.076764	0.161573	0.314414	0.091241	0.394917	0.248750	0.169998
33	0.140611	0.414790	0.248006	0.262170	0.187809	0.358191	0.171720	0.241732	0.177262	0.398913	0.459118	0.221164	0.043085	0.068399	0.175445	0.130583	0.203719	0.342747	0.405217	0.302746	0.192711	0.371804	0.153847	0.150319	0.107389	0.103555	0.111248	0.317039	0.103954	0.176117	0.202356	0.162066	0.086300	0.092192	0.182315	0.129351	0.119973	0.420269	0.221261	0.169285	0.149986	0.106947	0.216925	0.231274	0.145578	0.412018	0.216799	0.463491	0.073467	0.085495	0.068668	0.129934	0.117314	0.328153	0.107641	0.089034	0.088826	0.203804	0.105735	0.107315	0.129596	0.321988	0.217854	0.125542	0.252194	0.186581	0.735888	0.645686	0.206776	0.598235	0.093772	0.081264	0.065515	0.080546	0.163394	0.248127	0.083789	0.394780	0.244252	0.175358
34	0.139072	0.412830	0.265523	0.255915	0.200121	0.357361	0.169648	0.241317	0.177115	0.397187	0.435215	0.205338	0.028848	0.110750	0.180096	0.138822	0.205034	0.344588	0.397190	0.281881	0.239193	0.366969	0.150229	0.159502	0.106036	0.101771	0.148735	0.388516	0.103314	0.164545	0.203532	0.162011	0.081953	0.083434	0.179372	0.096555	0.120412	0.421512	0.231630	0.169260	0.148216	0.107209	0.204050	0.248058	0.144264	0.411649	0.199342	0.410887	0.073193	0.086413	0.048991	0.157301	0.111979	0.308951	0.107587	0.090051	0.085241	0.200937	0.092666	0.107358	0.113553	0.324224	0.220205	0.142193	0.237198	0.188132	0.735012	0.657999	0.206392	0.596889	0.088813	0.075257	0.057855	0.094075	0.153785	0.307028	0.083740	0.387663	0.243291	0.171056
35	0.127641	0.411910	0.286074	0.249654	0.202327	0.337065	0.121256	0.227203	0.178788	0.397592	0.380664	0.203619	0.032220	0.133064	0.182043	0.154407	0.207705	0.343888	0.365862	0.286293	0.326177	0.349469	0.151112	0.157552	0.115477	0.118521	0.170881	0.417552	0.103650	0.157506	0.203784	0.149181	0.071417	0.065308	0.171984	0.093441	0.121112	0.422578	0.299994	0.171984	0.146540	0.107725	0.204671	0.245412	0.141252	0.411031	0.184774	0.380933	0.073578	0.120659	0.049654	0.173131	0.101703	0.307342	0.101770	0.094805	0.086347	0.200915	0.092201	0.100105	0.125420	0.328561	0.239661	0.152725	0.222753	0.188697	0.720828	0.603489	0.188520	0.561376	0.090453	0.060514	0.051996	0.089966	0.227438	0.408973	0.081664	0.356000	0.245021	0.169617
36	0.114562	0.390135	0.284117	0.258353	0.204800	0.299919	0.082311	0.216795	0.178661	0.398936	0.336276	0.201554	0.034333	0.166225	0.125495	0.170129	0.210892	0.337957	0.308564	0.290604	0.393338	0.297269	0.151389	0.148350	0.120313	0.128417	0.180357	0.424037	0.102957	0.159971	0.199147	0.109568	0.066745	0.055432	0.141310	0.102528	0.121183	0.419385	0.305636	0.163205	0.146958	0.102151	0.188240	0.222296	0.139444	0.410442	0.178799	0.380553	0.075127	0.133088	0.053204	0.176020	0.099806	0.269968	0.091803	0.093981	0.080946	0.176218	0.089137	0.093018	0.172067	0.328576	0.244089	0.149579	0.212619	0.189915	0.674498	0.526498	0.157572	0.489961	0.089466	0.053616	0.053749	0.079839	0.440506	0.402950	0.081797	0.341557	0.248043	0.157949
37	0.108343	0.368785	0.276655	0.266956	0.210579	0.274771	0.078181	0.210160	0.163594	0.380040	0.321057	0.192903	0.047019	0.267780	0.091417	0.171827	0.206059	0.322756	0.290153	0.291285	0.406325	0.267582	0.157618	0.134338	0.118391	0.124074	0.187251	0.424991	0.102678	0.162011	0.186997	0.075584	0.081034	0.055294	0.137779	0.151196	0.117851	0.386142	0.307673	0.144769	0.146496	0.088206	0.168209	0.211814	0.124544	0.410042	0.178974	0.359470	0.067168	0.149972	0.088610	0.217990	0.041729	0.218042	0.075648	0.099418	0.071696	0.146249	0.076715	0.091646	0.279310	0.306387	0.242252	0.147106	0.216093	0.190236	0.608368	0.503900	0.153201	0.459841	0.123885	0.069048	0.062836	0.111370	0.509294	0.406394	0.076055	0.195597	0.242350	0.168655
38	0.108876	0.361140	0.282012	0.268135	0.223203	0.238981	0.075135	0.207352	0.135005	0.327444	0.193019	0.203637	0.053558	0.277801	0.125639	0.196048	0.212967	0.298239	0.313557	0.286015	0.436654	0.182081	0.156641	0.125000	0.117351	0.120826	0.187843	0.437496	0.102718	0.161261	0.172481	0.071546	0.084157	0.063575	0.150193	0.212961	0.117114	0.330979	0.308469	0.147162	0.143478	0.079120	0.173865	0.256215	0.119889	0.394800	0.178205	0.317890	0.054250	0.156740	0.158649	0.307489	0.040960	0.188660	0.067984	0.114745	0.060059	0.125319	0.062174	0.089910	0.297861	0.274718	0.240769	0.141091	0.215344	0.189730	0.562485	0.516000	0.089352	0.108547	0.150066	0.080055	0.092337	0.132593	0.552597	0.432291	0.069706	0.194937	0.207612	0.180769
39	0.069741	0.125179	0.269859	0.266672	0.219710	0.085212	0.074349	0.195039	0.126925	0.313043	0.185570	0.205510	0.055004	0.281165	0.129510	0.192205	0.219449	0.256888	0.328140	0.277833	0.518224	0.101376	0.132787	0.110455	0.118259	0.123469	0.244513	0.482275	0.102581	0.162636	0.153383	0.075206	0.088623	0.078876	0.167137	0.262746	0.110291	0.314544	0.316860	0.150320	0.142876	0.078278	0.180598	0.416384	0.089136	0.372677	0.146969	0.222648	0.060456	0.165645	0.226764	0.399827	0.040598	0.122033	0.058731	0.102017	0.051099	0.116411	0.056574	0.098358	0.320118	0.260946	0.239402	0.145398	0.211901	0.188241	0.563516	0.512203	0.077377	0.092912	0.168189	0.086567	0.092419	0.130397	0.629455	0.433756	0.069544	0.194742	0.203196	0.184393
40	0.068021	0.097308	0.245892	0.279676	0.217923	0.081688	0.070056	0.191887	0.093497	0.190962	0.217081	0.207146	0.055333	0.281258	0.132312	0.206509	0.335181	0.247442	0.293407	0.260021	0.533128	0.106059	0.095417	0.104625	0.122825	0.127176	0.330010	0.510317	0.095283	0.173724	0.134260	0.091049	0.075343	0.082005	0.170368	0.265727	0.068361	0.194996	0.317862	0.143047	0.164091	0.080087	0.294306	0.508065	0.079284	0.363849	0.099482	0.145349	0.097717	0.177710	0.256059	0.428011	0.034920	0.092411	0.048631	0.094319	0.052036	0.106420	0.056501	0.153325	0.343798	0.147491	0.224966	0.180741	0.203956	0.168854	0.513350	0.488058	0.062992	0.092893	0.172658	0.114739	0.092108	0.130424	0.663700	0.433018	0.065240	0.190055	0.203195	0.186989
41	0.080368	0.097028	0.243538	0.307563	0.216928	0.077371	0.069186	0.190081	0.077355	0.143088	0.224711	0.228881	0.057868	0.281418	0.139925	0.218322	0.409472	0.258089	0.258378	0.250163	0.539452	0.097227	0.085320	0.112456	0.125461	0.127577	0.370650	0.520757	0.067836	0.169843	0.127119	0.097855	0.073885	0.077501	0.161495	0.281474	0.065085	0.113842	0.318423	0.125384	0.178459	0.081431	0.471095	0.510372	0.072397	0.306788	0.087830	0.108575	0.103240	0.177145	0.271205	0.444971	0.028892	0.072340	0.049243	0.108253	0.094437	0.095350	0.052849	0.204765	0.348547	0.096523	0.209447	0.191474	0.149079	0.136605	0.355696	0.429506	0.063239	0.089470	0.194811	0.137026	0.102161	0.162200	0.672042	0.432091	0.066251	0.185227	0.199443	0.188629
42	0.084640	0.100332	0.243355	0.320577	0.216152	0.070714	0.068775	0.165665	0.076627	0.131059	0.250631	0.251490	0.070573	0.288754	0.195365	0.206834	0.502198	0.210515	0.255297	0.245017	0.544817	0.088978	0.084748	0.121055	0.127517	0.129249	0.374215	0.516950	0.056385	0.171186	0.116584	0.098666	0.077027	0.079062	0.168691	0.302406	0.052862	0.111108	0.321911	0.118027	0.200369	0.081586	0.603015	0.531568	0.060085	0.267489	0.075742	0.095091	0.102203	0.176785	0.317744	0.529418	0.031447	0.067759	0.050729	0.122411	0.102058	0.095072	0.045268	0.280767	0.349746	0.084814	0.210448	0.188323	0.110570	0.111089	0.237845	0.407698	0.065568	0.082860	0.220907	0.140231	0.104499	0.165402	0.671054	0.399344	0.068500	0.183108	0.205486	0.185465
43	0.089152	0.101736	0.243189	0.303690	0.209181	0.071310	0.099704	0.124660	0.080922	0.135174	0.274668	0.227922	0.078101	0.282133	0.211564	0.203248	0.766137	0.175125	0.255616	0.244775	0.545286	0.081165	0.085257	0.125455	0.143456	0.147931	0.399078	0.510028	0.060851	0.225226	0.130375	0.099009	0.078016	0.088625	0.156295	0.322333	0.052282	0.095436	0.324613	0.111772	0.204897	0.104026	0.646689	0.557068	0.051166	0.228581	0.061745	0.094636	0.102315	0.179793	0.324121	0.593708	0.038941	0.068493	0.047173	0.125410	0.107924	0.109040	0.096166	0.374251	0.350322	0.084427	0.243107	0.187980	0.095084	0.101912	0.212090	0.430507	0.059911	0.071672	0.235991	0.140926	0.106676	0.165873	0.649247	0.274790	0.073345	0.186400	0.242302	0.191792
44	0.089370	0.100501	0.243570	0.287594	0.202208	0.071290	0.149224	0.095782	0.081115	0.135733	0.296369	0.203919	0.077153	0.293543	0.207947	0.222570	0.763083	0.170501	0.262790	0.240575	0.541525	0.077304	0.085559	0.125802	0.150493	0.166941	0.438017	0.508108	0.056657	0.224122	0.149300	0.099109	0.082807	0.100171	0.157247	0.356301	0.052307	0.092735	0.304586	0.119378	0.225877	0.159583	0.662129	0.604042	0.049436	0.220140	0.059877	0.094577	0.119288	0.194994	0.337023	0.610206	0.040113	0.063419	0.047050	0.138621	0.112960	0.113050	0.172566	0.392750	0.350440	0.085884	0.246012	0.195645	0.094024	0.102158	0.231856	0.488107	0.052704	0.068713	0.242613	0.140337	0.101198	0.165865	0.534025	0.256504	0.093470	0.259713	0.254759	0.203947
45	0.089389	0.102093	0.239145	0.303865	0.201420	0.070704	0.170917	0.072599	0.078891	0.131384	0.299292	0.202725	0.079863	0.287452	0.225270	0.205553	0.759453	0.163782	0.261780	0.304132	0.540271	0.076569	0.102081	0.126277	0.150263	0.172672	0.441097	0.491390	0.057019	0.224162	0.151770	0.104602	0.085946	0.111828	0.157065	0.377365	0.052343	0.090755	0.280701	0.159135	0.253180	0.188974	0.732656	0.634957	0.039826	0.110024	0.060064	0.094600	0.140520	0.207485	0.347474	0.607362	0.039758	0.059486	0.044560	0.159672	0.113198	0.116249	0.212883	0.406567	0.350196	0.089799	0.249657	0.210687	0.098869	0.109697	0.299767	0.582643	0.053865	0.068036	0.247642	0.138153	0.098269	0.159234	0.456048	0.219846	0.102955	0.297892	0.255302	0.212584
46	0.089635	0.109836	0.227272	0.310627	0.199940	0.069909	0.171360	0.058250	0.076394	0.130557	0.297259	0.205447	0.089379	0.274999	0.251556	0.206804	0.758354	0.155257	0.261626	0.363616	0.537301	0.076208	0.106228	0.122311	0.149195	0.171303	0.434816	0.517833	0.054641	0.232690	0.156631	0.111115	0.094027	0.122612	0.173780	0.383804	0.050195	0.091537	0.267773	0.176954	0.257123	0.191786	0.779827	0.639804	0.014412	0.050236	0.068635	0.092816	0.142283	0.214752	0.347823	0.601241	0.040509	0.062247	0.056174	0.163342	0.117120	0.118682	0.224250	0.461163	0.348431	0.089972	0.252165	0.208621	0.109728	0.112899	0.392065	0.663173	0.054187	0.068172	0.249228	0.138625	0.066726	0.154808	0.412564	0.134010	0.111919	0.342046	0.259221	0.192210
47	0.089058	0.117178	0.208038	0.311043	0.189052	0.065513	0.186599	0.050362	0.075007	0.110463	0.297000	0.205212	0.092515	0.176448	0.251377	0.200635	0.758022	0.151199	0.262197	0.366875	0.519735	0.075799	0.103289	0.109514	0.136633	0.154294	0.441412	0.553836	0.048105	0.263896	0.154564	0.111362	0.095193	0.124857	0.195330	0.383686	0.052261	0.094231	0.266352	0.182867	0.258959	0.192456	0.809750	0.636770	0.016297	0.049535	0.077495	0.089436	0.142828	0.206126	0.347777	0.602025	0.039999	0.078313	0.101131	0.160603	0.117728	0.118192	0.231851	0.523775	0.348449	0.074964	0.236555	0.195830	0.117399	0.109311	0.454236	0.669380	0.053286	0.067602	0.247415	0.138919	0.079482	0.181055	0.293889	0.127318	0.112692	0.347009	0.261842	0.194827
48	0.089045	0.114938	0.209607	0.306800	0.150178	0.060557	0.212057	0.058102	0.065770	0.087929	0.299183	0.195187	0.105444	0.174912	0.257457	0.189693	0.758305	0.146739	0.270903	0.395479	0.469979	0.075580	0.099700	0.107101	0.118365	0.139681	0.459839	0.570585	0.043054	0.266615	0.172239	0.116946	0.094102	0.125029	0.215331	0.387559	0.063231	0.099833	0.217260	0.184854	0.259377	0.192596	0.823995	0.629637	0.020016	0.047410	0.080453	0.084223	0.143863	0.202451	0.351121	0.607191	0.037637	0.110371	0.126583	0.167195	0.128127	0.118282	0.300657	0.577252	0.332800	0.062527	0.221017	0.193738	0.119380	0.104665	0.462468	0.658975	0.052954	0.066785	0.245489	0.140616	0.085222	0.180822	0.203317	0.131389	0.116046	0.361661	0.265382	0.209102
49	0.106917	0.107590	0.220226	0.292573	0.113514	0.061439	0.221879	0.075907	0.080113	0.070847	0.291323	0.188414	0.107633	0.185047	0.258706	0.194610	0.757568	0.142202	0.294176	0.457936	0.392759	0.075613	0.102365	0.105192	0.114042	0.141361	0.483820	0.570825	0.044549	0.269880	0.174945	0.147774	0.083293	0.124087	0.209938	0.381670	0.070747	0.102682	0.156573	0.184152	0.260191	0.202349	0.830354	0.637938	0.025847	0.047035	0.080775	0.077784	0.141674	0.191822	0.345993	0.593222	0.038518	0.133484	0.129098	0.179574	0.128933	0.114020	0.321781	0.596765	0.292740	0.060045	0.216397	0.194277	0.120834	0.104899	0.464589	0.685472	0.057905	0.066410	0.234339	0.139797	0.076123	0.154639	0.165684	0.131792	0.125004	0.369756	0.286876	0.190955
50	0.164565	0.100896	0.225090	0.280430	0.097559	0.071446	0.237317	0.087022	0.112079	0.098686	0.272169	0.187385	0.126838	0.214727	0.268311	0.184498	0.757016	0.142996	0.292039	0.525042	0.378722	0.078258	0.098404	0.111866	0.117880	0.147069	0.503040	0.559673	0.046951	0.269966	0.176266	0.159597	0.082755	0.119662	0.205657	0.366085	0.072867	0.102589	0.155081	0.203858	0.264134	0.223819	0.832140	0.669093	0.029152	0.048004	0.080461	0.071062	0.308468	0.183877	0.324298	0.551049	0.037746	0.164147	0.149401	0.180781	0.135558	0.118699	0.327911	0.603537	0.213257	0.059594	0.212806	0.195705	0.121858	0.105575	0.480754	0.757218	0.066047	0.065674	0.219350	0.129872	0.071471	0.138692	0.160461	0.125006	0.131902	0.372551	0.271797	0.184365
51	0.189448	0.097081	0.226532	0.279406	0.067397	0.078261	0.243866	0.089600	0.146252	0.128469	0.258246	0.177908	0.123618	0.218304	0.245109	0.195662	0.768457	0.149073	0.286549	0.567655	0.356198	0.070845	0.097794	0.117620	0.161117	0.148122	0.478661	0.518236	0.076944	0.290083	0.176938	0.159631	0.094679	0.109241	0.217503	0.337347	0.074114	0.101365	0.150833	0.226666	0.269035	0.243297	0.829049	0.689324	0.032471	0.054736	0.080145	0.062374	0.567336	0.175867	0.292060	0.489039	0.037759	0.175661	0.171827	0.182453	0.149406	0.127732	0.344288	0.606605	0.198014	0.053640	0.212216	0.192746	0.132172	0.118583	0.538688	0.835732	0.068385	0.065308	0.199300	0.129826	0.068489	0.135960	0.157225	0.120260	0.135871	0.373600	0.281601	0.181171
52	0.193406	0.096610	0.241305	0.275112	0.064690	0.081158	0.245473	0.119672	0.204214	0.145590	0.266763	0.127710	0.117062	0.205111	0.214025	0.198747	0.784393	0.153716	0.285730	0.567815	0.201664	0.069190	0.100460	0.119156	0.167118	0.145958	0.420262	0.484142	0.085811	0.329192	0.176931	0.176963	0.114399	0.103375	0.230968	0.337913	0.072468	0.101086	0.146087	0.258175	0.273225	0.253067	0.830692	0.684003	0.034043	0.057987	0.079632	0.053303	0.711899	0.168474	0.270760	0.466441	0.040317	0.181568	0.192487	0.186315	0.154208	0.134390	0.347033	0.604177	0.132509	0.048973	0.213685	0.166275	0.137947	0.127827	0.576236	0.871605	0.069652	0.062994	0.196501	0.115006	0.069389	0.136568	0.160893	0.126047	0.140018	0.373289	0.266710	0.217206
53	0.196458	0.098834	0.260964	0.262528	0.066224	0.093479	0.264980	0.150808	0.247983	0.140514	0.256298	0.094171	0.118028	0.184605	0.208248	0.177309	0.789399	0.150763	0.270501	0.562208	0.165061	0.062150	0.104162	0.119618	0.166892	0.146322	0.381404	0.466555	0.094238	0.329293	0.182057	0.213454	0.155374	0.102975	0.231399	0.330794	0.080068	0.102835	0.136863	0.279282	0.274326	0.256744	0.833686	0.584358	0.034513	0.059328	0.090642	0.057131	0.804118	0.191725	0.252644	0.466399	0.040427	0.183177	0.205591	0.181596	0.151958	0.138903	0.347232	0.590868	0.060953	0.046006	0.209473	0.131563	0.139530	0.131959	0.586726	0.864749	0.077970	0.063471	0.184782	0.079721	0.067883	0.127085	0.154397	0.119184	0.125167	0.321659	0.274457	0.242345
54	0.197274	0.096222	0.305032	0.236875	0.075372	0.116982	0.293514	0.164699	0.276441	0.149286	0.228976	0.085402	0.117669	0.166029	0.213820	0.169144	0.727082	0.114645	0.275994	0.558788	0.132949	0.060793	0.104679	0.113580	0.217147	0.144881	0.381441	0.471286	0.112463	0.323679	0.223809	0.246944	0.170102	0.104406	0.228871	0.313591	0.088441	0.119748	0.136616	0.280279	0.259575	0.258300	0.792499	0.562411	0.040690	0.075190	0.146727	0.068313	1.143350	0.211706	0.193817	0.472487	0.043480	0.216759	0.206181	0.171064	0.127648	0.141105	0.346890	0.576155	0.048811	0.044928	0.192805	0.121990	0.145284	0.137679	0.599847	0.851546	0.083943	0.051636	0.153271	0.063780	0.067780	0.100777	0.140960	0.088093	0.115747	0.281491	0.351138	0.237715
55	0.194900	0.091637	0.334767	0.224426	0.095397	0.126634	0.328827	0.165655	0.329152	0.156806	0.214336	0.085878	0.113820	0.164023	0.195611	0.169907	0.753009	0.094833	0.274288	0.563657	0.102090	0.055872	0.104285	0.096844	0.229836	0.144981	0.377370	0.493494	0.118898	0.318356	0.236972	0.250977	0.246652	0.097882	0.234693	0.305119	0.101592	0.117953	0.134605	0.278643	0.254108	0.258166	0.695485	0.620711	0.043868	0.082344	0.201230	0.082677	1.162387	0.215156	0.186972	0.485755	0.036283	0.216401	0.203967	0.167851	0.122964	0.136396	0.348023	0.535433	0.040084	0.044619	0.149724	0.123293	0.144850	0.137179	0.620506	0.845093	0.081215	0.043778	0.116780	0.060552	0.053562	0.034851	0.115673	0.080110	0.098400	0.175201	0.379419	0.257153
56	0.192176	0.087464	0.337127	0.224154	0.103914	0.130264	0.333349	0.173767	0.339786	0.161753	0.215926	0.086788	0.109772	0.152533	0.185872	0.161331	0.605789	0.095851	0.273816	0.608834	0.083157	0.051396	0.103259	0.087011	0.227157	0.148280	0.377578	0.520428	0.119867	0.296828	0.236745	0.251028	0.373072	0.085988	0.236872	0.296915	0.102705	0.113398	0.113398	0.280592	0.248813	0.269511	0.621725	0.654854	0.051822	0.085965	0.247017	0.089040	1.164110	0.210131	0.215842	0.473864	0.033836	0.216453	0.203860	0.163986	0.116987	0.126559	0.332412	0.485573	0.036233	0.044731	0.113358	0.117920	0.145012	0.136364	0.621523	0.845339	0.106128	0.037217	0.095574	0.062535	0.066212	0.072946	0.068778	0.075184	0.097688	0.166584	0.417855	0.277121
57	0.191960	0.087511	0.334702	0.203992	0.104639	0.134483	0.334484	0.177990	0.347222	0.163901	0.223563	0.070012	0.092541	0.152016	0.173277	0.157716	0.400088	0.103792	0.269171	0.694428	0.077541	0.050662	0.104201	0.092634	0.286246	0.169475	0.412813	0.519988	0.117502	0.272539	0.227734	0.250760	0.428937	0.070610	0.242377	0.301960	0.102470	0.113242	0.109650	0.281386	0.288149	0.269022	0.623505	0.631800	0.062644	0.087105	0.263313	0.089622	1.166113	0.208729	0.396870	0.495231	0.035257	0.216494	0.204442	0.148111	0.117144	0.124173	0.298079	0.477399	0.033118	0.036327	0.108706	0.089075	0.145256	0.136630	0.621578	0.837892	0.121042	0.031952	0.083050	0.077096	0.098586	0.118314	0.066210	0.077677	0.127332	0.215023	0.475115	0.276686
58	0.192138	0.082589	0.335363	0.208345	0.113583	0.137934	0.349399	0.213008	0.351627	0.164346	0.225567	0.059091	0.088121	0.142694	0.173626	0.151942	0.424709	0.117751	0.295583	0.763244	0.077884	0.059516	0.087922	0.131901	0.327732	0.172734	0.413461	0.488433	0.117311	0.271413	0.215595	0.255593	0.499188	0.063392	0.232625	0.304998	0.102650	0.114438	0.109505	0.271904	0.265210	0.241465	0.598712	0.587178	0.063107	0.088117	0.266808	0.090993	1.168266	0.198154	0.528625	0.537918	0.038710	0.215865	0.204034	0.142739	0.116756	0.120878	0.277506	0.456226	0.028073	0.027532	0.091787	0.062265	0.153419	0.137644	0.617277	0.816391	0.128704	0.029967	0.086073	0.099378	0.103878	0.130882	0.066356	0.077968	0.131146	0.229833	0.480914	0.276253
59	0.192042	0.071524	0.350237	0.223284	0.114385	0.139694	0.348665	0.226802	0.364175	0.177987	0.211525	0.066255	0.064830	0.084744	0.166622	0.133059	0.426254	0.139718	0.418169	0.763598	0.079163	0.068502	0.096571	0.164305	0.327054	0.170500	0.400071	0.445401	0.117240	0.263063	0.201279	0.259120	0.527310	0.063247	0.215640	0.304260	0.102888	0.114119	0.109191	0.270227	0.252916	0.222659	0.520757	0.594644	0.063093	0.089233	0.295651	0.099710	1.168303	0.194361	0.558757	0.540257	0.048827	0.212295	0.193040	0.148534	0.113858	0.121547	0.271707	0.395195	0.024541	0.030114	0.084986	0.057814	0.175442	0.134475	0.596585	0.766817	0.140589	0.033120	0.098345	0.105599	0.304226	0.136893	0.065925	0.078525	0.136601	0.232819	0.471202	0.275874
60	0.191739	0.057982	0.399790	0.231085	0.114666	0.140851	0.342085	0.227691	0.533857	0.213195	0.193543	0.074248	0.052524	0.060444	0.176006	0.101766	0.428805	0.161615	0.593167	0.751926	0.089231	0.080644	0.130686	0.173348	0.326475	0.171373	0.379815	0.428203	0.117373	0.242970	0.195004	0.258784	0.529278	0.077756	0.200451	0.297157	0.103030	0.110794	0.110841	0.271029	0.304209	0.222740	0.541605	0.604826	0.062985	0.087762	0.319170	0.105458	1.168395	0.201238	0.559507	0.541290	0.063831	0.195411	0.179717	0.147837	0.114799	0.130819	0.255304	0.340225	0.024408	0.082583	0.068973	0.056976	0.191921	0.125794	0.549936	0.689770	0.197675	0.051373	0.108708	0.102834	0.304139	0.161551	0.057529	0.073046	0.132797	0.268931	0.462876	0.275064
61	0.191882	0.052657	0.434824	0.226598	0.114622	0.141699	0.324117	0.238063	0.697374	0.195589	0.195746	0.074195	0.050801	0.056962	0.182580	0.086367	0.431016	0.170533	0.755468	0.757893	0.095428	0.085757	0.172529	0.174526	0.325351	0.169161	0.350006	0.504990	0.118745	0.215137	0.204338	0.258990	0.532246	0.086705	0.201789	0.306998	0.099415	0.101808	0.104320	0.267686	0.383089	0.228013	0.604025	0.605458	0.062669	0.103434	0.342605	0.112633	1.171891	0.208658	0.597861	0.552712	0.068647	0.177085	0.194744	0.132163	0.104576	0.148474	0.177952	0.290733	0.038987	0.168464	0.057492	0.084337	0.249506	0.123278	0.486785	0.648759	0.214312	0.061058	0.103143	0.112066	0.304916	0.170470	0.050397	0.052217	0.127441	0.275351	0.454113	0.245244
62	0.163830	0.053263	0.463191	0.222418	0.114401	0.155914	0.318691	0.267603	0.756830	0.195120	0.198690	0.128884	0.046616	0.044538	0.183276	0.068846	0.430863	0.170644	0.804325	0.761990	0.095993	0.087371	0.182665	0.179131	0.326226	0.168922	0.327574	0.581617	0.122042	0.210767	0.201675	0.253934	0.532026	0.092336	0.200557	0.340637	0.096764	0.099802	0.091541	0.268180	0.403709	0.229599	0.643421	0.610663	0.062146	0.104972	0.363192	0.117879	1.139194	0.208131	0.652066	0.558447	0.072669	0.159508	0.218900	0.117595	0.115533	0.166585	0.189669	0.282239	0.046018	0.216777	0.056168	0.110154	0.268129	0.124279	0.460237	0.645995	0.222995	0.062381	0.097867	0.120402	0.305034	0.174621	0.033136	0.118091	0.126697	0.278760	0.439962	0.210994
63	0.133210	0.045320	0.467383	0.222363	0.123301	0.217422	0.314011	0.287098	1.032102	0.214143	0.171764	0.185826	0.040611	0.040204	0.179681	0.060779	0.431482	0.172968	0.804386	0.742537	0.092364	0.088095	0.192045	0.186800	0.313824	0.178098	0.327117	0.614278	0.121968	0.206969	0.207210	0.236226	0.529095	0.100270	0.195038	0.351781	0.094394	0.111702	0.107312	0.261084	0.409759	0.217528	0.640639	0.596925	0.060668	0.105443	0.368139	0.128264	1.030954	0.205024	0.668064	0.572936	0.091184	0.137321	0.215524	0.110640	0.183431	0.169850	0.203520	0.277345	0.068059	0.286003	0.057083	0.116420	0.290361	0.123915	0.460560	0.609933	0.221660	0.066340	0.104583	0.120336	0.305058	0.182092	0.090500	0.175009	0.126466	0.279505	0.378387	0.211650
64	0.109238	0.042771	0.463834	0.226544	0.134797	0.251572	0.308548	0.288100	1.119256	0.212866	0.182490	0.203241	0.028210	0.038295	0.153381	0.053126	0.432986	0.172098	0.877805	0.700202	0.087658	0.089255	0.231469	0.191213	0.323321	0.184566	0.342433	0.617609	0.124998	0.205525	0.205902	0.229771	0.526254	0.111368	0.196525	0.350729	0.093336	0.132463	0.145189	0.244182	0.472085	0.202048	0.672298	0.565578	0.059279	0.147482	0.368513	0.134299	0.939126	0.200214	0.671361	0.656215	0.101042	0.134574	0.197886	0.105874	0.198475	0.164636	0.182984	0.273714	0.133258	0.394741	0.058113	0.118022	0.309943	0.125119	0.452819	0.538079	0.221480	0.066639	0.105802	0.132293	0.302702	0.178257	0.212528	0.177577	0.126599	0.278668	0.346022	0.191782
65	0.106088	0.059651	0.455174	0.228122	0.135478	0.252160	0.311289	0.277787	1.116912	0.209917	0.188935	0.228001	0.023183	0.045334	0.148146	0.054852	0.407218	0.169000	0.942620	0.676439	0.085012	0.089790	0.242932	0.195985	0.330976	0.188745	0.343666	0.624875	0.109090	0.180699	0.205947	0.229393	0.515337	0.113330	0.204052	0.345018	0.095003	0.164234	0.154474	0.218537	0.490882	0.185806	0.742212	0.540598	0.058275	0.149427	0.368402	0.135001	0.849453	0.184231	0.672933	0.706472	0.114759	0.152081	0.181779	0.101974	0.198570	0.158587	0.183651	0.312171	0.143168	0.396103	0.053426	0.117594	0.310344	0.119098	0.408595	0.434367	0.221117	0.066821	0.104102	0.143789	0.294703	0.152184	0.249422	0.204791	0.126086	0.269876	0.301081	0.177257
66	0.133421	0.064262	0.436107	0.251270	0.142140	0.431857	0.298182	0.263179	1.112978	0.207607	0.215980	0.233267	0.037171	0.134984	0.135433	0.050211	0.373737	0.165392	0.967130	0.678323	0.082542	0.090192	0.245322	0.197487	0.300937	0.188291	0.339434	0.613350	0.109515	0.168362	0.207103	0.212965	0.520979	0.112546	0.197405	0.358656	0.091286	0.173123	0.150301	0.171660	0.488742	0.174955	0.750628	0.545019	0.059693	0.152626	0.368332	0.135007	0.312618	0.179314	0.687974	0.663499	0.121586	0.134035	0.183979	0.103478	0.254981	0.155367	0.226593	0.336408	0.144308	0.397394	0.054172	0.120582	0.307130	0.108873	0.316796	0.393858	0.215536	0.065916	0.106303	0.143681	0.292719	0.145836	0.288089	0.236807	0.093668	0.210147	0.195420	0.171649
67	0.135261	0.066311	0.411503	0.333972	0.158728	0.507626	0.290055	0.255776	1.112323	0.205977	0.223224	0.233610	0.043658	0.161712	0.134727	0.147239	0.354501	0.165035	0.983930	0.713850	0.082091	0.092150	0.244498	0.198521	0.288267	0.171638	0.312192	0.596599	0.098615	0.170677	0.195929	0.163037	0.488930	0.127077	0.192945	0.374488	0.087322	0.182057	0.189195	0.165671	0.489061	0.171337	0.749023	0.591854	0.062516	0.152277	0.366697	0.131972	0.265239	0.179757	0.705448	0.600144	0.132138	0.169001	0.208455	0.106162	0.269793	0.156893	0.300286	0.334453	0.144303	0.404708	0.060926	0.142890	0.311238	0.107515	0.288161	0.493773	0.216705	0.068376	0.113900	0.145299	0.086260	0.151066	0.325096	0.240844	0.080543	0.179677	0.096348	0.168583
68	0.138447	0.067706	0.438236	0.405074	0.149699	0.522219	0.253933	0.278070	1.111915	0.210383	0.222344	0.251833	0.061714	0.217617	0.175857	0.176160	0.353056	0.167041	0.991001	0.770670	0.090704	0.116396	0.244486	0.199101	0.295581	0.150423	0.255755	0.569048	0.079961	0.183789	0.159428	0.118213	0.400062	0.155613	0.189667	0.366370	0.061826	0.175477	0.223114	0.178571	0.487041	0.172499	0.751082	0.607191	0.059278	0.145663	0.349970	0.125355	0.257541	0.170050	0.705091	0.604532	0.159792	0.210894	0.223308	0.108561	0.284955	0.160426	0.317124	0.331603	0.148878	0.406176	0.060874	0.167900	0.314021	0.109337	0.320892	0.555493	0.217297	0.070182	0.133480	0.145795	0.088900	0.144889	0.332598	0.241191	0.054446	0.172484	0.092291	0.159237
69	0.137478	0.072227	0.476611	0.436834	0.141678	0.522607	0.235435	0.294212	1.111262	0.213573	0.222841	0.266635	0.067284	0.223703	0.179464	0.185944	0.214205	0.170040	0.996251	0.794827	0.093978	0.130533	0.246306	0.203867	0.327302	0.119062	0.204676	0.539627	0.074115	0.186178	0.154064	0.164016	0.347489	0.157330	0.192067	0.351985	0.053290	0.179994	0.225486	0.183134	0.490954	0.173081	0.748083	0.543159	0.057004	0.141040	0.321711	0.121531	0.239809	0.156963	0.621879	0.638906	0.160699	0.214648	0.226566	0.108501	0.416398	0.160310	0.319794	0.332284	0.160432	0.410913	0.062387	0.173988	0.312246	0.111431	0.394600	0.559513	0.204937	0.071633	0.138331	0.144061	0.083916	0.136326	0.333354	0.241064	0.052249	0.101879	0.091995	0.167971
70	0.137531	0.082087	0.518360	0.439934	0.144852	0.527365	0.223511	0.291512	1.069022	0.183009	0.220272	0.267684	0.078554	0.237623	0.165632	0.206478	0.215255	0.174924	0.998416	0.763845	0.098277	0.163895	0.246789	0.232003	0.356613	0.112609	0.246016	0.497026	0.072760	0.186491	0.156914	0.189950	0.230102	0.158495	0.202328	0.343935	0.063340	0.185845	0.251946	0.176733	0.482391	0.149809	0.730047	0.489759	0.051764	0.139034	0.288089	0.132786	0.229112	0.160409	0.521651	0.746521	0.160204	0.222955	0.227262	0.110671	0.474698	0.160356	0.362884	0.351368	0.167096	0.412661	0.077440	0.183284	0.321277	0.112868	0.456907	0.580603	0.196505	0.074087	0.154601	0.139355	0.083427	0.131388	0.334056	0.220089	0.047748	0.075125	0.122614	0.206714
71	0.138924	0.087538	0.524878	0.424265	0.154157	0.529638	0.206643	0.271900	0.973262	0.156461	0.221063	0.273214	0.090854	0.239899	0.202150	0.228593	0.189627	0.171394	0.999297	0.685443	0.122117	0.181651	0.272568	0.234838	0.374506	0.113190	0.255548	0.479104	0.074208	0.186757	0.157266	0.193345	0.162917	0.158339	0.209405	0.344320	0.070885	0.187859	0.274846	0.165804	0.460073	0.128290	0.723796	0.523083	0.093412	0.138475	0.270007	0.135322	0.230477	0.159074	0.562746	0.799951	0.158087	0.223439	0.227605	0.110428	0.481168	0.163026	0.424276	0.364280	0.169704	0.418454	0.099349	0.183982	0.336250	0.113925	0.470290	0.673022	0.194896	0.074941	0.155291	0.144305	0.082809	0.120106	0.325564	0.175471	0.045275	0.059703	0.148163	0.222529
72	0.152705	0.089996	0.512969	0.424608	0.158286	0.529674	0.223359	0.273002	0.873192	0.145352	0.206396	0.274409	0.100841	0.242047	0.222089	0.237034	0.141343	0.160296	0.984275	0.613043	0.129870	0.188836	0.328148	0.213586	0.376840	0.116761	0.267764	0.473077	0.074561	0.186631	0.157330	0.187855	0.158870	0.155177	0.209919	0.359054	0.074582	0.189970	0.295521	0.142136	0.512859	0.134135	0.728740	0.562191	0.119709	0.138062	0.270924	0.134833	0.233571	0.157094	0.659288	0.797739	0.152283	0.223340	0.223031	0.105613	0.669947	0.169829	0.489905	0.368226	0.185729	0.418531	0.140496	0.186080	0.351642	0.123250	0.480442	0.772544	0.166874	0.070744	0.146288	0.158770	0.080985	0.109111	0.267818	0.188787	0.063640	0.059597	0.158284	0.215520
73	0.165234	0.090443	0.469649	0.462088	0.161876	0.530156	0.225431	0.288942	0.736176	0.138077	0.202063	0.229867	0.100924	0.242562	0.223703	0.236471	0.139033	0.140750	0.927130	0.575115	0.136594	0.229216	0.355584	0.206261	0.412324	0.123237	0.387740	0.388110	0.074141	0.186023	0.154896	0.194020	0.148383	0.150142	0.208805	0.377692	0.082180	0.190683	0.301925	0.120841	0.559800	0.144228	0.717191	0.557051	0.159995	0.136853	0.247573	0.128515	0.249822	0.172609	0.722819	0.792140	0.149377	0.223032	0.215434	0.101907	0.730717	0.161165	0.522701	0.358381	0.187777	0.404924	0.150657	0.183186	0.374868	0.137439	0.510383	0.826156	0.097342	0.058508	0.144545	0.168341	0.071569	0.105310	0.227581	0.165543	0.065958	0.064515	0.161542	0.226193
74	0.171762	0.093712	0.430249	0.489994	0.164831	0.530196	0.226296	0.280816	0.301284	0.157638	0.196811	0.244391	0.100604	0.243888	0.223358	0.235655	0.146138	0.115478	0.813068	0.575320	0.133395	0.228265	0.347415	0.209452	0.426623	0.117176	0.513114	0.263943	0.073810	0.183439	0.144196	0.216170	0.149622	0.146593	0.217944	0.392459	0.088773	0.191536	0.334606	0.121806	0.557012	0.144786	0.644461	0.562981	0.161393	0.140276	0.223386	0.124613	0.255258	0.178052	0.718334	0.804578	0.148130	0.222570	0.188575	0.101308	0.733427	0.145080	0.524671	0.342890	0.185770	0.372412	0.157337	0.172632	0.366499	0.151476	0.542403	0.835263	0.075820	0.057991	0.145575	0.163323	0.071315	0.102908	0.187533	0.111420	0.074636	0.076567	0.161700	0.216072
75	0.199483	0.105114	0.414967	0.490957	0.165727	0.527083	0.224390	0.249944	0.202611	0.168517	0.202440	0.218844	0.099081	0.234492	0.223965	0.248345	0.203861	0.108185	0.678626	0.571059	0.133595	0.228477	0.350110	0.214616	0.421082	0.102437	0.542632	0.182824	0.071255	0.183686	0.128736	0.223877	0.155931	0.140880	0.278426	0.410840	0.083217	0.189635	0.349668	0.122971	0.569645	0.139014	0.563121	0.567627	0.164443	0.156398	0.185151	0.123709	0.277945	0.207084	0.738668	0.804655	0.141326	0.220815	0.180108	0.098597	0.732972	0.123298	0.547974	0.332252	0.184984	0.356932	0.157130	0.180612	0.347935	0.155823	0.566129	0.834466	0.066210	0.063319	0.146199	0.161779	0.080292	0.089107	0.105992	0.103967	0.079949	0.078748	0.176033	0.201685
76	0.279550	0.126322	0.459676	0.492440	0.160023	0.508250	0.217432	0.218960	0.197957	0.166241	0.204367	0.229613	0.098598	0.230996	0.222051	0.274132	0.230454	0.107567	0.650031	0.558690	0.135166	0.228677	0.412724	0.210331	0.417932	0.125627	0.556829	0.187383	0.070073	0.203343	0.108952	0.225056	0.150814	0.132413	0.356183	0.411011	0.081178	0.183756	0.351338	0.127798	0.662131	0.135222	0.526571	0.562673	0.167039	0.185282	0.143424	0.120381	0.292783	0.221374	0.881692	0.743841	0.129620	0.218311	0.180711	0.094135	0.724664	0.108619	0.554583	0.333250	0.161254	0.230946	0.159295	0.194373	0.339684	0.156774	0.577372	0.834047	0.072842	0.112892	0.154369	0.161815	0.100822	0.061866	0.078866	0.104241	0.080197	0.098049	0.185542	0.200286
77	0.325152	0.129114	0.515896	0.496850	0.146373	0.489615	0.216682	0.215616	0.199864	0.165371	0.216220	0.324983	0.094673	0.201352	0.207285	0.251010	0.249165	0.107413	0.665094	0.584327	0.142252	0.231482	0.437497	0.200513	0.430188	0.153955	0.669161	0.155205	0.073167	0.261925	0.102644	0.224837	0.149852	0.130952	0.387856	0.434018	0.081133	0.178089	0.340071	0.154557	0.667786	0.133144	0.524455	0.557244	0.170082	0.203152	0.129493	0.109918	0.288068	0.215446	0.948076	0.702596	0.119940	0.204467	0.189190	0.094848	0.723849	0.110514	0.565739	0.334196	0.128514	0.153667	0.161739	0.203201	0.369983	0.154909	0.584050	0.834504	0.078066	0.127437	0.173547	0.153335	0.200189	0.051326	0.076223	0.106022	0.081757	0.156849	0.183973	0.201917
78	0.346949	0.124416	0.528892	0.511230	0.144826	0.489357	0.210549	0.217699	0.194714	0.164466	0.284352	0.336376	0.100963	0.185902	0.198244	0.251317	0.357075	0.107235	0.632218	0.631731	0.143554	0.232156	0.439269	0.193836	0.432021	0.155768	0.712179	0.176222	0.065479	0.280207	0.103130	0.224504	0.115819	0.129439	0.389414	0.456310	0.082450	0.150212	0.330353	0.160633	0.659790	0.119180	0.455098	0.557574	0.174667	0.191028	0.127709	0.101047	0.260687	0.202409	0.953802	0.696053	0.109612	0.193815	0.196092	0.094745	0.723470	0.116189	0.587132	0.298490	0.127505	0.152843	0.165569	0.207441	0.423697	0.151653	0.587190	0.834961	0.078271	0.130249	0.173926	0.153470	0.215155	0.057476	0.071585	0.108228	0.094953	0.276763	0.189336	0.194609
79	0.377449	0.123667	0.538895	0.491919	0.140451	0.375375	0.212646	0.217592	0.186653	0.154381	0.304196	0.360323	0.095802	0.162781	0.206167	0.253489	0.362096	0.122780	0.620294	0.659845	0.143097	0.231938	0.438761	0.190626	0.433918	0.160064	0.726538	0.174566	0.081573	0.257799	0.105258	0.246612	0.134161	0.117059	0.437382	0.441539	0.085786	0.129271	0.329577	0.162424	0.653040	0.114843	0.348866	0.578279	0.189887	0.217098	0.127547	0.099783	0.242362	0.196219	0.941049	0.704012	0.103289	0.171380	0.183186	0.093098	0.720404	0.119362	0.567759	0.283502	0.127014	0.134076	0.178656	0.223844	0.412036	0.146326	0.587456	0.826808	0.076448	0.134912	0.172499	0.151075	0.216272	0.067972	0.075536	0.125167	0.094924	0.280677	0.178207	0.150050
80	0.388341	0.122510	0.554702	0.434925	0.114681	0.210117	0.192285	0.216100	0.186136	0.160737	0.305465	0.417261	0.103743	0.160987	0.198778	0.249757	0.363842	0.145126	0.632046	0.652427	0.143027	0.241799	0.438982	0.189421	0.429130	0.166450	0.742447	0.188329	0.094388	0.291703	0.143618	0.290005	0.213043	0.077963	0.487362	0.429848	0.086163	0.119301	0.322602	0.162224	0.653522	0.114373	0.328300	0.571197	0.231608	0.226317	0.127559	0.099903	0.235911	0.196136	0.929931	0.706779	0.046003	0.082531	0.158826	0.109790	0.721619	0.119441	0.556207	0.295722	0.126735	0.131980	0.207179	0.228766	0.408454	0.142030	0.589664	0.804402	0.060227	0.133198	0.161463	0.151040	0.216377	0.079621	0.081846	0.131415	0.095724	0.281358	0.157524	0.121256
81	0.388284	0.123243	0.528380	0.413426	0.112669	0.152338	0.188563	0.191984	0.199147	0.189872	0.339660	0.424467	0.097916	0.159252	0.163755	0.234030	0.372081	0.146775	0.614574	0.606563	0.151629	0.280905	0.439070	0.193678	0.356152	0.172241	0.741704	0.206233	0.095695	0.289351	0.202593	0.296451	0.229018	0.075471	0.491291	0.422086	0.086112	0.109332	0.291981	0.152816	0.653702	0.109307	0.319616	0.529327	0.307960	0.225844	0.127197	0.098951	0.234203	0.195645	0.924378	0.656114	0.035803	0.079585	0.167083	0.131536	0.707787	0.115497	0.583138	0.302754	0.121982	0.130028	0.222696	0.223894	0.407300	0.138357	0.593457	0.751909	0.058095	0.138443	0.153368	0.151511	0.218770	0.093526	0.139140	0.128429	0.084728	0.280741	0.147306	0.120230
82	0.389200	0.129912	0.503550	0.413625	0.111467	0.147759	0.188349	0.153773	0.216323	0.209713	0.378718	0.421157	0.096689	0.159123	0.158235	0.232314	0.373738	0.154093	0.642796	0.559512	0.153860	0.322379	0.438778	0.201784	0.301260	0.171921	0.727668	0.219497	0.118923	0.315220	0.236895	0.293284	0.238019	0.071905	0.486916	0.423556	0.085769	0.107939	0.287627	0.142873	0.653802	0.106866	0.310905	0.491469	0.363971	0.226368	0.126561	0.097306	0.235224	0.191742	0.921265	0.486956	0.048672	0.039571	0.196224	0.138927	0.639351	0.115539	0.604681	0.295156	0.114027	0.130585	0.222810	0.221342	0.408393	0.138159	0.585270	0.685783	0.058602	0.139980	0.142786	0.153047	0.219156	0.095177	0.178984	0.145890	0.082307	0.280413	0.146190	0.110942
83	0.393184	0.137298	0.504308	0.425652	0.106263	0.125818	0.177969	0.149011	0.215334	0.209126	0.390047	0.420678	0.098259	0.157695	0.171219	0.232234	0.378266	0.159250	0.682911	0.538307	0.167819	0.388466	0.443424	0.171271	0.289615	0.173391	0.750682	0.239501	0.161817	0.349167	0.285961	0.269627	0.264729	0.085921	0.485433	0.428912	0.080098	0.086160	0.274668	0.155866	0.656060	0.107942	0.334107	0.492228	0.377971	0.233402	0.126242	0.091607	0.242608	0.186567	0.878760	0.392750	0.058065	0.035201	0.215264	0.142199	0.607114	0.117087	0.581985	0.283375	0.113894	0.130012	0.219725	0.217133	0.425055	0.136736	0.542674	0.669556	0.059173	0.142555	0.125987	0.157264	0.215125	0.096966	0.185392	0.168311	0.074264	0.277557	0.159923	0.092785
84	0.399033	0.140794	0.550364	0.432409	0.083210	0.110410	0.135130	0.145998	0.199787	0.200212	0.392057	0.419961	0.099950	0.150862	0.173625	0.231651	0.376969	0.154703	0.707611	0.533673	0.212784	0.496419	0.437455	0.139240	0.286290	0.170073	0.761527	0.239786	0.166568	0.348867	0.298163	0.256878	0.290411	0.080787	0.485091	0.437446	0.071696	0.081048	0.248804	0.180074	0.662848	0.116618	0.355213	0.490958	0.385803	0.236864	0.125059	0.063534	0.249560	0.175144	0.808252	0.389802	0.062690	0.039460	0.217117	0.161199	0.606514	0.145548	0.539394	0.301659	0.097701	0.107032	0.200267	0.219255	0.432978	0.133463	0.463590	0.666519	0.064335	0.147578	0.136923	0.148152	0.209460	0.111420	0.235954	0.173012	0.068972	0.277375	0.165909	0.102374
85	0.398095	0.140570	0.586628	0.417658	0.069534	0.107159	0.098277	0.118226	0.172265	0.207405	0.389767	0.422306	0.102360	0.129266	0.177968	0.202412	0.378804	0.159467	0.710247	0.565669	0.217415	0.494118	0.400032	0.138527	0.230775	0.163433	0.703359	0.242806	0.184714	0.349499	0.327392	0.260572	0.294437	0.080403	0.494605	0.421457	0.064431	0.072601	0.222777	0.188783	0.655688	0.136381	0.346335	0.446356	0.479375	0.237212	0.120426	0.053699	0.231427	0.149609	0.721545	0.413232	0.062771	0.062903	0.221810	0.178513	0.323292	0.181304	0.536521	0.299400	0.071772	0.127274	0.182432	0.221794	0.425199	0.137280	0.422250	0.611810	0.070370	0.152118	0.161935	0.131866	0.145052	0.162929	0.242034	0.182956	0.067438	0.270075	0.158199	0.104841
86	0.392887	0.139989	0.600205	0.405856	0.061711	0.103704	0.094925	0.062993	0.164659	0.211661	0.385017	0.431249	0.101718	0.080073	0.199781	0.160545	0.386828	0.166894	0.715863	0.572998	0.214758	0.474931	0.365710	0.142958	0.202466	0.162529	0.616751	0.274411	0.194329	0.350261	0.386874	0.264028	0.294580	0.080148	0.528601	0.366008	0.060997	0.071576	0.216120	0.188929	0.613300	0.148284	0.411392	0.397138	0.486503	0.237277	0.112056	0.063982	0.218425	0.144300	0.686232	0.440326	0.064001	0.080165	0.227939	0.189045	0.286576	0.195257	0.565750	0.265408	0.070970	0.124467	0.183611	0.222203	0.425595	0.153703	0.428606	0.478968	0.071264	0.152492	0.178981	0.120887	0.106266	0.194785	0.243716	0.187562	0.065087	0.242498	0.169977	0.124333
87	0.391527	0.138203	0.596674	0.410508	0.052776	0.100924	0.092119	0.060922	0.152384	0.210103	0.381618	0.388810	0.098722	0.052635	0.196928	0.161689	0.383322	0.168317	0.735992	0.581962	0.214454	0.473546	0.354040	0.139848	0.201165	0.158943	0.592750	0.305791	0.196700	0.350082	0.405968	0.256627	0.291646	0.081198	0.544856	0.354005	0.051023	0.066568	0.177664	0.191926	0.569674	0.142486	0.537101	0.360640	0.473335	0.237611	0.096984	0.073444	0.197470	0.099682	0.671216	0.501447	0.080964	0.089274	0.226899	0.190763	0.285267	0.194413	0.563639	0.253686	0.072232	0.125134	0.187104	0.212238	0.492662	0.149804	0.424135	0.320613	0.071855	0.152690	0.177725	0.122335	0.104407	0.196759	0.244612	0.178112	0.052386	0.148714	0.171298	0.131847
88	0.354288	0.128932	0.589869	0.421752	0.047722	0.094801	0.091765	0.063505	0.150378	0.209774	0.343529	0.341244	0.091727	0.053162	0.175763	0.146687	0.379767	0.172684	0.739819	0.634075	0.214417	0.473276	0.348347	0.129664	0.185290	0.133903	0.568220	0.298824	0.198744	0.350579	0.412976	0.249055	0.292191	0.090368	0.511131	0.495335	0.053650	0.065623	0.120057	0.198903	0.519275	0.134966	0.619343	0.344630	0.477158	0.236969	0.073379	0.072418	0.217646	0.079720	0.550378	0.519910	0.097600	0.090148	0.226923	0.190100	0.281931	0.196396	0.531192	0.247978	0.074538	0.125313	0.193961	0.197043	0.532602	0.136112	0.395467	0.242311	0.072340	0.138705	0.178689	0.129706	0.105014	0.216519	0.247198	0.156919	0.055167	0.173178	0.161415	0.135255
89	0.315210	0.126843	0.562280	0.429094	0.029845	0.074134	0.084013	0.065134	0.150268	0.208189	0.314110	0.321865	0.091042	0.056480	0.173930	0.108083	0.352517	0.177017	0.745980	0.687419	0.212442	0.472661	0.271963	0.116860	0.145682	0.106551	0.430005	0.311328	0.199741	0.350543	0.417041	0.246075	0.295808	0.100720	0.503178	0.577632	0.057692	0.070862	0.101674	0.204997	0.460118	0.141022	0.619955	0.338963	0.481202	0.220812	0.069900	0.062840	0.229845	0.088155	0.488014	0.510454	0.123453	0.088978	0.221704	0.189602	0.260143	0.202147	0.523903	0.246679	0.075558	0.125640	0.193950	0.183788	0.540308	0.125615	0.357185	0.234159	0.064254	0.105266	0.160173	0.129628	0.102423	0.225503	0.225735	0.152672	0.052520	0.175635	0.161599	0.136903
90	0.266790	0.141608	0.531282	0.445160	0.028191	0.061108	0.083386	0.065672	0.153237	0.206163	0.314342	0.271860	0.082647	0.056090	0.167492	0.127350	0.341607	0.180345	0.751882	0.697425	0.205629	0.470622	0.179072	0.113188	0.136582	0.109472	0.369880	0.397663	0.197973	0.328699	0.418976	0.245721	0.296119	0.107912	0.609610	0.574896	0.063487	0.105835	0.095542	0.191535	0.356811	0.163088	0.634648	0.387988	0.494496	0.194519	0.050718	0.060656	0.229010	0.087385	0.463263	0.490622	0.128237	0.089989	0.211872	0.189305	0.249551	0.198023	0.505283	0.248643	0.074696	0.125931	0.190613	0.181535	0.536616	0.123653	0.327934	0.234663	0.063892	0.101062	0.155421	0.122828	0.101604	0.227901	0.198557	0.137585	0.052336	0.176233	0.161860	0.136654
91	0.248369	0.141019	0.541744	0.437011	0.027018	0.052826	0.083560	0.059134	0.147045	0.186491	0.343195	0.260718	0.088513	0.167626	0.180053	0.129883	0.302142	0.175685	0.720066	0.661577	0.202098	0.469768	0.148549	0.114669	0.147982	0.118797	0.386175	0.482282	0.196018	0.288124	0.419603	0.246704	0.295498	0.112475	0.760900	0.573549	0.062997	0.116750	0.094230	0.175486	0.312851	0.171362	0.678605	0.468556	0.494748	0.174761	0.042712	0.062726	0.226730	0.088334	0.498344	0.478894	0.172607	0.090092	0.204963	0.188420	0.243868	0.195856	0.497103	0.256188	0.074424	0.132242	0.184703	0.162961	0.533034	0.122230	0.311281	0.234467	0.063280	0.097765	0.156580	0.121344	0.100446	0.228973	0.196745	0.101777	0.052329	0.174591	0.158968	0.124965
92	0.168619	0.140725	0.552597	0.443578	0.027435	0.040009	0.073827	0.055276	0.116348	0.158219	0.389703	0.260471	0.095918	0.239495	0.177577	0.133086	0.197656	0.169712	0.638439	0.635174	0.201741	0.469674	0.141408	0.117574	0.150360	0.113713	0.403878	0.493618	0.193946	0.272568	0.419408	0.246289	0.249308	0.116923	0.853091	0.576635	0.061616	0.129456	0.093075	0.168517	0.262136	0.171932	0.729519	0.505685	0.498346	0.160913	0.041488	0.064179	0.227272	0.089598	0.501416	0.489188	0.194297	0.090593	0.203113	0.177926	0.191286	0.193590	0.504470	0.265175	0.074277	0.133679	0.156340	0.120604	0.451390	0.122286	0.308163	0.232302	0.063167	0.093630	0.157006	0.121613	0.082258	0.222128	0.149298	0.095328	0.052301	0.174373	0.138820	0.114899
93	0.191111	0.140652	0.542434	0.464529	0.031288	0.061786	0.060473	0.051461	0.102418	0.147044	0.377384	0.261184	0.096987	0.345849	0.173818	0.147647	0.190585	0.151359	0.566486	0.627839	0.201315	0.465893	0.140151	0.119141	0.152723	0.112006	0.424651	0.485244	0.186514	0.258464	0.417762	0.208506	0.293047	0.159125	0.868270	0.593176	0.062492	0.132884	0.087964	0.168015	0.259393	0.176366	0.752974	0.495406	0.501864	0.119221	0.042557	0.064129	0.233894	0.099531	0.502181	0.489822	0.200814	0.089561	0.197395	0.158262	0.177847	0.190290	0.478104	0.259855	0.069745	0.127585	0.119184	0.090695	0.444971	0.122308	0.306547	0.230799	0.062293	0.089187	0.156819	0.121314	0.064443	0.205545	0.146655	0.080709	0.052035	0.176875	0.103307	0.110165
94	0.195329	0.147571	0.542570	0.496209	0.031101	0.061540	0.046936	0.044567	0.101578	0.142699	0.378146	0.259489	0.096093	0.389775	0.189212	0.155222	0.190670	0.135241	0.518529	0.629178	0.192394	0.439715	0.140053	0.111897	0.151365	0.112047	0.428550	0.479481	0.179996	0.221199	0.400634	0.159752	0.314607	0.173906	0.892985	0.611817	0.062544	0.133191	0.077010	0.168742	0.261924	0.195618	0.761053	0.475165	0.486219	0.087294	0.042789	0.064364	0.233362	0.100381	0.508819	0.489069	0.198417	0.095461	0.168120	0.140808	0.176903	0.189779	0.437843	0.252682	0.055648	0.115361	0.103213	0.080973	0.445643	0.122587	0.309494	0.221666	0.061543	0.082807	0.154664	0.119809	0.065961	0.189611	0.145840	0.062005	0.044234	0.177410	0.104166	0.138070
95	0.208466	0.152160	0.548025	0.531647	0.032357	0.071073	0.042695	0.045224	0.079337	0.100938	0.441213	0.237930	0.111166	0.394764	0.174260	0.149089	0.176297	0.133914	0.521469	0.631779	0.187398	0.405088	0.138380	0.090981	0.146345	0.109658	0.383030	0.472355	0.178472	0.219859	0.373533	0.162374	0.341242	0.174859	0.990623	0.626630	0.062388	0.132910	0.075691	0.170001	0.267887	0.206927	0.766916	0.465449	0.443352	0.090571	0.045374	0.064417	0.227487	0.112823	0.511793	0.502314	0.195423	0.100304	0.132358	0.138150	0.176611	0.192785	0.409059	0.267876	0.044201	0.113581	0.098458	0.080560	0.444558	0.123264	0.300025	0.174199	0.061339	0.078262	0.153453	0.107002	0.068552	0.197020	0.142230	0.057288	0.043986	0.173776	0.089249	0.151074
96	0.221769	0.158532	0.557365	0.537030	0.037771	0.086266	0.044651	0.046639	0.065467	0.073164	0.502905	0.228088	0.111549	0.398873	0.153754	0.146431	0.170010	0.119439	0.476057	0.618815	0.177358	0.350170	0.122512	0.083388	0.147992	0.114485	0.356331	0.486221	0.153569	0.140693	0.345726	0.158151	0.338739	0.179338	1.053328	0.650156	0.062257	0.132694	0.075620	0.169701	0.285782	0.208214	0.768437	0.464276	0.400413	0.095343	0.055448	0.064318	0.222627	0.121722	0.526228	0.564294	0.194492	0.099870	0.124165	0.121092	0.176938	0.193287	0.407476	0.331971	0.040465	0.108997	0.096231	0.078814	0.442340	0.123311	0.277405	0.123746	0.059784	0.069588	0.146686	0.084862	0.066882	0.173126	0.135564	0.058721	0.035646	0.126927	0.096488	0.148321
97	0.221582	0.160181	0.540451	0.538120	0.041664	0.097526	0.044652	0.046197	0.076776	0.108540	0.509224	0.237450	0.113137	0.413985	0.157828	0.138594	0.161652	0.112883	0.412998	0.617805	0.098817	0.048594	0.096367	0.082868	0.151867	0.120466	0.366649	0.502501	0.120560	0.091815	0.306704	0.155617	0.340442	0.188578	1.081965	0.666822	0.062210	0.132559	0.074242	0.160950	0.323646	0.205052	0.753154	0.459762	0.383452	0.088538	0.063013	0.064805	0.203380	0.120793	0.540112	0.596235	0.194394	0.090593	0.115941	0.100843	0.158444	0.168630	0.401362	0.372075	0.040399	0.099879	0.095909	0.063929	0.430453	0.116386	0.249367	0.092912	0.048475	0.055417	0.124453	0.083848	0.065064	0.152855	0.128005	0.059951	0.051448	0.075114	0.104517	0.155680
98	0.220823	0.161321	0.531218	0.535023	0.042448	0.106078	0.044470	0.044980	0.127781	0.153097	0.516572	0.237464	0.115749	0.415912	0.157358	0.141582	0.162801	0.111903	0.374368	0.601186	0.060944	0.038491	0.069892	0.078966	0.163899	0.127598	0.366359	0.487524	0.108187	0.117431	0.300843	0.154562	0.346091	0.188958	1.087161	0.668425	0.062272	0.132508	0.072653	0.144968	0.316752	0.198693	0.740869	0.454484	0.382035	0.086662	0.066552	0.065043	0.203201	0.125968	0.589793	0.593507	0.193882	0.074344	0.089053	0.098630	0.109063	0.130470	0.319225	0.375678	0.045371	0.115930	0.091173	0.054035	0.411260	0.112458	0.238417	0.094788	0.040131	0.045402	0.085307	0.086300	0.063943	0.152705	0.111743	0.063695	0.066473	0.082444	0.105006	0.179319
99	0.220190	0.161354	0.524692	0.504500	0.046911	0.114136	0.042958	0.042804	0.133049	0.159084	0.522523	0.266882	0.125151	0.415892	0.152675	0.164535	0.162847	0.099559	0.372405	0.580925	0.042493	0.027091	0.059661	0.068049	0.173578	0.130110	0.376464	0.478753	0.071815	0.120064	0.248985	0.144246	0.351602	0.190816	1.062288	0.674335	0.062435	0.132529	0.065581	0.143627	0.314516	0.186485	0.728425	0.445109	0.249070	0.088015	0.067598	0.065032	0.202533	0.127685	0.593678	0.541338	0.190468	0.062297	0.053258	0.123414	0.095910	0.122923	0.258388	0.394949	0.053895	0.182062	0.078929	0.052309	0.410421	0.112278	0.240085	0.103936	0.038509	0.045037	0.073622	0.086125	0.064250	0.150468	0.104333	0.064995	0.086331	0.106840	0.115359	0.192903
100	0.221132	0.160810	0.522787	0.491475	0.074798	0.124551	0.042918	0.037274	0.148561	0.173831	0.547117	0.306687	0.127301	0.406854	0.134847	0.167141	0.144184	0.089351	0.356643	0.592234	0.031665	0.036679	0.058851	0.066816	0.176018	0.130960	0.380290	0.532929	0.054417	0.139955	0.157745	0.135363	0.376090	0.197799	1.070993	0.663055	0.059763	0.132089	0.059685	0.152210	0.302669	0.178362	0.673395	0.442078	0.212370	0.090294	0.066633	0.056682	0.159976	0.119231	0.514750	0.515105	0.181813	0.062777	0.054885	0.139399	0.091035	0.124422	0.275667	0.447876	0.061840	0.232812	0.065010	0.052113	0.411887	0.091686	0.237428	0.121670	0.034737	0.040980	0.072482	0.076827	0.059381	0.147986	0.074525	0.057172	0.094450	0.136663	0.117274	0.191967
101	0.222079	0.157004	0.508381	0.489001	0.108038	0.217471	0.042517	0.033489	0.173778	0.182005	0.562976	0.289666	0.117893	0.362964	0.125609	0.166917	0.139759	0.089012	0.327595	0.589004	0.029033	0.052961	0.059689	0.084201	0.173035	0.125572	0.383071	0.600416	0.056091	0.144415	0.119713	0.123138	0.409913	0.217004	1.120754	0.679637	0.051537	0.131902	0.051582	0.159605	0.319372	0.183383	0.579907	0.447777	0.215255	0.089461	0.066166	0.041006	0.136961	0.112320	0.463926	0.510514	0.169666	0.081204	0.083835	0.141839	0.082092	0.117533	0.281278	0.464233	0.079014	0.288646	0.050602	0.046004	0.381189	0.058308	0.198014	0.163689	0.027316	0.040629	0.059469	0.056336	0.043016	0.127691	0.043180	0.052049	0.096392	0.157886	0.118862	0.190571
