	111_F_P_sh_R_D_A_01.c3d	111_F_P_sh_R_D_A_01.c3d	111_F_P_sh_R_D_A_01.c3d	111_F_P_sh_R_D_A_01.c3d	111_F_P_sh_R_D_A_01.c3d	111_F_P_sh_R_D_A_01.c3d	111_F_P_sh_R_D_A_01.c3d	111_F_P_sh_R_D_A_01.c3d	111_F_P_sh_R_D_A_03.c3d	111_F_P_sh_R_D_A_03.c3d	111_F_P_sh_R_D_A_03.c3d	111_F_P_sh_R_D_A_03.c3d	111_F_P_sh_R_D_A_03.c3d	111_F_P_sh_R_D_A_03.c3d	111_F_P_sh_R_D_A_03.c3d	111_F_P_sh_R_D_A_03.c3d	111_F_P_sh_R_D_A_04.c3d	111_F_P_sh_R_D_A_04.c3d	111_F_P_sh_R_D_A_04.c3d	111_F_P_sh_R_D_A_04.c3d	111_F_P_sh_R_D_A_04.c3d	111_F_P_sh_R_D_A_04.c3d	111_F_P_sh_R_D_A_04.c3d	111_F_P_sh_R_D_A_04.c3d	111_F_P_sh_R_D_A_05.c3d	111_F_P_sh_R_D_A_05.c3d	111_F_P_sh_R_D_A_05.c3d	111_F_P_sh_R_D_A_05.c3d	111_F_P_sh_R_D_A_05.c3d	111_F_P_sh_R_D_A_05.c3d	111_F_P_sh_R_D_A_05.c3d	111_F_P_sh_R_D_A_05.c3d	111_F_P_sh_R_D_A_06.c3d	111_F_P_sh_R_D_A_06.c3d	111_F_P_sh_R_D_A_06.c3d	111_F_P_sh_R_D_A_06.c3d	111_F_P_sh_R_D_A_06.c3d	111_F_P_sh_R_D_A_06.c3d	111_F_P_sh_R_D_A_06.c3d	111_F_P_sh_R_D_A_06.c3d	111_F_P_sh_R_D_A_08.c3d	111_F_P_sh_R_D_A_08.c3d	111_F_P_sh_R_D_A_08.c3d	111_F_P_sh_R_D_A_08.c3d	111_F_P_sh_R_D_A_08.c3d	111_F_P_sh_R_D_A_08.c3d	111_F_P_sh_R_D_A_08.c3d	111_F_P_sh_R_D_A_08.c3d	111_F_P_sh_R_D_A_09.c3d	111_F_P_sh_R_D_A_09.c3d	111_F_P_sh_R_D_A_09.c3d	111_F_P_sh_R_D_A_09.c3d	111_F_P_sh_R_D_A_09.c3d	111_F_P_sh_R_D_A_09.c3d	111_F_P_sh_R_D_A_09.c3d	111_F_P_sh_R_D_A_09.c3d	111_F_P_sh_R_D_A_10.c3d	111_F_P_sh_R_D_A_10.c3d	111_F_P_sh_R_D_A_10.c3d	111_F_P_sh_R_D_A_10.c3d	111_F_P_sh_R_D_A_10.c3d	111_F_P_sh_R_D_A_10.c3d	111_F_P_sh_R_D_A_10.c3d	111_F_P_sh_R_D_A_10.c3d	111_F_P_sh_R_D_A_11.c3d	111_F_P_sh_R_D_A_11.c3d	111_F_P_sh_R_D_A_11.c3d	111_F_P_sh_R_D_A_11.c3d	111_F_P_sh_R_D_A_11.c3d	111_F_P_sh_R_D_A_11.c3d	111_F_P_sh_R_D_A_11.c3d	111_F_P_sh_R_D_A_11.c3d	111_F_P_sh_R_D_A_13.c3d	111_F_P_sh_R_D_A_13.c3d	111_F_P_sh_R_D_A_13.c3d	111_F_P_sh_R_D_A_13.c3d	111_F_P_sh_R_D_A_13.c3d	111_F_P_sh_R_D_A_13.c3d	111_F_P_sh_R_D_A_13.c3d	111_F_P_sh_R_D_A_13.c3d
	Biceps femoris_lat	Semitendinosus_lat	Vastus lateralis_lat	Vastus medialis_lat	Biceps femoris_med	Semitendinosus_med	Vastus lateralis_med	Vastus medialis_med	Biceps femoris_lat	Semitendinosus_lat	Vastus lateralis_lat	Vastus medialis_lat	Biceps femoris_med	Semitendinosus_med	Vastus lateralis_med	Vastus medialis_med	Biceps femoris_lat	Semitendinosus_lat	Vastus lateralis_lat	Vastus medialis_lat	Biceps femoris_med	Semitendinosus_med	Vastus lateralis_med	Vastus medialis_med	Biceps femoris_lat	Semitendinosus_lat	Vastus lateralis_lat	Vastus medialis_lat	Biceps femoris_med	Semitendinosus_med	Vastus lateralis_med	Vastus medialis_med	Biceps femoris_lat	Semitendinosus_lat	Vastus lateralis_lat	Vastus medialis_lat	Biceps femoris_med	Semitendinosus_med	Vastus lateralis_med	Vastus medialis_med	Biceps femoris_lat	Semitendinosus_lat	Vastus lateralis_lat	Vastus medialis_lat	Biceps femoris_med	Semitendinosus_med	Vastus lateralis_med	Vastus medialis_med	Biceps femoris_lat	Semitendinosus_lat	Vastus lateralis_lat	Vastus medialis_lat	Biceps femoris_med	Semitendinosus_med	Vastus lateralis_med	Vastus medialis_med	Biceps femoris_lat	Semitendinosus_lat	Vastus lateralis_lat	Vastus medialis_lat	Biceps femoris_med	Semitendinosus_med	Vastus lateralis_med	Vastus medialis_med	Biceps femoris_lat	Semitendinosus_lat	Vastus lateralis_lat	Vastus medialis_lat	Biceps femoris_med	Semitendinosus_med	Vastus lateralis_med	Vastus medialis_med	Biceps femoris_lat	Semitendinosus_lat	Vastus lateralis_lat	Vastus medialis_lat	Biceps femoris_med	Semitendinosus_med	Vastus lateralis_med	Vastus medialis_med
	P2D	P2D	P2D	P2D	P2D	P2D	P2D	P2D	P2D	P2D	P2D	P2D	P2D	P2D	P2D	P2D	P2D	P2D	P2D	P2D	P2D	P2D	P2D	P2D	P2D	P2D	P2D	P2D	P2D	P2D	P2D	P2D	P2D	P2D	P2D	P2D	P2D	P2D	P2D	P2D	P2D	P2D	P2D	P2D	P2D	P2D	P2D	P2D	P2D	P2D	P2D	P2D	P2D	P2D	P2D	P2D	P2D	P2D	P2D	P2D	P2D	P2D	P2D	P2D	P2D	P2D	P2D	P2D	P2D	P2D	P2D	P2D	P2D	P2D	P2D	P2D	P2D	P2D	P2D	P2D
	EMG_lat	EMG_lat	EMG_lat	EMG_lat	EMG_med	EMG_med	EMG_med	EMG_med	EMG_lat	EMG_lat	EMG_lat	EMG_lat	EMG_med	EMG_med	EMG_med	EMG_med	EMG_lat	EMG_lat	EMG_lat	EMG_lat	EMG_med	EMG_med	EMG_med	EMG_med	EMG_lat	EMG_lat	EMG_lat	EMG_lat	EMG_med	EMG_med	EMG_med	EMG_med	EMG_lat	EMG_lat	EMG_lat	EMG_lat	EMG_med	EMG_med	EMG_med	EMG_med	EMG_lat	EMG_lat	EMG_lat	EMG_lat	EMG_med	EMG_med	EMG_med	EMG_med	EMG_lat	EMG_lat	EMG_lat	EMG_lat	EMG_med	EMG_med	EMG_med	EMG_med	EMG_lat	EMG_lat	EMG_lat	EMG_lat	EMG_med	EMG_med	EMG_med	EMG_med	EMG_lat	EMG_lat	EMG_lat	EMG_lat	EMG_med	EMG_med	EMG_med	EMG_med	EMG_lat	EMG_lat	EMG_lat	EMG_lat	EMG_med	EMG_med	EMG_med	EMG_med
ITEM	Y	Y	Y	Y	Y	Y	Y	Y	Y	Y	Y	Y	Y	Y	Y	Y	Y	Y	Y	Y	Y	Y	Y	Y	Y	Y	Y	Y	Y	Y	Y	Y	Y	Y	Y	Y	Y	Y	Y	Y	Y	Y	Y	Y	Y	Y	Y	Y	Y	Y	Y	Y	Y	Y	Y	Y	Y	Y	Y	Y	Y	Y	Y	Y	Y	Y	Y	Y	Y	Y	Y	Y	Y	Y	Y	Y	Y	Y	Y	Y
1	0.135017	0.195029	0.162627	0.169298	0.094555	0.142389	0.277689	0.313253	0.099206	0.197259	0.195869	0.256145	0.081756	0.104331	0.214448	0.164678	0.138767	0.178673	0.142307	0.157907	0.546325	0.123927	0.277520	0.197841	0.123869	0.360653	0.135967	0.162500	0.067486	0.087956	0.222208	0.408124	0.199035	0.258339	0.211888	0.254454	0.362207	0.234346	0.166250	0.273685	0.171484	0.464196	0.220425	0.279375	0.147585	0.239923	0.286967	0.300257	0.107955	0.146286	0.147913	0.253880	0.047233	0.118459	0.225775	0.201381	0.229093	0.679361	0.173724	0.189125	0.190364	0.280115	0.208811	0.211325	0.268668	0.338882	0.269056	0.386776	0.161503	0.106625	0.415845	0.283567	0.184157	0.526100	0.197473	0.190018	0.164770	0.140372	0.194294	0.195883
2	0.134442	0.194157	0.160923	0.164134	0.097779	0.133995	0.282145	0.315789	0.097489	0.204547	0.209303	0.253425	0.060516	0.062999	0.191029	0.175055	0.136511	0.170949	0.149551	0.157324	0.488455	0.122726	0.285498	0.180674	0.129389	0.343711	0.162994	0.159122	0.063307	0.089782	0.225448	0.407606	0.188105	0.256836	0.216900	0.234445	0.363597	0.262041	0.169957	0.278936	0.162401	0.446693	0.224187	0.248636	0.145770	0.241626	0.266295	0.285163	0.102887	0.147983	0.147634	0.243428	0.045292	0.115450	0.270365	0.190988	0.228119	0.658111	0.182114	0.180971	0.180532	0.264947	0.209754	0.217760	0.268445	0.328709	0.261767	0.448751	0.158815	0.106760	0.407891	0.280746	0.150683	0.514746	0.174295	0.205031	0.142238	0.073493	0.191941	0.200493
3	0.113970	0.180146	0.157746	0.179356	0.100728	0.128916	0.277536	0.333320	0.094970	0.209486	0.261593	0.250014	0.056171	0.053042	0.193743	0.178387	0.128519	0.171079	0.158965	0.162324	0.490895	0.142352	0.288818	0.180257	0.133303	0.347961	0.214335	0.153110	0.071186	0.099074	0.238951	0.395306	0.153499	0.244669	0.213704	0.233494	0.360283	0.301903	0.187820	0.274033	0.159794	0.364370	0.227514	0.241399	0.145016	0.242354	0.260864	0.275180	0.102877	0.137194	0.148539	0.249570	0.047861	0.116230	0.296215	0.190008	0.220747	0.624364	0.184969	0.182020	0.169250	0.257804	0.207876	0.234483	0.251857	0.293880	0.261564	0.480465	0.159455	0.103331	0.401548	0.282073	0.142940	0.421374	0.177526	0.211534	0.150754	0.065455	0.189342	0.190345
4	0.073131	0.147053	0.121222	0.162953	0.107925	0.117886	0.261260	0.384636	0.094047	0.245763	0.322350	0.244226	0.055764	0.050684	0.193704	0.178070	0.121113	0.164643	0.159540	0.182938	0.491524	0.168843	0.293737	0.199170	0.135804	0.339930	0.239643	0.148243	0.080226	0.105824	0.278530	0.361069	0.133591	0.230858	0.214070	0.252630	0.347289	0.307652	0.191265	0.235808	0.158887	0.299436	0.241396	0.246274	0.145439	0.238623	0.269004	0.273158	0.099901	0.105105	0.150115	0.255623	0.051896	0.116278	0.329247	0.190846	0.210820	0.614876	0.187027	0.182484	0.156723	0.256915	0.210743	0.249537	0.188667	0.292352	0.282952	0.500500	0.157934	0.088526	0.382846	0.247901	0.138024	0.343332	0.181927	0.212854	0.160614	0.063661	0.183102	0.191804
5	0.060669	0.135165	0.118736	0.125225	0.125855	0.099812	0.250549	0.420953	0.090151	0.224831	0.336306	0.253488	0.055198	0.051502	0.191944	0.171345	0.122411	0.143214	0.167797	0.203226	0.491948	0.220952	0.294753	0.233172	0.135405	0.333053	0.241345	0.144172	0.080588	0.106136	0.276769	0.330282	0.129205	0.205626	0.229005	0.265927	0.221775	0.313292	0.189075	0.168510	0.155465	0.296853	0.238916	0.240590	0.142862	0.233019	0.261486	0.273868	0.093960	0.098329	0.186746	0.257534	0.052805	0.108695	0.351466	0.189565	0.198968	0.481522	0.196593	0.180759	0.119542	0.241752	0.213699	0.243894	0.131112	0.290787	0.285074	0.508769	0.152630	0.074713	0.363570	0.191182	0.142098	0.318913	0.185246	0.213495	0.150430	0.074562	0.182581	0.183753
6	0.111428	0.128285	0.146765	0.121442	0.129289	0.091937	0.278850	0.436669	0.077718	0.198593	0.377023	0.279567	0.061762	0.052223	0.187688	0.160622	0.132016	0.143972	0.221355	0.196826	0.484338	0.226864	0.282958	0.248003	0.126656	0.278480	0.242845	0.136127	0.078940	0.107547	0.254524	0.330795	0.123860	0.190678	0.210997	0.279989	0.169830	0.310941	0.184315	0.138839	0.155020	0.303789	0.224215	0.229271	0.147748	0.230954	0.264356	0.269306	0.076555	0.095873	0.213283	0.281601	0.048128	0.082682	0.361094	0.177787	0.197222	0.338645	0.181762	0.172518	0.113710	0.194245	0.241402	0.244389	0.122666	0.264459	0.312792	0.508002	0.155016	0.084717	0.398146	0.188620	0.186569	0.258930	0.201619	0.217592	0.144607	0.079640	0.171611	0.174645
7	0.161095	0.091691	0.158506	0.114973	0.131327	0.080129	0.321619	0.453952	0.061199	0.192642	0.435047	0.276667	0.062350	0.049151	0.189416	0.160385	0.144081	0.157308	0.231990	0.200092	0.453192	0.252575	0.255969	0.244713	0.114030	0.280363	0.238055	0.135347	0.074638	0.113347	0.248177	0.329421	0.124028	0.188749	0.205507	0.311420	0.180509	0.309854	0.180175	0.140065	0.153217	0.306012	0.203666	0.238560	0.145758	0.230125	0.262833	0.263136	0.077304	0.101456	0.216034	0.297646	0.047966	0.069076	0.361946	0.177470	0.190537	0.329049	0.195211	0.177739	0.116979	0.166255	0.252278	0.270701	0.127717	0.215580	0.333400	0.508407	0.163053	0.082530	0.391373	0.199434	0.193101	0.195388	0.207928	0.214079	0.140734	0.079686	0.179471	0.188312
8	0.235158	0.147995	0.179370	0.156934	0.135871	0.078468	0.358307	0.462498	0.057837	0.186004	0.440628	0.281484	0.058292	0.047058	0.185721	0.156623	0.149468	0.156701	0.240739	0.201249	0.411062	0.269340	0.252821	0.247991	0.109410	0.344607	0.236249	0.142496	0.073256	0.123595	0.247974	0.328865	0.113892	0.193826	0.217942	0.303724	0.180806	0.307656	0.181548	0.135608	0.142230	0.288641	0.204588	0.221250	0.136619	0.225780	0.254526	0.274056	0.077655	0.105802	0.218091	0.299861	0.049183	0.069177	0.361942	0.173470	0.175842	0.326046	0.207137	0.242502	0.115875	0.142337	0.249639	0.278476	0.126331	0.200609	0.322640	0.511580	0.165840	0.068008	0.350261	0.195831	0.191956	0.170621	0.223399	0.212465	0.141698	0.079959	0.181645	0.191512
9	0.371480	0.184543	0.181506	0.167109	0.144386	0.077588	0.366278	0.456688	0.058361	0.187965	0.447503	0.294065	0.060057	0.050107	0.171338	0.157448	0.146715	0.157011	0.247865	0.203477	0.396505	0.292532	0.243949	0.241577	0.105965	0.436675	0.234986	0.144866	0.081067	0.150627	0.254567	0.286071	0.109591	0.186329	0.217940	0.299380	0.155717	0.292035	0.178208	0.143223	0.116401	0.251461	0.189688	0.205022	0.122520	0.213195	0.229029	0.289230	0.077050	0.095839	0.214535	0.300061	0.048565	0.068616	0.368774	0.176405	0.153917	0.326915	0.207579	0.261881	0.107451	0.138640	0.278297	0.274489	0.116906	0.201781	0.311189	0.504752	0.160415	0.065285	0.342913	0.182142	0.191999	0.167189	0.232163	0.213490	0.136894	0.079819	0.181054	0.183142
10	0.398433	0.268219	0.174897	0.210095	0.150564	0.077257	0.358634	0.450682	0.057962	0.192373	0.443938	0.300821	0.062237	0.057084	0.183969	0.155807	0.142068	0.156848	0.249910	0.202095	0.270773	0.305427	0.201369	0.263900	0.105337	0.448921	0.240910	0.172928	0.083393	0.155157	0.262323	0.223585	0.101010	0.155031	0.229168	0.327280	0.132745	0.261813	0.182717	0.157441	0.084134	0.211147	0.183429	0.209927	0.133936	0.189891	0.218926	0.286742	0.075976	0.083950	0.196056	0.298280	0.047441	0.056509	0.363643	0.174340	0.141567	0.329493	0.208168	0.259647	0.102060	0.140882	0.290894	0.267281	0.108705	0.197970	0.305885	0.490969	0.157411	0.068874	0.342162	0.186710	0.192094	0.167013	0.226374	0.223563	0.118385	0.080223	0.191611	0.216131
11	0.405492	0.347370	0.180846	0.238081	0.154535	0.075807	0.355147	0.453523	0.055358	0.196944	0.444796	0.295439	0.060463	0.057418	0.187860	0.161020	0.135428	0.158224	0.251736	0.183939	0.176198	0.307600	0.186557	0.269835	0.104748	0.432065	0.267826	0.245011	0.089585	0.152239	0.250181	0.240709	0.089624	0.121148	0.253702	0.348855	0.115386	0.241024	0.220877	0.157629	0.069654	0.189976	0.198147	0.214227	0.165418	0.174950	0.177338	0.343527	0.068607	0.081866	0.188975	0.286293	0.054900	0.055007	0.363910	0.164799	0.134405	0.323242	0.204148	0.247848	0.092455	0.138980	0.288537	0.269359	0.106781	0.188717	0.305306	0.521560	0.129927	0.077316	0.331812	0.196708	0.192139	0.166451	0.217764	0.243593	0.110616	0.095913	0.186740	0.240471
12	0.405531	0.353043	0.178293	0.239276	0.187042	0.077518	0.367546	0.476252	0.055537	0.202062	0.447830	0.301696	0.055072	0.056741	0.189481	0.169856	0.132695	0.148408	0.246941	0.166856	0.127231	0.308677	0.220824	0.280690	0.102439	0.405684	0.280170	0.314423	0.090562	0.150584	0.242798	0.232046	0.073709	0.096970	0.254634	0.345904	0.112442	0.238262	0.249799	0.189601	0.068443	0.172359	0.260058	0.273883	0.174707	0.159481	0.170344	0.382888	0.051460	0.081745	0.191432	0.284206	0.066409	0.057197	0.361695	0.157385	0.111881	0.303574	0.203223	0.230054	0.096840	0.139207	0.309336	0.265409	0.099440	0.188773	0.307911	0.537787	0.126871	0.080869	0.294300	0.198630	0.190465	0.163509	0.215316	0.237855	0.110353	0.127526	0.183956	0.256271
13	0.404885	0.351452	0.159924	0.241725	0.196896	0.082302	0.403470	0.515723	0.057483	0.201467	0.465499	0.273562	0.055764	0.064843	0.185243	0.223782	0.121784	0.135690	0.242729	0.170135	0.115619	0.314273	0.242947	0.352694	0.102292	0.407146	0.280312	0.355738	0.088852	0.144293	0.221050	0.214020	0.072475	0.102547	0.291871	0.337857	0.105413	0.239228	0.249502	0.197559	0.062203	0.141848	0.267704	0.372459	0.183050	0.160839	0.165797	0.383731	0.032498	0.081061	0.194986	0.267407	0.066069	0.052356	0.338397	0.153087	0.108124	0.280122	0.215696	0.220084	0.103763	0.140236	0.309508	0.246203	0.093861	0.192932	0.327678	0.537829	0.128276	0.083539	0.268552	0.199213	0.189065	0.138345	0.217643	0.238294	0.109096	0.126404	0.189589	0.258400
14	0.390037	0.357776	0.151866	0.239492	0.196489	0.086442	0.412898	0.520888	0.058064	0.194349	0.485441	0.258460	0.065581	0.076242	0.230637	0.244278	0.112576	0.130951	0.238372	0.180136	0.116430	0.319791	0.238380	0.400010	0.101128	0.409037	0.273983	0.372669	0.101130	0.151114	0.230166	0.222905	0.076380	0.121245	0.294781	0.330214	0.101066	0.216886	0.244029	0.190558	0.053239	0.118421	0.262725	0.438890	0.185762	0.198427	0.162344	0.377762	0.028493	0.082671	0.191613	0.253177	0.065697	0.056884	0.328833	0.132814	0.106099	0.264755	0.214981	0.221191	0.128187	0.139511	0.305884	0.239311	0.094173	0.192861	0.340163	0.538515	0.130462	0.086298	0.259140	0.201302	0.187422	0.132900	0.220067	0.234675	0.102491	0.126468	0.193238	0.258811
15	0.360980	0.382836	0.118183	0.236693	0.196313	0.087093	0.410603	0.509367	0.067605	0.188176	0.483735	0.261454	0.069155	0.075147	0.304971	0.244884	0.108995	0.128912	0.240767	0.183961	0.114071	0.323223	0.232597	0.405698	0.107576	0.439372	0.264217	0.373617	0.109727	0.157687	0.291423	0.219027	0.076379	0.129506	0.297135	0.328263	0.099920	0.213079	0.253200	0.170365	0.057956	0.119191	0.270188	0.458461	0.178265	0.205704	0.161365	0.368214	0.031653	0.087034	0.187015	0.281638	0.072745	0.057726	0.303838	0.119844	0.105284	0.233377	0.208957	0.221728	0.143492	0.137778	0.305283	0.238082	0.095035	0.192442	0.316600	0.536279	0.116250	0.086148	0.261362	0.198154	0.182716	0.133410	0.231978	0.243086	0.103589	0.122059	0.194037	0.257935
16	0.330537	0.411261	0.096886	0.221437	0.196425	0.089412	0.414924	0.496174	0.082069	0.193089	0.510819	0.278804	0.071499	0.082715	0.321869	0.275170	0.108746	0.128329	0.255696	0.178229	0.103924	0.324398	0.276498	0.405088	0.128858	0.459500	0.276894	0.402500	0.103789	0.156668	0.291378	0.249243	0.074783	0.130747	0.307601	0.321373	0.094359	0.162550	0.262934	0.163959	0.062949	0.122879	0.314000	0.454374	0.183024	0.202513	0.176328	0.368013	0.040391	0.090729	0.187008	0.312349	0.071405	0.059715	0.301223	0.122417	0.106557	0.167521	0.205897	0.220539	0.146849	0.137918	0.304733	0.228961	0.095528	0.193055	0.300780	0.504429	0.102100	0.085457	0.259842	0.196920	0.168047	0.104967	0.254579	0.287214	0.102809	0.125728	0.200096	0.297307
17	0.133988	0.418107	0.094617	0.282638	0.196443	0.094479	0.411230	0.498942	0.083554	0.183006	0.507825	0.318123	0.083678	0.102866	0.322276	0.287766	0.106788	0.130756	0.267736	0.151136	0.103292	0.321555	0.406173	0.410375	0.137624	0.482179	0.263399	0.467659	0.123441	0.163449	0.346338	0.287307	0.076548	0.132654	0.297031	0.313589	0.092376	0.101417	0.260650	0.170014	0.068125	0.112142	0.348391	0.458874	0.185281	0.201525	0.181051	0.367395	0.040761	0.088497	0.191733	0.319956	0.070166	0.096620	0.276774	0.131680	0.107895	0.157216	0.207796	0.227967	0.149665	0.138058	0.308514	0.210675	0.094699	0.190954	0.304177	0.485931	0.101579	0.086484	0.256975	0.188918	0.160104	0.083148	0.258863	0.325375	0.083111	0.136586	0.209721	0.317019
18	0.088082	0.336583	0.139524	0.332576	0.192615	0.091218	0.414691	0.514421	0.080711	0.125165	0.480884	0.344872	0.084208	0.108853	0.332209	0.286682	0.097178	0.139466	0.234266	0.166502	0.111225	0.284149	0.441595	0.410223	0.137000	0.492258	0.229229	0.515282	0.138073	0.181812	0.406331	0.292306	0.076664	0.132452	0.284873	0.308426	0.090926	0.091491	0.261578	0.176938	0.068074	0.115832	0.367902	0.501456	0.185534	0.197891	0.186309	0.369560	0.041020	0.087300	0.192341	0.324955	0.082114	0.129361	0.243147	0.153067	0.116656	0.163147	0.219626	0.243468	0.177924	0.132476	0.302868	0.188363	0.097655	0.198387	0.301047	0.499204	0.102045	0.108665	0.246927	0.188739	0.153434	0.069062	0.287659	0.327975	0.080068	0.138666	0.223528	0.313571
19	0.090837	0.338335	0.217971	0.329584	0.191057	0.086615	0.411723	0.538235	0.078105	0.125069	0.475761	0.349859	0.088520	0.110901	0.344113	0.297246	0.076290	0.144572	0.212796	0.205215	0.130818	0.278520	0.452661	0.419456	0.136131	0.493779	0.223741	0.532551	0.139310	0.181327	0.408512	0.292580	0.076925	0.130501	0.291974	0.287226	0.094752	0.089908	0.260697	0.175440	0.076453	0.133143	0.369375	0.569036	0.182288	0.197137	0.210444	0.378301	0.057094	0.111041	0.222541	0.319806	0.086036	0.163373	0.233408	0.194224	0.125025	0.157905	0.220707	0.249570	0.260336	0.113794	0.297775	0.197333	0.117989	0.209864	0.307336	0.489064	0.100135	0.120210	0.227603	0.175425	0.154057	0.071868	0.347505	0.327594	0.077405	0.129799	0.225814	0.313901
20	0.100064	0.345425	0.248970	0.393983	0.199639	0.099245	0.412633	0.556731	0.077480	0.127539	0.424278	0.330682	0.088456	0.111352	0.334862	0.305181	0.062991	0.149403	0.205442	0.216877	0.143992	0.272150	0.471159	0.423639	0.136874	0.494143	0.229662	0.543734	0.139336	0.178367	0.410165	0.291348	0.080336	0.134088	0.291303	0.290387	0.090108	0.097245	0.256860	0.174257	0.097040	0.138944	0.438645	0.596066	0.178732	0.202458	0.210678	0.401568	0.061624	0.121330	0.295644	0.324325	0.086718	0.170156	0.247064	0.218051	0.126061	0.148057	0.214444	0.252849	0.266025	0.080719	0.282297	0.203219	0.127217	0.206496	0.309294	0.485980	0.084200	0.136687	0.150942	0.157038	0.160449	0.071750	0.378444	0.334444	0.074069	0.128640	0.201298	0.307746
21	0.113144	0.353631	0.325110	0.429697	0.219611	0.127389	0.419962	0.553437	0.077021	0.128039	0.376041	0.326919	0.087406	0.111484	0.326838	0.304529	0.060874	0.151233	0.205894	0.224066	0.146774	0.255021	0.469421	0.430766	0.138043	0.490988	0.233957	0.545842	0.140314	0.173638	0.412406	0.286916	0.091616	0.137665	0.285714	0.295037	0.067899	0.098913	0.259043	0.173018	0.106217	0.131145	0.459359	0.612405	0.188328	0.219867	0.229424	0.424091	0.065127	0.119877	0.394805	0.356219	0.087957	0.172714	0.261380	0.231303	0.125554	0.148290	0.196765	0.246966	0.264812	0.078322	0.270523	0.170636	0.120255	0.188129	0.275002	0.485772	0.065336	0.137524	0.146201	0.156147	0.119823	0.073014	0.380493	0.339097	0.071427	0.128698	0.187186	0.300919
22	0.108394	0.342412	0.352995	0.430064	0.222208	0.137589	0.439537	0.528238	0.080473	0.128443	0.370466	0.325277	0.085149	0.108319	0.316718	0.303723	0.061479	0.156812	0.200798	0.225097	0.146006	0.228905	0.464936	0.439419	0.137210	0.465259	0.236076	0.542894	0.135735	0.155451	0.408713	0.277197	0.104698	0.143589	0.294977	0.273430	0.066998	0.100588	0.266767	0.175038	0.106794	0.127911	0.456308	0.623176	0.201787	0.233510	0.260942	0.422799	0.066396	0.116281	0.438247	0.426439	0.089002	0.173009	0.276612	0.233816	0.125009	0.146528	0.197886	0.230527	0.265037	0.078716	0.268501	0.148465	0.112741	0.171392	0.251799	0.486819	0.063483	0.136988	0.115585	0.167819	0.084037	0.074199	0.372313	0.337819	0.067377	0.128635	0.188682	0.299198
23	0.106101	0.289767	0.367094	0.433352	0.221283	0.138406	0.431626	0.514246	0.081336	0.126000	0.365478	0.337943	0.085215	0.110206	0.309967	0.301904	0.062205	0.154213	0.194975	0.233128	0.135810	0.199391	0.476142	0.435329	0.135825	0.388580	0.234967	0.543611	0.133964	0.147535	0.403981	0.251958	0.117310	0.151261	0.298448	0.244406	0.065456	0.103002	0.283670	0.177248	0.107676	0.127857	0.455358	0.631892	0.207298	0.235917	0.269041	0.406839	0.070575	0.117674	0.440227	0.488122	0.089323	0.172965	0.275529	0.233490	0.122605	0.139149	0.207138	0.234700	0.265119	0.076308	0.248289	0.144597	0.117579	0.167894	0.249798	0.495848	0.061367	0.136008	0.103458	0.165934	0.085985	0.078690	0.359820	0.337926	0.066266	0.129678	0.185294	0.297182
24	0.104025	0.222101	0.370849	0.460854	0.222849	0.139180	0.403365	0.526999	0.082058	0.118604	0.365862	0.363483	0.084478	0.109632	0.304726	0.307289	0.061657	0.149957	0.199650	0.235145	0.135762	0.191444	0.509767	0.428469	0.137156	0.333442	0.238787	0.539575	0.130191	0.150983	0.404716	0.234260	0.118003	0.153574	0.294568	0.247881	0.064494	0.103606	0.280346	0.172877	0.107696	0.128508	0.454823	0.640851	0.204062	0.237568	0.268626	0.404231	0.075331	0.124231	0.439694	0.521146	0.082232	0.172333	0.263810	0.227519	0.112671	0.136075	0.214466	0.236594	0.263452	0.069413	0.224019	0.149054	0.119985	0.168490	0.243761	0.501080	0.062160	0.129893	0.106898	0.143676	0.086930	0.084684	0.343221	0.338098	0.062713	0.129970	0.173341	0.263953
25	0.099278	0.223462	0.377971	0.397057	0.223948	0.143155	0.368186	0.569301	0.081164	0.124704	0.362980	0.393229	0.082250	0.105932	0.305477	0.292940	0.062720	0.149291	0.198738	0.235048	0.136010	0.190886	0.510771	0.426124	0.143448	0.352129	0.219448	0.521907	0.128734	0.164896	0.409252	0.250670	0.112972	0.152517	0.264749	0.252869	0.064213	0.103685	0.250929	0.166891	0.107646	0.129020	0.454031	0.645540	0.177358	0.232087	0.269888	0.378657	0.080249	0.132747	0.461985	0.541891	0.076015	0.172874	0.257354	0.228052	0.094794	0.149031	0.221360	0.237749	0.263247	0.069239	0.210436	0.145025	0.120243	0.169196	0.249403	0.490718	0.055983	0.126159	0.115448	0.120029	0.087634	0.095895	0.340039	0.345473	0.060004	0.101122	0.167668	0.238973
26	0.111183	0.220340	0.409681	0.365007	0.219571	0.148295	0.352949	0.616126	0.080291	0.138382	0.360841	0.407967	0.075627	0.097112	0.287288	0.268363	0.074305	0.170509	0.211550	0.228701	0.134781	0.187788	0.497235	0.385541	0.150375	0.417555	0.194308	0.481006	0.128276	0.232372	0.409966	0.272387	0.111667	0.165094	0.250328	0.250900	0.064600	0.101686	0.227663	0.141331	0.108241	0.129561	0.431721	0.638411	0.159215	0.224734	0.270101	0.316544	0.088094	0.146364	0.518834	0.555114	0.078889	0.172524	0.254824	0.225167	0.085065	0.184161	0.199220	0.236887	0.258541	0.068268	0.166048	0.151187	0.118997	0.167728	0.259607	0.436747	0.055009	0.125460	0.115259	0.129179	0.091046	0.112239	0.345022	0.328557	0.060722	0.078880	0.174994	0.225454
27	0.102013	0.170332	0.381813	0.377122	0.215424	0.151154	0.353804	0.649393	0.078075	0.155727	0.328599	0.425322	0.068244	0.095640	0.212150	0.266344	0.081997	0.238236	0.205509	0.223504	0.136405	0.201570	0.495343	0.312812	0.156033	0.469960	0.188963	0.450339	0.121437	0.254167	0.401690	0.272415	0.121485	0.174804	0.249611	0.251244	0.062268	0.097940	0.249497	0.139179	0.108176	0.130563	0.415511	0.593319	0.146653	0.219595	0.270173	0.294027	0.102594	0.170607	0.556086	0.556822	0.075836	0.180039	0.255319	0.229179	0.089346	0.218802	0.196480	0.241770	0.255717	0.069016	0.171529	0.184819	0.118772	0.162680	0.255708	0.404501	0.050345	0.127616	0.121940	0.150107	0.095344	0.126827	0.359179	0.325719	0.061373	0.079814	0.176238	0.226786
28	0.082677	0.148849	0.372000	0.299398	0.218193	0.152883	0.375486	0.661095	0.075222	0.172234	0.312874	0.440298	0.067658	0.094390	0.160173	0.238272	0.083460	0.255779	0.199364	0.215694	0.136307	0.210929	0.494921	0.301804	0.165783	0.499005	0.187716	0.435397	0.116620	0.264791	0.357689	0.304560	0.134054	0.192417	0.233228	0.250425	0.062090	0.095873	0.258154	0.141717	0.108584	0.131340	0.416925	0.541089	0.131303	0.177453	0.269631	0.297278	0.110484	0.188982	0.564121	0.554397	0.069166	0.192118	0.243530	0.239324	0.095164	0.224054	0.196751	0.324840	0.244608	0.074120	0.164487	0.205604	0.117424	0.156840	0.228549	0.391267	0.056887	0.133628	0.129353	0.154410	0.101336	0.141616	0.377101	0.337394	0.061908	0.080003	0.196972	0.225700
29	0.078643	0.156099	0.338260	0.298011	0.195158	0.152783	0.381134	0.651313	0.066538	0.170487	0.339559	0.443967	0.052223	0.071245	0.163182	0.212459	0.100982	0.267860	0.207802	0.212752	0.135707	0.226686	0.482260	0.313081	0.171475	0.525812	0.185411	0.446240	0.120041	0.266769	0.351912	0.320260	0.149258	0.209016	0.226776	0.242178	0.057279	0.097338	0.245916	0.144588	0.107155	0.129694	0.418912	0.505697	0.129590	0.151800	0.270014	0.295759	0.113225	0.202687	0.569120	0.552222	0.068184	0.193731	0.202796	0.269754	0.096753	0.232143	0.208643	0.438308	0.236199	0.085027	0.153786	0.209477	0.119199	0.157251	0.206344	0.391636	0.075472	0.168022	0.135085	0.164594	0.113238	0.149833	0.411573	0.336096	0.064472	0.082109	0.244678	0.210401
30	0.089617	0.164937	0.396918	0.301658	0.180653	0.150533	0.347464	0.617190	0.065859	0.171990	0.317059	0.448299	0.044219	0.059578	0.150517	0.192183	0.108507	0.272879	0.201784	0.211238	0.129278	0.224510	0.410046	0.323186	0.157030	0.510684	0.176034	0.473113	0.095421	0.263690	0.278469	0.285775	0.155361	0.308531	0.223939	0.267893	0.057874	0.095090	0.225049	0.145162	0.101912	0.124641	0.401698	0.551165	0.124870	0.151636	0.260637	0.290637	0.113298	0.202348	0.572836	0.559434	0.068359	0.180666	0.200865	0.319984	0.096796	0.257692	0.222840	0.491315	0.232192	0.101726	0.160067	0.209747	0.120944	0.157744	0.203533	0.388534	0.082558	0.204941	0.137610	0.165641	0.117964	0.150462	0.464065	0.342525	0.067602	0.094216	0.248243	0.144012
31	0.088898	0.161097	0.404487	0.266485	0.180481	0.147980	0.314263	0.594894	0.082655	0.201597	0.306025	0.478212	0.030751	0.054384	0.109517	0.171359	0.106701	0.275811	0.204976	0.168751	0.125830	0.237377	0.317988	0.336816	0.174074	0.545645	0.154972	0.483103	0.073833	0.265885	0.155804	0.282641	0.162220	0.310229	0.204297	0.284944	0.057486	0.092004	0.216530	0.144567	0.092110	0.121331	0.365632	0.643930	0.117060	0.155212	0.257203	0.303672	0.111688	0.200687	0.572836	0.574312	0.049686	0.157982	0.204938	0.343416	0.103731	0.288974	0.243553	0.527538	0.230020	0.109272	0.167051	0.209766	0.121835	0.157495	0.199131	0.375732	0.084823	0.232070	0.166134	0.173173	0.119216	0.156991	0.472545	0.346011	0.052999	0.088444	0.261927	0.118915
32	0.086606	0.161669	0.398339	0.226910	0.179882	0.148038	0.296664	0.593662	0.096247	0.252861	0.305789	0.489164	0.049170	0.054280	0.129535	0.156415	0.107655	0.278368	0.211499	0.164840	0.109103	0.236075	0.326214	0.333297	0.182257	0.578568	0.200949	0.439031	0.115811	0.288799	0.155090	0.281495	0.160864	0.306491	0.198365	0.259995	0.057986	0.082476	0.209129	0.164787	0.091413	0.122605	0.334362	0.720802	0.115755	0.165438	0.274361	0.322599	0.114151	0.206802	0.573430	0.602198	0.045770	0.152254	0.210146	0.338785	0.127839	0.350576	0.334702	0.553542	0.215886	0.121560	0.169806	0.213189	0.127419	0.156324	0.200327	0.331398	0.084434	0.291725	0.187635	0.186828	0.124430	0.168281	0.483100	0.317244	0.044880	0.100575	0.255840	0.118033
33	0.086601	0.178534	0.376992	0.258555	0.179936	0.148091	0.283791	0.592830	0.102158	0.266969	0.314706	0.506629	0.068392	0.061095	0.137471	0.149619	0.108782	0.283110	0.206817	0.179313	0.091059	0.230835	0.307716	0.315567	0.193526	0.635972	0.257708	0.404350	0.142551	0.299775	0.212906	0.292288	0.161014	0.316814	0.201893	0.251286	0.055382	0.067120	0.211505	0.209924	0.101307	0.124661	0.334865	0.765655	0.119072	0.184490	0.260017	0.317700	0.115283	0.220469	0.575016	0.614775	0.042573	0.146592	0.217194	0.329063	0.142058	0.408475	0.436323	0.560601	0.096394	0.132244	0.169282	0.207124	0.138584	0.138135	0.199027	0.294842	0.091080	0.290949	0.184931	0.189476	0.125897	0.176208	0.518955	0.295930	0.045544	0.105184	0.255332	0.114558
34	0.063351	0.178159	0.330832	0.289321	0.180867	0.146096	0.281442	0.582555	0.106747	0.279147	0.355960	0.536841	0.105197	0.089273	0.153013	0.160842	0.114538	0.295412	0.205806	0.188945	0.108893	0.277305	0.319834	0.310564	0.205671	0.660226	0.258419	0.394101	0.150463	0.300044	0.233392	0.345247	0.161104	0.324373	0.192744	0.242751	0.067101	0.062580	0.207872	0.281540	0.147160	0.136543	0.349305	0.817056	0.117920	0.183777	0.245056	0.311211	0.110700	0.218191	0.570326	0.632160	0.048909	0.144812	0.211629	0.343079	0.148493	0.426666	0.448825	0.625135	0.065881	0.130907	0.165629	0.191813	0.124877	0.103281	0.167948	0.332406	0.094738	0.288998	0.187054	0.196993	0.124017	0.182381	0.529430	0.295361	0.053017	0.124882	0.265521	0.129868
35	0.070241	0.166875	0.386285	0.288431	0.179664	0.143784	0.276580	0.563874	0.113758	0.290672	0.408195	0.562605	0.176345	0.100005	0.177359	0.169877	0.115322	0.296156	0.244758	0.192399	0.125401	0.289663	0.320122	0.300231	0.207404	0.665793	0.262314	0.385574	0.152106	0.298305	0.241414	0.387188	0.154938	0.322157	0.166055	0.242986	0.082489	0.189857	0.203498	0.329581	0.188699	0.171507	0.371485	0.815485	0.108874	0.172438	0.291476	0.284074	0.114075	0.225800	0.545676	0.650580	0.050679	0.145147	0.189749	0.375529	0.157933	0.435049	0.505273	0.653658	0.065080	0.133255	0.161061	0.180270	0.112957	0.083152	0.167914	0.394722	0.094259	0.289024	0.236383	0.195755	0.117926	0.189928	0.532697	0.295368	0.056268	0.131672	0.279954	0.133206
36	0.071423	0.147726	0.495859	0.304571	0.174743	0.140660	0.274815	0.541687	0.114513	0.290655	0.414739	0.559765	0.197580	0.098974	0.180879	0.169380	0.115119	0.294577	0.280948	0.215629	0.126525	0.289779	0.314493	0.296570	0.209065	0.666258	0.259624	0.382306	0.152819	0.299861	0.240178	0.402777	0.150677	0.320508	0.139626	0.232759	0.082654	0.208029	0.205018	0.333774	0.198697	0.192383	0.411868	0.813389	0.080663	0.146282	0.280195	0.264832	0.121461	0.239391	0.500143	0.639010	0.057825	0.146738	0.216332	0.396524	0.174152	0.446162	0.516339	0.651049	0.069989	0.141884	0.165176	0.176853	0.112656	0.085833	0.169692	0.429754	0.093840	0.290624	0.256021	0.189798	0.118538	0.196308	0.539795	0.303961	0.056314	0.131628	0.279442	0.133465
37	0.053742	0.138415	0.457772	0.318003	0.161509	0.131395	0.272340	0.519836	0.114520	0.292509	0.414962	0.551253	0.263979	0.100407	0.183470	0.144636	0.116690	0.294554	0.308190	0.308761	0.126891	0.289323	0.275761	0.302810	0.212777	0.669733	0.284308	0.385312	0.156049	0.299176	0.242771	0.405825	0.153293	0.325947	0.139133	0.241011	0.082988	0.207106	0.225095	0.333399	0.199159	0.193980	0.413750	0.860721	0.051783	0.131558	0.263227	0.266221	0.122374	0.245170	0.444985	0.587324	0.064455	0.145756	0.216284	0.406705	0.175761	0.446709	0.514856	0.662404	0.073691	0.155829	0.153635	0.177583	0.116739	0.106033	0.183902	0.481246	0.094175	0.291176	0.269292	0.195058	0.119959	0.196960	0.539669	0.314081	0.056206	0.144809	0.279084	0.133349
38	0.051043	0.147250	0.441284	0.339732	0.134705	0.104859	0.267348	0.492154	0.118388	0.298572	0.420310	0.544202	0.277233	0.100920	0.184716	0.121851	0.112869	0.299801	0.307570	0.424836	0.127542	0.288883	0.253576	0.305994	0.214894	0.670104	0.364936	0.405881	0.159337	0.293554	0.266123	0.392951	0.159339	0.328857	0.209773	0.262614	0.081304	0.208347	0.236545	0.358427	0.200444	0.194949	0.461478	0.922659	0.061568	0.129952	0.272970	0.276933	0.120568	0.242348	0.486949	0.536042	0.063925	0.143625	0.217238	0.415367	0.175157	0.439329	0.522610	0.675666	0.071644	0.165563	0.133470	0.174475	0.120152	0.145144	0.198696	0.504530	0.096924	0.291619	0.286547	0.196650	0.118357	0.199925	0.552292	0.325143	0.056532	0.191976	0.279030	0.134279
39	0.051200	0.150774	0.449674	0.340209	0.097583	0.086765	0.219180	0.483472	0.120578	0.302944	0.419548	0.562143	0.279692	0.108692	0.183675	0.121835	0.119861	0.276202	0.411485	0.492954	0.128552	0.291048	0.248164	0.305944	0.212808	0.668651	0.385393	0.439806	0.161666	0.248160	0.288913	0.388214	0.161203	0.339954	0.247639	0.370079	0.082508	0.209004	0.239160	0.392483	0.214168	0.195485	0.476076	0.973203	0.066115	0.147791	0.272129	0.282207	0.119590	0.238910	0.525071	0.499957	0.061570	0.150741	0.221287	0.419315	0.173922	0.423130	0.527295	0.678189	0.071462	0.168523	0.146335	0.174527	0.125900	0.179639	0.208452	0.506068	0.098570	0.292204	0.292806	0.189647	0.124786	0.211553	0.588654	0.327316	0.067338	0.198820	0.278884	0.138786
40	0.056356	0.126607	0.450480	0.329356	0.095147	0.085941	0.189648	0.485555	0.127402	0.314758	0.416199	0.571739	0.291753	0.116496	0.191443	0.130120	0.135536	0.302108	0.514552	0.501492	0.125642	0.292282	0.247225	0.304199	0.208393	0.649862	0.385356	0.450850	0.160436	0.221950	0.291366	0.395229	0.169005	0.382039	0.260204	0.435449	0.087386	0.213201	0.249944	0.414972	0.224477	0.202292	0.474953	1.027098	0.068911	0.151673	0.271443	0.284253	0.120037	0.237293	0.516326	0.497699	0.063300	0.160706	0.225015	0.416492	0.182748	0.404188	0.527222	0.678028	0.070359	0.168941	0.151818	0.175870	0.126485	0.203007	0.244420	0.498153	0.098211	0.295755	0.293074	0.170665	0.135341	0.219120	0.627159	0.338669	0.078181	0.198496	0.272628	0.143094
41	0.066972	0.137476	0.449805	0.307699	0.086116	0.087733	0.188103	0.464142	0.142272	0.335628	0.459138	0.571677	0.294298	0.118237	0.208045	0.141342	0.142448	0.320584	0.551924	0.553680	0.126128	0.272392	0.248013	0.296457	0.206051	0.608931	0.388096	0.518253	0.158338	0.201641	0.294682	0.378350	0.173581	0.400876	0.364770	0.453000	0.094260	0.215650	0.270060	0.427213	0.233543	0.210799	0.476703	1.038632	0.069861	0.167501	0.272085	0.286496	0.117554	0.231543	0.475205	0.486290	0.064077	0.154032	0.231653	0.408437	0.182998	0.397020	0.533304	0.664369	0.069035	0.168608	0.145129	0.148297	0.127143	0.207464	0.274607	0.532626	0.096370	0.294559	0.289354	0.161051	0.136683	0.225711	0.637688	0.389993	0.087776	0.202505	0.269894	0.137113
42	0.065366	0.170416	0.451849	0.261366	0.073727	0.095549	0.188114	0.403107	0.162041	0.337868	0.501752	0.563933	0.294629	0.118080	0.209978	0.144445	0.148694	0.310079	0.562602	0.715150	0.132128	0.268796	0.250853	0.291248	0.200607	0.578824	0.388128	0.562422	0.154227	0.199964	0.292115	0.354229	0.172260	0.331094	0.434062	0.585797	0.096639	0.215619	0.276195	0.430373	0.237774	0.211396	0.481469	1.040977	0.075544	0.186673	0.278118	0.285632	0.109070	0.218010	0.417789	0.536479	0.064634	0.179868	0.234777	0.396824	0.183527	0.398914	0.600799	0.610585	0.068027	0.167269	0.149416	0.118257	0.126927	0.207392	0.322721	0.615611	0.093080	0.282823	0.287633	0.150147	0.140020	0.228515	0.635309	0.419724	0.088698	0.217071	0.243184	0.124828
43	0.060279	0.169640	0.362736	0.252708	0.072456	0.098216	0.190650	0.322514	0.173718	0.338458	0.483398	0.602908	0.294789	0.117575	0.227859	0.145157	0.153323	0.298866	0.562731	0.838960	0.131997	0.243775	0.250516	0.286438	0.189178	0.540755	0.388761	0.640644	0.153582	0.199547	0.289726	0.354458	0.168581	0.322474	0.467786	0.772787	0.096312	0.214739	0.277495	0.431109	0.238613	0.210589	0.480372	1.042867	0.087750	0.211912	0.280375	0.271227	0.102355	0.201986	0.429392	0.567280	0.063773	0.183074	0.232736	0.383255	0.184912	0.378890	0.621911	0.746337	0.064039	0.163329	0.164142	0.115666	0.126003	0.207392	0.359299	0.755349	0.087096	0.266394	0.286217	0.143658	0.138229	0.221662	0.635206	0.420336	0.085282	0.228325	0.202476	0.119229
44	0.061482	0.199501	0.280228	0.212841	0.075605	0.112923	0.189161	0.239266	0.168426	0.329937	0.463349	0.614669	0.295949	0.117919	0.245665	0.151435	0.162632	0.295084	0.616266	0.891267	0.128889	0.226861	0.246515	0.257278	0.186437	0.504941	0.396499	0.682693	0.151611	0.179799	0.311781	0.350897	0.168559	0.328481	0.475533	0.824366	0.096050	0.214218	0.277543	0.430504	0.243848	0.209996	0.494860	1.035124	0.087990	0.227609	0.279237	0.262966	0.101126	0.185336	0.493297	0.610251	0.064701	0.171986	0.230399	0.365320	0.183644	0.366646	0.616522	0.841854	0.060789	0.155629	0.173861	0.116621	0.122331	0.214257	0.363762	0.917537	0.089992	0.238570	0.286264	0.145327	0.129682	0.216178	0.636798	0.431384	0.091233	0.222465	0.188300	0.137870
45	0.062206	0.201323	0.337030	0.160396	0.069336	0.119422	0.149050	0.193876	0.161459	0.305602	0.493185	0.593556	0.292687	0.115855	0.253673	0.162728	0.194836	0.315161	0.719340	0.891369	0.127432	0.227967	0.232434	0.215354	0.167674	0.480572	0.425668	0.648867	0.123483	0.137703	0.336368	0.357586	0.179625	0.337933	0.514790	0.828296	0.096678	0.213701	0.277487	0.427171	0.248062	0.210299	0.520689	0.995181	0.088698	0.235822	0.280681	0.252766	0.103397	0.183836	0.514196	0.659317	0.069902	0.163205	0.219774	0.354501	0.164608	0.327239	0.598532	0.840537	0.061949	0.154662	0.169821	0.117265	0.124854	0.229637	0.444028	0.966309	0.088016	0.133033	0.273163	0.127247	0.125615	0.216902	0.632605	0.442950	0.097175	0.225896	0.155175	0.152497
46	0.061986	0.203569	0.368198	0.151158	0.067317	0.119993	0.104912	0.190876	0.156179	0.268852	0.526190	0.566992	0.286281	0.099104	0.247459	0.163755	0.207227	0.308835	0.784959	0.888393	0.123579	0.222000	0.223169	0.195676	0.138246	0.415224	0.511524	0.626513	0.088284	0.108739	0.323147	0.359821	0.202940	0.351482	0.638913	0.852225	0.096951	0.213526	0.275265	0.417250	0.248943	0.214807	0.534005	0.944352	0.092331	0.236106	0.272603	0.229025	0.102858	0.184356	0.515252	0.649200	0.076157	0.163942	0.218788	0.351657	0.148578	0.241270	0.622648	0.841801	0.059077	0.143813	0.172496	0.126713	0.145870	0.249856	0.534791	0.966736	0.085924	0.107374	0.277788	0.124792	0.125225	0.216738	0.611381	0.501897	0.098503	0.220140	0.154628	0.160813
47	0.062426	0.246149	0.365267	0.211074	0.065766	0.119665	0.096581	0.194611	0.153572	0.258736	0.528396	0.539715	0.257687	0.080541	0.229916	0.152846	0.216408	0.322541	0.793580	0.922365	0.108424	0.184686	0.214006	0.195383	0.121338	0.317040	0.522285	0.654343	0.075000	0.103525	0.305405	0.321733	0.209736	0.357773	0.715654	0.939864	0.090661	0.220017	0.280826	0.391058	0.252516	0.216676	0.531326	0.887138	0.091380	0.219381	0.260307	0.214071	0.099571	0.187880	0.542393	0.609662	0.071614	0.164346	0.229627	0.337109	0.141799	0.174134	0.730443	0.839076	0.059119	0.131627	0.171760	0.167919	0.165319	0.271949	0.648346	0.964768	0.084787	0.093103	0.280136	0.183789	0.122117	0.209103	0.612299	0.572712	0.099576	0.221262	0.170204	0.159517
48	0.063098	0.282287	0.443388	0.219096	0.064598	0.119672	0.093604	0.194449	0.150327	0.242056	0.550491	0.530080	0.232594	0.080157	0.227420	0.179216	0.218213	0.323342	0.782560	0.989001	0.075845	0.130029	0.208688	0.190816	0.107114	0.217467	0.535106	0.685656	0.080751	0.112668	0.315963	0.281005	0.210932	0.358176	0.717363	1.007805	0.080844	0.215244	0.285796	0.339162	0.240330	0.202630	0.528281	0.806299	0.091529	0.223903	0.264480	0.213186	0.098654	0.171526	0.596965	0.605675	0.076324	0.172665	0.218764	0.329594	0.135286	0.161831	0.779763	0.820566	0.059045	0.128781	0.177695	0.204250	0.172956	0.284322	0.727545	0.993949	0.086301	0.093968	0.268854	0.228543	0.126890	0.203130	0.591233	0.606477	0.096262	0.211671	0.171157	0.157110
49	0.064202	0.286675	0.478489	0.213825	0.064802	0.119040	0.094249	0.192737	0.151259	0.237367	0.560145	0.583178	0.172351	0.087545	0.227250	0.215651	0.221107	0.327691	0.772976	1.034226	0.072328	0.134372	0.207670	0.180170	0.101649	0.199020	0.541694	0.715486	0.092467	0.130955	0.381429	0.256724	0.215702	0.361270	0.717587	1.031702	0.068568	0.111033	0.289181	0.306909	0.198406	0.181492	0.518444	0.760699	0.092314	0.221513	0.228694	0.203748	0.101402	0.164624	0.633352	0.623302	0.085170	0.192816	0.214120	0.311728	0.117054	0.141294	0.791776	0.869498	0.059330	0.126336	0.195665	0.215172	0.173398	0.286771	0.728570	1.068928	0.086649	0.091148	0.236499	0.230687	0.124548	0.197639	0.554568	0.607109	0.100367	0.210115	0.159803	0.177316
50	0.063848	0.302685	0.476920	0.220244	0.066638	0.117831	0.098485	0.191552	0.152789	0.238196	0.577962	0.638283	0.123428	0.090510	0.228590	0.233287	0.221806	0.323107	0.770850	1.048960	0.075733	0.137825	0.198222	0.152918	0.124700	0.243591	0.542024	0.725530	0.091234	0.138962	0.400729	0.247877	0.221124	0.361962	0.704556	1.040391	0.069078	0.102775	0.294547	0.305739	0.186364	0.164262	0.628384	0.762879	0.092158	0.221108	0.178574	0.204382	0.105878	0.148198	0.648806	0.632512	0.089880	0.196604	0.225319	0.303732	0.116201	0.166203	0.791385	0.888395	0.062278	0.118837	0.235706	0.219996	0.172973	0.286566	0.731998	1.083404	0.086163	0.092358	0.230220	0.237397	0.123114	0.189600	0.540003	0.605956	0.104111	0.216411	0.200736	0.200106
51	0.063596	0.302388	0.478529	0.219199	0.064342	0.116573	0.099932	0.189987	0.153090	0.234025	0.584822	0.671172	0.123032	0.087134	0.229419	0.234230	0.228566	0.316835	0.749852	1.047842	0.073333	0.138887	0.164292	0.137369	0.140336	0.266422	0.543008	0.727038	0.086298	0.140802	0.380808	0.246086	0.218765	0.354960	0.708349	1.024713	0.072139	0.101097	0.299150	0.293580	0.207826	0.176496	0.823639	0.737537	0.091711	0.220901	0.186826	0.211720	0.112035	0.124032	0.637838	0.664253	0.091068	0.197186	0.227397	0.292740	0.138562	0.205325	0.810630	0.901992	0.062212	0.100216	0.286938	0.223509	0.171998	0.287542	0.754521	1.079836	0.083681	0.093451	0.201459	0.252873	0.119164	0.184576	0.513334	0.599221	0.117024	0.206181	0.266505	0.218811
52	0.060161	0.283874	0.452855	0.219579	0.064260	0.115317	0.102399	0.186798	0.154329	0.232440	0.699662	0.663430	0.088882	0.081386	0.226399	0.231696	0.226985	0.291145	0.797756	1.050508	0.071256	0.143523	0.152010	0.163213	0.139604	0.269544	0.502773	0.724914	0.081372	0.139815	0.368289	0.230772	0.212827	0.309745	0.721672	0.992970	0.078093	0.100367	0.297383	0.252728	0.210091	0.178185	0.895863	0.655559	0.086343	0.220567	0.169058	0.222914	0.109880	0.107994	0.634084	0.683030	0.089883	0.188336	0.222388	0.288202	0.142059	0.218293	0.900921	0.928286	0.061084	0.083285	0.309313	0.225528	0.170931	0.292967	0.792326	1.066839	0.081874	0.103898	0.187727	0.268727	0.116814	0.190706	0.527407	0.597759	0.118527	0.172098	0.283720	0.219733
53	0.058451	0.283642	0.390182	0.222881	0.065239	0.113404	0.106881	0.178237	0.161204	0.213781	0.901194	0.641055	0.079518	0.086449	0.220569	0.224537	0.221657	0.246570	0.832290	1.034642	0.070011	0.135658	0.151703	0.183345	0.139791	0.268070	0.478043	0.759419	0.079469	0.144709	0.367239	0.209745	0.198839	0.267366	0.685579	1.005836	0.078605	0.097690	0.296183	0.197951	0.210070	0.186084	0.877154	0.574417	0.077643	0.210874	0.163394	0.230448	0.118654	0.134822	0.676193	0.688633	0.089689	0.174760	0.218245	0.293527	0.140253	0.226917	0.961909	0.959866	0.057896	0.078820	0.311846	0.241673	0.178817	0.289333	0.877200	1.053388	0.088820	0.120278	0.232239	0.293900	0.120136	0.191253	0.543970	0.599865	0.112200	0.170608	0.285208	0.215806
54	0.054118	0.259410	0.367024	0.188019	0.066075	0.112331	0.112137	0.170580	0.154704	0.176221	0.960051	0.646475	0.077374	0.109488	0.213478	0.227017	0.209085	0.246521	0.848297	0.989339	0.070032	0.125985	0.151750	0.186072	0.150067	0.258364	0.476095	0.877229	0.080543	0.139514	0.366745	0.195836	0.191050	0.266106	0.654344	0.995727	0.072039	0.088337	0.275427	0.138691	0.210827	0.197716	0.913281	0.465012	0.081661	0.208198	0.164305	0.237538	0.139298	0.149955	0.737859	0.690281	0.090388	0.161273	0.210476	0.292996	0.135766	0.230670	0.987508	0.974906	0.071668	0.078501	0.336693	0.245737	0.178809	0.271949	0.977067	1.059466	0.097125	0.124908	0.273050	0.297352	0.114179	0.177757	0.518248	0.600136	0.103486	0.177744	0.285941	0.211642
55	0.060956	0.203285	0.346013	0.143404	0.067855	0.112702	0.113293	0.165413	0.139671	0.131271	0.942833	0.643456	0.078585	0.150108	0.200844	0.234190	0.201899	0.251430	0.852578	0.951380	0.061803	0.125094	0.150329	0.182597	0.150123	0.236484	0.474492	0.935166	0.081845	0.134873	0.369025	0.175040	0.189534	0.277159	0.680615	0.892182	0.062355	0.084439	0.258028	0.108256	0.207061	0.197562	0.959008	0.393431	0.091362	0.204441	0.179784	0.235539	0.146790	0.149136	0.824898	0.688644	0.089835	0.134852	0.210980	0.261664	0.134331	0.229645	0.979210	0.973879	0.090594	0.085405	0.340202	0.245411	0.178891	0.261481	0.974833	1.127881	0.092917	0.138116	0.271301	0.297536	0.099608	0.164391	0.496244	0.613829	0.097092	0.181438	0.283110	0.211559
56	0.055443	0.235281	0.238074	0.139531	0.070858	0.116312	0.111341	0.158169	0.128122	0.115499	0.923512	0.635539	0.080442	0.175987	0.168301	0.232596	0.198194	0.248570	0.832104	0.927448	0.056323	0.124686	0.148163	0.164751	0.154221	0.241106	0.512603	0.943993	0.083845	0.128171	0.367373	0.168143	0.197703	0.340619	0.726617	0.837586	0.063842	0.084667	0.271201	0.095991	0.199173	0.206646	1.002427	0.436313	0.099911	0.200718	0.205785	0.240989	0.145166	0.148914	0.858215	0.711510	0.089774	0.137016	0.213208	0.219161	0.131621	0.227999	0.954498	0.937464	0.094323	0.085480	0.340598	0.248822	0.184893	0.275982	1.014069	1.150334	0.085665	0.156645	0.270870	0.297480	0.097444	0.146079	0.481957	0.595178	0.096131	0.156042	0.282011	0.209342
57	0.056000	0.210605	0.172771	0.095023	0.072695	0.118064	0.108849	0.157664	0.134927	0.128267	0.923570	0.593870	0.081238	0.305734	0.139206	0.224806	0.176831	0.236055	0.763280	0.920816	0.057864	0.125087	0.152674	0.162635	0.177589	0.256908	0.644025	0.915874	0.087939	0.128062	0.351862	0.169970	0.197578	0.370361	0.716498	0.833506	0.064964	0.087722	0.286451	0.099249	0.197649	0.231882	1.031259	0.478262	0.093953	0.157203	0.208758	0.250209	0.154476	0.156891	0.861762	0.719588	0.088102	0.141611	0.209398	0.201589	0.131495	0.230223	0.956940	0.858492	0.093912	0.085888	0.334436	0.252003	0.192700	0.285468	1.050463	1.108121	0.082132	0.178963	0.271851	0.295616	0.102644	0.124885	0.474704	0.563796	0.093060	0.152513	0.281583	0.206973
58	0.062467	0.213670	0.170569	0.086523	0.071097	0.124544	0.106852	0.176245	0.134176	0.128384	0.930390	0.564679	0.086998	0.308217	0.137341	0.216429	0.174606	0.263853	0.737488	0.924567	0.060261	0.121400	0.178541	0.161209	0.189539	0.264442	0.771988	0.888427	0.094770	0.131835	0.326335	0.216510	0.171609	0.365092	0.625962	0.839715	0.066449	0.092062	0.288816	0.108319	0.194101	0.241791	1.036945	0.529973	0.089116	0.146474	0.208254	0.251886	0.153944	0.163235	0.870391	0.708172	0.084135	0.138737	0.201039	0.200813	0.133453	0.241965	0.952867	0.842193	0.094996	0.089430	0.329358	0.251712	0.194956	0.287831	1.086312	1.007667	0.082527	0.195783	0.265805	0.293908	0.103602	0.122505	0.474847	0.558338	0.085785	0.143471	0.281810	0.190579
59	0.069114	0.228336	0.196515	0.088590	0.071390	0.115401	0.107326	0.185671	0.135160	0.133192	0.909448	0.562495	0.089688	0.310168	0.140603	0.215474	0.174175	0.251368	0.744791	0.921306	0.064779	0.109910	0.178293	0.160787	0.197688	0.267409	0.832060	0.960732	0.096536	0.163071	0.304890	0.268820	0.156925	0.372663	0.498512	0.755039	0.065929	0.095638	0.289683	0.111173	0.186852	0.246195	1.024958	0.584278	0.089086	0.109929	0.216784	0.248486	0.155471	0.170182	0.892708	0.698606	0.081326	0.141582	0.170598	0.204033	0.146322	0.269646	0.937383	0.846023	0.095621	0.110150	0.325003	0.251579	0.194979	0.281054	1.106527	0.876155	0.082840	0.195037	0.263066	0.293430	0.106742	0.128187	0.449993	0.578488	0.080050	0.140046	0.282071	0.180043
60	0.073987	0.228881	0.207465	0.101828	0.073563	0.108203	0.105195	0.188834	0.140969	0.145244	0.900227	0.563196	0.090208	0.318340	0.138719	0.193485	0.172124	0.251792	0.750352	0.859726	0.064422	0.105743	0.181194	0.164463	0.201424	0.267820	0.832955	1.040164	0.092852	0.192171	0.299708	0.284925	0.157698	0.376534	0.488480	0.660775	0.065498	0.094794	0.288893	0.109578	0.192000	0.258934	1.020897	0.609354	0.087739	0.105647	0.224801	0.246018	0.152701	0.172654	0.917764	0.654815	0.084617	0.153613	0.154601	0.184773	0.150844	0.291203	0.855522	0.838393	0.096135	0.125125	0.335204	0.246127	0.191454	0.268188	1.074545	0.838227	0.076363	0.196149	0.256051	0.277517	0.103945	0.123838	0.413266	0.596538	0.079665	0.135732	0.284287	0.175642
61	0.075137	0.229421	0.203238	0.114349	0.069897	0.090278	0.096661	0.188963	0.148125	0.152938	0.902347	0.558996	0.084573	0.323282	0.135668	0.145751	0.168545	0.248576	0.748904	0.786331	0.065395	0.114966	0.208399	0.161349	0.201002	0.267842	0.785791	1.060854	0.084886	0.190836	0.290772	0.280209	0.154350	0.370566	0.498851	0.606350	0.062455	0.077199	0.280710	0.113363	0.196744	0.266927	1.046532	0.596425	0.086085	0.104415	0.219504	0.256306	0.153550	0.173983	0.940158	0.627182	0.080174	0.140711	0.162780	0.150898	0.152822	0.294208	0.815036	0.842185	0.096543	0.159608	0.362523	0.219416	0.172802	0.248723	1.033054	0.857051	0.071750	0.196965	0.253512	0.229365	0.103974	0.119622	0.434972	0.602136	0.077975	0.132857	0.273863	0.184302
62	0.075606	0.229309	0.264475	0.116663	0.062170	0.077279	0.098185	0.185685	0.149220	0.149784	0.865601	0.527454	0.082375	0.323478	0.125568	0.116290	0.169375	0.250480	0.756471	0.708615	0.062459	0.106307	0.211303	0.157596	0.198293	0.267896	0.786665	1.038735	0.071402	0.180914	0.210975	0.279859	0.137830	0.361276	0.524560	0.586682	0.060662	0.116696	0.278905	0.116143	0.196018	0.268357	1.057808	0.591882	0.083832	0.092128	0.213260	0.257707	0.153899	0.169951	0.935362	0.621875	0.075603	0.136646	0.185883	0.155786	0.151234	0.287315	0.753759	0.793810	0.097412	0.161285	0.367515	0.189756	0.150078	0.225071	0.962020	0.932538	0.071847	0.205588	0.246294	0.224162	0.106013	0.121097	0.524984	0.557790	0.076668	0.132410	0.254829	0.209030
63	0.064882	0.179907	0.291766	0.160686	0.055564	0.075447	0.102312	0.177423	0.149144	0.146799	0.843074	0.454028	0.081350	0.323417	0.120524	0.112872	0.163452	0.241581	0.779792	0.644850	0.056653	0.101170	0.211929	0.150048	0.199141	0.261359	0.809154	1.019277	0.070917	0.179973	0.183910	0.287015	0.133490	0.351469	0.569914	0.577412	0.063768	0.141170	0.267576	0.125419	0.195677	0.266947	1.050834	0.594280	0.085444	0.092648	0.226172	0.243404	0.153963	0.165198	0.903830	0.610969	0.078216	0.135559	0.238478	0.150511	0.150400	0.274979	0.751826	0.750418	0.096694	0.164265	0.359145	0.178147	0.127489	0.209396	0.915427	0.948332	0.071975	0.212702	0.247052	0.231877	0.096284	0.121021	0.530411	0.499424	0.070787	0.131112	0.251347	0.212011
64	0.058147	0.157489	0.291745	0.179583	0.054090	0.075201	0.115737	0.172279	0.148153	0.160132	0.838643	0.375574	0.081401	0.333450	0.126179	0.109036	0.147178	0.230381	0.698948	0.641361	0.054946	0.102347	0.212677	0.155731	0.201658	0.234313	0.838398	1.012310	0.070822	0.179834	0.189794	0.334862	0.121371	0.348160	0.628439	0.622262	0.071286	0.185158	0.233707	0.157001	0.190120	0.260110	1.007288	0.617245	0.084863	0.092213	0.239944	0.236089	0.153154	0.165006	0.886149	0.576602	0.079110	0.167760	0.258926	0.158550	0.129120	0.244723	0.750489	0.729290	0.090989	0.163185	0.336748	0.173533	0.124055	0.207076	0.913926	0.897315	0.071485	0.216773	0.246072	0.213035	0.095537	0.122776	0.531933	0.495662	0.061107	0.135996	0.201608	0.207737
65	0.057971	0.151369	0.342830	0.194609	0.054824	0.077108	0.138737	0.174211	0.149181	0.164093	0.828743	0.321240	0.081622	0.336964	0.101776	0.107210	0.140583	0.228225	0.590766	0.684502	0.055791	0.099947	0.214733	0.143466	0.204470	0.193549	0.859461	1.015665	0.074060	0.200842	0.180485	0.368836	0.121177	0.344689	0.639755	0.649709	0.071660	0.216866	0.205670	0.173150	0.172333	0.250642	0.874459	0.617081	0.086842	0.094220	0.230317	0.240126	0.147731	0.163590	0.883250	0.550665	0.097973	0.231861	0.278702	0.179686	0.140550	0.230031	0.677904	0.722675	0.088024	0.171179	0.293285	0.167087	0.129774	0.209938	0.927927	0.882799	0.070711	0.216050	0.242688	0.196566	0.098273	0.120719	0.515187	0.533893	0.047357	0.141104	0.179397	0.201335
66	0.054608	0.135294	0.348206	0.198749	0.054401	0.088456	0.154113	0.192697	0.144900	0.166082	0.675342	0.348904	0.084351	0.343345	0.096025	0.099341	0.139533	0.227370	0.533178	0.669593	0.054961	0.097267	0.218306	0.109666	0.199189	0.169436	0.887662	1.018595	0.080501	0.199827	0.175967	0.390313	0.128613	0.354544	0.664802	0.610386	0.076707	0.247982	0.204535	0.183983	0.162915	0.259070	0.722996	0.618681	0.088201	0.094537	0.245190	0.256276	0.134921	0.160133	0.876052	0.530007	0.109408	0.240678	0.303108	0.195254	0.152248	0.221314	0.570724	0.719675	0.095057	0.177194	0.270144	0.170839	0.136250	0.212026	0.964036	0.873997	0.066817	0.210553	0.242060	0.159323	0.097839	0.116617	0.556764	0.578623	0.053575	0.141533	0.230978	0.202723
67	0.051179	0.146444	0.325055	0.218731	0.052627	0.112295	0.155426	0.219101	0.139853	0.166907	0.425193	0.350566	0.090203	0.345528	0.097049	0.116684	0.139014	0.222808	0.526211	0.550831	0.054514	0.167699	0.218536	0.095058	0.199004	0.165686	0.900177	1.024012	0.078913	0.200028	0.192809	0.400538	0.140249	0.375672	0.665589	0.524533	0.076173	0.249949	0.228361	0.194617	0.190363	0.273041	0.700341	0.612617	0.094657	0.096138	0.316169	0.265551	0.131038	0.160924	0.874969	0.548264	0.114723	0.252494	0.312612	0.226831	0.143525	0.221573	0.572407	0.723423	0.101611	0.178341	0.285347	0.155267	0.130610	0.199903	1.000706	0.862762	0.048529	0.200008	0.181730	0.149144	0.098635	0.103367	0.559817	0.586944	0.057817	0.144829	0.236827	0.208563
68	0.061726	0.156005	0.320823	0.215054	0.051357	0.149681	0.154330	0.242527	0.138789	0.155522	0.357565	0.351980	0.086490	0.338897	0.113927	0.124994	0.143704	0.219394	0.559660	0.481907	0.053387	0.168449	0.217177	0.093709	0.193599	0.164802	0.895009	0.955098	0.078410	0.203477	0.225888	0.410652	0.132187	0.388673	0.619144	0.508053	0.075703	0.250646	0.227371	0.195170	0.204254	0.286199	0.690414	0.614279	0.104965	0.101054	0.398824	0.250038	0.127221	0.145800	0.848697	0.559545	0.125432	0.294357	0.351644	0.242877	0.163123	0.235134	0.626579	0.717432	0.094993	0.178413	0.254352	0.140083	0.110976	0.179848	0.947927	0.889801	0.040866	0.218890	0.160881	0.162071	0.099834	0.094678	0.537691	0.587783	0.059239	0.136105	0.238779	0.211133
69	0.065745	0.170645	0.312002	0.212546	0.053116	0.197208	0.172661	0.262970	0.139011	0.156340	0.363959	0.406330	0.073162	0.242389	0.110975	0.126525	0.143516	0.207693	0.598227	0.493160	0.052518	0.173985	0.217125	0.094267	0.192492	0.167860	0.898583	0.841657	0.079144	0.224525	0.235563	0.418350	0.115360	0.340073	0.620173	0.600733	0.076295	0.250845	0.258986	0.203272	0.196004	0.288579	0.643613	0.613197	0.104940	0.120048	0.447088	0.266991	0.109293	0.139048	0.786141	0.552475	0.136145	0.311218	0.387086	0.245715	0.169222	0.237902	0.610923	0.707709	0.081146	0.176765	0.246573	0.142436	0.121506	0.176409	0.855519	0.883914	0.041172	0.221448	0.160059	0.166338	0.108666	0.094603	0.533022	0.594047	0.058979	0.127033	0.244605	0.218970
70	0.076145	0.182055	0.250180	0.201542	0.053486	0.205647	0.205799	0.279626	0.122266	0.157094	0.374869	0.438667	0.066195	0.228183	0.109819	0.127080	0.121862	0.186337	0.561648	0.530960	0.054323	0.176310	0.225619	0.108934	0.192658	0.176404	0.902505	0.806355	0.079015	0.227239	0.265404	0.418223	0.105362	0.330849	0.620286	0.721708	0.073546	0.251201	0.331494	0.205484	0.197402	0.282716	0.569113	0.594956	0.094812	0.149775	0.442199	0.309874	0.094721	0.147183	0.700766	0.550039	0.138109	0.312449	0.406728	0.325129	0.168942	0.237566	0.630552	0.617615	0.081101	0.177810	0.244338	0.135953	0.136748	0.166858	0.848366	0.795094	0.041796	0.217450	0.168618	0.170415	0.112186	0.096848	0.544825	0.580901	0.059302	0.123635	0.245558	0.230805
71	0.076975	0.189894	0.235431	0.175454	0.054362	0.216330	0.222713	0.284667	0.109667	0.179467	0.471686	0.442219	0.058968	0.227691	0.121246	0.125611	0.116263	0.221651	0.509319	0.519833	0.056456	0.180965	0.214473	0.131710	0.178329	0.158041	0.853573	0.836024	0.073991	0.233134	0.273896	0.397275	0.100108	0.307709	0.626652	0.798028	0.072082	0.250180	0.338844	0.218786	0.216326	0.267240	0.518899	0.557432	0.089283	0.152694	0.433098	0.333508	0.112573	0.150701	0.652670	0.552126	0.137778	0.312705	0.410685	0.424755	0.168094	0.229089	0.644824	0.530900	0.081483	0.177132	0.248241	0.136598	0.126496	0.139088	0.781738	0.784780	0.035919	0.185913	0.164989	0.172661	0.121229	0.101704	0.567901	0.568602	0.061048	0.120903	0.277790	0.238104
72	0.076764	0.234513	0.209941	0.150707	0.053338	0.216033	0.234404	0.283126	0.114321	0.251072	0.594283	0.494941	0.058014	0.220836	0.129124	0.125656	0.122219	0.230381	0.511989	0.499555	0.052202	0.183275	0.207767	0.148642	0.159842	0.138626	0.751277	0.852935	0.076226	0.216985	0.283352	0.361001	0.096610	0.308068	0.666696	0.804282	0.071190	0.251541	0.353314	0.238507	0.247750	0.255423	0.482262	0.518532	0.091747	0.206042	0.449481	0.351084	0.114813	0.143422	0.642770	0.530651	0.137792	0.335329	0.410553	0.438392	0.160543	0.199424	0.641965	0.506414	0.079681	0.174278	0.245418	0.138662	0.115869	0.129026	0.721308	0.818258	0.035029	0.188978	0.203308	0.178688	0.115298	0.104873	0.612853	0.607866	0.060531	0.121053	0.293369	0.242841
73	0.072278	0.255879	0.129369	0.160597	0.049905	0.236456	0.237186	0.278514	0.110717	0.249396	0.683146	0.643324	0.058194	0.214073	0.129483	0.127100	0.122002	0.246023	0.529373	0.498018	0.058801	0.198009	0.230822	0.146970	0.151135	0.131299	0.781723	0.776406	0.080679	0.201931	0.288573	0.356432	0.102798	0.310941	0.721810	0.814606	0.071508	0.254160	0.439157	0.252813	0.318243	0.263106	0.492527	0.452647	0.097959	0.289983	0.487079	0.357568	0.107666	0.147182	0.632890	0.540799	0.163370	0.416284	0.426639	0.434277	0.148829	0.162223	0.621986	0.497864	0.077497	0.160370	0.249082	0.138504	0.115740	0.137498	0.669623	0.823680	0.031189	0.226328	0.211480	0.179544	0.113119	0.105044	0.716183	0.649747	0.060100	0.120158	0.292804	0.241782
74	0.075791	0.251890	0.108964	0.153846	0.047235	0.257990	0.239430	0.272697	0.097734	0.282077	0.688079	0.837795	0.056143	0.210438	0.139537	0.132688	0.122351	0.248642	0.565139	0.511973	0.063263	0.227018	0.205041	0.146755	0.141367	0.129553	0.751190	0.665292	0.082009	0.223746	0.286239	0.382489	0.117602	0.325799	0.779826	0.857447	0.073312	0.261191	0.466259	0.252964	0.417170	0.264026	0.519143	0.378406	0.107472	0.307105	0.514051	0.356334	0.113026	0.155608	0.571321	0.547724	0.209004	0.473310	0.484285	0.447523	0.146644	0.136563	0.601206	0.464848	0.076539	0.149899	0.235432	0.138625	0.116839	0.142986	0.663455	0.820827	0.033000	0.228134	0.212008	0.176966	0.109115	0.100857	0.744479	0.645827	0.059569	0.123475	0.288797	0.242578
75	0.077518	0.279882	0.128262	0.136153	0.048378	0.277092	0.240843	0.264576	0.096206	0.323768	0.682582	0.918172	0.059687	0.209794	0.154261	0.143991	0.162229	0.252042	0.532179	0.518643	0.071888	0.378657	0.194647	0.167315	0.142831	0.130154	0.742156	0.591904	0.101381	0.257466	0.295924	0.422780	0.123070	0.343678	0.764928	0.879912	0.073741	0.259755	0.465942	0.252669	0.499148	0.249095	0.498179	0.374501	0.133229	0.314960	0.534950	0.353174	0.131175	0.166367	0.498639	0.531837	0.214462	0.477865	0.492767	0.511825	0.147296	0.136652	0.592934	0.458013	0.075960	0.104319	0.189398	0.140290	0.123107	0.159259	0.672867	0.819487	0.034987	0.228051	0.210623	0.167295	0.109652	0.100976	0.743281	0.629603	0.063738	0.137130	0.296154	0.229100
76	0.068682	0.281224	0.160798	0.138941	0.048977	0.287294	0.239709	0.270347	0.130008	0.356079	0.754955	0.929503	0.058896	0.199675	0.145575	0.154871	0.186234	0.314148	0.499158	0.510825	0.076116	0.386418	0.195975	0.223988	0.147122	0.133818	0.750189	0.596753	0.118290	0.274753	0.303712	0.426363	0.134335	0.342618	0.702645	0.869376	0.073913	0.241882	0.468470	0.251028	0.584855	0.246889	0.450584	0.412383	0.152137	0.411701	0.551143	0.348966	0.142296	0.167418	0.435384	0.525750	0.219438	0.483824	0.475405	0.559035	0.148154	0.142121	0.590368	0.468045	0.075650	0.103809	0.169676	0.132168	0.131717	0.171307	0.695040	0.812142	0.034812	0.216615	0.209051	0.147371	0.109502	0.101799	0.733084	0.591782	0.065551	0.138844	0.300637	0.203757
77	0.063916	0.271835	0.241176	0.136430	0.047109	0.315265	0.240354	0.279556	0.161496	0.381843	0.968616	0.926149	0.059337	0.208645	0.150886	0.173643	0.225422	0.321063	0.496663	0.505565	0.081549	0.389460	0.209386	0.250451	0.149120	0.142105	0.731301	0.615655	0.125191	0.274258	0.310458	0.400740	0.144517	0.401500	0.722125	0.845271	0.069287	0.231832	0.475007	0.239665	0.635923	0.245829	0.431040	0.436214	0.161858	0.432949	0.553602	0.376673	0.141684	0.166455	0.428848	0.526728	0.231492	0.480444	0.476003	0.555333	0.151975	0.153729	0.592923	0.470829	0.076434	0.101464	0.170083	0.128551	0.138963	0.175493	0.702232	0.755884	0.034720	0.220644	0.221274	0.142521	0.108204	0.101893	0.673337	0.543405	0.065461	0.139899	0.300301	0.189857
78	0.060580	0.260527	0.242706	0.139804	0.045095	0.322484	0.244983	0.284436	0.177018	0.380424	1.133176	0.982808	0.052265	0.190059	0.156256	0.177031	0.245318	0.321047	0.500460	0.620458	0.084514	0.389831	0.228467	0.249534	0.143268	0.159351	0.685995	0.630177	0.127000	0.260217	0.318836	0.390871	0.153196	0.422480	0.729404	0.844223	0.061335	0.192309	0.475487	0.219834	0.637146	0.246723	0.423915	0.427367	0.163380	0.461446	0.543710	0.437260	0.141815	0.164656	0.449282	0.534194	0.227957	0.461839	0.461877	0.550948	0.152256	0.161282	0.598605	0.441811	0.078057	0.120433	0.168265	0.128790	0.151522	0.176010	0.700811	0.683359	0.034879	0.236654	0.235762	0.145811	0.105847	0.097539	0.646086	0.544561	0.063501	0.124955	0.300042	0.175749
79	0.063684	0.254090	0.269961	0.161503	0.045692	0.321833	0.255186	0.285658	0.178255	0.384044	1.173039	1.087278	0.041380	0.192584	0.156692	0.164996	0.314101	0.337882	0.511330	0.652872	0.083616	0.395387	0.252855	0.249003	0.123633	0.176438	0.684229	0.616107	0.123348	0.256883	0.328567	0.388529	0.152659	0.407260	0.699817	0.854041	0.051674	0.150113	0.473595	0.210215	0.657931	0.244017	0.402867	0.392428	0.163836	0.466683	0.543935	0.475391	0.140816	0.165660	0.487442	0.557340	0.223794	0.457369	0.449349	0.542211	0.129741	0.164342	0.580724	0.382508	0.076028	0.148629	0.169337	0.129677	0.153573	0.188441	0.707136	0.620786	0.036096	0.246860	0.242423	0.158460	0.103551	0.089614	0.644651	0.544692	0.055242	0.119908	0.267618	0.170279
80	0.066911	0.190000	0.282978	0.213310	0.045976	0.321444	0.259595	0.284366	0.187479	0.397733	1.177461	1.167197	0.037467	0.174224	0.160528	0.178018	0.515009	0.360515	0.528188	0.645201	0.084599	0.380929	0.303784	0.254641	0.119402	0.189877	0.687197	0.611870	0.136753	0.269155	0.334226	0.389739	0.172306	0.360225	0.726405	0.844834	0.040035	0.123525	0.469499	0.198390	0.664433	0.232350	0.423410	0.382985	0.162287	0.479120	0.543990	0.475630	0.140543	0.169637	0.484671	0.603997	0.220240	0.445756	0.440602	0.532999	0.135954	0.162799	0.557628	0.300565	0.068316	0.182821	0.163272	0.136479	0.156923	0.204203	0.695550	0.605168	0.035847	0.320835	0.229968	0.157325	0.098204	0.087075	0.643358	0.527604	0.048049	0.121629	0.227312	0.169925
81	0.065322	0.171896	0.348016	0.218174	0.052064	0.323105	0.261336	0.283606	0.208245	0.408378	1.187588	1.182278	0.051666	0.183926	0.165213	0.196391	0.550888	0.372060	0.616577	0.632739	0.089176	0.372072	0.311326	0.274518	0.127195	0.195210	0.682711	0.588407	0.153088	0.281918	0.360665	0.384597	0.176127	0.350655	0.726886	0.794087	0.044845	0.124558	0.466375	0.191519	0.660595	0.215396	0.455086	0.378811	0.170755	0.494008	0.531238	0.457037	0.141720	0.179743	0.482038	0.668766	0.214942	0.421663	0.407879	0.536625	0.128201	0.141003	0.437317	0.280493	0.060380	0.188060	0.124561	0.137585	0.162202	0.203590	0.622263	0.609861	0.036004	0.332827	0.232430	0.137507	0.098260	0.096472	0.612985	0.473714	0.045525	0.118475	0.229183	0.165101
82	0.057105	0.130282	0.364169	0.224220	0.054112	0.324957	0.252468	0.282485	0.233220	0.414093	1.241421	1.180021	0.057072	0.202949	0.167024	0.207453	0.555285	0.366198	0.755562	0.651677	0.108681	0.373621	0.358658	0.291964	0.128658	0.195371	0.706307	0.580379	0.161760	0.263901	0.378869	0.376595	0.176996	0.337314	0.731491	0.670654	0.051517	0.126174	0.463123	0.190424	0.655432	0.186819	0.460698	0.383901	0.194226	0.556206	0.492831	0.450676	0.143941	0.190604	0.488261	0.672709	0.209465	0.417297	0.377562	0.548197	0.107344	0.151476	0.410334	0.287252	0.058276	0.191993	0.101678	0.137184	0.163953	0.194818	0.523850	0.602317	0.038764	0.312556	0.265295	0.135724	0.099445	0.100264	0.599164	0.487805	0.049051	0.116894	0.228937	0.165556
83	0.052733	0.068836	0.379874	0.306292	0.056551	0.323929	0.243336	0.272407	0.243801	0.418342	1.366161	1.163066	0.058028	0.207054	0.165669	0.209264	0.552351	0.349991	0.772241	0.754735	0.118765	0.374775	0.407502	0.290486	0.128476	0.195411	0.741185	0.584088	0.161326	0.266762	0.357874	0.378919	0.192442	0.335076	0.730013	0.578125	0.053127	0.125674	0.421473	0.181551	0.655127	0.160152	0.456515	0.397496	0.205335	0.587340	0.438122	0.449923	0.149876	0.201258	0.502006	0.665705	0.209189	0.436711	0.360771	0.489378	0.118058	0.161993	0.378364	0.285170	0.054152	0.190362	0.102857	0.126927	0.162898	0.192349	0.506044	0.566108	0.046149	0.313188	0.308484	0.137746	0.098510	0.100610	0.604107	0.523609	0.050654	0.118869	0.224099	0.165962
84	0.062365	0.070386	0.410428	0.335272	0.055420	0.317227	0.245014	0.252220	0.245875	0.414782	1.436825	1.173160	0.057929	0.204808	0.174021	0.215679	0.550761	0.362191	0.845929	0.832390	0.123939	0.374418	0.409854	0.287438	0.129758	0.186775	0.787801	0.607800	0.160143	0.265057	0.348177	0.378886	0.195179	0.522934	0.706385	0.589798	0.053715	0.125235	0.365035	0.177515	0.665417	0.151050	0.448265	0.410158	0.211679	0.594260	0.419121	0.436276	0.155329	0.207607	0.510287	0.667719	0.209584	0.440167	0.370262	0.420236	0.119071	0.162772	0.337036	0.284534	0.042575	0.188279	0.105201	0.121597	0.159875	0.191067	0.509804	0.570114	0.045712	0.313992	0.308148	0.164757	0.091564	0.102602	0.602398	0.536022	0.052171	0.118798	0.218247	0.166188
85	0.066531	0.070549	0.480078	0.381532	0.054657	0.303882	0.248990	0.226800	0.251738	0.395579	1.402001	1.185692	0.058693	0.204296	0.197543	0.241470	0.551422	0.354998	0.849524	0.843262	0.122605	0.372020	0.407827	0.278134	0.136601	0.192097	0.794717	0.548186	0.158383	0.267459	0.342481	0.371126	0.296098	0.602589	0.660049	0.598565	0.058638	0.123700	0.371555	0.151389	0.672621	0.153115	0.422020	0.441192	0.212833	0.601061	0.423283	0.411286	0.158872	0.205059	0.527693	0.666442	0.207853	0.439798	0.397103	0.410784	0.122592	0.169544	0.389047	0.292517	0.045435	0.199459	0.104750	0.106642	0.163415	0.191121	0.536722	0.584105	0.047282	0.333765	0.301745	0.166287	0.113674	0.106791	0.604095	0.545344	0.052481	0.120164	0.172229	0.166195
86	0.074555	0.071791	0.494154	0.456900	0.052309	0.276453	0.240240	0.201510	0.253634	0.367866	1.349737	1.149230	0.062798	0.250658	0.195059	0.243375	0.561020	0.361569	0.823386	0.837801	0.120718	0.368922	0.394412	0.275428	0.157982	0.232124	0.794881	0.466134	0.156141	0.279712	0.340255	0.355550	0.341920	0.605561	0.593681	0.543222	0.060535	0.119187	0.337452	0.110408	0.665119	0.152365	0.416852	0.462638	0.211282	0.595857	0.417998	0.391087	0.159789	0.204867	0.580021	0.644231	0.180096	0.368190	0.402531	0.414358	0.123207	0.170355	0.405897	0.325110	0.047488	0.200900	0.108014	0.098258	0.170445	0.189774	0.544700	0.530959	0.047116	0.326966	0.298418	0.169706	0.120762	0.104883	0.587422	0.551192	0.057476	0.119414	0.159135	0.165024
87	0.068769	0.094488	0.519984	0.443708	0.051697	0.267408	0.210482	0.174897	0.255965	0.367377	1.314720	1.055845	0.074129	0.343173	0.202058	0.232600	0.562383	0.368973	0.851123	0.836177	0.116964	0.343245	0.387299	0.275388	0.175090	0.261973	0.728895	0.457914	0.156122	0.268741	0.339802	0.320400	0.346186	0.593277	0.563735	0.524628	0.067297	0.108605	0.271663	0.090436	0.650420	0.137481	0.418308	0.459689	0.210559	0.567761	0.394676	0.380060	0.154520	0.205307	0.616520	0.629762	0.129019	0.305554	0.315681	0.392815	0.122680	0.171756	0.456994	0.344619	0.047611	0.203959	0.100043	0.100341	0.187770	0.184220	0.537291	0.476133	0.055347	0.326776	0.298275	0.166508	0.127564	0.101867	0.602949	0.520935	0.058983	0.120954	0.159178	0.169857
88	0.096546	0.093922	0.537258	0.445955	0.051681	0.258528	0.186819	0.167540	0.260252	0.321541	1.323015	0.931414	0.079719	0.350236	0.255027	0.231208	0.556802	0.323158	0.877813	0.845182	0.112236	0.258708	0.403754	0.269999	0.182357	0.275351	0.702188	0.470878	0.145794	0.235721	0.327145	0.261930	0.342562	0.592498	0.583043	0.524972	0.073894	0.101241	0.294469	0.095376	0.602201	0.111232	0.392742	0.471854	0.206057	0.552565	0.340570	0.386478	0.154533	0.199924	0.634732	0.615045	0.128381	0.299698	0.335054	0.290541	0.121374	0.171350	0.527599	0.329387	0.049718	0.211351	0.089956	0.105299	0.199409	0.182067	0.515599	0.482646	0.069308	0.324193	0.297511	0.165352	0.136977	0.100640	0.513382	0.466672	0.058180	0.129980	0.153825	0.169350
89	0.100138	0.094195	0.500503	0.458267	0.050883	0.258437	0.170565	0.166982	0.262055	0.290579	1.371151	0.891974	0.080882	0.339681	0.289667	0.224647	0.544170	0.312565	0.921358	0.847152	0.114130	0.144594	0.417548	0.238417	0.188539	0.277020	0.794654	0.458057	0.129567	0.206911	0.306893	0.249700	0.339029	0.569913	0.532903	0.499031	0.074402	0.118543	0.302426	0.119893	0.544548	0.102449	0.371862	0.474590	0.196071	0.553584	0.298663	0.393877	0.152216	0.188164	0.641912	0.605272	0.115811	0.286951	0.366743	0.223445	0.122751	0.167652	0.556831	0.306188	0.050383	0.219734	0.091490	0.103570	0.228752	0.202110	0.503825	0.527315	0.072658	0.329062	0.299506	0.165252	0.151738	0.100568	0.473208	0.431999	0.058088	0.130879	0.138107	0.171179
90	0.115022	0.099875	0.536200	0.482183	0.050437	0.250409	0.165126	0.167507	0.239020	0.247874	1.350111	0.884403	0.084192	0.339623	0.288758	0.233477	0.534350	0.324467	0.923949	0.798684	0.110531	0.128750	0.413521	0.190153	0.189033	0.276375	0.828905	0.429934	0.125698	0.204805	0.299735	0.242252	0.334324	0.538147	0.492403	0.496147	0.074720	0.127866	0.296335	0.138900	0.534268	0.095693	0.369352	0.450168	0.178490	0.528838	0.274712	0.396946	0.139504	0.173236	0.640023	0.622711	0.094939	0.271020	0.400149	0.222481	0.122732	0.160926	0.559662	0.295229	0.054746	0.234185	0.094780	0.112469	0.277231	0.192230	0.484343	0.559718	0.073783	0.326905	0.305748	0.162668	0.159031	0.131027	0.485820	0.420545	0.059755	0.168948	0.139291	0.170668
91	0.109001	0.096571	0.511674	0.491866	0.050901	0.254940	0.162815	0.166093	0.221755	0.217361	1.195437	0.879626	0.089068	0.323947	0.296659	0.233651	0.522141	0.321859	0.924006	0.843524	0.107910	0.126699	0.406293	0.178256	0.191715	0.275938	0.817543	0.406472	0.122254	0.206944	0.292269	0.202754	0.334898	0.534946	0.467232	0.551285	0.076234	0.126129	0.288419	0.143872	0.384609	0.088205	0.366270	0.415115	0.165595	0.490099	0.255560	0.386149	0.124154	0.168514	0.638559	0.655527	0.090021	0.266756	0.424992	0.218309	0.116283	0.151378	0.546197	0.293212	0.058010	0.259226	0.114685	0.120403	0.273798	0.182669	0.460631	0.547403	0.073878	0.318793	0.298716	0.162897	0.234362	0.171144	0.482140	0.414871	0.064340	0.178616	0.142004	0.164488
92	0.105621	0.116428	0.458984	0.548440	0.063337	0.298066	0.160113	0.156810	0.222214	0.232711	1.075370	0.789320	0.088932	0.340817	0.292185	0.217496	0.329899	0.298693	0.921221	0.891046	0.112958	0.108974	0.397563	0.180018	0.192820	0.269979	0.816095	0.380776	0.122300	0.215538	0.280125	0.168460	0.324569	0.533394	0.391484	0.570691	0.076565	0.159014	0.288055	0.143426	0.379829	0.085797	0.369368	0.391089	0.168122	0.452415	0.254579	0.332139	0.123042	0.176106	0.660162	0.679019	0.089800	0.269222	0.430727	0.217308	0.111442	0.140912	0.532976	0.290221	0.057255	0.255547	0.114555	0.119204	0.272343	0.194262	0.467920	0.511865	0.074080	0.304794	0.310270	0.151150	0.327061	0.204264	0.492690	0.408569	0.064413	0.170993	0.128508	0.162177
93	0.103287	0.123592	0.397746	0.579628	0.069313	0.292497	0.159726	0.125867	0.245854	0.242527	1.046491	0.621623	0.085509	0.356992	0.287085	0.197080	0.208484	0.296693	0.884408	0.894962	0.117564	0.091310	0.368059	0.177410	0.193611	0.257953	0.817990	0.390866	0.109116	0.205286	0.268481	0.144260	0.322199	0.531326	0.350555	0.588995	0.076626	0.178921	0.287237	0.142686	0.369514	0.077594	0.372710	0.390143	0.172424	0.450156	0.253900	0.255394	0.124020	0.183500	0.682112	0.686033	0.091028	0.271089	0.430490	0.208488	0.106818	0.134692	0.543653	0.305799	0.057383	0.258170	0.119574	0.123943	0.267507	0.207273	0.496307	0.501493	0.073942	0.277782	0.313518	0.142833	0.404398	0.236267	0.520637	0.402146	0.064397	0.171112	0.120948	0.163979
94	0.101161	0.115723	0.404284	0.544543	0.085366	0.269208	0.157676	0.090823	0.247648	0.231417	1.050120	0.470864	0.082139	0.362774	0.294720	0.182966	0.197888	0.300804	0.805373	0.878518	0.120840	0.112737	0.349258	0.155194	0.191442	0.242963	0.804226	0.408851	0.083974	0.182974	0.191719	0.133601	0.321973	0.529952	0.335388	0.596334	0.077197	0.181774	0.282147	0.141645	0.366066	0.075260	0.350305	0.389094	0.172995	0.436333	0.249088	0.215163	0.123999	0.189684	0.686351	0.680482	0.090166	0.279441	0.427029	0.173692	0.095690	0.135865	0.553727	0.402227	0.059302	0.290279	0.141605	0.115906	0.267757	0.197409	0.491414	0.515201	0.075871	0.210512	0.314888	0.142722	0.464324	0.252366	0.562108	0.402895	0.064308	0.169436	0.117946	0.163062
95	0.101393	0.105065	0.334947	0.653062	0.085982	0.255779	0.152004	0.068302	0.240708	0.222506	1.047214	0.441075	0.099014	0.358716	0.294485	0.179009	0.197074	0.287090	0.804907	0.887309	0.110635	0.112449	0.336049	0.114514	0.184530	0.240911	0.775575	0.417082	0.061626	0.184056	0.134317	0.130589	0.314884	0.528665	0.351454	0.590987	0.076025	0.207740	0.270729	0.141610	0.394234	0.086728	0.301245	0.390577	0.171907	0.438883	0.236219	0.212033	0.135548	0.192599	0.703731	0.644228	0.093163	0.279096	0.428558	0.139012	0.094801	0.117628	0.561136	0.447418	0.065877	0.287075	0.151181	0.103702	0.273978	0.177378	0.457862	0.526987	0.077961	0.207233	0.306725	0.142501	0.480673	0.252772	0.581266	0.400664	0.061452	0.178788	0.105747	0.162219
96	0.081796	0.121273	0.339229	0.665456	0.089184	0.257406	0.134640	0.061118	0.222652	0.221670	0.982143	0.436401	0.102338	0.358522	0.290827	0.175172	0.194422	0.250452	0.708568	0.943165	0.104507	0.106285	0.250228	0.105371	0.184486	0.251175	0.768595	0.406085	0.056633	0.180190	0.130314	0.125887	0.316028	0.410812	0.435648	0.550884	0.072332	0.206546	0.275948	0.140256	0.396427	0.102700	0.262623	0.381606	0.144559	0.389910	0.208628	0.213736	0.146883	0.187617	0.724217	0.570700	0.092875	0.255836	0.431278	0.148258	0.083630	0.090530	0.585290	0.471999	0.075929	0.299125	0.159873	0.102693	0.271690	0.168600	0.441891	0.551789	0.073030	0.204619	0.260841	0.137267	0.561245	0.265382	0.582949	0.406706	0.059457	0.181627	0.097676	0.154285
97	0.078317	0.123606	0.295227	0.682715	0.090229	0.272837	0.116556	0.057916	0.214667	0.219355	0.784278	0.432488	0.102092	0.356080	0.272874	0.141504	0.193850	0.249425	0.686720	1.000090	0.089449	0.100745	0.219653	0.105024	0.198252	0.259953	0.749729	0.389050	0.055758	0.172643	0.131863	0.126770	0.257379	0.181316	0.428368	0.531823	0.070037	0.212894	0.285954	0.139787	0.406290	0.100545	0.234524	0.357628	0.112384	0.321246	0.176866	0.213059	0.145491	0.177644	0.726446	0.503591	0.092965	0.252769	0.420893	0.155701	0.079717	0.102601	0.620218	0.483420	0.078282	0.308890	0.161151	0.108370	0.271791	0.168404	0.405755	0.578379	0.070223	0.205150	0.232762	0.110766	0.648752	0.284030	0.578969	0.380417	0.056040	0.187315	0.097357	0.138308
98	0.070761	0.125670	0.309140	0.663582	0.087287	0.277856	0.098299	0.057217	0.209504	0.218977	0.710443	0.371085	0.100611	0.345311	0.270989	0.120405	0.177771	0.262450	0.683453	1.011136	0.102284	0.111449	0.217589	0.118295	0.224141	0.264679	0.696203	0.361509	0.056270	0.167583	0.134885	0.142132	0.140110	0.121071	0.403875	0.559828	0.069423	0.213668	0.302754	0.137005	0.382253	0.098248	0.219397	0.343395	0.087512	0.279819	0.171043	0.195767	0.139133	0.163444	0.713000	0.478638	0.090110	0.193354	0.388842	0.150524	0.097798	0.114890	0.615313	0.490108	0.079122	0.311123	0.160635	0.114299	0.279617	0.168189	0.375822	0.595848	0.070585	0.193818	0.230518	0.075738	0.662584	0.296122	0.569821	0.304707	0.057806	0.190087	0.094470	0.125832
99	0.079934	0.140070	0.306424	0.660729	0.086048	0.275704	0.086405	0.056468	0.204514	0.217670	0.702655	0.337935	0.091074	0.234767	0.260409	0.119672	0.184386	0.280651	0.706203	1.013225	0.108685	0.112813	0.218000	0.153908	0.247575	0.262144	0.657363	0.316776	0.055295	0.137449	0.150162	0.167087	0.117537	0.118572	0.400716	0.546993	0.071726	0.225903	0.315234	0.143964	0.376682	0.098414	0.227193	0.319606	0.080226	0.254305	0.151058	0.176873	0.132963	0.148234	0.697050	0.477807	0.089810	0.188111	0.362603	0.134827	0.126243	0.115760	0.581509	0.516064	0.077213	0.314688	0.157192	0.114050	0.291569	0.168170	0.374302	0.575686	0.074353	0.136456	0.207603	0.069924	0.666043	0.303715	0.572112	0.262728	0.062559	0.189331	0.093923	0.121267
100	0.081930	0.131635	0.343043	0.571488	0.084568	0.279870	0.084366	0.055267	0.198528	0.212916	0.708951	0.338669	0.087057	0.215207	0.216978	0.113787	0.259087	0.285342	0.755801	1.034720	0.109116	0.113160	0.219049	0.155753	0.264305	0.235721	0.651272	0.316487	0.052686	0.116452	0.172277	0.181381	0.114472	0.128913	0.380446	0.509505	0.069982	0.271079	0.312361	0.171782	0.367583	0.090557	0.223953	0.279663	0.089819	0.302840	0.149879	0.188721	0.126052	0.132029	0.665638	0.503801	0.082552	0.188861	0.365954	0.118514	0.135740	0.121287	0.558092	0.552087	0.082106	0.333434	0.156490	0.116876	0.313972	0.168608	0.334294	0.553539	0.072546	0.127826	0.202130	0.061594	0.664054	0.308655	0.569305	0.221464	0.064608	0.191224	0.095773	0.121542
101	0.094572	0.135114	0.362752	0.691536	0.084845	0.294305	0.071761	0.056174	0.197160	0.225964	0.708712	0.326023	0.084275	0.218432	0.148921	0.102278	0.304070	0.287982	0.709796	1.054039	0.109363	0.116817	0.195439	0.159574	0.294046	0.195657	0.646033	0.315546	0.054276	0.114042	0.172646	0.183892	0.117782	0.153322	0.376205	0.507834	0.059696	0.279216	0.277157	0.201029	0.374117	0.106704	0.219306	0.284716	0.095565	0.333039	0.151235	0.198719	0.116808	0.125379	0.611219	0.539309	0.071646	0.187870	0.322717	0.120064	0.133280	0.144960	0.466626	0.577513	0.086238	0.341549	0.157303	0.123017	0.323810	0.172039	0.319386	0.561913	0.058060	0.125674	0.200286	0.059054	0.663259	0.313035	0.541464	0.207521	0.070823	0.190140	0.096700	0.113869
