	112_F_P_sh_R_D_A_02.c3d	112_F_P_sh_R_D_A_02.c3d	112_F_P_sh_R_D_A_02.c3d	112_F_P_sh_R_D_A_02.c3d	112_F_P_sh_R_D_A_02.c3d	112_F_P_sh_R_D_A_02.c3d	112_F_P_sh_R_D_A_02.c3d	112_F_P_sh_R_D_A_02.c3d	112_F_P_sh_R_D_A_03.c3d	112_F_P_sh_R_D_A_03.c3d	112_F_P_sh_R_D_A_03.c3d	112_F_P_sh_R_D_A_03.c3d	112_F_P_sh_R_D_A_03.c3d	112_F_P_sh_R_D_A_03.c3d	112_F_P_sh_R_D_A_03.c3d	112_F_P_sh_R_D_A_03.c3d	112_F_P_sh_R_D_A_04.c3d	112_F_P_sh_R_D_A_04.c3d	112_F_P_sh_R_D_A_04.c3d	112_F_P_sh_R_D_A_04.c3d	112_F_P_sh_R_D_A_04.c3d	112_F_P_sh_R_D_A_04.c3d	112_F_P_sh_R_D_A_04.c3d	112_F_P_sh_R_D_A_04.c3d	112_F_P_sh_R_D_A_05.c3d	112_F_P_sh_R_D_A_05.c3d	112_F_P_sh_R_D_A_05.c3d	112_F_P_sh_R_D_A_05.c3d	112_F_P_sh_R_D_A_05.c3d	112_F_P_sh_R_D_A_05.c3d	112_F_P_sh_R_D_A_05.c3d	112_F_P_sh_R_D_A_05.c3d	112_F_P_sh_R_D_A_06.c3d	112_F_P_sh_R_D_A_06.c3d	112_F_P_sh_R_D_A_06.c3d	112_F_P_sh_R_D_A_06.c3d	112_F_P_sh_R_D_A_06.c3d	112_F_P_sh_R_D_A_06.c3d	112_F_P_sh_R_D_A_06.c3d	112_F_P_sh_R_D_A_06.c3d	112_F_P_sh_R_D_A_07.c3d	112_F_P_sh_R_D_A_07.c3d	112_F_P_sh_R_D_A_07.c3d	112_F_P_sh_R_D_A_07.c3d	112_F_P_sh_R_D_A_07.c3d	112_F_P_sh_R_D_A_07.c3d	112_F_P_sh_R_D_A_07.c3d	112_F_P_sh_R_D_A_07.c3d	112_F_P_sh_R_D_A_08.c3d	112_F_P_sh_R_D_A_08.c3d	112_F_P_sh_R_D_A_08.c3d	112_F_P_sh_R_D_A_08.c3d	112_F_P_sh_R_D_A_08.c3d	112_F_P_sh_R_D_A_08.c3d	112_F_P_sh_R_D_A_08.c3d	112_F_P_sh_R_D_A_08.c3d	112_F_P_sh_R_D_A_09.c3d	112_F_P_sh_R_D_A_09.c3d	112_F_P_sh_R_D_A_09.c3d	112_F_P_sh_R_D_A_09.c3d	112_F_P_sh_R_D_A_09.c3d	112_F_P_sh_R_D_A_09.c3d	112_F_P_sh_R_D_A_09.c3d	112_F_P_sh_R_D_A_09.c3d	112_F_P_sh_R_D_A_10.c3d	112_F_P_sh_R_D_A_10.c3d	112_F_P_sh_R_D_A_10.c3d	112_F_P_sh_R_D_A_10.c3d	112_F_P_sh_R_D_A_10.c3d	112_F_P_sh_R_D_A_10.c3d	112_F_P_sh_R_D_A_10.c3d	112_F_P_sh_R_D_A_10.c3d
	Biceps femoris_lat	Semitendinosus_lat	Vastus lateralis_lat	Vastus medialis_lat	Biceps femoris_med	Semitendinosus_med	Vastus lateralis_med	Vastus medialis_med	Biceps femoris_lat	Semitendinosus_lat	Vastus lateralis_lat	Vastus medialis_lat	Biceps femoris_med	Semitendinosus_med	Vastus lateralis_med	Vastus medialis_med	Biceps femoris_lat	Semitendinosus_lat	Vastus lateralis_lat	Vastus medialis_lat	Biceps femoris_med	Semitendinosus_med	Vastus lateralis_med	Vastus medialis_med	Biceps femoris_lat	Semitendinosus_lat	Vastus lateralis_lat	Vastus medialis_lat	Biceps femoris_med	Semitendinosus_med	Vastus lateralis_med	Vastus medialis_med	Biceps femoris_lat	Semitendinosus_lat	Vastus lateralis_lat	Vastus medialis_lat	Biceps femoris_med	Semitendinosus_med	Vastus lateralis_med	Vastus medialis_med	Biceps femoris_lat	Semitendinosus_lat	Vastus lateralis_lat	Vastus medialis_lat	Biceps femoris_med	Semitendinosus_med	Vastus lateralis_med	Vastus medialis_med	Biceps femoris_lat	Semitendinosus_lat	Vastus lateralis_lat	Vastus medialis_lat	Biceps femoris_med	Semitendinosus_med	Vastus lateralis_med	Vastus medialis_med	Biceps femoris_lat	Semitendinosus_lat	Vastus lateralis_lat	Vastus medialis_lat	Biceps femoris_med	Semitendinosus_med	Vastus lateralis_med	Vastus medialis_med	Biceps femoris_lat	Semitendinosus_lat	Vastus lateralis_lat	Vastus medialis_lat	Biceps femoris_med	Semitendinosus_med	Vastus lateralis_med	Vastus medialis_med
	P2D	P2D	P2D	P2D	P2D	P2D	P2D	P2D	P2D	P2D	P2D	P2D	P2D	P2D	P2D	P2D	P2D	P2D	P2D	P2D	P2D	P2D	P2D	P2D	P2D	P2D	P2D	P2D	P2D	P2D	P2D	P2D	P2D	P2D	P2D	P2D	P2D	P2D	P2D	P2D	P2D	P2D	P2D	P2D	P2D	P2D	P2D	P2D	P2D	P2D	P2D	P2D	P2D	P2D	P2D	P2D	P2D	P2D	P2D	P2D	P2D	P2D	P2D	P2D	P2D	P2D	P2D	P2D	P2D	P2D	P2D	P2D
	EMG_lat	EMG_lat	EMG_lat	EMG_lat	EMG_med	EMG_med	EMG_med	EMG_med	EMG_lat	EMG_lat	EMG_lat	EMG_lat	EMG_med	EMG_med	EMG_med	EMG_med	EMG_lat	EMG_lat	EMG_lat	EMG_lat	EMG_med	EMG_med	EMG_med	EMG_med	EMG_lat	EMG_lat	EMG_lat	EMG_lat	EMG_med	EMG_med	EMG_med	EMG_med	EMG_lat	EMG_lat	EMG_lat	EMG_lat	EMG_med	EMG_med	EMG_med	EMG_med	EMG_lat	EMG_lat	EMG_lat	EMG_lat	EMG_med	EMG_med	EMG_med	EMG_med	EMG_lat	EMG_lat	EMG_lat	EMG_lat	EMG_med	EMG_med	EMG_med	EMG_med	EMG_lat	EMG_lat	EMG_lat	EMG_lat	EMG_med	EMG_med	EMG_med	EMG_med	EMG_lat	EMG_lat	EMG_lat	EMG_lat	EMG_med	EMG_med	EMG_med	EMG_med
ITEM	Y	Y	Y	Y	Y	Y	Y	Y	Y	Y	Y	Y	Y	Y	Y	Y	Y	Y	Y	Y	Y	Y	Y	Y	Y	Y	Y	Y	Y	Y	Y	Y	Y	Y	Y	Y	Y	Y	Y	Y	Y	Y	Y	Y	Y	Y	Y	Y	Y	Y	Y	Y	Y	Y	Y	Y	Y	Y	Y	Y	Y	Y	Y	Y	Y	Y	Y	Y	Y	Y	Y	Y
1	0.436603	0.270669	0.596992	0.371301	0.309433	0.151828	0.472410	0.469559	0.586180	0.757984	0.333945	0.362720	0.240518	0.123029	0.644828	0.565732	0.749934	0.322372	0.427517	0.336022	0.222318	0.136634	0.170627	0.294488	0.230442	0.135205	0.391951	0.448135	0.336885	0.150177	0.237216	0.341699	0.321238	0.311126	0.333607	0.517972	0.118674	0.075546	0.299915	0.358198	0.253450	0.230370	0.344074	0.353406	0.188947	0.089450	0.395460	0.450415	0.346346	0.210727	0.327159	0.495188	0.164381	0.076013	0.453297	0.245674	0.348839	0.203100	0.281759	0.545759	0.069275	0.057203	0.143168	0.342486	0.354095	0.173320	0.235137	0.475610	0.048671	0.057357	0.180017	0.641648
2	0.447435	0.247491	0.595910	0.394850	0.302857	0.153639	0.515546	0.525028	0.498470	0.702875	0.348452	0.368931	0.263429	0.161449	0.653217	0.701242	0.764425	0.314157	0.426625	0.363755	0.217192	0.117732	0.162381	0.215967	0.225654	0.081311	0.393993	0.440822	0.324316	0.148296	0.233861	0.344425	0.311389	0.311156	0.352320	0.579432	0.125083	0.077738	0.327040	0.386022	0.240172	0.214208	0.374252	0.353781	0.182732	0.093456	0.399572	0.450475	0.359440	0.216668	0.332270	0.493773	0.163970	0.078012	0.456964	0.244726	0.353447	0.202989	0.280140	0.600084	0.076306	0.069435	0.142311	0.346662	0.352062	0.183299	0.235088	0.560674	0.055214	0.059496	0.193644	0.641791
3	0.449123	0.229960	0.562323	0.389138	0.284147	0.153802	0.541510	0.500226	0.441830	0.667879	0.334722	0.371716	0.267702	0.184617	0.671293	0.749335	0.765839	0.309187	0.427948	0.378627	0.216475	0.118182	0.165826	0.187548	0.223088	0.074143	0.390466	0.395887	0.274448	0.126278	0.239562	0.361242	0.315310	0.309207	0.360663	0.574700	0.130573	0.078121	0.342931	0.379220	0.240669	0.213808	0.484183	0.356705	0.178954	0.094903	0.432920	0.486178	0.368044	0.220833	0.336741	0.501461	0.164389	0.085005	0.457445	0.250443	0.410623	0.218959	0.287976	0.609118	0.076702	0.072402	0.141613	0.342766	0.368936	0.191945	0.240537	0.559750	0.056716	0.062127	0.187902	0.670393
4	0.452229	0.227124	0.493424	0.402621	0.276470	0.158081	0.545694	0.489295	0.433900	0.664830	0.332725	0.371247	0.260952	0.186034	0.673095	0.757264	0.742772	0.306631	0.456561	0.379475	0.227656	0.108301	0.162162	0.160646	0.214493	0.072827	0.388221	0.338528	0.201774	0.094735	0.241371	0.350199	0.314090	0.298173	0.364132	0.580787	0.135641	0.079031	0.345717	0.373190	0.237233	0.210392	0.595402	0.356903	0.174267	0.094800	0.469723	0.509873	0.372920	0.218930	0.340128	0.514717	0.160387	0.093171	0.455271	0.255435	0.407596	0.256892	0.319286	0.609820	0.072840	0.070975	0.135077	0.338428	0.374598	0.197631	0.243325	0.585039	0.057786	0.064247	0.191911	0.676068
5	0.464254	0.235064	0.421742	0.410380	0.288687	0.165430	0.587525	0.507761	0.358902	0.595156	0.325367	0.365232	0.249869	0.181124	0.672047	0.788078	0.617306	0.306565	0.491625	0.387209	0.221517	0.093402	0.171904	0.135693	0.205162	0.094464	0.427182	0.354327	0.117859	0.085335	0.239958	0.385957	0.291913	0.279222	0.364297	0.588004	0.140603	0.082162	0.361819	0.374598	0.233494	0.196494	0.622908	0.353376	0.166376	0.094983	0.487614	0.497696	0.402149	0.217038	0.321062	0.519697	0.156255	0.099655	0.454121	0.266953	0.400048	0.287845	0.350920	0.609693	0.074923	0.071848	0.144762	0.291879	0.373582	0.200913	0.225274	0.612938	0.057812	0.064395	0.216997	0.688035
6	0.474598	0.235168	0.411242	0.390342	0.292754	0.169803	0.628906	0.503301	0.322192	0.372024	0.281547	0.369455	0.245238	0.176705	0.682023	0.813600	0.426123	0.289248	0.504780	0.362764	0.206522	0.081168	0.170502	0.127932	0.232407	0.138698	0.428743	0.406921	0.098800	0.087069	0.266052	0.391274	0.256470	0.253750	0.360309	0.575258	0.139691	0.083074	0.426718	0.361475	0.224685	0.176258	0.624252	0.351733	0.156209	0.094399	0.499920	0.483558	0.459731	0.218328	0.279069	0.516801	0.162391	0.106575	0.447944	0.270887	0.387243	0.297347	0.361658	0.611842	0.078750	0.074701	0.147161	0.263834	0.358686	0.195583	0.220064	0.627817	0.058072	0.064374	0.213846	0.691718
7	0.492455	0.211156	0.338406	0.397797	0.287512	0.169776	0.637314	0.438331	0.372135	0.250581	0.251720	0.436620	0.239226	0.174372	0.696121	0.822530	0.379602	0.261248	0.510960	0.361948	0.189149	0.064504	0.150331	0.137174	0.241828	0.161523	0.429679	0.411708	0.107494	0.084775	0.336667	0.389376	0.218346	0.220349	0.359849	0.557789	0.141001	0.105522	0.440897	0.359010	0.227651	0.171999	0.639617	0.349656	0.147487	0.092695	0.498583	0.485106	0.486416	0.199451	0.274077	0.522923	0.171861	0.111881	0.423654	0.268112	0.383540	0.296697	0.375212	0.660083	0.079780	0.083563	0.154089	0.255563	0.343759	0.186466	0.209129	0.615091	0.059524	0.065219	0.232932	0.705154
8	0.491435	0.197180	0.304622	0.408240	0.282230	0.169647	0.640627	0.418055	0.439621	0.273671	0.279918	0.460810	0.234980	0.174042	0.697829	0.824530	0.434863	0.262142	0.492628	0.344979	0.209018	0.063226	0.134241	0.178848	0.247241	0.168829	0.430066	0.454267	0.109076	0.074176	0.405904	0.386162	0.214579	0.212393	0.339808	0.555736	0.148542	0.142588	0.425165	0.383260	0.229289	0.173760	0.641081	0.350638	0.140083	0.092299	0.524248	0.479418	0.457723	0.174267	0.274509	0.525967	0.172402	0.113163	0.415853	0.271900	0.367474	0.297554	0.409381	0.725122	0.078310	0.089902	0.153499	0.246222	0.352002	0.181755	0.201877	0.608070	0.059246	0.064784	0.274948	0.692530
9	0.512594	0.221382	0.290466	0.406934	0.281308	0.170706	0.643747	0.414953	0.523208	0.346299	0.286760	0.467366	0.234111	0.175687	0.690238	0.850630	0.503892	0.279371	0.500733	0.501860	0.219145	0.062702	0.154222	0.208061	0.250176	0.169411	0.427003	0.494522	0.116083	0.064483	0.468817	0.405496	0.216915	0.207059	0.289486	0.556174	0.149381	0.153804	0.427766	0.381133	0.225138	0.170603	0.637781	0.351488	0.140096	0.092897	0.560364	0.485900	0.436807	0.157151	0.274516	0.523043	0.171767	0.114986	0.414888	0.259427	0.362280	0.298225	0.407821	0.722540	0.079825	0.094478	0.158378	0.236858	0.363934	0.182147	0.195571	0.607301	0.060226	0.063568	0.279695	0.688988
10	0.525130	0.232403	0.281237	0.411351	0.280418	0.173087	0.602467	0.424227	0.557377	0.411621	0.286124	0.476502	0.236645	0.178087	0.661489	0.856527	0.528915	0.274320	0.564256	0.591463	0.241878	0.064015	0.206228	0.253405	0.249477	0.165303	0.426951	0.500155	0.118378	0.059186	0.476955	0.424403	0.209266	0.191699	0.297262	0.558761	0.148461	0.160558	0.429536	0.386917	0.213615	0.171723	0.634972	0.356632	0.139218	0.090229	0.588176	0.486700	0.453035	0.144004	0.274750	0.521989	0.172709	0.118719	0.415074	0.259771	0.363056	0.299034	0.407466	0.712569	0.082714	0.099040	0.156766	0.269183	0.375628	0.187141	0.231397	0.603118	0.059728	0.062045	0.272642	0.695727
11	0.531250	0.232532	0.269596	0.398016	0.255895	0.163081	0.615717	0.461803	0.564612	0.461054	0.284631	0.475206	0.235953	0.178876	0.652076	0.853141	0.532991	0.238253	0.578856	0.592069	0.288278	0.073051	0.320529	0.299854	0.247962	0.165607	0.404579	0.499703	0.117745	0.057158	0.516447	0.431537	0.191696	0.164769	0.368794	0.564675	0.147232	0.163116	0.446658	0.463797	0.215756	0.178425	0.650707	0.390916	0.129673	0.085290	0.575727	0.484805	0.494337	0.136015	0.269929	0.460407	0.174244	0.120800	0.382100	0.296813	0.362925	0.296233	0.404331	0.712580	0.087733	0.105620	0.159568	0.271610	0.396504	0.202984	0.279335	0.597691	0.058485	0.061734	0.269202	0.681411
12	0.553948	0.226450	0.268837	0.384673	0.210896	0.123789	0.595017	0.469139	0.571854	0.471936	0.283000	0.473927	0.229403	0.177699	0.653514	0.822683	0.530817	0.231342	0.599960	0.591826	0.285462	0.073948	0.324158	0.296063	0.241293	0.177539	0.375557	0.485080	0.118054	0.055931	0.613308	0.425801	0.192734	0.138641	0.402465	0.625585	0.148057	0.174505	0.461921	0.494386	0.223001	0.183019	0.664241	0.409166	0.117236	0.075851	0.537893	0.482709	0.530804	0.133034	0.262980	0.326699	0.171192	0.121378	0.290997	0.317769	0.364055	0.284670	0.403547	0.711490	0.101635	0.114182	0.203348	0.253860	0.414419	0.225973	0.290745	0.598076	0.058774	0.061764	0.269928	0.627940
13	0.515037	0.214231	0.263027	0.368000	0.173804	0.109279	0.540129	0.429440	0.612135	0.538138	0.274332	0.479306	0.222511	0.178790	0.656604	0.824549	0.526157	0.233909	0.578616	0.598593	0.264469	0.067017	0.344754	0.291229	0.240665	0.191905	0.352686	0.477727	0.117299	0.055641	0.658127	0.439076	0.208198	0.128686	0.394643	0.649723	0.158761	0.209002	0.461326	0.494284	0.221940	0.178612	0.672445	0.411118	0.109824	0.073001	0.527712	0.497147	0.543563	0.132538	0.254021	0.271295	0.159244	0.121369	0.259260	0.446434	0.343006	0.257841	0.403352	0.710413	0.120520	0.121829	0.216580	0.244871	0.434625	0.250713	0.291212	0.598780	0.064450	0.063807	0.272749	0.621287
14	0.476963	0.217169	0.230966	0.295686	0.164282	0.109701	0.516866	0.369281	0.678731	0.587603	0.272007	0.473211	0.217522	0.179087	0.638011	0.827917	0.516846	0.231958	0.530099	0.602361	0.256163	0.066333	0.373148	0.293233	0.229891	0.200888	0.314823	0.459986	0.118344	0.056058	0.669277	0.444955	0.214329	0.123089	0.412667	0.636520	0.172884	0.233777	0.453565	0.499223	0.211016	0.167763	0.677072	0.409724	0.111892	0.072795	0.529476	0.503725	0.545727	0.132266	0.227559	0.271336	0.159286	0.120963	0.256735	0.669027	0.317796	0.234405	0.400530	0.711352	0.131381	0.121487	0.209215	0.264575	0.471571	0.269749	0.291241	0.602862	0.070348	0.063608	0.271703	0.483979
15	0.479265	0.227635	0.225248	0.271313	0.175770	0.122723	0.544576	0.364160	0.728259	0.610784	0.255845	0.412134	0.216308	0.179079	0.541175	0.838813	0.500336	0.219047	0.509089	0.606582	0.254792	0.066891	0.378004	0.295883	0.228462	0.208484	0.400217	0.458420	0.123954	0.059147	0.673359	0.443390	0.213941	0.121475	0.465328	0.599752	0.184283	0.249592	0.457435	0.502388	0.198508	0.158138	0.670754	0.381547	0.167485	0.068800	0.554904	0.497272	0.545047	0.130917	0.181043	0.260507	0.160233	0.121495	0.269230	0.757345	0.308297	0.232035	0.363055	0.645935	0.127691	0.116436	0.212937	0.334429	0.506125	0.279317	0.291820	0.612748	0.067201	0.056879	0.275356	0.387632
16	0.481307	0.230263	0.231440	0.256940	0.174668	0.123972	0.543990	0.327587	0.766042	0.623572	0.220289	0.406973	0.205702	0.174598	0.368417	0.877324	0.475315	0.192293	0.510558	0.604020	0.250815	0.066853	0.378968	0.306111	0.255209	0.220568	0.446449	0.450175	0.129283	0.062411	0.673625	0.440300	0.213294	0.119967	0.497688	0.534553	0.194139	0.259048	0.447438	0.472602	0.195127	0.149936	0.655190	0.336394	0.197831	0.065377	0.580134	0.461453	0.556172	0.126778	0.142817	0.262056	0.162831	0.124188	0.287470	0.749586	0.307241	0.232332	0.322860	0.510366	0.124738	0.112874	0.248172	0.412188	0.528373	0.280429	0.290880	0.619388	0.062131	0.052955	0.281658	0.383651
17	0.478951	0.226653	0.242507	0.235848	0.149865	0.116180	0.490959	0.320749	0.793041	0.629045	0.211001	0.404951	0.170458	0.140209	0.351138	0.833529	0.449449	0.177515	0.510096	0.593699	0.232063	0.066444	0.375520	0.302017	0.328757	0.232694	0.452941	0.442814	0.129438	0.063100	0.674554	0.440404	0.212074	0.117158	0.505089	0.498656	0.195379	0.261100	0.427226	0.450617	0.193349	0.139278	0.644362	0.358027	0.197251	0.064442	0.588678	0.446765	0.570694	0.115895	0.144432	0.262542	0.167279	0.124766	0.317588	0.779524	0.291578	0.234620	0.321631	0.456210	0.131191	0.115390	0.295465	0.418618	0.540955	0.280152	0.289883	0.621917	0.063395	0.050063	0.292766	0.355013
18	0.470070	0.217950	0.199455	0.269622	0.145994	0.110461	0.450851	0.324144	0.797809	0.629816	0.207072	0.405600	0.133394	0.102929	0.318242	0.808362	0.432887	0.177463	0.506020	0.588796	0.219960	0.069486	0.367945	0.302585	0.394174	0.240862	0.455455	0.443927	0.136196	0.065103	0.680433	0.480884	0.233564	0.126616	0.502094	0.503135	0.194344	0.263525	0.411012	0.467280	0.198490	0.130010	0.637539	0.360301	0.196436	0.059773	0.608530	0.397866	0.564055	0.107424	0.133116	0.273612	0.172110	0.123384	0.335787	0.815494	0.211294	0.224963	0.310687	0.446738	0.146362	0.124006	0.301488	0.445449	0.538014	0.287442	0.282751	0.623770	0.061796	0.047503	0.285970	0.360744
19	0.458208	0.210218	0.214638	0.268569	0.147464	0.107353	0.440800	0.314574	0.796711	0.629910	0.200187	0.406694	0.117895	0.086001	0.307577	0.802214	0.420212	0.177445	0.477423	0.564448	0.202630	0.072733	0.357486	0.275931	0.417021	0.240256	0.465534	0.448661	0.158706	0.074061	0.680608	0.509184	0.283709	0.144219	0.509116	0.519223	0.207741	0.272005	0.413682	0.557488	0.230874	0.132017	0.638484	0.351063	0.209046	0.053339	0.612016	0.394204	0.558884	0.104975	0.136121	0.275731	0.175326	0.120601	0.338998	0.818899	0.189088	0.185254	0.276108	0.446341	0.155468	0.128586	0.299631	0.459740	0.532733	0.297047	0.281157	0.623244	0.061733	0.047657	0.278084	0.336169
20	0.426176	0.205452	0.235889	0.234954	0.148493	0.105634	0.445538	0.315947	0.785666	0.628583	0.176056	0.400838	0.113213	0.082680	0.302543	0.767290	0.434384	0.177819	0.445020	0.522898	0.122098	0.064209	0.256126	0.220867	0.407988	0.224891	0.522109	0.407860	0.176406	0.079689	0.678339	0.497947	0.304378	0.149305	0.509819	0.520046	0.213966	0.275380	0.413683	0.575030	0.281108	0.140519	0.636432	0.345532	0.212319	0.052578	0.591924	0.357839	0.548185	0.108709	0.134383	0.266206	0.171283	0.116382	0.357325	0.815847	0.192089	0.139737	0.237911	0.447796	0.160750	0.127755	0.295908	0.460923	0.554901	0.303752	0.279819	0.597931	0.061341	0.047348	0.285781	0.328280
21	0.395698	0.190683	0.219810	0.231024	0.148075	0.103607	0.432311	0.291892	0.761443	0.619195	0.168265	0.323734	0.112092	0.083446	0.274617	0.727216	0.468382	0.184752	0.436625	0.522493	0.072806	0.070419	0.245160	0.216745	0.397668	0.217670	0.538443	0.438088	0.185185	0.080760	0.678396	0.479985	0.305485	0.150661	0.509064	0.514845	0.212629	0.275421	0.382057	0.570401	0.301818	0.144866	0.630083	0.351581	0.213351	0.058897	0.568041	0.288193	0.515680	0.111792	0.133856	0.255698	0.156706	0.107888	0.363584	0.814899	0.198348	0.123090	0.232575	0.446349	0.164248	0.124995	0.295102	0.463601	0.595506	0.306403	0.273664	0.459492	0.058792	0.043002	0.274097	0.280200
22	0.342571	0.161146	0.262365	0.239844	0.152677	0.103572	0.421147	0.285447	0.713905	0.591249	0.111629	0.277597	0.112410	0.085005	0.243393	0.719429	0.478897	0.205590	0.418441	0.522498	0.078038	0.107950	0.222496	0.218678	0.432993	0.239441	0.535653	0.468080	0.187274	0.080417	0.677455	0.444370	0.302405	0.149395	0.508258	0.519868	0.212467	0.274924	0.310153	0.568205	0.317748	0.147227	0.567728	0.367507	0.218551	0.067933	0.554762	0.255071	0.466366	0.111984	0.129104	0.241767	0.137979	0.100991	0.351350	0.813464	0.215871	0.125914	0.216934	0.345412	0.166199	0.128750	0.289502	0.463992	0.603412	0.304681	0.272981	0.419238	0.054903	0.037468	0.228945	0.275804
23	0.327832	0.156592	0.293500	0.222492	0.154138	0.103512	0.387011	0.220160	0.649279	0.546982	0.094896	0.262030	0.114628	0.089023	0.237624	0.710895	0.442607	0.225403	0.413580	0.522013	0.106624	0.163364	0.148459	0.231095	0.465144	0.253229	0.534058	0.415858	0.185366	0.078465	0.661572	0.438294	0.299615	0.151509	0.511284	0.516845	0.208484	0.262121	0.301251	0.550072	0.324284	0.147775	0.472032	0.373006	0.224550	0.070811	0.539383	0.249782	0.428542	0.112368	0.135397	0.217243	0.129964	0.097206	0.333219	0.812410	0.253369	0.134300	0.144835	0.186744	0.165422	0.130326	0.298482	0.458620	0.618577	0.301421	0.260846	0.405910	0.053548	0.033183	0.219597	0.278135
24	0.319554	0.159245	0.293524	0.232458	0.140105	0.105005	0.385259	0.204370	0.617670	0.499260	0.164265	0.211518	0.117386	0.091474	0.231143	0.654548	0.374810	0.211454	0.379061	0.336155	0.113845	0.195198	0.131265	0.237999	0.468110	0.256360	0.534145	0.387198	0.181762	0.075896	0.620896	0.439304	0.299004	0.154303	0.510549	0.540776	0.199321	0.246569	0.298995	0.532612	0.321742	0.145133	0.452883	0.369890	0.228378	0.070826	0.536816	0.243203	0.412901	0.113214	0.164228	0.209978	0.124706	0.093075	0.332973	0.812376	0.288303	0.151704	0.138770	0.171879	0.164596	0.128835	0.328389	0.447590	0.644011	0.298173	0.249024	0.356981	0.055190	0.034294	0.220597	0.271459
25	0.257679	0.154347	0.293124	0.254390	0.132948	0.104313	0.380259	0.262407	0.609405	0.454700	0.260114	0.184221	0.114565	0.090108	0.229768	0.568412	0.399712	0.203701	0.268765	0.207183	0.115832	0.205705	0.123827	0.229377	0.470026	0.256229	0.534552	0.377843	0.174031	0.070503	0.563579	0.425393	0.297060	0.155370	0.480553	0.544093	0.192226	0.237102	0.290055	0.530736	0.321130	0.139588	0.447337	0.365186	0.228796	0.069794	0.517431	0.234518	0.436947	0.130557	0.170957	0.209997	0.118660	0.088362	0.320486	0.813209	0.305255	0.163898	0.164268	0.186267	0.161909	0.123021	0.312921	0.457948	0.649526	0.295464	0.248596	0.304264	0.060297	0.034872	0.220205	0.259620
26	0.214376	0.148350	0.292963	0.264420	0.141096	0.104108	0.379227	0.268877	0.604469	0.449153	0.276852	0.180488	0.105787	0.092229	0.229845	0.555622	0.428396	0.213469	0.244894	0.213955	0.118156	0.278466	0.116965	0.217467	0.474694	0.250415	0.551531	0.379708	0.163069	0.066644	0.516918	0.408149	0.294725	0.158598	0.423866	0.504055	0.186429	0.230085	0.283601	0.509420	0.327249	0.138151	0.428282	0.364923	0.229888	0.067441	0.475141	0.202991	0.443280	0.166171	0.168439	0.225795	0.116731	0.086415	0.304998	0.800397	0.312949	0.164748	0.242831	0.279183	0.154485	0.116086	0.288584	0.447994	0.652528	0.295206	0.248493	0.265508	0.064935	0.034819	0.217177	0.254237
27	0.225882	0.134464	0.296129	0.290389	0.122325	0.086240	0.361440	0.282961	0.570381	0.376103	0.275704	0.232077	0.099313	0.092625	0.233610	0.555905	0.438148	0.224223	0.182807	0.214240	0.119817	0.320094	0.115076	0.177229	0.493207	0.241109	0.595086	0.391233	0.162257	0.066532	0.511849	0.374888	0.300986	0.152890	0.418824	0.433253	0.185864	0.228708	0.243570	0.430462	0.335187	0.140678	0.425874	0.365429	0.226291	0.067040	0.436848	0.197828	0.435901	0.186576	0.166734	0.236655	0.116431	0.086079	0.310255	0.797852	0.312588	0.166436	0.249877	0.298249	0.139123	0.119032	0.295051	0.445558	0.648331	0.296216	0.247771	0.267753	0.062390	0.031844	0.214005	0.236224
28	0.274734	0.161826	0.299877	0.325795	0.115841	0.103431	0.354753	0.389220	0.493158	0.289832	0.344956	0.273878	0.101118	0.092565	0.261714	0.550025	0.438404	0.234016	0.172063	0.198660	0.144512	0.346074	0.106289	0.164001	0.507941	0.234224	0.599529	0.420621	0.162798	0.066262	0.436881	0.361784	0.323405	0.139659	0.395857	0.427766	0.183666	0.213882	0.231057	0.417823	0.339834	0.141592	0.430281	0.382348	0.223600	0.065955	0.417184	0.196410	0.428677	0.189639	0.177047	0.231335	0.115586	0.086960	0.335822	0.725258	0.343587	0.181771	0.249505	0.311528	0.133520	0.119183	0.335431	0.416238	0.643214	0.297931	0.245454	0.273108	0.055254	0.030537	0.215005	0.231727
29	0.318939	0.201766	0.300500	0.331888	0.116563	0.136277	0.371044	0.415849	0.416488	0.233643	0.441841	0.273040	0.108231	0.092498	0.268827	0.553512	0.433226	0.233995	0.151798	0.204700	0.191400	0.360694	0.103302	0.184889	0.509241	0.233571	0.565914	0.444914	0.163438	0.067362	0.278635	0.355273	0.322393	0.138491	0.337274	0.413860	0.172737	0.184002	0.214760	0.423061	0.343987	0.136831	0.431999	0.382992	0.222146	0.064499	0.416511	0.193241	0.444339	0.191451	0.181654	0.286333	0.113513	0.085942	0.343025	0.521745	0.386662	0.200585	0.250519	0.308677	0.142251	0.119459	0.341064	0.329852	0.642071	0.300085	0.241632	0.276692	0.055103	0.058704	0.223058	0.238850
30	0.320280	0.217348	0.303328	0.334622	0.118879	0.168885	0.398525	0.416008	0.359150	0.202924	0.544965	0.283632	0.119315	0.092783	0.213937	0.542709	0.425805	0.235301	0.160304	0.202292	0.203932	0.366329	0.098084	0.182312	0.503466	0.229982	0.510212	0.432472	0.163283	0.071540	0.206479	0.338992	0.321608	0.141303	0.250405	0.388700	0.157649	0.163322	0.201703	0.425163	0.341483	0.127709	0.406298	0.358435	0.225963	0.065893	0.417076	0.158297	0.445884	0.199086	0.187600	0.363746	0.112202	0.083941	0.326563	0.419349	0.419895	0.213835	0.254506	0.305765	0.149163	0.126081	0.297761	0.299491	0.636410	0.300873	0.185745	0.278155	0.055183	0.084321	0.211231	0.273915
31	0.328952	0.220472	0.300369	0.307126	0.122578	0.189363	0.431944	0.423884	0.301100	0.205238	0.572487	0.355144	0.128262	0.091598	0.223941	0.414692	0.421542	0.249702	0.165586	0.213034	0.203023	0.359700	0.096996	0.196527	0.475142	0.217816	0.502386	0.445467	0.162601	0.077444	0.184933	0.334233	0.316514	0.142655	0.182589	0.419108	0.141696	0.148481	0.186015	0.427477	0.336828	0.118197	0.386462	0.345712	0.253269	0.071998	0.415151	0.118169	0.454344	0.204515	0.191954	0.386157	0.107711	0.078856	0.302541	0.407184	0.432446	0.217744	0.276962	0.323010	0.144748	0.158203	0.275657	0.301716	0.627495	0.297365	0.122175	0.277251	0.064183	0.103550	0.198128	0.269634
32	0.344359	0.220464	0.280472	0.305710	0.122188	0.216915	0.420782	0.504189	0.319842	0.218882	0.579689	0.402532	0.128108	0.137483	0.257460	0.275827	0.427952	0.268687	0.166609	0.198212	0.209827	0.353992	0.114321	0.190508	0.425475	0.207043	0.529858	0.459399	0.157859	0.079906	0.182476	0.337260	0.309854	0.139399	0.156566	0.443703	0.128339	0.146666	0.180812	0.429032	0.331149	0.113990	0.376339	0.351099	0.273283	0.074575	0.378074	0.127140	0.440897	0.208984	0.193121	0.383078	0.101536	0.071862	0.282023	0.313774	0.428526	0.213043	0.330257	0.322825	0.132824	0.206705	0.274820	0.269576	0.627658	0.291207	0.101141	0.270718	0.078449	0.121330	0.201796	0.237714
33	0.347945	0.224393	0.262442	0.309224	0.119305	0.219157	0.417467	0.577398	0.326403	0.220561	0.580681	0.402019	0.127040	0.146501	0.288855	0.294457	0.444446	0.279105	0.185085	0.194546	0.218887	0.349657	0.130455	0.257266	0.403782	0.204172	0.507777	0.458810	0.156447	0.083864	0.187724	0.330565	0.282299	0.123166	0.265494	0.470359	0.129367	0.147146	0.167753	0.425403	0.322400	0.113857	0.368046	0.352902	0.279147	0.075071	0.325932	0.151764	0.459276	0.215117	0.190784	0.387598	0.090412	0.068446	0.300446	0.217746	0.424267	0.216290	0.415567	0.325908	0.123335	0.241571	0.275750	0.266508	0.621833	0.281316	0.096593	0.271482	0.082342	0.138034	0.187401	0.234670
34	0.339683	0.229954	0.262952	0.313299	0.105672	0.218686	0.395008	0.582237	0.355054	0.217310	0.586213	0.408844	0.140290	0.154803	0.292753	0.291035	0.473610	0.281343	0.193794	0.194818	0.252462	0.344229	0.208725	0.265793	0.430389	0.205575	0.426315	0.472531	0.157450	0.088336	0.188147	0.317468	0.237850	0.109703	0.339951	0.479441	0.118543	0.147046	0.165919	0.338470	0.319704	0.116246	0.362928	0.353238	0.308531	0.072545	0.288028	0.158779	0.509481	0.214508	0.184517	0.379646	0.075614	0.083640	0.301413	0.213304	0.431025	0.227787	0.426778	0.324197	0.118430	0.254929	0.276909	0.261717	0.601834	0.268719	0.105280	0.263296	0.083153	0.168377	0.164476	0.234641
35	0.340110	0.228425	0.231069	0.323765	0.097439	0.224841	0.392508	0.583120	0.356718	0.208699	0.590589	0.408890	0.153139	0.177080	0.305923	0.294568	0.464749	0.280954	0.202557	0.239230	0.282198	0.299293	0.227905	0.297687	0.435430	0.198089	0.382150	0.458590	0.145709	0.085469	0.174818	0.246175	0.230245	0.107528	0.353603	0.473587	0.087110	0.140698	0.178025	0.208278	0.321443	0.119704	0.348753	0.336622	0.339117	0.071687	0.238682	0.159064	0.515829	0.211326	0.174919	0.378362	0.062803	0.095006	0.280602	0.211641	0.435730	0.237914	0.425453	0.328878	0.115711	0.253738	0.276233	0.258831	0.577877	0.264508	0.125633	0.280491	0.090575	0.170399	0.158882	0.233922
36	0.333967	0.224938	0.212269	0.349119	0.095443	0.235501	0.382878	0.575067	0.357491	0.195823	0.591042	0.407830	0.153919	0.208042	0.320755	0.296875	0.430767	0.275860	0.213620	0.288135	0.297166	0.253785	0.246134	0.500775	0.415184	0.167337	0.384977	0.377789	0.115905	0.077411	0.179400	0.192960	0.230675	0.113550	0.358367	0.467715	0.071375	0.135238	0.201323	0.212498	0.321826	0.122109	0.339899	0.322425	0.345437	0.074727	0.217069	0.161512	0.514675	0.206434	0.169599	0.390846	0.051731	0.103730	0.269237	0.220069	0.440566	0.243900	0.426286	0.324622	0.114360	0.289803	0.274112	0.257249	0.560965	0.277808	0.130040	0.287941	0.093747	0.170026	0.161686	0.236539
37	0.324417	0.222245	0.211160	0.350563	0.087778	0.243025	0.376689	0.553040	0.345256	0.189901	0.595520	0.407840	0.153382	0.224850	0.322886	0.299430	0.407768	0.259228	0.212591	0.292222	0.295197	0.226313	0.283619	0.540877	0.356014	0.125993	0.386333	0.361503	0.101127	0.079090	0.198566	0.193312	0.255006	0.123328	0.394393	0.456270	0.064423	0.136707	0.201623	0.214098	0.334911	0.121261	0.342094	0.329509	0.345616	0.082467	0.216113	0.177058	0.512530	0.204592	0.169097	0.409604	0.047179	0.106886	0.265765	0.240801	0.434416	0.244046	0.423764	0.327159	0.115498	0.337041	0.235742	0.252803	0.556537	0.293192	0.157229	0.289409	0.130334	0.170095	0.162391	0.243526
38	0.324493	0.221255	0.228340	0.359188	0.077977	0.246514	0.299357	0.555670	0.342067	0.189163	0.598780	0.408565	0.150875	0.222760	0.322604	0.293884	0.394749	0.234465	0.221130	0.302144	0.275387	0.229010	0.316207	0.618091	0.338155	0.106912	0.388367	0.357302	0.095609	0.087395	0.202244	0.182604	0.278210	0.122984	0.457951	0.422596	0.069696	0.146366	0.219756	0.214304	0.361304	0.114778	0.343266	0.330971	0.372468	0.084139	0.198044	0.203880	0.517811	0.205681	0.181021	0.419295	0.051034	0.111183	0.265759	0.245522	0.410986	0.236847	0.424975	0.327772	0.118051	0.350840	0.216505	0.226941	0.569840	0.298057	0.155706	0.299965	0.198888	0.169775	0.160643	0.242431
39	0.324031	0.220924	0.272552	0.357314	0.079591	0.248393	0.280756	0.533319	0.342283	0.180342	0.605401	0.411380	0.147034	0.220390	0.322521	0.293058	0.386461	0.235733	0.223114	0.308375	0.278459	0.224427	0.315344	0.627145	0.337818	0.103980	0.390875	0.356092	0.093954	0.091228	0.197087	0.174718	0.281545	0.123634	0.521325	0.415405	0.077447	0.156498	0.250294	0.215778	0.376978	0.106320	0.340271	0.331161	0.387085	0.079963	0.183969	0.221896	0.524730	0.207540	0.173878	0.429912	0.092976	0.110925	0.267650	0.242875	0.383549	0.223890	0.428306	0.327162	0.113400	0.359209	0.215180	0.210870	0.579849	0.299405	0.169380	0.338625	0.278609	0.169459	0.160699	0.232639
40	0.303345	0.212648	0.290755	0.335846	0.108114	0.235975	0.280861	0.471755	0.345450	0.174496	0.660148	0.417946	0.145377	0.223989	0.322229	0.294567	0.342090	0.242402	0.244453	0.308360	0.281285	0.229908	0.324948	0.622354	0.350333	0.103911	0.388925	0.356549	0.092454	0.091960	0.196356	0.168168	0.282794	0.139516	0.526214	0.462853	0.081266	0.161687	0.271128	0.214762	0.409825	0.109894	0.316737	0.329785	0.427998	0.081369	0.178036	0.255736	0.526431	0.206620	0.162756	0.441023	0.124624	0.108925	0.269451	0.238099	0.366652	0.215093	0.424403	0.311440	0.110102	0.364962	0.212269	0.211447	0.547065	0.302206	0.174412	0.386672	0.366754	0.169404	0.161203	0.231222
41	0.233602	0.176313	0.287459	0.326732	0.117227	0.219547	0.272561	0.489605	0.343651	0.166613	0.715477	0.410799	0.149444	0.233222	0.321791	0.299889	0.308572	0.241880	0.347918	0.304629	0.276575	0.213482	0.350499	0.624039	0.371389	0.102827	0.320817	0.342536	0.082512	0.092625	0.197643	0.162332	0.283544	0.144564	0.526452	0.481800	0.082681	0.162923	0.286071	0.218584	0.434941	0.113546	0.275310	0.322880	0.508976	0.087605	0.177826	0.291153	0.497025	0.188431	0.232549	0.452260	0.136874	0.108481	0.268555	0.237098	0.361372	0.214957	0.401418	0.245350	0.111641	0.368486	0.173246	0.196211	0.501912	0.306498	0.190994	0.380331	0.414250	0.169476	0.162513	0.230796
42	0.180432	0.130512	0.306893	0.450459	0.164499	0.192925	0.223485	0.503598	0.338124	0.161847	0.708615	0.392631	0.158728	0.236054	0.308784	0.305252	0.301756	0.234704	0.439000	0.322800	0.270429	0.189855	0.362045	0.606420	0.346468	0.099559	0.276463	0.330501	0.097114	0.094448	0.192054	0.157224	0.244178	0.145909	0.527691	0.483182	0.082025	0.174322	0.289694	0.230852	0.435464	0.113250	0.240662	0.312815	0.550874	0.092669	0.180907	0.320237	0.460786	0.157249	0.306860	0.440585	0.142143	0.141531	0.258574	0.223189	0.361005	0.213193	0.416145	0.214913	0.115009	0.370566	0.105596	0.193788	0.481669	0.309393	0.197453	0.384612	0.417270	0.169702	0.156027	0.232550
43	0.176039	0.110856	0.345012	0.608309	0.275646	0.180564	0.173722	0.493806	0.339509	0.165707	0.655279	0.409373	0.160546	0.237674	0.283641	0.303202	0.301206	0.224658	0.450800	0.336818	0.251846	0.185927	0.329838	0.599686	0.344782	0.089057	0.270840	0.259920	0.112473	0.097329	0.195359	0.159676	0.236243	0.146544	0.532781	0.493563	0.082939	0.190560	0.285470	0.244097	0.472424	0.113724	0.223506	0.308625	0.562196	0.095440	0.189582	0.330197	0.438373	0.140653	0.393969	0.453522	0.143932	0.163359	0.222493	0.219651	0.328527	0.199148	0.429479	0.214184	0.147017	0.370426	0.120825	0.215827	0.441219	0.310466	0.242560	0.381285	0.437098	0.163515	0.136088	0.230801
44	0.170527	0.127068	0.373667	0.728312	0.297070	0.153430	0.227334	0.397219	0.319050	0.164849	0.580994	0.402550	0.155344	0.242432	0.279503	0.271701	0.301977	0.218327	0.491321	0.343938	0.208221	0.194520	0.321455	0.593702	0.345564	0.073091	0.269743	0.245121	0.112814	0.098828	0.206684	0.160718	0.236323	0.144586	0.597791	0.582650	0.082625	0.201273	0.285769	0.247222	0.505147	0.110273	0.235578	0.324917	0.561733	0.095473	0.194891	0.333495	0.410444	0.143012	0.405520	0.454202	0.173863	0.164461	0.210219	0.219857	0.280242	0.181539	0.436971	0.213160	0.201037	0.364011	0.185082	0.363550	0.415641	0.310829	0.333310	0.383200	0.507057	0.152253	0.123837	0.178385
45	0.190291	0.153775	0.402416	0.790382	0.298143	0.176004	0.278486	0.309712	0.305422	0.146275	0.558637	0.346365	0.147667	0.246044	0.270880	0.253285	0.301003	0.207344	0.594661	0.342846	0.185166	0.201306	0.303285	0.420179	0.353782	0.061701	0.272666	0.251642	0.111631	0.099207	0.207289	0.171260	0.237705	0.151810	0.690771	0.719120	0.082108	0.197795	0.285871	0.232750	0.532323	0.106810	0.229020	0.400412	0.562615	0.096100	0.195862	0.350876	0.392979	0.140841	0.472011	0.408503	0.214129	0.164813	0.209395	0.216827	0.231224	0.168393	0.441824	0.212572	0.203339	0.340589	0.202775	0.468167	0.409039	0.310843	0.335570	0.413767	0.532547	0.145717	0.117660	0.157866
46	0.216888	0.156225	0.419440	0.785339	0.297885	0.221951	0.299764	0.300904	0.272890	0.121839	0.557576	0.304433	0.139156	0.243815	0.242858	0.257225	0.299832	0.184973	0.691986	0.336599	0.179825	0.193291	0.291162	0.382588	0.360486	0.061290	0.234513	0.254797	0.113420	0.098933	0.207332	0.177960	0.251905	0.167173	0.696093	0.710732	0.082257	0.192709	0.283851	0.216533	0.561411	0.110321	0.268681	0.456170	0.564593	0.096252	0.195879	0.369094	0.388272	0.131677	0.526630	0.360478	0.225838	0.169825	0.206751	0.217225	0.215126	0.166121	0.428093	0.193647	0.211831	0.312965	0.238527	0.500915	0.405856	0.311028	0.341456	0.432408	0.560229	0.140135	0.124350	0.195882
47	0.227642	0.154054	0.424444	0.814733	0.298051	0.235131	0.307779	0.299932	0.262406	0.116724	0.587985	0.422079	0.140244	0.231557	0.207153	0.236789	0.285270	0.156327	0.715027	0.335133	0.161760	0.157948	0.244527	0.229834	0.342611	0.056703	0.183905	0.362601	0.133767	0.096579	0.205648	0.180064	0.273905	0.193306	0.685409	0.693541	0.081320	0.197561	0.281548	0.212697	0.586247	0.114536	0.313269	0.442467	0.566131	0.094677	0.194968	0.389881	0.374761	0.123740	0.546582	0.373732	0.226900	0.170998	0.174949	0.218798	0.216713	0.166637	0.393815	0.191292	0.213914	0.293356	0.299701	0.504220	0.408189	0.314143	0.355752	0.453983	0.589953	0.134961	0.135056	0.210976
48	0.225004	0.156839	0.442507	0.960202	0.298274	0.232049	0.317551	0.300500	0.214425	0.115998	0.652936	0.436923	0.140299	0.236608	0.173785	0.204707	0.253820	0.139789	0.737912	0.335428	0.136765	0.146287	0.243939	0.188475	0.308280	0.058570	0.217268	0.448822	0.150697	0.097959	0.193123	0.171331	0.308657	0.229736	0.653066	0.716119	0.083416	0.198419	0.278032	0.211181	0.601789	0.117090	0.310428	0.435899	0.561599	0.090341	0.191547	0.398242	0.357497	0.112424	0.547613	0.394502	0.231768	0.174731	0.111367	0.214295	0.215768	0.155087	0.312036	0.190452	0.212818	0.290938	0.308138	0.515753	0.408166	0.317870	0.355643	0.512936	0.602037	0.093308	0.180684	0.231504
49	0.230832	0.169233	0.590746	1.102888	0.305151	0.236010	0.322798	0.298890	0.176946	0.119308	0.716885	0.444311	0.129451	0.230753	0.182022	0.211928	0.196881	0.136370	0.828159	0.338479	0.120858	0.137477	0.237723	0.189127	0.337471	0.092182	0.215221	0.447793	0.151505	0.106152	0.191245	0.169931	0.344202	0.258474	0.730784	0.717310	0.081291	0.196767	0.274206	0.209786	0.607341	0.118656	0.333607	0.430466	0.549320	0.087812	0.187305	0.395373	0.290222	0.106458	0.569164	0.395098	0.234865	0.178185	0.100726	0.204850	0.200911	0.138702	0.323853	0.208097	0.213281	0.282379	0.324320	0.539217	0.408835	0.317829	0.361214	0.569736	0.602546	0.087230	0.290656	0.258326
50	0.276291	0.194156	0.666599	1.124197	0.313636	0.230381	0.324849	0.296701	0.146347	0.129149	0.736009	0.445053	0.118128	0.214212	0.172843	0.215386	0.182942	0.138279	0.990596	0.303410	0.111207	0.122413	0.191424	0.180615	0.398213	0.110716	0.222038	0.452317	0.151836	0.109749	0.177807	0.169869	0.348425	0.259801	0.834898	0.799206	0.080992	0.189798	0.291489	0.257680	0.608980	0.119809	0.396848	0.468464	0.534464	0.086690	0.184023	0.387550	0.228743	0.111500	0.689234	0.389063	0.236011	0.175243	0.100143	0.217131	0.181304	0.129059	0.346223	0.206158	0.217470	0.221188	0.339541	0.660349	0.415157	0.314198	0.396236	0.577166	0.601858	0.090380	0.350501	0.257379
51	0.375138	0.223549	0.663879	1.118217	0.312537	0.230925	0.328246	0.292346	0.148544	0.132426	0.735805	0.446004	0.117894	0.185894	0.197521	0.245697	0.193548	0.150927	1.061404	0.356897	0.101896	0.129546	0.147485	0.139290	0.403580	0.111813	0.271737	0.511163	0.153585	0.112304	0.164453	0.158107	0.361261	0.273679	0.832318	1.012725	0.086283	0.189742	0.271205	0.259754	0.609613	0.119712	0.461889	0.482733	0.519858	0.087121	0.182330	0.388443	0.226668	0.108273	0.735334	0.437864	0.236932	0.172954	0.095390	0.204054	0.165237	0.122104	0.365909	0.248320	0.223144	0.192301	0.349649	0.745328	0.423824	0.309103	0.432943	0.577364	0.596380	0.092025	0.360955	0.248022
52	0.465462	0.236976	0.649182	1.119096	0.302732	0.233726	0.320927	0.261983	0.159154	0.141147	0.738103	0.464604	0.121961	0.173152	0.224681	0.338111	0.212081	0.170536	1.065617	0.359468	0.094001	0.169191	0.147597	0.148314	0.405501	0.120386	0.285756	0.628769	0.154536	0.116156	0.162861	0.151212	0.358299	0.286690	0.817097	1.102573	0.108043	0.201225	0.264589	0.270048	0.608942	0.119535	0.507628	0.500480	0.501675	0.088086	0.187009	0.393474	0.226243	0.100884	0.737647	0.470434	0.237695	0.174527	0.098401	0.235385	0.152749	0.118107	0.422561	0.296973	0.225666	0.175948	0.372119	0.754986	0.430460	0.304958	0.444885	0.577379	0.578309	0.095834	0.364267	0.240681
53	0.536536	0.241663	0.648361	1.122681	0.301218	0.233588	0.308251	0.181839	0.174805	0.147695	0.736350	0.511180	0.136296	0.179752	0.226799	0.363960	0.221625	0.180929	1.121983	0.348164	0.110555	0.204712	0.144341	0.271379	0.420538	0.137435	0.294045	0.673083	0.172844	0.118487	0.151792	0.153101	0.367223	0.301898	0.774048	1.103246	0.131943	0.215120	0.267906	0.288291	0.610178	0.120645	0.542272	0.600066	0.489487	0.088794	0.200612	0.397083	0.223261	0.095580	0.764805	0.464192	0.237514	0.176543	0.115481	0.259696	0.157830	0.127877	0.505916	0.340502	0.229214	0.165426	0.396596	0.753750	0.438332	0.304023	0.447654	0.575915	0.549954	0.107552	0.426097	0.244979
54	0.555116	0.240876	0.647651	1.119561	0.254562	0.233070	0.309648	0.160732	0.171172	0.144640	0.687070	0.505188	0.154164	0.187598	0.252217	0.362044	0.217447	0.174496	1.195590	0.338730	0.111123	0.195736	0.142063	0.351096	0.445126	0.165071	0.314963	0.680080	0.172166	0.113256	0.128774	0.157187	0.396187	0.320285	0.795962	1.092309	0.144155	0.222616	0.250685	0.291967	0.612429	0.121129	0.560020	0.715460	0.489464	0.090744	0.326382	0.397066	0.214646	0.096244	0.791049	0.475121	0.228015	0.189520	0.112964	0.268429	0.212226	0.147376	0.516221	0.356191	0.237816	0.153559	0.409826	0.753748	0.452514	0.307095	0.449795	0.577380	0.501587	0.113158	0.537172	0.248098
55	0.580906	0.241886	0.628665	1.060237	0.146386	0.231363	0.299722	0.106716	0.168512	0.143179	0.629498	0.488013	0.162120	0.179475	0.282615	0.360082	0.197979	0.166707	1.262133	0.361528	0.112523	0.218458	0.129910	0.353073	0.452762	0.186410	0.386791	0.681503	0.179503	0.107741	0.130737	0.138901	0.413962	0.327955	0.823934	1.076415	0.148026	0.222547	0.224519	0.297152	0.613031	0.118943	0.560084	0.771848	0.478371	0.095317	0.443887	0.405094	0.197168	0.093322	0.811379	0.487893	0.217232	0.220382	0.118008	0.265447	0.283037	0.156350	0.508080	0.369109	0.244077	0.162634	0.459103	0.753685	0.458917	0.302971	0.447086	0.575107	0.458122	0.113137	0.572437	0.249522
56	0.605102	0.245628	0.607644	0.976368	0.135580	0.227521	0.245863	0.100951	0.167900	0.142113	0.608783	0.477793	0.161197	0.165262	0.301910	0.363715	0.212538	0.171328	1.264979	0.373201	0.109926	0.258321	0.098708	0.357178	0.471790	0.198914	0.436965	0.688836	0.190723	0.109245	0.174972	0.136004	0.412827	0.328005	0.828464	1.088170	0.149095	0.222938	0.200591	0.302190	0.603495	0.119274	0.574028	0.816959	0.472091	0.098162	0.498509	0.436141	0.200883	0.094079	0.815510	0.518787	0.213164	0.228935	0.154180	0.274228	0.343854	0.161074	0.499555	0.473997	0.236237	0.166064	0.478171	0.752555	0.462159	0.286665	0.445260	0.581847	0.455723	0.112382	0.578141	0.257110
57	0.633534	0.247324	0.590893	0.888127	0.187434	0.201231	0.173934	0.090599	0.219250	0.137466	0.607162	0.468466	0.153255	0.165729	0.317390	0.370459	0.229927	0.184132	1.244202	0.390101	0.106102	0.277112	0.096076	0.397268	0.478220	0.202770	0.438276	0.691367	0.206348	0.111973	0.244760	0.138720	0.408649	0.327412	0.827470	1.095865	0.167950	0.244669	0.191452	0.304995	0.575004	0.119738	0.596750	0.848458	0.442611	0.097393	0.515955	0.460784	0.223657	0.100651	0.799150	0.592884	0.216866	0.238411	0.174019	0.274655	0.378670	0.161157	0.499451	0.603902	0.186213	0.163238	0.472127	0.721813	0.456030	0.263210	0.437139	0.581574	0.440810	0.112729	0.578489	0.254053
58	0.689189	0.238052	0.565908	0.853525	0.253585	0.155045	0.191114	0.121522	0.355182	0.128070	0.604855	0.473269	0.163692	0.199667	0.315821	0.417792	0.245454	0.196423	1.242069	0.376034	0.113244	0.277228	0.087018	0.443844	0.477094	0.203182	0.438009	0.694546	0.210579	0.115100	0.274746	0.139904	0.407325	0.327357	0.814742	1.086776	0.193206	0.270130	0.199594	0.298012	0.540479	0.117800	0.607068	0.853979	0.355731	0.092930	0.519612	0.452233	0.228591	0.104853	0.764165	0.631554	0.242053	0.231620	0.173442	0.316183	0.380640	0.161845	0.492242	0.664631	0.166428	0.160829	0.456263	0.630315	0.453400	0.242023	0.436211	0.572451	0.359846	0.112930	0.579833	0.268652
59	0.691194	0.229574	0.547689	0.852247	0.283505	0.128809	0.254825	0.245117	0.454668	0.118648	0.594226	0.473390	0.183369	0.241928	0.315180	0.515826	0.257851	0.204938	1.227086	0.373795	0.118047	0.277156	0.075159	0.450996	0.475332	0.203168	0.435919	0.694574	0.209106	0.114500	0.275747	0.158798	0.408899	0.325277	0.720160	0.974816	0.203630	0.295775	0.200653	0.304171	0.503542	0.108890	0.611632	0.855825	0.270415	0.088813	0.524265	0.431766	0.227240	0.101911	0.739861	0.630762	0.248391	0.234953	0.208117	0.419568	0.422051	0.165749	0.486400	0.673646	0.157945	0.158325	0.447341	0.591093	0.451347	0.222134	0.428229	0.542340	0.314471	0.108649	0.585966	0.293016
60	0.694733	0.228276	0.545906	0.799823	0.283386	0.121180	0.245827	0.244910	0.490405	0.115479	0.586529	0.463031	0.195098	0.257633	0.315568	0.551678	0.261145	0.209551	1.191331	0.371506	0.105323	0.273751	0.075158	0.455241	0.468113	0.204964	0.432133	0.685949	0.243829	0.112311	0.289410	0.202958	0.405388	0.317490	0.691638	0.947509	0.204310	0.308696	0.199605	0.331596	0.472105	0.100919	0.613414	0.853640	0.235150	0.084699	0.559750	0.424317	0.219224	0.097643	0.719871	0.633683	0.229956	0.237112	0.255135	0.424507	0.473406	0.165568	0.487081	0.673527	0.150228	0.157703	0.418200	0.580042	0.437849	0.204034	0.425709	0.519372	0.260725	0.095430	0.583813	0.334234
61	0.695098	0.225198	0.504869	0.572158	0.295618	0.133102	0.262173	0.239614	0.499767	0.128989	0.560253	0.357386	0.195287	0.270365	0.314879	0.551046	0.262975	0.211238	1.160383	0.373103	0.101209	0.258150	0.069105	0.481118	0.484018	0.208049	0.438748	0.654389	0.260888	0.135658	0.311694	0.246297	0.386661	0.306514	0.690895	0.938818	0.204345	0.314479	0.198436	0.347042	0.467721	0.101725	0.615534	0.886300	0.232890	0.085778	0.610911	0.422943	0.248884	0.094186	0.677866	0.631450	0.226491	0.233638	0.257944	0.437448	0.512859	0.163826	0.491532	0.679055	0.149837	0.157409	0.390868	0.576970	0.423001	0.189926	0.418168	0.517783	0.181116	0.084254	0.580250	0.341692
62	0.694972	0.214105	0.289801	0.259428	0.376197	0.149761	0.287391	0.238705	0.614700	0.155444	0.493424	0.323295	0.191510	0.261321	0.316607	0.551629	0.263743	0.212030	1.157744	0.374106	0.083185	0.220238	0.108953	0.444230	0.503982	0.207202	0.435862	0.578231	0.268765	0.201007	0.338903	0.246496	0.356442	0.285949	0.684854	0.912114	0.205285	0.317740	0.197243	0.348887	0.428419	0.103304	0.666854	1.018482	0.233690	0.088819	0.639578	0.410140	0.258380	0.092576	0.643490	0.644846	0.228491	0.233031	0.265459	0.438096	0.519793	0.159378	0.481555	0.688594	0.149716	0.153130	0.386033	0.562656	0.414811	0.184823	0.417095	0.510407	0.138280	0.082899	0.577119	0.335265
63	0.678596	0.184285	0.149307	0.202487	0.445537	0.148369	0.296097	0.243049	0.754682	0.175370	0.404853	0.317378	0.191614	0.275217	0.310733	0.549601	0.263396	0.215869	1.140169	0.373017	0.080086	0.225449	0.171629	0.387582	0.495798	0.199008	0.423633	0.559763	0.283911	0.245562	0.359119	0.256837	0.320965	0.255063	0.635398	0.889852	0.206081	0.311823	0.198172	0.350380	0.385336	0.102190	0.730168	1.137027	0.232236	0.093418	0.642049	0.406597	0.270617	0.091627	0.664692	0.707574	0.225508	0.228036	0.289311	0.446951	0.535120	0.154214	0.478197	0.702026	0.147065	0.139058	0.370687	0.487353	0.415853	0.184251	0.359616	0.514425	0.145844	0.095742	0.556460	0.336907
64	0.628542	0.151986	0.136754	0.205041	0.461796	0.140740	0.322288	0.247507	0.820939	0.179096	0.382917	0.397975	0.187895	0.284935	0.303559	0.544397	0.261941	0.219865	1.068724	0.370372	0.083723	0.218678	0.215534	0.388311	0.460576	0.185340	0.422934	0.555500	0.296956	0.280873	0.364135	0.268610	0.301519	0.243604	0.452436	0.866838	0.203988	0.320244	0.199134	0.369781	0.337304	0.099357	0.762269	1.132082	0.229084	0.097159	0.642458	0.404773	0.277098	0.092304	0.672688	0.740310	0.224244	0.218175	0.298033	0.459975	0.591659	0.150972	0.467459	0.707545	0.135552	0.120106	0.358177	0.268921	0.422249	0.187086	0.332836	0.506527	0.162837	0.122873	0.537255	0.351404
65	0.565275	0.134625	0.112254	0.194018	0.461409	0.143751	0.327842	0.262485	0.832341	0.181111	0.377259	0.437040	0.187692	0.285390	0.293251	0.536371	0.261682	0.219394	0.912131	0.362579	0.082775	0.166373	0.227780	0.402456	0.463736	0.183548	0.393679	0.538535	0.308327	0.344196	0.371735	0.282787	0.296785	0.235260	0.387507	0.691535	0.204222	0.331074	0.185114	0.382838	0.278589	0.096672	0.748882	1.114772	0.221729	0.099099	0.642211	0.405131	0.272833	0.087801	0.641683	0.750973	0.223590	0.215135	0.297271	0.455697	0.646663	0.154156	0.457396	0.705659	0.125587	0.111805	0.343866	0.139691	0.429207	0.195305	0.462270	0.520940	0.178671	0.166148	0.529790	0.355392
66	0.507024	0.128550	0.090254	0.176296	0.460937	0.145405	0.330502	0.290225	0.839089	0.177682	0.391123	0.426429	0.187530	0.284092	0.260701	0.518908	0.262912	0.209300	0.848893	0.280347	0.091697	0.141103	0.244451	0.437257	0.467677	0.185423	0.370645	0.422141	0.317314	0.354083	0.387698	0.285958	0.265982	0.210268	0.356465	0.358999	0.204324	0.332452	0.146454	0.341198	0.217342	0.096096	0.748564	1.122202	0.202010	0.102833	0.642846	0.406915	0.275933	0.085642	0.506911	0.762287	0.222352	0.211603	0.297075	0.451286	0.695493	0.176283	0.435655	0.688941	0.121674	0.109033	0.309362	0.133042	0.435575	0.204921	0.537191	0.540390	0.183501	0.181430	0.529144	0.356731
67	0.495974	0.128197	0.088979	0.170643	0.460720	0.145351	0.333076	0.291148	0.838864	0.168881	0.385372	0.364278	0.184349	0.282071	0.239739	0.458417	0.243180	0.193249	0.839063	0.281893	0.093797	0.139694	0.295657	0.401681	0.472705	0.179673	0.365381	0.275889	0.319967	0.483116	0.391011	0.287490	0.264204	0.190356	0.350917	0.289668	0.198478	0.328829	0.144964	0.334201	0.161212	0.095137	0.772960	1.127553	0.191089	0.103971	0.659330	0.405634	0.315170	0.089874	0.482783	0.732156	0.221579	0.209693	0.298078	0.439941	0.709963	0.193153	0.364141	0.666732	0.106123	0.102917	0.299244	0.132211	0.439574	0.208400	0.548022	0.520422	0.177725	0.182566	0.495129	0.354374
68	0.462804	0.125003	0.098769	0.173365	0.456544	0.144985	0.336736	0.292651	0.838296	0.167627	0.404719	0.358544	0.173247	0.279901	0.239162	0.444528	0.236053	0.182832	0.748617	0.289029	0.082372	0.140809	0.305300	0.390290	0.479756	0.167141	0.360326	0.230802	0.324474	0.528120	0.391132	0.296794	0.255416	0.158259	0.329196	0.288087	0.184867	0.321339	0.138410	0.311918	0.140577	0.093259	0.821566	1.124239	0.187775	0.114187	0.706332	0.400835	0.412163	0.097521	0.502364	0.706696	0.218998	0.204069	0.291248	0.434863	0.709625	0.185810	0.244861	0.645077	0.093260	0.080403	0.222730	0.131277	0.438476	0.210949	0.548476	0.447228	0.160732	0.179171	0.371106	0.352538
69	0.441754	0.118068	0.105351	0.283717	0.436405	0.144095	0.347877	0.313254	0.839654	0.175184	0.400342	0.376886	0.158276	0.283048	0.207189	0.445413	0.259445	0.187020	0.630445	0.284337	0.077591	0.143020	0.304551	0.392517	0.485597	0.143814	0.303467	0.223377	0.340352	0.527652	0.392074	0.304071	0.214486	0.122029	0.169929	0.278174	0.170363	0.315597	0.131619	0.300703	0.132835	0.093904	0.852755	1.116657	0.199881	0.188904	0.734999	0.397540	0.440367	0.094302	0.494928	0.707803	0.212187	0.190489	0.290606	0.432065	0.746648	0.181119	0.228602	0.637205	0.091312	0.052364	0.134159	0.131507	0.435517	0.214678	0.545163	0.418089	0.160025	0.179979	0.306031	0.351326
70	0.376505	0.106162	0.107938	0.330619	0.412550	0.172807	0.343305	0.315259	0.844854	0.187103	0.393004	0.435634	0.166833	0.283985	0.166410	0.445062	0.262462	0.197782	0.482876	0.252114	0.079195	0.148182	0.303164	0.363946	0.454467	0.120284	0.198256	0.205464	0.339035	0.527307	0.392237	0.300214	0.192051	0.113690	0.126400	0.254201	0.161359	0.325729	0.129047	0.300627	0.145353	0.106000	0.847173	1.126060	0.212517	0.269844	0.735004	0.393967	0.441913	0.095421	0.472729	0.734639	0.208946	0.155744	0.288785	0.431990	0.878049	0.196546	0.232798	0.624960	0.085750	0.056765	0.075080	0.117740	0.430628	0.219126	0.537158	0.447187	0.168438	0.184579	0.292163	0.342755
71	0.251733	0.098948	0.126768	0.334369	0.403719	0.215365	0.314659	0.274235	0.842934	0.207917	0.395820	0.496750	0.212156	0.299992	0.129213	0.437467	0.249279	0.190224	0.413390	0.232809	0.079501	0.140906	0.292404	0.363156	0.430044	0.107460	0.160631	0.192706	0.342474	0.528926	0.396258	0.308884	0.188378	0.119921	0.110634	0.189993	0.158504	0.334176	0.127232	0.290516	0.172607	0.121306	0.830689	1.145144	0.215695	0.324493	0.709377	0.387321	0.442299	0.105641	0.440675	0.742095	0.207330	0.151513	0.272572	0.422042	0.891379	0.207266	0.227732	0.534990	0.081105	0.085584	0.055285	0.104320	0.424386	0.218340	0.534964	0.463779	0.172871	0.253390	0.291639	0.341684
72	0.231704	0.097136	0.169644	0.345812	0.402588	0.260974	0.330634	0.274487	0.811783	0.229153	0.393915	0.496457	0.245753	0.341784	0.091197	0.425609	0.291764	0.170726	0.404849	0.170151	0.079226	0.127227	0.268731	0.347517	0.442063	0.104725	0.160837	0.177267	0.343325	0.534225	0.396375	0.330562	0.225400	0.121085	0.112217	0.144481	0.152671	0.332744	0.124759	0.287712	0.189785	0.126066	0.814637	1.105213	0.199080	0.376231	0.689640	0.384479	0.438671	0.110183	0.425129	0.706074	0.197136	0.118671	0.265198	0.417894	0.886387	0.222919	0.198521	0.390521	0.080052	0.088856	0.056497	0.100547	0.399558	0.207805	0.585618	0.465737	0.173065	0.265818	0.289403	0.331211
73	0.220710	0.097321	0.308365	0.350878	0.372665	0.277464	0.313822	0.274250	0.765294	0.236503	0.393910	0.498863	0.257510	0.417743	0.076005	0.369798	0.322566	0.172012	0.402908	0.161465	0.071877	0.106380	0.235869	0.337489	0.449032	0.111329	0.162742	0.164892	0.337562	0.535002	0.367404	0.332973	0.388302	0.121034	0.112441	0.125845	0.125177	0.312084	0.100427	0.275509	0.208951	0.125418	0.806638	1.038210	0.182003	0.411620	0.682847	0.365546	0.443034	0.113153	0.426276	0.642077	0.162861	0.184301	0.266027	0.366474	0.885523	0.227469	0.192668	0.284506	0.080333	0.106813	0.062947	0.117142	0.381149	0.218477	0.610206	0.508456	0.174918	0.266093	0.275711	0.309928
74	0.216477	0.100317	0.308134	0.385731	0.256081	0.292546	0.286031	0.271677	0.738676	0.236687	0.396654	0.509253	0.248993	0.449737	0.074290	0.204359	0.398691	0.199008	0.389720	0.153160	0.072941	0.099713	0.225550	0.322284	0.452188	0.114359	0.162244	0.166965	0.330919	0.544633	0.328683	0.363947	0.504211	0.124318	0.110851	0.125043	0.085794	0.281896	0.081431	0.273528	0.238620	0.126480	0.808218	1.002758	0.195529	0.462641	0.691152	0.300310	0.487837	0.117074	0.423709	0.618224	0.144108	0.191106	0.230312	0.258803	0.862751	0.223888	0.187004	0.270169	0.093804	0.145993	0.082697	0.143169	0.396195	0.245676	0.608641	0.635079	0.180844	0.268060	0.273078	0.235552
75	0.204639	0.111899	0.318366	0.469508	0.164208	0.292979	0.279207	0.266371	0.734377	0.230447	0.405223	0.529074	0.284648	0.457074	0.072032	0.115628	0.449778	0.210955	0.320882	0.145978	0.077363	0.076816	0.213041	0.197070	0.444147	0.112807	0.146731	0.176637	0.333083	0.547727	0.316564	0.391343	0.517445	0.129881	0.110313	0.124007	0.067203	0.272108	0.080589	0.247069	0.262017	0.125951	0.817088	0.980553	0.194973	0.597531	0.692419	0.274575	0.524693	0.120020	0.423693	0.612048	0.139106	0.238872	0.188807	0.254976	0.837004	0.222937	0.165591	0.262769	0.120495	0.186123	0.088676	0.136024	0.420382	0.261576	0.608604	0.699438	0.182616	0.289761	0.273545	0.199468
76	0.177753	0.111852	0.430781	0.782099	0.141426	0.294579	0.238752	0.264339	0.653075	0.215025	0.450722	0.552186	0.316476	0.526499	0.123012	0.144235	0.471043	0.210609	0.245821	0.140152	0.072953	0.108940	0.136739	0.133501	0.411214	0.108707	0.138187	0.173694	0.321421	0.549297	0.311368	0.392412	0.517491	0.129765	0.114027	0.122942	0.069548	0.286172	0.081392	0.209205	0.276742	0.126679	0.827151	0.971485	0.191637	0.624605	0.690266	0.277099	0.551280	0.119898	0.424427	0.609070	0.132812	0.270109	0.189905	0.239228	0.816457	0.223450	0.152771	0.245017	0.149121	0.202141	0.122885	0.134733	0.430098	0.268728	0.609630	0.700244	0.175770	0.295006	0.259989	0.196478
77	0.169363	0.110768	0.530468	0.876846	0.142019	0.312260	0.237045	0.236069	0.486138	0.197793	0.485379	0.553488	0.333675	0.557739	0.157343	0.158872	0.482096	0.210220	0.212449	0.136697	0.089590	0.175164	0.097248	0.128158	0.413551	0.108461	0.126126	0.148474	0.292859	0.549450	0.285717	0.376047	0.520804	0.130129	0.119041	0.120328	0.070943	0.305121	0.082217	0.191552	0.278490	0.128967	0.828835	0.966356	0.191961	0.625961	0.666709	0.273130	0.558356	0.119917	0.424753	0.604632	0.126518	0.276317	0.185963	0.255212	0.815166	0.223770	0.168233	0.229409	0.164079	0.327593	0.231923	0.180043	0.435350	0.271612	0.614569	0.697843	0.165119	0.296488	0.199825	0.157939
78	0.179186	0.121495	0.537586	0.918241	0.155110	0.316047	0.233105	0.215275	0.341499	0.188378	0.475445	0.513646	0.344503	0.559257	0.157529	0.156394	0.481828	0.206074	0.181527	0.136599	0.119405	0.181019	0.097638	0.122614	0.393195	0.108638	0.124561	0.141479	0.285354	0.539390	0.255121	0.371204	0.525213	0.131710	0.123331	0.116943	0.069333	0.303273	0.118254	0.191945	0.289968	0.132940	0.828482	0.963471	0.190130	0.627887	0.624507	0.278754	0.559565	0.124531	0.407465	0.569915	0.123530	0.277904	0.144363	0.239049	0.800630	0.221881	0.177392	0.214153	0.165743	0.362188	0.265987	0.185737	0.410031	0.273070	0.617946	0.696516	0.155939	0.288240	0.123794	0.142765
79	0.186981	0.131381	0.541797	0.923486	0.159942	0.319463	0.227267	0.215918	0.303065	0.184432	0.499778	0.487918	0.351125	0.560132	0.157148	0.150729	0.484191	0.203221	0.168278	0.136480	0.156277	0.177934	0.098768	0.113518	0.361017	0.108305	0.126320	0.142461	0.273992	0.518365	0.222326	0.379808	0.528147	0.132554	0.122588	0.114857	0.080502	0.303756	0.202141	0.206958	0.302930	0.138158	0.828358	0.960692	0.187267	0.630732	0.589176	0.314661	0.565428	0.133243	0.366745	0.475575	0.121101	0.280348	0.130496	0.213029	0.756012	0.216955	0.189111	0.245953	0.170881	0.366087	0.275525	0.188007	0.397626	0.273881	0.619911	0.696169	0.143614	0.265266	0.114210	0.166165
80	0.200494	0.135438	0.558504	0.955804	0.155899	0.334992	0.224487	0.219486	0.278746	0.182459	0.537324	0.536422	0.354800	0.561046	0.155578	0.145554	0.486710	0.204632	0.166803	0.139269	0.170803	0.177119	0.098287	0.079604	0.363978	0.104042	0.125026	0.129239	0.253294	0.501847	0.202028	0.374542	0.529597	0.133582	0.118195	0.119450	0.093605	0.305309	0.277279	0.200984	0.335637	0.144781	0.825851	0.929270	0.188360	0.630337	0.584426	0.351263	0.586110	0.137874	0.350672	0.444451	0.120709	0.283544	0.131516	0.209201	0.709342	0.207610	0.212791	0.287556	0.175962	0.365983	0.277304	0.206004	0.393532	0.274009	0.620232	0.696000	0.135844	0.253367	0.109770	0.184063
81	0.180562	0.134699	0.596360	1.056121	0.138452	0.341630	0.191181	0.180782	0.269834	0.182403	0.543368	0.554471	0.358641	0.561124	0.182326	0.141380	0.482537	0.205353	0.254331	0.223232	0.175369	0.182345	0.087196	0.067831	0.355537	0.097778	0.125022	0.119273	0.223348	0.473970	0.198852	0.365980	0.526942	0.134139	0.114051	0.113922	0.106397	0.323949	0.277701	0.187532	0.392671	0.151344	0.780914	0.777840	0.200604	0.630056	0.583837	0.353072	0.601048	0.139055	0.343708	0.432891	0.120896	0.284691	0.141117	0.205263	0.663739	0.187148	0.223948	0.301332	0.176130	0.365199	0.296312	0.207922	0.391766	0.274063	0.620466	0.695454	0.130357	0.256662	0.098550	0.193695
82	0.167095	0.124057	0.644421	1.174983	0.125100	0.330146	0.197203	0.172785	0.276150	0.182418	0.534442	0.562928	0.359940	0.560640	0.200307	0.151002	0.482131	0.205665	0.392343	0.324927	0.180239	0.235585	0.070861	0.070952	0.329046	0.092004	0.207934	0.129611	0.206189	0.437480	0.176149	0.363921	0.511410	0.132363	0.136477	0.181661	0.117509	0.340913	0.278419	0.182093	0.420039	0.155991	0.723719	0.586351	0.219585	0.629667	0.583502	0.339363	0.624881	0.138963	0.346451	0.413722	0.120745	0.295040	0.160811	0.168214	0.652670	0.173195	0.224789	0.308244	0.175154	0.370753	0.354397	0.214503	0.400451	0.276859	0.625509	0.696844	0.129354	0.263027	0.101316	0.193689
83	0.152930	0.115273	0.671355	1.255276	0.134097	0.312172	0.216229	0.206601	0.275026	0.175911	0.543880	0.559554	0.359897	0.559825	0.223391	0.227382	0.475281	0.205749	0.446679	0.367042	0.186438	0.241535	0.065188	0.105486	0.271371	0.084117	0.302923	0.194553	0.195080	0.406185	0.148504	0.374415	0.503189	0.121791	0.174877	0.292627	0.125537	0.346209	0.280121	0.189878	0.420373	0.154603	0.705620	0.552032	0.245225	0.629135	0.582699	0.336537	0.610647	0.136746	0.333630	0.418644	0.122165	0.324959	0.172843	0.149078	0.648315	0.172954	0.238297	0.326535	0.182302	0.381383	0.383583	0.288199	0.437030	0.279604	0.630825	0.694907	0.125554	0.262599	0.105463	0.194029
84	0.162974	0.129771	0.689232	1.314180	0.150619	0.302470	0.194158	0.212048	0.261392	0.166165	0.571030	0.524366	0.360009	0.556447	0.244801	0.238403	0.462772	0.205739	0.461046	0.374881	0.183367	0.240618	0.069900	0.123796	0.241301	0.090008	0.303289	0.226757	0.195305	0.222903	0.149240	0.382359	0.502942	0.107968	0.241050	0.343886	0.130851	0.348617	0.281003	0.197738	0.427284	0.151701	0.711985	0.551832	0.275274	0.628924	0.569166	0.340664	0.575551	0.134476	0.278213	0.416450	0.128190	0.374646	0.171788	0.145761	0.561741	0.159916	0.253365	0.343528	0.191107	0.381858	0.383716	0.320403	0.460939	0.278000	0.604373	0.694046	0.113240	0.264299	0.111902	0.193060
85	0.176320	0.147192	0.707037	1.318430	0.151254	0.267359	0.211259	0.232992	0.238570	0.143855	0.599363	0.455563	0.349659	0.558826	0.259124	0.241099	0.462523	0.205582	0.465091	0.399165	0.179161	0.232333	0.118570	0.135755	0.242988	0.099512	0.319225	0.241763	0.175483	0.186592	0.147956	0.376140	0.503114	0.103857	0.256378	0.419017	0.130348	0.345420	0.311256	0.199534	0.449157	0.153133	0.690919	0.543051	0.296424	0.628163	0.512917	0.343340	0.567651	0.134706	0.189690	0.398951	0.133891	0.398056	0.173912	0.145513	0.277884	0.138634	0.275146	0.348621	0.195159	0.379679	0.383870	0.320721	0.481642	0.271468	0.496514	0.648335	0.103797	0.210888	0.124101	0.196356
86	0.187702	0.150346	0.780600	1.325478	0.152102	0.255466	0.232124	0.237102	0.198368	0.110186	0.608402	0.462931	0.322601	0.554324	0.263593	0.243274	0.462014	0.211123	0.549461	0.460933	0.172469	0.191962	0.151404	0.144752	0.218057	0.105930	0.347622	0.245415	0.145141	0.191436	0.151578	0.376992	0.504149	0.112401	0.294039	0.458069	0.130978	0.328667	0.359041	0.205644	0.478772	0.155727	0.661388	0.532686	0.291066	0.613675	0.458567	0.343699	0.566444	0.130764	0.166652	0.319161	0.138584	0.449819	0.184262	0.146570	0.173932	0.123119	0.288070	0.372069	0.195065	0.377066	0.384556	0.319921	0.494766	0.261634	0.440500	0.643088	0.104109	0.189585	0.169497	0.255434
87	0.187253	0.148516	0.861179	1.398721	0.165662	0.267404	0.262746	0.248180	0.178028	0.103424	0.614058	0.462568	0.299487	0.530401	0.264225	0.244768	0.425077	0.211315	0.683400	0.482918	0.162237	0.182183	0.192414	0.188637	0.208183	0.102662	0.355358	0.259237	0.128949	0.194954	0.148545	0.384482	0.452477	0.123936	0.417524	0.503726	0.163748	0.331875	0.363061	0.285032	0.491754	0.157352	0.580390	0.534113	0.285170	0.583996	0.452042	0.344867	0.563932	0.128960	0.166795	0.304092	0.143033	0.467939	0.198700	0.148012	0.148715	0.096025	0.290091	0.390870	0.192955	0.368011	0.382549	0.304881	0.493667	0.250236	0.431979	0.638403	0.103654	0.190068	0.196724	0.340764
88	0.191470	0.142451	0.865676	1.417557	0.166670	0.256983	0.270701	0.301905	0.214270	0.104974	0.651293	0.452339	0.285310	0.450619	0.271201	0.247844	0.397292	0.203407	0.721322	0.541627	0.124988	0.179288	0.306877	0.252671	0.207367	0.103437	0.369647	0.355619	0.112903	0.185212	0.136657	0.364384	0.272535	0.124023	0.498167	0.541389	0.197673	0.354649	0.364877	0.312234	0.494091	0.156936	0.488474	0.513922	0.326750	0.552927	0.442279	0.345976	0.561473	0.135069	0.166213	0.322790	0.149285	0.448847	0.236206	0.218306	0.143148	0.083934	0.309189	0.392829	0.181758	0.351261	0.379956	0.303385	0.492147	0.239040	0.431039	0.639382	0.092577	0.188655	0.198529	0.354330
89	0.199575	0.147370	0.807413	1.327644	0.166094	0.239922	0.271008	0.320879	0.234943	0.111129	0.661510	0.438672	0.287672	0.410930	0.350971	0.263682	0.329536	0.184274	0.720073	0.566669	0.112463	0.180542	0.362324	0.254506	0.258143	0.124322	0.369119	0.514106	0.096216	0.175218	0.138190	0.351789	0.180555	0.123763	0.500661	0.570754	0.210380	0.380366	0.373674	0.335291	0.488627	0.148687	0.435115	0.475534	0.402040	0.520788	0.365764	0.339198	0.539348	0.135345	0.160466	0.329255	0.119807	0.444168	0.258094	0.222005	0.143935	0.085212	0.318293	0.400233	0.160330	0.338266	0.379260	0.303658	0.516181	0.230958	0.412017	0.622709	0.086376	0.159089	0.214543	0.354208
90	0.197156	0.153415	0.775280	1.313838	0.154481	0.237383	0.271021	0.321487	0.278892	0.118512	0.627144	0.425096	0.248210	0.380746	0.452693	0.365189	0.277515	0.189438	0.727032	0.569392	0.118501	0.180986	0.373075	0.256010	0.293169	0.135981	0.369438	0.545427	0.092850	0.160632	0.142719	0.344488	0.207688	0.124606	0.500775	0.581019	0.210545	0.389151	0.378100	0.348365	0.479404	0.136278	0.416174	0.402585	0.432682	0.483686	0.274655	0.302283	0.501343	0.133423	0.168686	0.328215	0.127092	0.426459	0.297672	0.222618	0.146091	0.088422	0.357278	0.400450	0.137577	0.276230	0.335564	0.286342	0.571503	0.224789	0.388594	0.601302	0.097892	0.146709	0.248516	0.355157
91	0.186625	0.148542	0.776158	1.292127	0.150438	0.229292	0.271067	0.322124	0.295165	0.118847	0.605405	0.445483	0.206137	0.265435	0.458428	0.382094	0.259863	0.207332	0.728049	0.569781	0.121943	0.114816	0.439215	0.257170	0.287336	0.137121	0.369565	0.550078	0.082164	0.126913	0.133890	0.302991	0.241327	0.129615	0.513464	0.581725	0.210411	0.380682	0.379478	0.348904	0.468917	0.130872	0.403105	0.375203	0.451244	0.459874	0.169621	0.298773	0.472538	0.131721	0.278164	0.385848	0.148172	0.428361	0.317293	0.214781	0.152922	0.092433	0.376702	0.394347	0.135270	0.159797	0.293698	0.277624	0.668737	0.227982	0.338689	0.595456	0.102655	0.144047	0.292944	0.358642
92	0.188090	0.147186	0.799835	1.297514	0.150620	0.200233	0.269909	0.319278	0.305549	0.118332	0.632413	0.434995	0.179510	0.207737	0.449228	0.384323	0.253881	0.217549	0.731525	0.573347	0.135004	0.114754	0.536862	0.292653	0.294874	0.137503	0.370012	0.598530	0.071890	0.113823	0.134876	0.271895	0.236153	0.128650	0.531042	0.584892	0.209208	0.388390	0.379500	0.348507	0.460098	0.132595	0.393746	0.359246	0.459861	0.255102	0.117771	0.296124	0.442664	0.136005	0.414262	0.577439	0.166714	0.428234	0.328054	0.198790	0.165560	0.094179	0.374620	0.383697	0.130377	0.138293	0.278922	0.281924	0.718495	0.227981	0.230735	0.589024	0.103009	0.186903	0.341518	0.351577
93	0.294024	0.144818	0.792408	1.279098	0.142699	0.191141	0.264749	0.303866	0.326463	0.115703	0.643172	0.440501	0.157812	0.215776	0.450844	0.394438	0.255675	0.221418	0.734594	0.580252	0.160602	0.143683	0.541176	0.292969	0.306749	0.137406	0.371174	0.663747	0.071966	0.109127	0.140481	0.258189	0.238147	0.126531	0.532201	0.601233	0.209217	0.387310	0.377717	0.348327	0.445598	0.133382	0.384447	0.327540	0.460163	0.121358	0.115976	0.292060	0.422454	0.144105	0.436353	0.600102	0.170516	0.427569	0.349655	0.202080	0.163652	0.093319	0.392598	0.361159	0.125207	0.136705	0.276866	0.277135	0.715050	0.201941	0.193460	0.511886	0.106931	0.304540	0.358454	0.336305
94	0.397653	0.147198	0.756539	1.188561	0.134301	0.174742	0.227960	0.269142	0.325301	0.113781	0.602372	0.411523	0.144651	0.221120	0.461197	0.396789	0.252262	0.222493	0.738406	0.583365	0.165265	0.150667	0.534567	0.288270	0.310762	0.137923	0.391935	0.685826	0.070437	0.105777	0.145553	0.239155	0.243610	0.124072	0.547879	0.609926	0.207297	0.387391	0.364556	0.347429	0.435085	0.134306	0.337571	0.268577	0.459610	0.108652	0.104209	0.289807	0.431386	0.149856	0.432733	0.597569	0.189296	0.427868	0.351369	0.242773	0.159657	0.102144	0.403885	0.348524	0.121479	0.145615	0.268085	0.272880	0.694728	0.168445	0.187105	0.308864	0.108629	0.328947	0.360336	0.332599
95	0.462799	0.146033	0.721881	1.055734	0.118615	0.125566	0.221188	0.254966	0.328814	0.114330	0.593934	0.398067	0.134806	0.220244	0.484513	0.398708	0.255214	0.222547	0.738692	0.581628	0.162905	0.149136	0.523513	0.284080	0.309461	0.141559	0.403885	0.688034	0.068658	0.100048	0.147393	0.213425	0.251937	0.122650	0.556181	0.608885	0.201999	0.396368	0.312490	0.321092	0.426884	0.134237	0.262243	0.204324	0.459742	0.101472	0.072442	0.287017	0.426197	0.153450	0.444265	0.601195	0.233681	0.440951	0.365743	0.402930	0.168613	0.121718	0.385818	0.351759	0.115599	0.152907	0.215177	0.273171	0.681975	0.149269	0.186176	0.191546	0.110123	0.322455	0.360428	0.328820
96	0.486281	0.144166	0.693151	0.980963	0.110159	0.129656	0.213361	0.245708	0.331120	0.115314	0.604826	0.383716	0.128095	0.220428	0.491185	0.446604	0.272327	0.221682	0.704370	0.545658	0.159252	0.146274	0.516710	0.272808	0.324181	0.146245	0.403887	0.688022	0.069457	0.094684	0.137201	0.198549	0.251711	0.122542	0.556448	0.607835	0.195885	0.406052	0.275829	0.314309	0.433486	0.134558	0.227429	0.208296	0.459864	0.073929	0.039101	0.254930	0.420078	0.158962	0.493385	0.598392	0.275550	0.452774	0.371439	0.464258	0.234134	0.133708	0.383609	0.358229	0.101909	0.134529	0.093943	0.234678	0.677152	0.140022	0.176334	0.185181	0.111773	0.316490	0.359582	0.329160
97	0.629546	0.141334	0.681914	0.921840	0.107459	0.221890	0.196813	0.227867	0.329169	0.116148	0.610660	0.376956	0.137186	0.224041	0.485356	0.537167	0.298441	0.219868	0.642489	0.496604	0.158663	0.149937	0.461210	0.200838	0.335975	0.147231	0.348928	0.686941	0.069950	0.094996	0.137630	0.195478	0.251485	0.123011	0.549634	0.569363	0.188073	0.415085	0.275601	0.313504	0.473095	0.133709	0.214083	0.205264	0.458676	0.070907	0.037112	0.180850	0.390325	0.157659	0.566672	0.605635	0.296351	0.453711	0.364797	0.464236	0.317221	0.138688	0.396678	0.405389	0.082178	0.118025	0.078111	0.136138	0.675756	0.135713	0.159634	0.185168	0.111331	0.322067	0.361809	0.328950
98	0.773140	0.129326	0.620159	0.919260	0.107006	0.332164	0.163467	0.227592	0.337441	0.113432	0.586585	0.365341	0.143816	0.223718	0.474107	0.549676	0.318581	0.218673	0.607873	0.468494	0.175908	0.150520	0.416159	0.196458	0.339271	0.143328	0.369678	0.689626	0.073913	0.099643	0.147829	0.209227	0.254715	0.130475	0.540657	0.546583	0.187182	0.418153	0.274414	0.313085	0.509730	0.128055	0.209146	0.199974	0.453173	0.069025	0.035806	0.113746	0.362172	0.172772	0.591602	0.665597	0.300032	0.437615	0.361573	0.463943	0.371146	0.139771	0.413102	0.443640	0.120037	0.118724	0.074524	0.120663	0.677076	0.133426	0.149144	0.186003	0.114028	0.320537	0.365091	0.329048
99	0.796058	0.127806	0.466484	0.896674	0.107167	0.391993	0.118707	0.199425	0.346498	0.111082	0.557227	0.384369	0.147899	0.221913	0.463718	0.551016	0.325880	0.215839	0.595796	0.470576	0.251755	0.148540	0.404997	0.194032	0.339151	0.138745	0.380979	0.709775	0.080247	0.101978	0.169978	0.265261	0.257157	0.134718	0.532480	0.515572	0.197358	0.429752	0.272550	0.306607	0.503056	0.119193	0.208525	0.193607	0.443134	0.085751	0.037756	0.102115	0.392737	0.191918	0.593674	0.726940	0.299286	0.401158	0.361840	0.463667	0.412520	0.140379	0.427815	0.461227	0.191213	0.133833	0.066557	0.121175	0.678265	0.132862	0.145589	0.186411	0.115378	0.318797	0.365739	0.327446
100	0.803054	0.124775	0.333012	0.751801	0.100491	0.424030	0.112503	0.114631	0.367380	0.107569	0.539573	0.369287	0.152006	0.222448	0.456100	0.549893	0.339891	0.209990	0.590055	0.440059	0.287046	0.152309	0.361400	0.191335	0.342094	0.136893	0.369981	0.718096	0.091543	0.104722	0.196671	0.320868	0.262781	0.131560	0.532355	0.486988	0.195186	0.448845	0.265304	0.302552	0.463259	0.111036	0.205102	0.191162	0.429970	0.091027	0.038813	0.097939	0.432662	0.201615	0.593419	0.729331	0.296556	0.385444	0.357751	0.463678	0.429656	0.133625	0.430033	0.461260	0.235045	0.159283	0.066341	0.119344	0.678224	0.132432	0.145543	0.187004	0.116079	0.320078	0.348579	0.292749
101	0.802143	0.123140	0.320087	0.639640	0.096305	0.434081	0.117706	0.087909	0.387760	0.098946	0.534839	0.364481	0.149271	0.247485	0.454567	0.548716	0.413450	0.209569	0.503118	0.393027	0.315456	0.156201	0.148194	0.128907	0.348889	0.143749	0.357583	0.721401	0.109402	0.105890	0.202682	0.337036	0.376981	0.119730	0.484183	0.428785	0.198982	0.447002	0.207386	0.299793	0.440613	0.106948	0.183381	0.189520	0.411511	0.095142	0.039784	0.082148	0.465648	0.206659	0.591814	0.737809	0.296015	0.311935	0.350413	0.462517	0.430555	0.131899	0.424769	0.441052	0.249064	0.160551	0.068786	0.114606	0.678062	0.129410	0.140177	0.182961	0.119697	0.362767	0.332901	0.177593
