	113_F_P_sh_L_ND_A_01.c3d	113_F_P_sh_L_ND_A_01.c3d	113_F_P_sh_L_ND_A_01.c3d	113_F_P_sh_L_ND_A_01.c3d	113_F_P_sh_L_ND_A_01.c3d	113_F_P_sh_L_ND_A_01.c3d	113_F_P_sh_L_ND_A_01.c3d	113_F_P_sh_L_ND_A_01.c3d	113_F_P_sh_L_ND_A_02.c3d	113_F_P_sh_L_ND_A_02.c3d	113_F_P_sh_L_ND_A_02.c3d	113_F_P_sh_L_ND_A_02.c3d	113_F_P_sh_L_ND_A_02.c3d	113_F_P_sh_L_ND_A_02.c3d	113_F_P_sh_L_ND_A_02.c3d	113_F_P_sh_L_ND_A_02.c3d	113_F_P_sh_L_ND_A_03.c3d	113_F_P_sh_L_ND_A_03.c3d	113_F_P_sh_L_ND_A_03.c3d	113_F_P_sh_L_ND_A_03.c3d	113_F_P_sh_L_ND_A_03.c3d	113_F_P_sh_L_ND_A_03.c3d	113_F_P_sh_L_ND_A_03.c3d	113_F_P_sh_L_ND_A_03.c3d	113_F_P_sh_L_ND_A_04.c3d	113_F_P_sh_L_ND_A_04.c3d	113_F_P_sh_L_ND_A_04.c3d	113_F_P_sh_L_ND_A_04.c3d	113_F_P_sh_L_ND_A_04.c3d	113_F_P_sh_L_ND_A_04.c3d	113_F_P_sh_L_ND_A_04.c3d	113_F_P_sh_L_ND_A_04.c3d	113_F_P_sh_L_ND_A_05.c3d	113_F_P_sh_L_ND_A_05.c3d	113_F_P_sh_L_ND_A_05.c3d	113_F_P_sh_L_ND_A_05.c3d	113_F_P_sh_L_ND_A_05.c3d	113_F_P_sh_L_ND_A_05.c3d	113_F_P_sh_L_ND_A_05.c3d	113_F_P_sh_L_ND_A_05.c3d	113_F_P_sh_L_ND_A_06.c3d	113_F_P_sh_L_ND_A_06.c3d	113_F_P_sh_L_ND_A_06.c3d	113_F_P_sh_L_ND_A_06.c3d	113_F_P_sh_L_ND_A_06.c3d	113_F_P_sh_L_ND_A_06.c3d	113_F_P_sh_L_ND_A_06.c3d	113_F_P_sh_L_ND_A_06.c3d	113_F_P_sh_L_ND_A_08.c3d	113_F_P_sh_L_ND_A_08.c3d	113_F_P_sh_L_ND_A_08.c3d	113_F_P_sh_L_ND_A_08.c3d	113_F_P_sh_L_ND_A_08.c3d	113_F_P_sh_L_ND_A_08.c3d	113_F_P_sh_L_ND_A_08.c3d	113_F_P_sh_L_ND_A_08.c3d	113_F_P_sh_L_ND_A_09.c3d	113_F_P_sh_L_ND_A_09.c3d	113_F_P_sh_L_ND_A_09.c3d	113_F_P_sh_L_ND_A_09.c3d	113_F_P_sh_L_ND_A_09.c3d	113_F_P_sh_L_ND_A_09.c3d	113_F_P_sh_L_ND_A_09.c3d	113_F_P_sh_L_ND_A_09.c3d	113_F_P_sh_L_ND_A_10.c3d	113_F_P_sh_L_ND_A_10.c3d	113_F_P_sh_L_ND_A_10.c3d	113_F_P_sh_L_ND_A_10.c3d	113_F_P_sh_L_ND_A_10.c3d	113_F_P_sh_L_ND_A_10.c3d	113_F_P_sh_L_ND_A_10.c3d	113_F_P_sh_L_ND_A_10.c3d
	Biceps femoris_lat	Semitendinosus_lat	Vastus lateralis_lat	Vastus medialis_lat	Biceps femoris_med	Semitendinosus_med	Vastus lateralis_med	Vastus medialis_med	Biceps femoris_lat	Semitendinosus_lat	Vastus lateralis_lat	Vastus medialis_lat	Biceps femoris_med	Semitendinosus_med	Vastus lateralis_med	Vastus medialis_med	Biceps femoris_lat	Semitendinosus_lat	Vastus lateralis_lat	Vastus medialis_lat	Biceps femoris_med	Semitendinosus_med	Vastus lateralis_med	Vastus medialis_med	Biceps femoris_lat	Semitendinosus_lat	Vastus lateralis_lat	Vastus medialis_lat	Biceps femoris_med	Semitendinosus_med	Vastus lateralis_med	Vastus medialis_med	Biceps femoris_lat	Semitendinosus_lat	Vastus lateralis_lat	Vastus medialis_lat	Biceps femoris_med	Semitendinosus_med	Vastus lateralis_med	Vastus medialis_med	Biceps femoris_lat	Semitendinosus_lat	Vastus lateralis_lat	Vastus medialis_lat	Biceps femoris_med	Semitendinosus_med	Vastus lateralis_med	Vastus medialis_med	Biceps femoris_lat	Semitendinosus_lat	Vastus lateralis_lat	Vastus medialis_lat	Biceps femoris_med	Semitendinosus_med	Vastus lateralis_med	Vastus medialis_med	Biceps femoris_lat	Semitendinosus_lat	Vastus lateralis_lat	Vastus medialis_lat	Biceps femoris_med	Semitendinosus_med	Vastus lateralis_med	Vastus medialis_med	Biceps femoris_lat	Semitendinosus_lat	Vastus lateralis_lat	Vastus medialis_lat	Biceps femoris_med	Semitendinosus_med	Vastus lateralis_med	Vastus medialis_med
	P2D	P2D	P2D	P2D	P2D	P2D	P2D	P2D	P2D	P2D	P2D	P2D	P2D	P2D	P2D	P2D	P2D	P2D	P2D	P2D	P2D	P2D	P2D	P2D	P2D	P2D	P2D	P2D	P2D	P2D	P2D	P2D	P2D	P2D	P2D	P2D	P2D	P2D	P2D	P2D	P2D	P2D	P2D	P2D	P2D	P2D	P2D	P2D	P2D	P2D	P2D	P2D	P2D	P2D	P2D	P2D	P2D	P2D	P2D	P2D	P2D	P2D	P2D	P2D	P2D	P2D	P2D	P2D	P2D	P2D	P2D	P2D
	EMG_lat	EMG_lat	EMG_lat	EMG_lat	EMG_med	EMG_med	EMG_med	EMG_med	EMG_lat	EMG_lat	EMG_lat	EMG_lat	EMG_med	EMG_med	EMG_med	EMG_med	EMG_lat	EMG_lat	EMG_lat	EMG_lat	EMG_med	EMG_med	EMG_med	EMG_med	EMG_lat	EMG_lat	EMG_lat	EMG_lat	EMG_med	EMG_med	EMG_med	EMG_med	EMG_lat	EMG_lat	EMG_lat	EMG_lat	EMG_med	EMG_med	EMG_med	EMG_med	EMG_lat	EMG_lat	EMG_lat	EMG_lat	EMG_med	EMG_med	EMG_med	EMG_med	EMG_lat	EMG_lat	EMG_lat	EMG_lat	EMG_med	EMG_med	EMG_med	EMG_med	EMG_lat	EMG_lat	EMG_lat	EMG_lat	EMG_med	EMG_med	EMG_med	EMG_med	EMG_lat	EMG_lat	EMG_lat	EMG_lat	EMG_med	EMG_med	EMG_med	EMG_med
ITEM	Y	Y	Y	Y	Y	Y	Y	Y	Y	Y	Y	Y	Y	Y	Y	Y	Y	Y	Y	Y	Y	Y	Y	Y	Y	Y	Y	Y	Y	Y	Y	Y	Y	Y	Y	Y	Y	Y	Y	Y	Y	Y	Y	Y	Y	Y	Y	Y	Y	Y	Y	Y	Y	Y	Y	Y	Y	Y	Y	Y	Y	Y	Y	Y	Y	Y	Y	Y	Y	Y	Y	Y
1	0.213429	0.248261	0.364235	0.187099	0.410690	0.541423	0.235267	0.061413	0.475987	0.304332	0.778738	1.031466	0.958580	0.848912	0.851684	0.078548	0.240403	0.401753	0.362322	0.688652	0.286200	0.399025	0.302341	0.045672	0.136089	0.219850	0.286801	0.203584	0.154324	0.089275	0.291082	0.739331	0.474304	1.036920	0.837653	0.801239	0.599145	0.172165	0.249233	0.033305	0.216172	0.173236	0.453877	0.385036	0.096027	0.093442	0.161135	0.302652	0.482479	0.416320	0.224723	0.275589	0.883045	0.263733	0.072711	0.046427	0.239106	0.852444	0.195266	0.142240	0.435347	0.344985	0.293267	0.044310	0.141338	0.310665	0.178260	0.290261	0.517180	0.700609	0.195588	0.031093
2	0.209536	0.241776	0.360355	0.185640	0.354546	0.468979	0.227464	0.054532	0.482398	0.302853	0.783061	1.091223	0.935141	0.949294	0.725480	0.072671	0.240657	0.382909	0.381260	0.690140	0.378917	0.418958	0.302783	0.043758	0.145593	0.213508	0.301166	0.235738	0.142698	0.095500	0.273815	0.739838	0.479202	1.034243	0.844628	0.799346	0.609248	0.200657	0.205308	0.030590	0.218862	0.170343	0.463147	0.385035	0.097923	0.132369	0.160765	0.342140	0.462499	0.435283	0.247551	0.276567	0.857441	0.260735	0.086850	0.053787	0.229818	0.844641	0.183365	0.184804	0.442165	0.246204	0.333353	0.039111	0.143832	0.296386	0.175973	0.317244	0.506633	0.654137	0.193276	0.028932
3	0.202073	0.278749	0.340972	0.188650	0.361689	0.453264	0.233858	0.049914	0.484279	0.301602	0.780835	1.102768	0.933134	0.955115	0.461719	0.048574	0.240004	0.368171	0.390723	0.709784	0.424462	0.422131	0.285586	0.045915	0.142021	0.227303	0.346626	0.258445	0.163826	0.087281	0.290634	0.730904	0.484381	1.029635	0.839275	0.812291	0.605290	0.220093	0.181981	0.029026	0.220238	0.174683	0.474495	0.395869	0.100897	0.152943	0.162709	0.401182	0.445546	0.435786	0.289047	0.276815	0.833549	0.262358	0.120878	0.057639	0.229888	0.827447	0.173163	0.206851	0.411900	0.165079	0.385724	0.043266	0.141823	0.279735	0.198851	0.349030	0.503149	0.582562	0.193618	0.028641
4	0.191543	0.327426	0.327488	0.198480	0.252027	0.272700	0.250082	0.051277	0.479367	0.291608	0.749648	1.097232	0.936975	0.953118	0.360407	0.056413	0.239302	0.365358	0.392189	0.737512	0.425219	0.421065	0.238662	0.048204	0.159653	0.225767	0.368324	0.276800	0.181537	0.086065	0.309193	0.637403	0.494724	1.028901	0.820209	0.846870	0.601436	0.223292	0.163744	0.026019	0.221831	0.178550	0.476080	0.414740	0.106426	0.159717	0.161370	0.428939	0.436129	0.437718	0.294841	0.275113	0.832488	0.261483	0.132196	0.058462	0.237242	0.791174	0.190205	0.210982	0.341622	0.125355	0.395773	0.049828	0.154276	0.273766	0.215212	0.366194	0.549957	0.571474	0.202631	0.028575
5	0.187651	0.371327	0.330240	0.207304	0.248710	0.198398	0.248591	0.049785	0.455977	0.275893	0.675510	1.096452	0.858702	0.851525	0.290896	0.075268	0.237977	0.362396	0.395415	0.753641	0.440737	0.421522	0.237612	0.050359	0.189427	0.222157	0.367968	0.284688	0.174686	0.092130	0.308286	0.537819	0.500896	1.034618	0.786137	0.887088	0.602663	0.233676	0.145815	0.022631	0.237971	0.184092	0.481840	0.410343	0.130727	0.163631	0.172660	0.436794	0.441670	0.476737	0.313757	0.271663	0.682999	0.262974	0.132189	0.060410	0.252172	0.761641	0.194393	0.212928	0.306423	0.120419	0.376567	0.051563	0.192043	0.274579	0.206448	0.368603	0.558345	0.566920	0.212127	0.028834
6	0.192486	0.382118	0.342428	0.215444	0.221321	0.192083	0.237455	0.047083	0.417318	0.257920	0.568700	1.099625	0.761133	0.743698	0.275030	0.078442	0.229810	0.345067	0.449906	0.737984	0.440610	0.410431	0.236504	0.057709	0.208934	0.223037	0.367173	0.284796	0.165011	0.093085	0.292732	0.522611	0.502151	1.040341	0.744967	0.910504	0.585737	0.232312	0.142141	0.020177	0.261561	0.187513	0.485519	0.407979	0.133854	0.193658	0.199806	0.439304	0.447255	0.530120	0.372907	0.273585	0.532511	0.283810	0.137023	0.065785	0.284391	0.747086	0.197004	0.222456	0.288179	0.121052	0.361356	0.052634	0.254290	0.271183	0.212249	0.362879	0.516319	0.485862	0.217457	0.023990
7	0.188365	0.377396	0.332667	0.210725	0.219624	0.165462	0.234299	0.057976	0.366432	0.249914	0.449311	1.098233	0.536704	0.710841	0.300175	0.083755	0.225212	0.311881	0.492881	0.688263	0.428941	0.380937	0.201442	0.058749	0.211305	0.224714	0.371246	0.302760	0.160120	0.114082	0.307296	0.484491	0.514142	1.038795	0.760025	0.925338	0.614558	0.358603	0.138739	0.026551	0.285355	0.186677	0.493700	0.431534	0.134807	0.224528	0.222264	0.439277	0.502952	0.550937	0.484405	0.278972	0.548063	0.273092	0.161752	0.074300	0.303104	0.756311	0.223252	0.243846	0.285899	0.123421	0.380106	0.051875	0.297493	0.266326	0.223225	0.341697	0.435209	0.394910	0.202252	0.024963
8	0.199252	0.374030	0.309453	0.194614	0.200845	0.164880	0.209425	0.083590	0.335721	0.254595	0.404307	1.076523	0.530477	0.513736	0.318798	0.098279	0.226698	0.284588	0.490557	0.633424	0.427698	0.378055	0.153285	0.058530	0.210949	0.223764	0.370854	0.366620	0.166266	0.145970	0.328129	0.304747	0.560907	1.033728	0.819721	0.932810	0.716632	0.624337	0.145028	0.030876	0.308470	0.187262	0.542318	0.451408	0.135051	0.240965	0.235003	0.439219	0.619759	0.546708	0.576596	0.282519	0.570555	0.279364	0.174800	0.077306	0.305746	0.780219	0.240556	0.267488	0.285173	0.121518	0.382047	0.047022	0.291382	0.274045	0.244745	0.324040	0.425714	0.361461	0.203378	0.034906
9	0.207453	0.384739	0.283917	0.180163	0.183575	0.263129	0.175752	0.102203	0.379176	0.257619	0.411201	1.065825	0.514047	0.394221	0.290622	0.099988	0.238487	0.253018	0.474905	0.637486	0.447641	0.490808	0.130528	0.060308	0.208621	0.228770	0.371267	0.442372	0.175099	0.148084	0.362883	0.206928	0.597441	1.058141	0.871479	0.933493	0.809916	0.654730	0.179424	0.032379	0.327212	0.191757	0.574365	0.459083	0.138248	0.243722	0.235213	0.437622	0.726282	0.600604	0.646436	0.282980	0.575445	0.284146	0.173853	0.077314	0.325767	0.818124	0.250539	0.278199	0.290686	0.118343	0.384311	0.044662	0.283876	0.275945	0.257167	0.319196	0.414243	0.354625	0.210989	0.043013
10	0.210605	0.387143	0.275130	0.176496	0.194511	0.268711	0.176146	0.104641	0.440630	0.231381	0.432914	1.089045	0.299619	0.383590	0.256027	0.098512	0.268293	0.230270	0.460738	0.665803	0.468821	0.607077	0.137268	0.058239	0.209301	0.247741	0.373066	0.501935	0.178250	0.146332	0.375677	0.208711	0.588574	1.089510	0.916491	0.932477	0.775086	0.715328	0.177163	0.033740	0.325660	0.204727	0.555718	0.452463	0.148665	0.244312	0.247365	0.406147	0.774991	0.724025	0.673351	0.274913	0.603805	0.287944	0.177241	0.077717	0.398147	0.865722	0.252281	0.280744	0.313384	0.114713	0.386314	0.044802	0.293797	0.239902	0.257040	0.319222	0.415403	0.355705	0.212947	0.048283
11	0.257759	0.385654	0.337677	0.176617	0.228112	0.288904	0.182467	0.128573	0.499940	0.169041	0.434072	1.339898	0.256616	0.376323	0.221009	0.089199	0.305588	0.226571	0.449765	0.685240	0.459405	0.625376	0.136020	0.059475	0.215699	0.270918	0.413451	0.534662	0.182014	0.144490	0.374258	0.209545	0.567153	1.078202	0.939673	0.931216	0.767247	0.822951	0.168852	0.035061	0.326782	0.226990	0.540022	0.443890	0.159802	0.246944	0.271851	0.352821	0.786795	0.869242	0.696814	0.238192	0.594932	0.315304	0.178817	0.078635	0.439717	0.776731	0.263987	0.281201	0.316120	0.147678	0.386430	0.045534	0.307599	0.212488	0.254418	0.323485	0.399383	0.350913	0.208017	0.048124
12	0.282175	0.413195	0.441571	0.173520	0.273720	0.338942	0.179201	0.140284	0.518344	0.114017	0.432547	1.824617	0.218853	0.297967	0.222810	0.082704	0.331734	0.245202	0.451313	0.678899	0.435667	0.718386	0.144427	0.059760	0.217352	0.286057	0.462781	0.549467	0.169503	0.166232	0.361595	0.208583	0.569269	0.993427	0.947545	0.930186	0.768834	0.853676	0.172564	0.035850	0.334229	0.242664	0.541259	0.445647	0.183326	0.248914	0.277914	0.335648	0.776353	0.944005	0.701784	0.192251	0.529813	0.309242	0.180219	0.077547	0.454691	0.726415	0.269782	0.283245	0.321618	0.282614	0.386440	0.045639	0.324124	0.202140	0.255251	0.339620	0.384069	0.313101	0.220267	0.051129
13	0.317316	0.469538	0.523717	0.162021	0.258148	0.393957	0.151166	0.143391	0.511565	0.112495	0.438730	2.057707	0.211952	0.258290	0.250117	0.099371	0.340802	0.251117	0.446309	0.632835	0.461022	0.833896	0.142624	0.057805	0.217376	0.323771	0.481113	0.552298	0.146046	0.201327	0.363346	0.222700	0.570701	0.858194	0.947177	0.926434	0.766620	0.854841	0.172080	0.038028	0.355876	0.258483	0.553702	0.452041	0.218711	0.247553	0.280034	0.333781	0.759970	0.973257	0.709508	0.171119	0.518913	0.302969	0.188677	0.076312	0.457063	0.700898	0.281543	0.289830	0.322500	0.338692	0.385570	0.045586	0.337416	0.222475	0.263359	0.364975	0.381736	0.253331	0.247052	0.055746
14	0.328263	0.514209	0.547833	0.157224	0.245624	0.406197	0.132133	0.145307	0.496874	0.116629	0.425025	2.058484	0.128263	0.227223	0.216701	0.094792	0.337811	0.250968	0.450618	0.583090	0.445191	0.855484	0.137265	0.057465	0.219784	0.357972	0.479583	0.553008	0.165055	0.200291	0.392333	0.232005	0.568532	0.749861	0.941257	0.901083	0.799871	0.883034	0.181609	0.037198	0.392531	0.258247	0.590444	0.452210	0.244810	0.238480	0.278730	0.314865	0.747054	0.978731	0.746881	0.168748	0.508838	0.279175	0.207822	0.072092	0.463211	0.681602	0.280504	0.295797	0.309268	0.355191	0.367498	0.044990	0.339459	0.237109	0.264764	0.392373	0.367135	0.201335	0.282121	0.061935
15	0.328751	0.547505	0.549119	0.156165	0.251537	0.406870	0.153615	0.146652	0.489190	0.116515	0.380692	2.073226	0.115069	0.180270	0.187351	0.098461	0.343694	0.250383	0.437816	0.555647	0.444093	0.854805	0.137405	0.060337	0.229212	0.367457	0.473899	0.565715	0.163397	0.205523	0.398650	0.234985	0.560115	0.706971	0.920901	0.845954	0.814683	0.917603	0.188585	0.037845	0.415505	0.256291	0.635396	0.450173	0.317120	0.227176	0.278389	0.245593	0.746804	0.975748	0.820269	0.169619	0.509497	0.282923	0.213228	0.067670	0.464565	0.675714	0.292430	0.293035	0.301616	0.421130	0.323406	0.046146	0.346155	0.229127	0.267003	0.408635	0.437217	0.194137	0.300598	0.063549
16	0.337371	0.572352	0.548459	0.153139	0.270361	0.406336	0.171572	0.143514	0.497778	0.117688	0.358609	2.256657	0.151611	0.181673	0.231698	0.126436	0.343380	0.250408	0.418841	0.544676	0.452709	0.860335	0.131775	0.056723	0.227984	0.369512	0.492978	0.577532	0.162528	0.208214	0.403142	0.226778	0.544785	0.693691	0.884984	0.765654	0.791226	0.903940	0.195968	0.035502	0.416944	0.304004	0.640160	0.453797	0.384179	0.261268	0.280046	0.154404	0.755399	0.965491	0.870840	0.176659	0.509918	0.292104	0.209057	0.063122	0.483732	0.683142	0.329647	0.278081	0.340888	0.437670	0.256600	0.045700	0.362969	0.219892	0.269859	0.413564	0.425889	0.180424	0.301109	0.064208
17	0.352781	0.571004	0.560559	0.153483	0.275605	0.410293	0.176373	0.129833	0.527678	0.129004	0.339997	2.585594	0.164811	0.176721	0.257695	0.136956	0.343432	0.246698	0.385065	0.540329	0.449052	0.859475	0.130798	0.060782	0.225121	0.362777	0.568409	0.585276	0.174207	0.191220	0.461859	0.208844	0.534544	0.699535	0.840840	0.680279	0.708615	0.746345	0.216361	0.031502	0.416924	0.410695	0.639157	0.471574	0.400525	0.302662	0.281508	0.106861	0.773402	0.946993	0.918056	0.186082	0.499300	0.300403	0.193305	0.063821	0.487084	0.683075	0.424891	0.255851	0.395408	0.438445	0.222008	0.039271	0.383855	0.254234	0.276304	0.413041	0.376343	0.174090	0.298976	0.066899
18	0.361160	0.595249	0.606556	0.155285	0.323783	0.394987	0.195893	0.121438	0.571604	0.156738	0.342408	2.825231	0.168029	0.172130	0.258011	0.143164	0.343907	0.247194	0.363968	0.540574	0.422538	0.808042	0.132952	0.064151	0.216493	0.384948	0.612980	0.585974	0.192023	0.191226	0.469971	0.159836	0.559736	0.722351	0.808613	0.619012	0.655449	0.696072	0.171634	0.034830	0.417329	0.480955	0.632306	0.510917	0.398289	0.310128	0.272894	0.090500	0.804722	0.935592	0.942183	0.201815	0.439640	0.300563	0.200288	0.063446	0.490986	0.692481	0.469627	0.242724	0.400031	0.437947	0.221872	0.035808	0.393962	0.300255	0.268606	0.401910	0.352453	0.155421	0.300688	0.070277
19	0.374205	0.640802	0.681321	0.157243	0.362580	0.519125	0.208948	0.117883	0.605391	0.189630	0.355785	2.888229	0.163086	0.149479	0.246342	0.252279	0.341203	0.247394	0.356793	0.523836	0.362563	0.673048	0.126160	0.063477	0.219818	0.401441	0.609966	0.576591	0.199851	0.195115	0.462362	0.128662	0.552415	0.766061	0.785496	0.597552	0.480319	0.666020	0.168562	0.039259	0.429184	0.481259	0.623805	0.540382	0.405524	0.330147	0.239405	0.083855	0.846130	0.940244	0.950712	0.213514	0.466037	0.302298	0.222618	0.058913	0.487848	0.744811	0.465036	0.240987	0.391735	0.437737	0.224537	0.034342	0.393699	0.331854	0.270955	0.382702	0.361081	0.165522	0.294369	0.074015
20	0.381061	0.690940	0.714254	0.146929	0.350097	0.533517	0.212277	0.092388	0.621651	0.223032	0.350091	2.895320	0.154667	0.129101	0.212008	0.311080	0.333125	0.254644	0.355347	0.488288	0.333481	0.616731	0.136313	0.062787	0.228154	0.403227	0.576359	0.567713	0.231056	0.197071	0.468371	0.126721	0.547115	0.790639	0.805769	0.598914	0.472561	0.509547	0.166635	0.038038	0.444377	0.541703	0.621763	0.548117	0.405865	0.373757	0.227712	0.084056	0.864117	0.950408	0.953786	0.220720	0.495548	0.298907	0.231288	0.049704	0.479235	0.781548	0.479813	0.240018	0.437944	0.451510	0.172244	0.034546	0.393463	0.355186	0.259728	0.356277	0.355678	0.167809	0.291040	0.073622
21	0.403770	0.689512	0.747768	0.122188	0.332241	0.556015	0.217463	0.079547	0.628346	0.243619	0.347020	2.894194	0.149010	0.059818	0.208275	0.387488	0.313798	0.267133	0.355314	0.458689	0.269003	0.538263	0.155338	0.061680	0.212253	0.404879	0.564616	0.560226	0.290636	0.214190	0.470528	0.128220	0.546065	0.792962	0.853171	0.580960	0.499978	0.423154	0.165501	0.037103	0.441169	0.625324	0.599742	0.528549	0.408125	0.404198	0.223603	0.080180	0.865963	0.963698	0.951287	0.218419	0.514854	0.295984	0.239917	0.040641	0.467802	0.791414	0.497919	0.230285	0.468587	0.471611	0.163256	0.034495	0.388861	0.381070	0.239900	0.334474	0.347710	0.166238	0.287571	0.069744
22	0.425738	0.673240	0.756002	0.098463	0.336748	0.598095	0.217812	0.075658	0.634332	0.259986	0.360143	2.893541	0.117695	0.057340	0.197642	0.517323	0.321016	0.266036	0.295394	0.437477	0.186732	0.301418	0.153175	0.060760	0.187831	0.409087	0.565033	0.557909	0.300500	0.310012	0.456677	0.107029	0.540601	0.788055	0.882068	0.528290	0.502728	0.415093	0.163151	0.034623	0.430048	0.669437	0.586584	0.498011	0.408528	0.412156	0.220775	0.073513	0.867680	0.984025	0.937302	0.217548	0.500250	0.285873	0.247592	0.039787	0.482511	0.805091	0.532619	0.210002	0.467711	0.481782	0.197856	0.034050	0.377218	0.391144	0.254522	0.335498	0.345349	0.166421	0.285281	0.067265
23	0.434592	0.691585	0.762835	0.093701	0.351426	0.624823	0.227896	0.126347	0.633730	0.287360	0.361851	2.893256	0.084016	0.059546	0.153240	0.528932	0.354077	0.250468	0.206351	0.426660	0.198633	0.180264	0.160652	0.069133	0.177979	0.427254	0.584573	0.557385	0.289709	0.345399	0.399963	0.089016	0.537599	0.772380	0.890654	0.441197	0.450733	0.375484	0.154956	0.034701	0.421148	0.691950	0.580550	0.484417	0.407883	0.412659	0.185187	0.058837	0.845642	0.996473	0.894551	0.230736	0.455018	0.285158	0.252883	0.039282	0.487115	0.804755	0.592687	0.187884	0.534041	0.482386	0.266282	0.041583	0.358878	0.392764	0.300728	0.349078	0.340043	0.164314	0.284772	0.066230
24	0.429844	0.733552	0.845460	0.120045	0.345325	0.641072	0.222361	0.217029	0.615507	0.348402	0.357597	2.881908	0.065145	0.111505	0.126189	0.528712	0.376601	0.229221	0.223906	0.424163	0.202011	0.180750	0.147737	0.071158	0.180793	0.429744	0.605628	0.540513	0.373393	0.379247	0.387750	0.091921	0.540263	0.735953	0.884503	0.356020	0.417979	0.265929	0.144122	0.034864	0.404604	0.695548	0.528794	0.498678	0.403855	0.412029	0.168878	0.049175	0.771048	1.028744	0.844009	0.257424	0.439201	0.262369	0.251613	0.038131	0.462691	0.768221	0.642208	0.181103	0.658380	0.500776	0.318535	0.058380	0.341988	0.398195	0.356278	0.366721	0.342877	0.171061	0.280884	0.067769
25	0.426320	0.757112	0.898514	0.129499	0.342084	0.640189	0.228866	0.270184	0.577243	0.395103	0.325799	2.853039	0.063212	0.129372	0.129860	0.520370	0.370086	0.217338	0.251958	0.373370	0.188466	0.157877	0.173502	0.068319	0.189053	0.428043	0.641321	0.496576	0.400716	0.415385	0.386918	0.097573	0.541666	0.702589	0.856272	0.288633	0.398728	0.232165	0.172957	0.033782	0.398628	0.701793	0.502602	0.528896	0.402106	0.411271	0.157646	0.100958	0.668193	1.035637	0.816332	0.277274	0.389835	0.237667	0.251207	0.033473	0.397629	0.686472	0.697419	0.189452	0.711275	0.456419	0.325529	0.066127	0.370277	0.424264	0.363625	0.377910	0.339666	0.180731	0.259959	0.065191
26	0.456889	0.753637	0.919188	0.130572	0.325136	0.622451	0.227925	0.272779	0.523146	0.417137	0.303265	2.767626	0.083813	0.142390	0.156702	0.468121	0.370199	0.216917	0.259164	0.295798	0.195133	0.148576	0.195669	0.096229	0.202233	0.449072	0.674090	0.445502	0.395980	0.424264	0.298059	0.099895	0.506378	0.672288	0.802351	0.233757	0.299807	0.229835	0.153417	0.036729	0.416954	0.723465	0.504138	0.545912	0.367296	0.409041	0.162713	0.163962	0.602953	0.981989	0.854581	0.288834	0.375399	0.210590	0.246877	0.033209	0.396684	0.642140	0.726277	0.198271	0.713399	0.446186	0.334818	0.066537	0.390635	0.478193	0.353444	0.401663	0.340453	0.178497	0.243527	0.062572
27	0.494181	0.766396	0.907648	0.129409	0.245845	0.575559	0.225447	0.293193	0.500366	0.419825	0.302288	2.489999	0.086024	0.177466	0.164744	0.480526	0.389983	0.223160	0.258539	0.238115	0.204886	0.137093	0.196190	0.122366	0.201675	0.548769	0.673018	0.407298	0.389947	0.428101	0.227093	0.100193	0.436705	0.638983	0.736984	0.194570	0.234333	0.228079	0.143842	0.033827	0.421620	0.746132	0.505591	0.545273	0.350762	0.406855	0.185355	0.198778	0.608537	0.863095	0.892265	0.296562	0.361816	0.201809	0.234239	0.031530	0.434553	0.669545	0.736020	0.197790	0.713624	0.463779	0.359260	0.066775	0.396158	0.565140	0.352604	0.441484	0.338645	0.178797	0.208680	0.057832
28	0.507172	0.815068	0.881822	0.131270	0.196893	0.474467	0.236114	0.349425	0.508411	0.425946	0.286001	2.241861	0.093165	0.251680	0.229079	0.576230	0.443177	0.293284	0.261408	0.200181	0.182375	0.138388	0.197549	0.136597	0.197476	0.674273	0.644630	0.385789	0.384470	0.427165	0.207245	0.094718	0.377398	0.584003	0.675290	0.172938	0.223289	0.194817	0.142008	0.025045	0.398873	0.750894	0.503121	0.539811	0.258906	0.398061	0.183067	0.213942	0.641074	0.770015	0.900341	0.298526	0.367621	0.196234	0.227978	0.031672	0.438968	0.787500	0.741200	0.187115	0.699576	0.420701	0.392077	0.066708	0.386610	0.599174	0.360200	0.453941	0.259666	0.190772	0.194989	0.058232
29	0.487608	0.846557	0.859783	0.147680	0.176235	0.460025	0.237972	0.374043	0.553039	0.479986	0.270648	2.195032	0.087497	0.304617	0.318791	0.610838	0.454750	0.340015	0.300401	0.187967	0.185728	0.095983	0.194824	0.141995	0.245158	0.718805	0.615383	0.376396	0.382504	0.423576	0.197430	0.094179	0.357884	0.584579	0.629270	0.164619	0.222049	0.162817	0.151235	0.023636	0.363371	0.744315	0.485604	0.535072	0.175228	0.360418	0.174765	0.225576	0.678686	0.757647	0.909115	0.296479	0.371222	0.230621	0.219917	0.033025	0.455590	0.831654	0.744262	0.172075	0.684735	0.397458	0.421874	0.065634	0.382564	0.606849	0.363236	0.444633	0.261180	0.195760	0.196237	0.057618
30	0.468046	0.840874	0.859154	0.204379	0.199588	0.449311	0.238756	0.375181	0.591343	0.538881	0.327781	2.171605	0.094544	0.303854	0.327364	0.657863	0.455492	0.395533	0.361423	0.182751	0.189754	0.096383	0.172732	0.153134	0.338898	0.701309	0.620848	0.378835	0.339371	0.419331	0.189554	0.183452	0.353275	0.629366	0.612151	0.162301	0.154391	0.162093	0.168315	0.024732	0.323696	0.748795	0.413914	0.532177	0.164750	0.336076	0.148398	0.247586	0.672804	0.829679	0.881732	0.295477	0.373887	0.275685	0.218718	0.031135	0.454134	0.830038	0.739927	0.164759	0.656317	0.395952	0.426075	0.065274	0.387276	0.601883	0.359497	0.428934	0.289354	0.230898	0.182107	0.056229
31	0.488488	0.817480	0.894117	0.277704	0.211270	0.427851	0.234731	0.374653	0.599949	0.566225	0.356003	1.993784	0.108037	0.289834	0.339331	0.789228	0.446631	0.440300	0.377724	0.182518	0.184517	0.094730	0.182311	0.209476	0.365396	0.688828	0.625248	0.361157	0.320009	0.337097	0.173671	0.246181	0.355430	0.675005	0.609265	0.162886	0.111132	0.161994	0.184307	0.025883	0.295846	0.749908	0.367994	0.531208	0.135504	0.325523	0.146357	0.257682	0.645625	0.910500	0.812034	0.295367	0.376468	0.311092	0.217479	0.029615	0.441004	0.825812	0.723639	0.165853	0.655293	0.396762	0.427627	0.066498	0.421817	0.611872	0.357395	0.401937	0.291928	0.318567	0.187945	0.052612
32	0.509559	0.804953	0.933176	0.339432	0.375938	0.399579	0.245195	0.355548	0.595601	0.608287	0.369091	1.546742	0.113067	0.289436	0.338509	0.819027	0.451426	0.445110	0.403803	0.184377	0.171488	0.090662	0.186505	0.335680	0.374817	0.702149	0.617118	0.323739	0.321024	0.284579	0.156682	0.268616	0.374610	0.707522	0.610485	0.162410	0.109211	0.124388	0.194586	0.027292	0.287947	0.724757	0.370711	0.529745	0.124035	0.247898	0.145523	0.258641	0.621551	0.954119	0.757502	0.290688	0.372417	0.313180	0.198793	0.032687	0.442072	0.831235	0.672434	0.166895	0.657366	0.398868	0.425150	0.068474	0.441095	0.677497	0.354266	0.383688	0.282982	0.353191	0.182141	0.051155
33	0.510285	0.801775	0.953493	0.394348	0.559240	0.448405	0.243875	0.297317	0.565500	0.664182	0.364231	0.876439	0.093920	0.275564	0.327179	0.819019	0.515123	0.459882	0.461140	0.188748	0.164992	0.084831	0.192134	0.383197	0.381510	0.749246	0.578641	0.297663	0.222268	0.235934	0.122746	0.271172	0.387541	0.724109	0.616844	0.160038	0.088254	0.122336	0.195985	0.027264	0.280473	0.663494	0.369069	0.511336	0.115286	0.164763	0.144646	0.269567	0.601825	0.967038	0.714980	0.283148	0.279515	0.339045	0.181829	0.038439	0.447303	0.821479	0.651098	0.168402	0.627765	0.390653	0.429198	0.071037	0.433340	0.747283	0.353854	0.387304	0.295587	0.350168	0.173044	0.052516
34	0.509088	0.811747	0.948713	0.434649	0.603210	0.472878	0.240987	0.268955	0.523835	0.694195	0.355770	0.461607	0.098519	0.243603	0.316199	0.793137	0.563309	0.512797	0.469099	0.188389	0.149469	0.068895	0.202583	0.411940	0.381986	0.808551	0.514283	0.281058	0.167335	0.231037	0.117082	0.335002	0.421382	0.735839	0.620264	0.150428	0.082806	0.107469	0.168622	0.027388	0.278866	0.633980	0.369152	0.469679	0.103302	0.107365	0.144554	0.327703	0.574910	0.968648	0.695677	0.279620	0.193816	0.359813	0.155919	0.042445	0.454056	0.789433	0.653460	0.168140	0.597105	0.373361	0.428423	0.074952	0.416067	0.774888	0.348670	0.398689	0.313150	0.425959	0.167122	0.051188
35	0.500858	0.798825	0.904997	0.447495	0.627017	0.473173	0.239153	0.266897	0.504077	0.695331	0.414069	0.417881	0.095952	0.145174	0.241829	0.655248	0.589999	0.588000	0.475409	0.182668	0.140106	0.057677	0.188174	0.489885	0.404614	0.807072	0.528356	0.284016	0.177639	0.229812	0.153977	0.362888	0.423724	0.746947	0.620209	0.137426	0.079612	0.079782	0.151187	0.028221	0.276471	0.635382	0.373618	0.419254	0.098628	0.094263	0.136396	0.390074	0.518529	0.971036	0.690951	0.288400	0.160085	0.381011	0.156744	0.044021	0.464215	0.773679	0.638299	0.165216	0.596049	0.368424	0.412580	0.076731	0.407205	0.775405	0.344427	0.401980	0.313229	0.481742	0.166453	0.048207
36	0.495027	0.758940	0.865630	0.448277	0.673224	0.471140	0.260739	0.234146	0.509121	0.689639	0.498972	0.624519	0.092100	0.077167	0.123616	0.620580	0.602212	0.695611	0.481467	0.164813	0.130381	0.088332	0.204729	0.553388	0.409464	0.806179	0.559530	0.303536	0.192549	0.227784	0.172154	0.366948	0.383790	0.736036	0.611118	0.131781	0.079311	0.054965	0.152554	0.038924	0.285435	0.566338	0.395554	0.372499	0.049408	0.092175	0.141077	0.425790	0.510710	0.989461	0.698917	0.302589	0.160568	0.387662	0.170166	0.044010	0.462084	0.774855	0.622969	0.165270	0.536284	0.373450	0.370175	0.072933	0.411270	0.761381	0.373379	0.400878	0.308089	0.503864	0.182725	0.045708
37	0.486624	0.728130	0.863896	0.459551	0.686069	0.470259	0.307249	0.165278	0.522846	0.683711	0.582125	0.855461	0.077373	0.073021	0.100244	0.529756	0.613740	0.791224	0.480546	0.143946	0.104036	0.098928	0.227826	0.563960	0.404760	0.810890	0.574728	0.312058	0.208506	0.281173	0.187956	0.368250	0.362966	0.693294	0.589140	0.125597	0.078399	0.040718	0.153558	0.043753	0.287649	0.488506	0.440735	0.366083	0.032507	0.088210	0.141931	0.435240	0.504182	0.974434	0.724276	0.319126	0.158517	0.388815	0.172085	0.043669	0.448014	0.740332	0.593101	0.158601	0.379765	0.344119	0.330377	0.059363	0.417510	0.755813	0.405616	0.405341	0.305235	0.500386	0.200826	0.043504
38	0.468162	0.726170	0.862003	0.481933	0.697359	0.466448	0.323957	0.147937	0.534523	0.675981	0.643374	0.994547	0.092990	0.111762	0.057230	0.360502	0.607693	0.831652	0.482875	0.125975	0.088749	0.110387	0.241414	0.564298	0.403863	0.833677	0.586501	0.317364	0.215779	0.282278	0.230627	0.369040	0.370962	0.668265	0.555361	0.111548	0.074051	0.036037	0.155754	0.044492	0.288371	0.431311	0.494592	0.360981	0.041665	0.088633	0.158786	0.422185	0.499338	0.920118	0.739268	0.324993	0.158588	0.387706	0.176368	0.043690	0.454114	0.717446	0.565040	0.152144	0.254514	0.319145	0.335200	0.049881	0.417821	0.755951	0.421140	0.415673	0.319609	0.500154	0.201815	0.041641
39	0.465145	0.726311	0.881253	0.508979	0.691524	0.357789	0.322919	0.149371	0.540814	0.651648	0.664775	1.073785	0.144126	0.311631	0.128213	0.329960	0.594737	0.838484	0.479785	0.120295	0.080336	0.111243	0.240839	0.561463	0.416539	0.848224	0.589570	0.321837	0.250821	0.281906	0.239424	0.341233	0.401443	0.676614	0.505610	0.091413	0.067794	0.034707	0.140223	0.050620	0.279739	0.417186	0.544342	0.333593	0.056618	0.087550	0.167651	0.403154	0.501035	0.878119	0.749741	0.314550	0.160421	0.387642	0.176123	0.043915	0.463009	0.712615	0.539159	0.147059	0.241505	0.267465	0.350188	0.055280	0.416380	0.756298	0.419653	0.429263	0.316029	0.506316	0.190472	0.038111
40	0.459023	0.693613	0.869300	0.528713	0.674561	0.330278	0.346676	0.165720	0.547330	0.630775	0.686340	1.095226	0.182016	0.373190	0.198411	0.321763	0.593319	0.839473	0.474274	0.121873	0.072600	0.111938	0.232885	0.547641	0.460008	0.846081	0.565389	0.321524	0.258762	0.284999	0.242864	0.295062	0.442278	0.702814	0.456418	0.068687	0.056884	0.055667	0.120304	0.060627	0.288915	0.461004	0.578585	0.285551	0.068394	0.084797	0.184504	0.391971	0.503278	0.839907	0.748821	0.288894	0.161479	0.386995	0.174590	0.043832	0.479949	0.697548	0.483696	0.133984	0.236814	0.214649	0.350530	0.060384	0.404964	0.782693	0.392902	0.461111	0.308128	0.507151	0.180600	0.036152
41	0.461691	0.660986	0.811178	0.537066	0.582844	0.340430	0.374681	0.193648	0.554448	0.613458	0.690387	1.109561	0.290287	0.457426	0.234361	0.256719	0.627317	0.865072	0.502480	0.128999	0.080777	0.120169	0.226836	0.489229	0.508262	0.854944	0.553970	0.317832	0.271326	0.285074	0.290139	0.266587	0.456872	0.709762	0.437234	0.050958	0.053171	0.100035	0.117785	0.070831	0.281286	0.513691	0.602359	0.225784	0.072051	0.079449	0.199815	0.386769	0.508094	0.804307	0.722618	0.270350	0.158450	0.385261	0.174145	0.042104	0.456546	0.659720	0.443861	0.127744	0.239791	0.177026	0.326290	0.061709	0.385160	0.834352	0.352231	0.503256	0.281159	0.501857	0.177740	0.036701
42	0.454415	0.686906	0.775571	0.538983	0.463316	0.257397	0.374560	0.204032	0.548054	0.612934	0.691717	1.174744	0.318732	0.556955	0.246044	0.190532	0.659797	0.943325	0.534371	0.133142	0.085296	0.123366	0.223925	0.437569	0.517870	0.868626	0.518928	0.308728	0.313603	0.284219	0.338784	0.263546	0.466447	0.697539	0.441440	0.044365	0.066646	0.113434	0.128907	0.102738	0.252759	0.533359	0.615034	0.198769	0.072480	0.073977	0.205974	0.375654	0.500934	0.782026	0.665953	0.266489	0.117010	0.370537	0.170857	0.039605	0.411190	0.585047	0.421204	0.129268	0.226763	0.170439	0.297020	0.062307	0.361539	0.831656	0.324682	0.519545	0.277231	0.500442	0.173724	0.037208
43	0.448848	0.765057	0.765308	0.538780	0.400573	0.241158	0.376960	0.205702	0.532169	0.610986	0.693433	1.253862	0.325804	0.574595	0.257871	0.179778	0.642236	1.034022	0.542094	0.133462	0.097256	0.125534	0.204599	0.419510	0.515888	0.852925	0.513354	0.286940	0.324111	0.244936	0.360224	0.187841	0.458220	0.694115	0.439980	0.041022	0.073016	0.138064	0.133420	0.129947	0.240712	0.522475	0.615769	0.192111	0.077835	0.067227	0.205465	0.366601	0.463579	0.784837	0.616699	0.264814	0.105328	0.330687	0.169152	0.037942	0.383149	0.415274	0.416924	0.140668	0.198289	0.170289	0.282470	0.062565	0.347935	0.803584	0.323597	0.503881	0.259599	0.476300	0.171418	0.037659
44	0.400750	0.790002	0.761038	0.538634	0.331000	0.241321	0.374163	0.209633	0.490746	0.582123	0.699606	1.336543	0.336676	0.578342	0.272732	0.067100	0.593208	1.056864	0.540642	0.133469	0.101646	0.126105	0.198238	0.335534	0.591492	0.765901	0.555018	0.264980	0.316907	0.204415	0.350622	0.107128	0.468007	0.702553	0.440297	0.042570	0.074129	0.146636	0.146329	0.138877	0.246876	0.514117	0.584124	0.217436	0.086838	0.057269	0.207931	0.369561	0.501449	0.804735	0.666980	0.270102	0.099565	0.278845	0.167484	0.036408	0.352058	0.347210	0.433562	0.149988	0.186257	0.167827	0.275735	0.061382	0.333653	0.743013	0.336457	0.480216	0.253683	0.421444	0.157604	0.035808
45	0.372618	0.735180	0.746553	0.538343	0.266762	0.240919	0.332850	0.200913	0.438806	0.517209	0.711208	1.385051	0.343704	0.592868	0.292463	0.068886	0.568221	1.043307	0.528133	0.134466	0.101917	0.111092	0.207271	0.179863	0.661580	0.674934	0.589520	0.253568	0.307615	0.206123	0.344625	0.090935	0.481416	0.693801	0.475146	0.046107	0.075803	0.148183	0.144438	0.157989	0.248322	0.515838	0.566784	0.298922	0.093349	0.049761	0.216457	0.374660	0.535961	0.795616	0.794259	0.284105	0.094366	0.269978	0.171485	0.036516	0.358915	0.383005	0.434720	0.149324	0.180860	0.164830	0.270176	0.059445	0.342849	0.711498	0.401996	0.500035	0.250854	0.395784	0.159489	0.028987
46	0.379495	0.693347	0.719878	0.530845	0.233910	0.238480	0.267583	0.193086	0.428291	0.488847	0.746243	1.392502	0.340404	0.519370	0.256332	0.066782	0.567064	1.049047	0.480287	0.126425	0.099286	0.095236	0.213400	0.108844	0.692617	0.666949	0.597828	0.244902	0.296066	0.117755	0.351810	0.088086	0.506823	0.675029	0.504558	0.049847	0.084282	0.148013	0.167839	0.251013	0.247105	0.543465	0.581904	0.370129	0.098947	0.046025	0.226440	0.354153	0.545260	0.713217	0.899761	0.297683	0.085549	0.239420	0.175467	0.035756	0.352459	0.403674	0.435418	0.146195	0.179175	0.162345	0.264810	0.058658	0.339576	0.706677	0.462328	0.552058	0.234128	0.382226	0.160874	0.028129
47	0.405203	0.727933	0.668697	0.507452	0.207520	0.234463	0.256955	0.355388	0.434867	0.440133	0.786221	1.394620	0.311797	0.520262	0.208400	0.066048	0.572346	1.090844	0.457475	0.125964	0.093822	0.085939	0.206091	0.107791	0.659442	0.690734	0.585510	0.241004	0.316029	0.130608	0.343096	0.101255	0.571351	0.684354	0.516125	0.051118	0.092099	0.148032	0.186769	0.332793	0.250033	0.573696	0.604561	0.406408	0.101442	0.040951	0.240805	0.288845	0.548766	0.610532	0.959231	0.304915	0.075833	0.180429	0.164065	0.034647	0.349112	0.395492	0.435605	0.166434	0.202068	0.160833	0.268561	0.060541	0.322586	0.706805	0.519879	0.602779	0.208755	0.282254	0.166905	0.035702
48	0.408609	0.758314	0.609495	0.469406	0.213921	0.190931	0.328531	0.647917	0.441715	0.349321	0.807184	1.400813	0.208378	0.416501	0.196084	0.068994	0.577190	1.162970	0.450831	0.125667	0.090510	0.078768	0.214683	0.111375	0.650419	0.703334	0.607318	0.246066	0.330459	0.138826	0.333068	0.100539	0.611649	0.697477	0.519546	0.052267	0.090716	0.147555	0.193256	0.345453	0.251809	0.632750	0.648158	0.408974	0.102628	0.038228	0.257955	0.216991	0.601581	0.653549	0.966225	0.307669	0.069976	0.127983	0.148857	0.032777	0.334991	0.439219	0.435545	0.196113	0.255691	0.152803	0.274072	0.062286	0.278011	0.697170	0.529708	0.628353	0.208174	0.197869	0.164137	0.042552
49	0.396730	0.748264	0.558305	0.431698	0.196546	0.181603	0.381529	0.812014	0.452740	0.241605	0.830689	1.399773	0.192244	0.316381	0.177179	0.068910	0.563968	1.188254	0.389945	0.115444	0.091662	0.083244	0.211797	0.111122	0.641563	0.676651	0.639483	0.252501	0.322095	0.127918	0.332290	0.137742	0.619805	0.713091	0.532392	0.055993	0.088430	0.144512	0.190393	0.352123	0.258687	0.687306	0.692243	0.403779	0.102693	0.039764	0.254427	0.163785	0.650930	0.797215	0.951790	0.305318	0.070645	0.075755	0.121333	0.031644	0.327633	0.448564	0.440111	0.210965	0.280321	0.137718	0.280727	0.063222	0.234146	0.645524	0.535143	0.635777	0.206666	0.161051	0.140968	0.044413
50	0.396653	0.735406	0.538629	0.381868	0.160642	0.145856	0.383614	0.820836	0.450970	0.200484	0.821349	1.387697	0.183277	0.302780	0.158322	0.065276	0.510973	1.172285	0.372795	0.118889	0.085384	0.071535	0.206550	0.101707	0.652451	0.621073	0.686086	0.252034	0.318149	0.129029	0.296662	0.214742	0.615657	0.723904	0.572773	0.067542	0.086430	0.113233	0.188597	0.365164	0.275234	0.699365	0.718371	0.410235	0.099418	0.037350	0.247921	0.153945	0.641749	0.861041	0.962264	0.295644	0.075678	0.060249	0.100095	0.031767	0.300614	0.468674	0.450061	0.217953	0.279664	0.144479	0.274921	0.065281	0.224215	0.556509	0.562307	0.629205	0.205784	0.161200	0.117104	0.044665
51	0.402386	0.718812	0.548977	0.346293	0.149487	0.087279	0.387331	0.921676	0.436205	0.184567	0.776219	1.340647	0.160453	0.283181	0.131269	0.053132	0.475737	1.139054	0.368309	0.123973	0.088293	0.076464	0.208226	0.099775	0.674282	0.594551	0.711819	0.239495	0.275631	0.127289	0.244082	0.314712	0.620120	0.724244	0.573463	0.068791	0.072075	0.100640	0.178733	0.368743	0.258239	0.694103	0.728658	0.421196	0.094293	0.039250	0.228388	0.151497	0.664610	0.860348	0.991654	0.275658	0.076938	0.054698	0.084253	0.031827	0.279296	0.497143	0.447684	0.217848	0.286222	0.148857	0.257750	0.064680	0.239128	0.501203	0.616490	0.620964	0.165127	0.160533	0.111726	0.044548
52	0.401567	0.716548	0.550025	0.337327	0.149088	0.075569	0.438527	1.054390	0.411836	0.183892	0.712091	1.237671	0.107413	0.198424	0.079287	0.055961	0.459310	1.086148	0.356298	0.123832	0.073037	0.073783	0.205091	0.098217	0.679511	0.626439	0.694200	0.208874	0.253464	0.121940	0.190735	0.349652	0.624345	0.713649	0.577167	0.072349	0.063067	0.068934	0.176803	0.407619	0.240524	0.694801	0.717646	0.424550	0.089071	0.037286	0.213098	0.151399	0.677715	0.828933	1.027160	0.253096	0.075906	0.054950	0.083251	0.031842	0.272612	0.503392	0.414490	0.216869	0.291110	0.144970	0.226227	0.060892	0.239031	0.478477	0.655984	0.617553	0.159354	0.139872	0.112671	0.047456
53	0.411677	0.705462	0.529469	0.333672	0.149673	0.103420	0.539798	1.112047	0.386646	0.180303	0.647940	1.124850	0.101717	0.174870	0.078661	0.081352	0.442792	1.015863	0.357606	0.122355	0.064823	0.080824	0.197485	0.194087	0.683700	0.642768	0.689954	0.185360	0.246225	0.112070	0.180982	0.349748	0.643147	0.757012	0.578823	0.081078	0.063145	0.036165	0.175998	0.454408	0.241677	0.716178	0.692262	0.422432	0.083983	0.038830	0.202855	0.149510	0.682295	0.811889	1.064696	0.233123	0.074008	0.059810	0.083283	0.031765	0.273791	0.511180	0.367699	0.215501	0.359457	0.160169	0.188284	0.056114	0.234007	0.507470	0.649280	0.617290	0.152151	0.148693	0.116914	0.047915
54	0.443156	0.732913	0.507865	0.316450	0.166812	0.125762	0.587772	1.122948	0.362328	0.167881	0.624391	1.042045	0.084993	0.101758	0.061640	0.082018	0.448938	0.975566	0.358408	0.124189	0.066569	0.093725	0.176867	0.334194	0.687064	0.638831	0.682034	0.173416	0.245229	0.098926	0.176609	0.392569	0.651915	0.819623	0.579878	0.087139	0.063873	0.032423	0.179047	0.461439	0.241138	0.750152	0.637598	0.417483	0.085913	0.042148	0.197117	0.148030	0.706319	0.811682	1.094183	0.222971	0.076034	0.082712	0.080587	0.034014	0.281495	0.556861	0.318145	0.212618	0.393450	0.178073	0.177244	0.058727	0.226298	0.512982	0.628141	0.614624	0.150508	0.167742	0.118363	0.048661
55	0.466963	0.746790	0.498422	0.279056	0.218839	0.135923	0.591147	1.115141	0.354284	0.246754	0.606223	1.002570	0.084782	0.072718	0.073178	0.093988	0.464768	0.966816	0.367767	0.129544	0.070079	0.100106	0.145219	0.406809	0.686308	0.607799	0.677767	0.170235	0.240947	0.098166	0.146795	0.460365	0.652129	0.838079	0.580184	0.088808	0.062326	0.041807	0.160021	0.476524	0.253352	0.785680	0.595339	0.412372	0.084041	0.080487	0.204599	0.148150	0.781489	0.823139	1.120145	0.219730	0.077948	0.089558	0.081312	0.039501	0.256304	0.618494	0.299442	0.210882	0.395380	0.184282	0.155252	0.062429	0.225941	0.508142	0.616221	0.607349	0.137475	0.196874	0.139569	0.050050
56	0.467426	0.746449	0.482956	0.229274	0.241488	0.179785	0.583388	1.058058	0.362074	0.402732	0.593845	0.995281	0.086842	0.076278	0.087739	0.101991	0.507090	0.967709	0.374216	0.132706	0.081247	0.108890	0.126917	0.420236	0.672854	0.591150	0.673382	0.167158	0.226425	0.071910	0.093343	0.486639	0.647139	0.837814	0.577206	0.088682	0.044346	0.042923	0.128465	0.558092	0.266868	0.785075	0.563040	0.412962	0.083068	0.092412	0.215122	0.137886	0.814091	0.856419	1.123365	0.221188	0.079944	0.087911	0.082499	0.047614	0.225810	0.650509	0.323691	0.207265	0.401846	0.184561	0.152803	0.064183	0.236660	0.525457	0.611320	0.596577	0.104389	0.199613	0.143256	0.054342
57	0.477970	0.744662	0.445313	0.178243	0.241411	0.178534	0.533607	0.875723	0.379574	0.534001	0.591020	0.931081	0.097294	0.077210	0.116972	0.103387	0.503308	0.961048	0.322149	0.126995	0.088661	0.204318	0.144200	0.508807	0.638747	0.611526	0.674660	0.166923	0.082876	0.041666	0.103131	0.490491	0.632363	0.824266	0.556610	0.089062	0.042232	0.046585	0.108677	0.610001	0.271845	0.748085	0.541124	0.419828	0.087891	0.096716	0.213969	0.121434	0.815322	0.881869	1.124582	0.218467	0.088296	0.093393	0.083788	0.050415	0.232044	0.694218	0.356950	0.202907	0.402292	0.189086	0.150103	0.064253	0.237609	0.518212	0.609111	0.571431	0.100738	0.205161	0.133625	0.063994
58	0.472298	0.727110	0.403049	0.143638	0.270110	0.181321	0.484219	0.787754	0.387135	0.570941	0.591624	0.808903	0.082523	0.083814	0.130463	0.103329	0.480442	0.948064	0.265765	0.125114	0.087308	0.205237	0.186259	0.579473	0.611122	0.611676	0.673518	0.166216	0.072440	0.041377	0.098420	0.483954	0.603660	0.804150	0.539518	0.088397	0.052243	0.055245	0.119673	0.611079	0.276366	0.712438	0.529724	0.424607	0.087568	0.133872	0.201588	0.099658	0.815346	0.889113	1.121937	0.211197	0.090342	0.100612	0.089341	0.051028	0.278347	0.700461	0.351067	0.192529	0.406304	0.190016	0.149683	0.063640	0.236411	0.423152	0.602400	0.526023	0.098926	0.202065	0.170734	0.073580
59	0.461628	0.686867	0.404241	0.138553	0.347573	0.193896	0.470463	0.762568	0.389440	0.581873	0.577653	0.648620	0.082924	0.081276	0.138690	0.092049	0.472626	0.995260	0.289335	0.124971	0.134822	0.323458	0.270137	0.615578	0.604761	0.594696	0.681642	0.161498	0.060334	0.036912	0.092390	0.458795	0.583385	0.781633	0.529634	0.087081	0.059485	0.062526	0.121348	0.604255	0.271830	0.706493	0.531371	0.426400	0.084719	0.168558	0.195487	0.082545	0.831208	0.884002	1.104589	0.200536	0.093692	0.108504	0.080131	0.049290	0.331320	0.712087	0.321254	0.186026	0.404245	0.217599	0.147403	0.061879	0.230788	0.411056	0.596931	0.493111	0.113882	0.212441	0.191663	0.081220
60	0.526619	0.689206	0.441941	0.140342	0.374440	0.209786	0.465235	0.606453	0.400418	0.661695	0.545527	0.494153	0.093821	0.077315	0.141140	0.079611	0.475773	1.134937	0.339458	0.124220	0.203826	0.441937	0.333804	0.624206	0.600218	0.606244	0.678578	0.154828	0.083335	0.046128	0.141257	0.400907	0.571735	0.777951	0.523935	0.086599	0.061260	0.063051	0.111115	0.596553	0.309745	0.706659	0.570588	0.411938	0.084801	0.171973	0.173902	0.073937	0.822217	0.884000	1.079535	0.190731	0.098202	0.117492	0.097596	0.044127	0.388057	0.728936	0.318979	0.185073	0.393317	0.235926	0.135446	0.055111	0.210647	0.416207	0.596094	0.490151	0.125432	0.213678	0.195151	0.078742
61	0.573708	0.712717	0.475219	0.140331	0.419863	0.214536	0.394089	0.356524	0.386867	0.748223	0.543728	0.433402	0.095503	0.076790	0.159814	0.077805	0.477785	1.241453	0.522025	0.122218	0.211410	0.492707	0.334317	0.624694	0.490240	0.674294	0.694905	0.154707	0.151672	0.051449	0.206320	0.357310	0.569518	0.771475	0.522852	0.086533	0.061324	0.062934	0.118063	0.576631	0.389979	0.707811	0.634692	0.358035	0.094234	0.171575	0.175487	0.078120	0.755222	0.882935	0.996504	0.172777	0.097289	0.119464	0.100919	0.042185	0.393415	0.730866	0.313826	0.181176	0.360506	0.232565	0.125972	0.049042	0.236648	0.416396	0.594217	0.484094	0.128888	0.203031	0.197720	0.075927
62	0.595026	0.747074	0.473861	0.137194	0.502910	0.216979	0.230054	0.204640	0.365251	0.778141	0.598251	0.440846	0.101510	0.068852	0.174707	0.054783	0.563519	1.239207	0.640920	0.125967	0.265825	0.573863	0.343733	0.608423	0.404778	0.714920	0.740900	0.161090	0.183746	0.136835	0.246491	0.355229	0.568792	0.758743	0.511665	0.086436	0.079958	0.082762	0.121471	0.539682	0.460724	0.701824	0.678930	0.298154	0.103955	0.171457	0.179870	0.071860	0.738925	0.875615	0.905551	0.150084	0.093917	0.143022	0.102143	0.042109	0.404702	0.728851	0.314126	0.148397	0.342099	0.232566	0.110533	0.047486	0.251553	0.421703	0.555418	0.450976	0.128429	0.197628	0.198996	0.088547
63	0.594371	0.730764	0.454616	0.135576	0.491899	0.217455	0.152255	0.175257	0.377539	0.778586	0.626442	0.427049	0.116211	0.068790	0.171209	0.048641	0.698046	1.238425	0.669545	0.121408	0.293316	0.598637	0.368764	0.546307	0.341483	0.698524	0.779580	0.166756	0.187140	0.151964	0.249440	0.315900	0.570665	0.784279	0.463888	0.086261	0.131848	0.254125	0.121957	0.534349	0.555501	0.741297	0.726896	0.268805	0.111980	0.170675	0.185268	0.063065	0.735881	0.884276	0.846544	0.135032	0.094144	0.189731	0.102602	0.041989	0.431250	0.702977	0.313278	0.104322	0.330138	0.227599	0.104869	0.043861	0.244247	0.416836	0.509763	0.390156	0.131290	0.196051	0.211102	0.141788
64	0.564337	0.675395	0.459199	0.138427	0.494042	0.211142	0.150198	0.176504	0.374444	0.782437	0.605134	0.412287	0.120461	0.109153	0.150108	0.045464	0.843091	1.409595	0.667399	0.119846	0.402044	0.603717	0.388800	0.487231	0.356746	0.680209	0.801348	0.168465	0.212823	0.236242	0.261206	0.209068	0.584409	0.861086	0.411178	0.084031	0.212473	0.513208	0.182667	0.510978	0.622044	0.754161	0.728163	0.264082	0.116544	0.170298	0.189581	0.062578	0.707009	0.859594	0.838985	0.125994	0.094089	0.207110	0.107347	0.041907	0.479508	0.673551	0.301760	0.071677	0.309956	0.223700	0.105483	0.043393	0.263282	0.455617	0.455613	0.294954	0.144193	0.191458	0.254573	0.219702
65	0.572613	0.656841	0.481442	0.140571	0.515905	0.226752	0.161666	0.174648	0.379479	0.797341	0.582847	0.412114	0.166632	0.152692	0.141224	0.045129	0.831789	1.558931	0.681489	0.120650	0.425148	0.626140	0.407752	0.479949	0.379121	0.682074	0.795142	0.163323	0.250735	0.343115	0.269753	0.104033	0.549291	0.925105	0.405852	0.082715	0.265415	0.586999	0.243399	0.372714	0.631245	0.740331	0.701288	0.262164	0.116437	0.170460	0.186442	0.062665	0.640205	0.782497	0.856367	0.125183	0.094065	0.210023	0.109848	0.042285	0.486158	0.642250	0.308661	0.053313	0.303952	0.223752	0.111455	0.043029	0.295944	0.519742	0.454150	0.214917	0.150667	0.190836	0.279239	0.280031
66	0.596051	0.654413	0.510476	0.141630	0.510705	0.252856	0.152447	0.164905	0.385176	0.813987	0.588167	0.381133	0.182164	0.173721	0.137226	0.040542	0.832970	1.608385	0.742808	0.112915	0.424265	0.611491	0.401283	0.398978	0.378679	0.685106	0.765369	0.152639	0.317481	0.397234	0.278731	0.084252	0.493774	0.924048	0.415781	0.081920	0.366106	0.609890	0.255958	0.208784	0.621897	0.736211	0.680016	0.244073	0.115477	0.170514	0.181881	0.062459	0.659729	0.700948	0.859616	0.124699	0.090460	0.212097	0.110108	0.042229	0.487420	0.627045	0.341278	0.048831	0.238669	0.211953	0.141784	0.041802	0.297353	0.530969	0.479135	0.162931	0.148371	0.180693	0.279268	0.302308
67	0.617801	0.661276	0.529486	0.143169	0.483562	0.256424	0.146179	0.145262	0.394970	0.814713	0.614358	0.300271	0.188830	0.217372	0.125306	0.031040	0.839828	1.620941	0.815100	0.098253	0.426011	0.611783	0.382679	0.277360	0.342560	0.669869	0.720287	0.145679	0.362410	0.424706	0.281470	0.098877	0.470663	0.877051	0.413826	0.081184	0.481337	0.677394	0.258712	0.181709	0.622493	0.735349	0.673161	0.227618	0.115837	0.166820	0.181340	0.068064	0.650945	0.694161	0.822341	0.121757	0.085498	0.206673	0.110961	0.041572	0.484212	0.643859	0.355488	0.048534	0.127000	0.199120	0.148703	0.035368	0.319250	0.533129	0.468149	0.141704	0.146700	0.158439	0.281558	0.303711
68	0.637887	0.675342	0.534729	0.143163	0.448820	0.245054	0.126004	0.121094	0.418322	0.820547	0.640597	0.220536	0.186994	0.236718	0.092294	0.027923	0.846653	1.620304	0.865242	0.091809	0.520164	0.573649	0.338716	0.176553	0.286301	0.626795	0.685365	0.141959	0.440110	0.459334	0.282850	0.104781	0.484658	0.831851	0.354191	0.069931	0.499081	0.799266	0.265677	0.180868	0.638117	0.726743	0.698779	0.224723	0.115202	0.155414	0.169540	0.069386	0.613706	0.707571	0.764657	0.118233	0.082270	0.200330	0.107978	0.037895	0.472164	0.646201	0.360925	0.047630	0.127822	0.192678	0.153664	0.024207	0.317619	0.552140	0.411236	0.138175	0.146317	0.125076	0.272718	0.319654
69	0.642812	0.681592	0.539358	0.142716	0.448909	0.236363	0.120350	0.096667	0.462748	0.847307	0.650539	0.200728	0.187562	0.240690	0.058494	0.025819	0.849100	1.617783	0.887070	0.091873	0.491858	0.480897	0.263211	0.133726	0.257235	0.604496	0.669883	0.141483	0.440846	0.557698	0.265937	0.106612	0.506427	0.849891	0.329315	0.067476	0.511343	0.830970	0.269158	0.179922	0.658445	0.704831	0.754574	0.230566	0.105374	0.160495	0.163704	0.070164	0.601758	0.760198	0.685619	0.110058	0.080354	0.199540	0.107670	0.027882	0.459747	0.600051	0.372612	0.057227	0.110012	0.194462	0.162476	0.016435	0.312286	0.565907	0.333729	0.138234	0.144548	0.110706	0.273650	0.349462
70	0.630301	0.659458	0.537224	0.138343	0.371713	0.227604	0.114373	0.080439	0.498491	0.864607	0.642459	0.199971	0.194255	0.239914	0.116965	0.018335	0.848362	1.616961	0.892859	0.087984	0.494691	0.439372	0.262446	0.130756	0.278868	0.657651	0.659158	0.140748	0.423745	0.611414	0.227118	0.107513	0.511702	0.876631	0.317237	0.065384	0.522575	0.837546	0.271561	0.172253	0.679604	0.668997	0.813723	0.240807	0.099498	0.156365	0.167285	0.070192	0.582350	0.791255	0.618145	0.102094	0.075314	0.198484	0.107466	0.015842	0.455872	0.539193	0.385072	0.254894	0.111651	0.191893	0.161615	0.019165	0.311281	0.541825	0.313486	0.138349	0.141277	0.096898	0.274193	0.373028
71	0.619440	0.624223	0.516343	0.132320	0.339906	0.215591	0.119972	0.058100	0.496387	0.826469	0.642019	0.198254	0.204118	0.215618	0.140973	0.020293	0.840852	1.619076	0.890005	0.082397	0.467517	0.313643	0.260105	0.130486	0.280320	0.689051	0.658917	0.137941	0.412490	0.605433	0.177047	0.109326	0.480145	0.853944	0.301435	0.056341	0.530313	0.837199	0.277973	0.160939	0.694537	0.619314	0.866468	0.252841	0.111330	0.102777	0.188091	0.070653	0.496759	0.800838	0.562510	0.093613	0.067440	0.194203	0.103788	0.014050	0.455335	0.500936	0.377549	0.474000	0.099270	0.189603	0.161757	0.027303	0.317048	0.540190	0.311458	0.138004	0.135628	0.086261	0.249105	0.379344
72	0.609549	0.615911	0.480323	0.127403	0.329475	0.211578	0.118304	0.041462	0.479986	0.759460	0.642672	0.197042	0.157760	0.203210	0.149281	0.033572	0.811697	1.619672	0.884067	0.075827	0.451472	0.251011	0.237502	0.125748	0.280746	0.711290	0.655568	0.130357	0.411094	0.600476	0.171503	0.109645	0.477987	0.786290	0.293025	0.041833	0.529025	0.813435	0.284741	0.144120	0.702811	0.598618	0.903784	0.263391	0.126392	0.094229	0.202971	0.070648	0.451328	0.771921	0.560890	0.088100	0.065817	0.188174	0.093844	0.016561	0.449913	0.443074	0.370402	0.602157	0.093722	0.156605	0.162373	0.035080	0.325798	0.562627	0.311945	0.136587	0.117080	0.052132	0.234351	0.383187
73	0.599706	0.618475	0.474391	0.127591	0.289366	0.214090	0.117334	0.036298	0.466761	0.713475	0.647298	0.216410	0.197362	0.306719	0.205067	0.066478	0.790012	1.619012	0.882573	0.075993	0.387917	0.246501	0.211184	0.113588	0.277226	0.705216	0.655787	0.127311	0.403430	0.579754	0.154330	0.105383	0.523800	0.789722	0.294037	0.031097	0.511691	0.687669	0.260635	0.144084	0.714714	0.594081	0.922169	0.270146	0.125626	0.102663	0.214801	0.069145	0.449710	0.733864	0.565581	0.085525	0.064462	0.181683	0.078871	0.018029	0.415725	0.441743	0.367419	0.651331	0.093776	0.092923	0.162843	0.041202	0.318108	0.548557	0.315667	0.132296	0.103400	0.043691	0.226852	0.384059
74	0.598574	0.619579	0.473813	0.128042	0.264664	0.191962	0.126554	0.035535	0.469695	0.711129	0.658805	0.258485	0.353152	0.380955	0.227105	0.082423	0.776028	1.598495	0.884946	0.071989	0.339687	0.220852	0.163127	0.098020	0.284372	0.687485	0.649860	0.127115	0.385318	0.526437	0.146711	0.098984	0.545400	0.814556	0.295814	0.028621	0.487597	0.613344	0.206699	0.165731	0.714279	0.589724	0.922607	0.269203	0.120406	0.107150	0.208502	0.071487	0.474702	0.727884	0.569355	0.074888	0.059842	0.181897	0.065984	0.020931	0.371216	0.406627	0.367331	0.660102	0.092356	0.063594	0.162321	0.045692	0.341504	0.566439	0.320691	0.120902	0.093462	0.044365	0.224216	0.390736
75	0.601507	0.617889	0.473120	0.127313	0.281653	0.169299	0.199345	0.047387	0.468114	0.656050	0.666010	0.333925	0.366774	0.403689	0.243891	0.089653	0.771431	1.526952	0.878024	0.069377	0.348706	0.218966	0.156271	0.086430	0.330338	0.682944	0.633078	0.121114	0.338281	0.489118	0.124105	0.083884	0.549465	0.814831	0.290509	0.026869	0.440988	0.597499	0.181393	0.175485	0.712251	0.588477	0.912883	0.263494	0.113090	0.107998	0.206242	0.077565	0.493923	0.732981	0.571421	0.074206	0.057405	0.177439	0.063159	0.035949	0.309093	0.335651	0.368432	0.669086	0.090677	0.057556	0.158048	0.048282	0.378861	0.629582	0.334047	0.103775	0.092387	0.045048	0.222906	0.393174
76	0.573587	0.567032	0.453043	0.126887	0.261228	0.172772	0.248997	0.060822	0.472703	0.557186	0.635218	0.436519	0.439244	0.505183	0.254762	0.095607	0.771023	1.399400	0.874794	0.069645	0.393430	0.211356	0.154682	0.075622	0.367377	0.686515	0.615806	0.115215	0.281108	0.460486	0.113499	0.060629	0.550299	0.815492	0.267058	0.026852	0.284960	0.533289	0.174201	0.192494	0.689148	0.586042	0.883119	0.252163	0.106671	0.109221	0.199262	0.081212	0.460274	0.717499	0.558143	0.071714	0.050798	0.168894	0.058868	0.048679	0.304623	0.309606	0.377558	0.735137	0.089378	0.057093	0.156717	0.049743	0.384790	0.651946	0.356361	0.084200	0.081769	0.039367	0.207561	0.373608
77	0.495504	0.459889	0.418172	0.125204	0.244599	0.169721	0.252611	0.063193	0.470372	0.484607	0.522223	0.468582	0.431309	0.541332	0.227035	0.099560	0.771077	1.288249	0.826226	0.066444	0.263768	0.223633	0.149289	0.052542	0.392928	0.671003	0.580008	0.105925	0.129715	0.439528	0.106542	0.048574	0.549814	0.820158	0.253989	0.027721	0.229103	0.316736	0.158555	0.248248	0.651248	0.571647	0.839979	0.238471	0.105076	0.109021	0.195083	0.083140	0.452125	0.702810	0.540829	0.067493	0.037663	0.193653	0.058029	0.058961	0.283933	0.305946	0.380380	0.827996	0.087622	0.057236	0.156193	0.049876	0.383801	0.665247	0.368873	0.066670	0.056500	0.035015	0.144546	0.334234
78	0.465919	0.384306	0.401677	0.125713	0.232289	0.170688	0.273036	0.064566	0.433382	0.481364	0.424284	0.463194	0.426049	0.544309	0.228454	0.101324	0.723278	1.271673	0.736421	0.057770	0.262352	0.231866	0.146283	0.036149	0.401409	0.610698	0.507855	0.090871	0.119186	0.316901	0.116092	0.045629	0.548867	0.826299	0.251984	0.027677	0.205289	0.190989	0.149181	0.298362	0.606499	0.521003	0.801359	0.225757	0.107665	0.108430	0.191013	0.084361	0.475309	0.707573	0.518542	0.057368	0.066328	0.201016	0.052589	0.062786	0.243025	0.307342	0.396108	0.901015	0.085111	0.057702	0.153395	0.051102	0.374406	0.670270	0.372081	0.055103	0.032547	0.036649	0.103259	0.302056
79	0.458918	0.358490	0.401069	0.125230	0.187387	0.198547	0.303178	0.066968	0.404676	0.476876	0.396218	0.458366	0.429817	0.536755	0.219692	0.109763	0.613135	1.246759	0.708284	0.054374	0.258103	0.241774	0.142974	0.031317	0.399403	0.580279	0.421730	0.075653	0.118017	0.169282	0.106810	0.045141	0.551214	0.826151	0.264847	0.027770	0.164785	0.149629	0.143211	0.313611	0.520406	0.393717	0.754256	0.216357	0.108395	0.107575	0.186857	0.081174	0.533922	0.729248	0.496847	0.049145	0.079701	0.217308	0.050785	0.063692	0.137191	0.312744	0.416937	0.932967	0.084267	0.058773	0.125835	0.058547	0.348373	0.669154	0.369380	0.042157	0.025706	0.037407	0.098982	0.293681
80	0.476386	0.386360	0.400860	0.120463	0.172077	0.238987	0.325595	0.078754	0.393930	0.456332	0.408761	0.462853	0.388734	0.454228	0.161913	0.097391	0.340060	1.014510	0.710573	0.055604	0.261974	0.256305	0.139689	0.029436	0.387455	0.579283	0.374577	0.065591	0.107478	0.141399	0.133912	0.046984	0.554031	0.826074	0.290169	0.029097	0.128209	0.143033	0.115082	0.312054	0.463794	0.262038	0.723504	0.219888	0.108749	0.101744	0.182713	0.074858	0.557155	0.698382	0.474858	0.047169	0.139639	0.240934	0.049495	0.070042	0.129522	0.317211	0.429941	0.943754	0.081697	0.058704	0.099320	0.068876	0.351883	0.667486	0.367046	0.025651	0.021925	0.037565	0.088810	0.297397
81	0.472184	0.387606	0.386293	0.105384	0.262208	0.256289	0.332734	0.084745	0.385300	0.420774	0.417191	0.499375	0.279287	0.434724	0.148275	0.091177	0.281938	0.644437	0.700852	0.054459	0.348801	0.259704	0.128936	0.024024	0.369061	0.594935	0.342811	0.055405	0.151131	0.140447	0.184320	0.058398	0.553935	0.814032	0.307758	0.025098	0.100707	0.138009	0.078148	0.307110	0.456784	0.222645	0.717268	0.223483	0.109037	0.093326	0.183240	0.071252	0.563136	0.615913	0.445387	0.047240	0.150864	0.241920	0.047758	0.080601	0.149872	0.283812	0.433529	0.947544	0.071762	0.079704	0.080561	0.073330	0.349684	0.649636	0.363633	0.023520	0.021107	0.037188	0.088270	0.277041
82	0.441284	0.389282	0.352826	0.082629	0.266655	0.243579	0.330254	0.085554	0.380554	0.417377	0.389808	0.552885	0.253639	0.378723	0.110287	0.080630	0.283322	0.479715	0.642101	0.054691	0.363881	0.259502	0.123146	0.030706	0.360485	0.581840	0.354059	0.048545	0.280886	0.142750	0.213334	0.066091	0.535335	0.751194	0.320486	0.026166	0.053578	0.120533	0.067960	0.296468	0.456035	0.218267	0.718307	0.223972	0.108608	0.082996	0.187291	0.073893	0.541158	0.585827	0.391920	0.047410	0.160613	0.244956	0.049212	0.085293	0.164609	0.237843	0.430649	0.948204	0.067841	0.115684	0.069741	0.077389	0.328233	0.609573	0.389877	0.029849	0.020781	0.036796	0.081103	0.233218
83	0.397396	0.386351	0.295940	0.064408	0.266660	0.287330	0.317206	0.087475	0.357976	0.414127	0.353228	0.595733	0.114931	0.300141	0.097407	0.076773	0.344642	0.449696	0.546286	0.054549	0.420297	0.256330	0.126713	0.037770	0.394932	0.591464	0.376366	0.049575	0.314925	0.148784	0.213133	0.066252	0.519039	0.648551	0.312675	0.029466	0.039057	0.099476	0.063959	0.284430	0.441584	0.219692	0.707996	0.228059	0.100781	0.079233	0.180808	0.083013	0.522056	0.579096	0.355853	0.046691	0.198404	0.273344	0.058526	0.085463	0.163668	0.227484	0.425008	0.948216	0.109025	0.138070	0.133675	0.080796	0.318748	0.613459	0.416160	0.044508	0.019925	0.036867	0.073461	0.199396
84	0.360780	0.373733	0.245887	0.060233	0.273852	0.308128	0.277637	0.082763	0.309313	0.372009	0.313033	0.636336	0.110500	0.297348	0.091397	0.073234	0.353760	0.451961	0.455656	0.053970	0.456728	0.278284	0.132010	0.039842	0.410658	0.605266	0.390579	0.048084	0.320574	0.140307	0.219221	0.080699	0.520964	0.591151	0.286179	0.029343	0.062783	0.084801	0.069433	0.275465	0.412441	0.214831	0.667485	0.236738	0.078419	0.072859	0.157201	0.083274	0.514269	0.571069	0.340283	0.046697	0.234881	0.299906	0.059397	0.085512	0.154183	0.243272	0.421446	0.947098	0.208874	0.143371	0.196415	0.081275	0.306722	0.632470	0.414041	0.051831	0.018030	0.035739	0.070466	0.185429
85	0.330957	0.346172	0.220209	0.060907	0.274499	0.308487	0.240710	0.072831	0.227305	0.280582	0.308710	0.663795	0.116102	0.286999	0.081046	0.065689	0.354852	0.457948	0.418223	0.053658	0.456407	0.289942	0.134432	0.040901	0.413139	0.612120	0.377257	0.048080	0.319234	0.129869	0.230762	0.150769	0.525188	0.580613	0.285550	0.030200	0.107641	0.083829	0.109673	0.269838	0.373511	0.201801	0.596259	0.252458	0.079869	0.059156	0.126677	0.079137	0.509298	0.500461	0.344815	0.047330	0.237923	0.316680	0.064883	0.085791	0.152540	0.258655	0.402942	0.904611	0.230157	0.167009	0.217462	0.078645	0.311689	0.621316	0.404070	0.054410	0.023297	0.033944	0.068775	0.180065
86	0.326964	0.321886	0.202778	0.061383	0.279097	0.309710	0.238994	0.072046	0.192833	0.218963	0.309040	0.670396	0.110790	0.283327	0.093209	0.035649	0.350891	0.457190	0.413321	0.053022	0.456785	0.284686	0.137156	0.041437	0.405158	0.575280	0.363845	0.046263	0.319450	0.119497	0.240537	0.185243	0.520347	0.581793	0.290460	0.031770	0.167573	0.083504	0.129415	0.227645	0.327777	0.184423	0.511399	0.256214	0.081343	0.044524	0.116253	0.076099	0.508655	0.441376	0.344505	0.048179	0.304358	0.320238	0.072911	0.086012	0.156506	0.264960	0.383716	0.811158	0.232951	0.196284	0.223077	0.075445	0.325718	0.614759	0.405759	0.054786	0.034111	0.031334	0.069762	0.177005
87	0.323222	0.316752	0.200525	0.059566	0.281261	0.307248	0.203369	0.069714	0.179655	0.143347	0.309307	0.670483	0.109148	0.272504	0.094501	0.028813	0.350306	0.450999	0.425736	0.050320	0.447886	0.274902	0.135321	0.043720	0.388410	0.502757	0.354047	0.045841	0.319060	0.112718	0.239080	0.192151	0.487485	0.524990	0.290325	0.032452	0.183434	0.090927	0.150951	0.154716	0.282486	0.161232	0.427178	0.245226	0.082576	0.042019	0.117905	0.069312	0.494408	0.394621	0.311839	0.046914	0.394303	0.325539	0.096009	0.086897	0.158643	0.261589	0.363206	0.728348	0.235199	0.213196	0.223561	0.073178	0.326412	0.629452	0.440756	0.055932	0.046871	0.032366	0.072080	0.159488
88	0.321368	0.292045	0.206981	0.051421	0.293147	0.283905	0.153239	0.061209	0.199535	0.121177	0.307461	0.666964	0.095322	0.242208	0.095238	0.033515	0.353453	0.445526	0.434118	0.048575	0.450444	0.273354	0.135993	0.049396	0.402729	0.461372	0.350849	0.045259	0.318130	0.098035	0.238911	0.202889	0.460521	0.455289	0.291763	0.031555	0.192807	0.119451	0.155620	0.109529	0.236213	0.122776	0.357369	0.219213	0.084329	0.042132	0.141147	0.066396	0.472112	0.386808	0.259772	0.042427	0.400186	0.330874	0.110338	0.085291	0.161777	0.251518	0.360394	0.693393	0.238710	0.214520	0.227761	0.072334	0.326311	0.617615	0.493395	0.057600	0.049903	0.036993	0.076282	0.144583
89	0.331018	0.284072	0.209010	0.044385	0.267196	0.243292	0.090669	0.040732	0.220886	0.126023	0.294306	0.655998	0.089813	0.227829	0.104629	0.044174	0.351525	0.435201	0.438072	0.046684	0.455288	0.265763	0.151519	0.066322	0.406868	0.434891	0.352006	0.044539	0.316203	0.081979	0.230530	0.233158	0.450982	0.432839	0.288612	0.031424	0.212951	0.145191	0.156278	0.108109	0.215588	0.124460	0.319175	0.198002	0.101130	0.058283	0.175234	0.063378	0.455779	0.387012	0.238674	0.042917	0.409529	0.336816	0.143140	0.078982	0.163786	0.250021	0.362364	0.689383	0.243104	0.219584	0.240117	0.072595	0.330614	0.596496	0.523719	0.058855	0.051376	0.038389	0.077055	0.143017
90	0.328856	0.279608	0.213716	0.041071	0.209698	0.234651	0.082558	0.037330	0.234370	0.131248	0.276252	0.630914	0.100547	0.130042	0.118890	0.049349	0.345119	0.415815	0.436448	0.048988	0.404186	0.264325	0.146400	0.068263	0.405745	0.426471	0.351710	0.043736	0.297288	0.086380	0.195758	0.284508	0.442973	0.423542	0.289198	0.031399	0.237851	0.145754	0.169960	0.105207	0.221224	0.158342	0.316405	0.190043	0.109051	0.082037	0.199118	0.061792	0.435541	0.376258	0.221900	0.042776	0.411674	0.323892	0.170959	0.070919	0.166959	0.263980	0.360794	0.677263	0.261682	0.223515	0.254625	0.075212	0.338801	0.590710	0.541866	0.060134	0.051665	0.036137	0.079102	0.129674
91	0.329881	0.291811	0.223251	0.041174	0.227257	0.223246	0.098041	0.032947	0.237092	0.142555	0.286269	0.571227	0.095457	0.087700	0.116668	0.067335	0.345090	0.399981	0.418684	0.049968	0.391692	0.260083	0.129603	0.066675	0.410031	0.444390	0.352766	0.043586	0.183031	0.087280	0.161123	0.305203	0.390157	0.365396	0.291679	0.031411	0.261149	0.144867	0.185700	0.099691	0.221268	0.252409	0.328394	0.188548	0.127131	0.091676	0.221674	0.061110	0.386110	0.359265	0.207104	0.042197	0.415208	0.305326	0.178758	0.065149	0.177917	0.278461	0.350040	0.595505	0.288523	0.226325	0.257001	0.075097	0.368037	0.577453	0.561917	0.062575	0.052358	0.033392	0.079603	0.101466
92	0.361465	0.350637	0.224935	0.047691	0.210475	0.155839	0.089144	0.023154	0.231144	0.149017	0.292286	0.525495	0.075885	0.083501	0.116628	0.087374	0.339594	0.367542	0.398859	0.049688	0.334223	0.261611	0.119657	0.073156	0.426069	0.496282	0.356775	0.044156	0.107262	0.061315	0.149751	0.315435	0.353758	0.262370	0.293849	0.032226	0.261974	0.144316	0.209421	0.108396	0.216644	0.402503	0.333861	0.188506	0.129479	0.093548	0.224998	0.060823	0.360181	0.348205	0.191249	0.040954	0.415919	0.306024	0.185874	0.064683	0.206158	0.329989	0.340535	0.457649	0.303967	0.230296	0.258139	0.070256	0.383342	0.525671	0.566967	0.064425	0.055657	0.033621	0.082032	0.075305
93	0.384532	0.437266	0.218034	0.047930	0.193124	0.126183	0.077655	0.019682	0.231009	0.150150	0.278052	0.516326	0.071292	0.076030	0.109146	0.141059	0.342530	0.339052	0.343958	0.049266	0.299001	0.206433	0.112470	0.073270	0.415709	0.528112	0.362215	0.044010	0.053691	0.064680	0.143537	0.318843	0.340458	0.230835	0.294182	0.032836	0.258749	0.141550	0.215671	0.133705	0.199790	0.497741	0.319451	0.188382	0.132775	0.133174	0.223768	0.060601	0.358279	0.378969	0.174505	0.036160	0.408055	0.279715	0.187818	0.061255	0.244683	0.399249	0.312893	0.306099	0.314391	0.239419	0.257279	0.059759	0.384588	0.487932	0.554590	0.063519	0.062003	0.034759	0.095051	0.052054
94	0.384081	0.463990	0.195233	0.046012	0.180454	0.129303	0.082597	0.045425	0.231870	0.157770	0.275522	0.516037	0.069925	0.069597	0.115599	0.147284	0.348502	0.319362	0.306645	0.045109	0.180162	0.177433	0.109225	0.072851	0.409014	0.502218	0.372675	0.044632	0.062334	0.064215	0.119543	0.297603	0.334271	0.229724	0.294978	0.033987	0.245779	0.137299	0.199919	0.147830	0.171775	0.536141	0.303856	0.189390	0.137042	0.175261	0.221123	0.059205	0.353981	0.460902	0.164152	0.034636	0.433880	0.282397	0.197726	0.050390	0.300352	0.412505	0.278599	0.207718	0.317223	0.237886	0.256737	0.053721	0.386055	0.464454	0.545451	0.063578	0.065227	0.035093	0.095221	0.043439
95	0.369081	0.453481	0.178638	0.044296	0.180891	0.159006	0.082882	0.061863	0.233353	0.186466	0.253734	0.513394	0.070697	0.045133	0.116418	0.161748	0.359998	0.298467	0.315806	0.044387	0.175916	0.172203	0.107273	0.072817	0.456614	0.486779	0.369622	0.044091	0.060995	0.064808	0.093714	0.324244	0.328389	0.219322	0.295042	0.034215	0.213252	0.130174	0.187624	0.161956	0.182471	0.540377	0.295831	0.184581	0.177370	0.181480	0.226674	0.046036	0.291462	0.474223	0.171809	0.035947	0.451469	0.283810	0.217365	0.040685	0.325634	0.401417	0.223239	0.162559	0.371154	0.221366	0.254400	0.047328	0.396542	0.466477	0.540846	0.064097	0.065667	0.034142	0.091649	0.046453
96	0.359864	0.430605	0.204789	0.047666	0.172449	0.169383	0.093670	0.064051	0.239270	0.261617	0.227144	0.489917	0.052753	0.046477	0.107600	0.191273	0.360889	0.285183	0.315926	0.043015	0.174771	0.172253	0.106154	0.072422	0.486238	0.483409	0.351815	0.041057	0.060536	0.064816	0.087078	0.402618	0.328083	0.189963	0.295312	0.034010	0.192835	0.125950	0.171762	0.162448	0.262575	0.578509	0.295920	0.174765	0.192093	0.182638	0.240749	0.034832	0.240526	0.454670	0.169243	0.036260	0.453519	0.269548	0.246022	0.041213	0.324470	0.435350	0.169777	0.143733	0.463520	0.211642	0.231919	0.040610	0.400367	0.471096	0.541569	0.064610	0.074486	0.034417	0.105374	0.051404
97	0.467764	0.500543	0.251369	0.050346	0.154529	0.172645	0.102450	0.063487	0.266210	0.335545	0.214818	0.428104	0.033981	0.056644	0.100214	0.199140	0.357840	0.284053	0.308929	0.040420	0.171589	0.176669	0.104024	0.071989	0.487867	0.469979	0.326089	0.038046	0.063295	0.064596	0.082212	0.472786	0.325468	0.182109	0.291109	0.034183	0.185815	0.102542	0.173443	0.159794	0.304295	0.672820	0.317246	0.171944	0.209543	0.183105	0.252243	0.035757	0.223644	0.447609	0.168238	0.034261	0.437933	0.236514	0.276143	0.046313	0.370832	0.551981	0.150329	0.141924	0.439597	0.225580	0.180051	0.033777	0.400320	0.467792	0.551137	0.064417	0.099715	0.036511	0.137138	0.070131
98	0.591391	0.634184	0.296850	0.052140	0.152637	0.173246	0.105807	0.065445	0.327181	0.400386	0.208362	0.363724	0.040202	0.060611	0.102178	0.197153	0.365306	0.269806	0.307904	0.040269	0.149184	0.194093	0.070145	0.057661	0.487518	0.453895	0.297838	0.035953	0.069838	0.063816	0.098604	0.532141	0.314969	0.181241	0.266987	0.033120	0.170553	0.046214	0.175756	0.159375	0.311702	0.777465	0.351746	0.175290	0.229619	0.195184	0.261928	0.040659	0.242553	0.456041	0.160957	0.031878	0.438647	0.209542	0.287807	0.047960	0.396926	0.589347	0.140419	0.142801	0.438963	0.239847	0.151187	0.032691	0.398109	0.467048	0.550737	0.064254	0.100048	0.036928	0.156616	0.102536
99	0.649275	0.723673	0.335064	0.056848	0.148150	0.174821	0.126034	0.072079	0.384924	0.432847	0.208926	0.280333	0.050319	0.082735	0.106275	0.182095	0.304856	0.248858	0.308321	0.039596	0.149129	0.197771	0.053555	0.053589	0.502372	0.451718	0.259507	0.032982	0.068387	0.055520	0.097465	0.545780	0.298620	0.174849	0.245482	0.031856	0.134813	0.034595	0.165860	0.202052	0.310676	0.837767	0.373117	0.169026	0.250105	0.218410	0.272564	0.043924	0.260047	0.464468	0.177420	0.032734	0.442547	0.194796	0.289400	0.047803	0.397621	0.585526	0.151763	0.143954	0.442969	0.228003	0.141280	0.033039	0.415455	0.463934	0.533659	0.063031	0.099857	0.040190	0.166388	0.215443
100	0.654949	0.723425	0.339903	0.059432	0.220657	0.173623	0.118051	0.073817	0.433969	0.452148	0.230317	0.191487	0.048202	0.089288	0.095676	0.153422	0.272084	0.245264	0.312042	0.039699	0.109509	0.219305	0.113555	0.053030	0.498318	0.431473	0.223218	0.027517	0.108702	0.049618	0.096444	0.549890	0.268487	0.167080	0.215481	0.030358	0.074002	0.034132	0.156656	0.234305	0.321642	0.844269	0.400319	0.154474	0.260883	0.238599	0.272366	0.044788	0.374027	0.472989	0.195677	0.033390	0.327741	0.190975	0.288539	0.047122	0.414338	0.590831	0.191555	0.140085	0.452495	0.210752	0.139692	0.032853	0.456882	0.482785	0.497677	0.054504	0.096050	0.038475	0.165694	0.294536
101	0.650782	0.718890	0.341338	0.059487	0.231160	0.204659	0.143579	0.076751	0.462670	0.462995	0.253041	0.147341	0.050029	0.088361	0.103125	0.150525	0.252549	0.229512	0.299648	0.039230	0.091915	0.208379	0.138619	0.039688	0.493130	0.422535	0.211836	0.024707	0.125058	0.049995	0.098146	0.627861	0.233931	0.164878	0.186483	0.027396	0.064082	0.034457	0.124184	0.236021	0.327619	0.846221	0.410177	0.113275	0.259839	0.248540	0.257531	0.044973	0.463201	0.537838	0.209510	0.034780	0.326293	0.179669	0.286606	0.046307	0.415252	0.589409	0.206780	0.134548	0.452166	0.209099	0.133641	0.030393	0.491903	0.480565	0.490088	0.046913	0.094764	0.033160	0.163538	0.320815
