	150_P_T3_sh_L_ND_A_01.c3d	150_P_T3_sh_L_ND_A_01.c3d	150_P_T3_sh_L_ND_A_01.c3d	150_P_T3_sh_L_ND_A_01.c3d	150_P_T3_sh_L_ND_A_01.c3d	150_P_T3_sh_L_ND_A_01.c3d	150_P_T3_sh_L_ND_A_01.c3d	150_P_T3_sh_L_ND_A_01.c3d	150_P_T3_sh_L_ND_A_02.c3d	150_P_T3_sh_L_ND_A_02.c3d	150_P_T3_sh_L_ND_A_02.c3d	150_P_T3_sh_L_ND_A_02.c3d	150_P_T3_sh_L_ND_A_02.c3d	150_P_T3_sh_L_ND_A_02.c3d	150_P_T3_sh_L_ND_A_02.c3d	150_P_T3_sh_L_ND_A_02.c3d	150_P_T3_sh_L_ND_A_03.c3d	150_P_T3_sh_L_ND_A_03.c3d	150_P_T3_sh_L_ND_A_03.c3d	150_P_T3_sh_L_ND_A_03.c3d	150_P_T3_sh_L_ND_A_03.c3d	150_P_T3_sh_L_ND_A_03.c3d	150_P_T3_sh_L_ND_A_03.c3d	150_P_T3_sh_L_ND_A_03.c3d	150_P_T3_sh_L_ND_A_05.c3d	150_P_T3_sh_L_ND_A_05.c3d	150_P_T3_sh_L_ND_A_05.c3d	150_P_T3_sh_L_ND_A_05.c3d	150_P_T3_sh_L_ND_A_05.c3d	150_P_T3_sh_L_ND_A_05.c3d	150_P_T3_sh_L_ND_A_05.c3d	150_P_T3_sh_L_ND_A_05.c3d	150_P_T3_sh_L_ND_A_06.c3d	150_P_T3_sh_L_ND_A_06.c3d	150_P_T3_sh_L_ND_A_06.c3d	150_P_T3_sh_L_ND_A_06.c3d	150_P_T3_sh_L_ND_A_06.c3d	150_P_T3_sh_L_ND_A_06.c3d	150_P_T3_sh_L_ND_A_06.c3d	150_P_T3_sh_L_ND_A_06.c3d	150_P_T3_sh_L_ND_A_07.c3d	150_P_T3_sh_L_ND_A_07.c3d	150_P_T3_sh_L_ND_A_07.c3d	150_P_T3_sh_L_ND_A_07.c3d	150_P_T3_sh_L_ND_A_07.c3d	150_P_T3_sh_L_ND_A_07.c3d	150_P_T3_sh_L_ND_A_07.c3d	150_P_T3_sh_L_ND_A_07.c3d	150_P_T3_sh_L_ND_A_08.c3d	150_P_T3_sh_L_ND_A_08.c3d	150_P_T3_sh_L_ND_A_08.c3d	150_P_T3_sh_L_ND_A_08.c3d	150_P_T3_sh_L_ND_A_08.c3d	150_P_T3_sh_L_ND_A_08.c3d	150_P_T3_sh_L_ND_A_08.c3d	150_P_T3_sh_L_ND_A_08.c3d	150_P_T3_sh_L_ND_A_10.c3d	150_P_T3_sh_L_ND_A_10.c3d	150_P_T3_sh_L_ND_A_10.c3d	150_P_T3_sh_L_ND_A_10.c3d	150_P_T3_sh_L_ND_A_10.c3d	150_P_T3_sh_L_ND_A_10.c3d	150_P_T3_sh_L_ND_A_10.c3d	150_P_T3_sh_L_ND_A_10.c3d
	Biceps femoris_lat	Semitendinosus_lat	Vastus lateralis_lat	Vastus medialis_lat	Biceps femoris_med	Semitendinosus_med	Vastus lateralis_med	Vastus medialis_med	Biceps femoris_lat	Semitendinosus_lat	Vastus lateralis_lat	Vastus medialis_lat	Biceps femoris_med	Semitendinosus_med	Vastus lateralis_med	Vastus medialis_med	Biceps femoris_lat	Semitendinosus_lat	Vastus lateralis_lat	Vastus medialis_lat	Biceps femoris_med	Semitendinosus_med	Vastus lateralis_med	Vastus medialis_med	Biceps femoris_lat	Semitendinosus_lat	Vastus lateralis_lat	Vastus medialis_lat	Biceps femoris_med	Semitendinosus_med	Vastus lateralis_med	Vastus medialis_med	Biceps femoris_lat	Semitendinosus_lat	Vastus lateralis_lat	Vastus medialis_lat	Biceps femoris_med	Semitendinosus_med	Vastus lateralis_med	Vastus medialis_med	Biceps femoris_lat	Semitendinosus_lat	Vastus lateralis_lat	Vastus medialis_lat	Biceps femoris_med	Semitendinosus_med	Vastus lateralis_med	Vastus medialis_med	Biceps femoris_lat	Semitendinosus_lat	Vastus lateralis_lat	Vastus medialis_lat	Biceps femoris_med	Semitendinosus_med	Vastus lateralis_med	Vastus medialis_med	Biceps femoris_lat	Semitendinosus_lat	Vastus lateralis_lat	Vastus medialis_lat	Biceps femoris_med	Semitendinosus_med	Vastus lateralis_med	Vastus medialis_med
	P2D	P2D	P2D	P2D	P2D	P2D	P2D	P2D	P2D	P2D	P2D	P2D	P2D	P2D	P2D	P2D	P2D	P2D	P2D	P2D	P2D	P2D	P2D	P2D	P2D	P2D	P2D	P2D	P2D	P2D	P2D	P2D	P2D	P2D	P2D	P2D	P2D	P2D	P2D	P2D	P2D	P2D	P2D	P2D	P2D	P2D	P2D	P2D	P2D	P2D	P2D	P2D	P2D	P2D	P2D	P2D	P2D	P2D	P2D	P2D	P2D	P2D	P2D	P2D
	EMG_lat	EMG_lat	EMG_lat	EMG_lat	EMG_med	EMG_med	EMG_med	EMG_med	EMG_lat	EMG_lat	EMG_lat	EMG_lat	EMG_med	EMG_med	EMG_med	EMG_med	EMG_lat	EMG_lat	EMG_lat	EMG_lat	EMG_med	EMG_med	EMG_med	EMG_med	EMG_lat	EMG_lat	EMG_lat	EMG_lat	EMG_med	EMG_med	EMG_med	EMG_med	EMG_lat	EMG_lat	EMG_lat	EMG_lat	EMG_med	EMG_med	EMG_med	EMG_med	EMG_lat	EMG_lat	EMG_lat	EMG_lat	EMG_med	EMG_med	EMG_med	EMG_med	EMG_lat	EMG_lat	EMG_lat	EMG_lat	EMG_med	EMG_med	EMG_med	EMG_med	EMG_lat	EMG_lat	EMG_lat	EMG_lat	EMG_med	EMG_med	EMG_med	EMG_med
ITEM	Y	Y	Y	Y	Y	Y	Y	Y	Y	Y	Y	Y	Y	Y	Y	Y	Y	Y	Y	Y	Y	Y	Y	Y	Y	Y	Y	Y	Y	Y	Y	Y	Y	Y	Y	Y	Y	Y	Y	Y	Y	Y	Y	Y	Y	Y	Y	Y	Y	Y	Y	Y	Y	Y	Y	Y	Y	Y	Y	Y	Y	Y	Y	Y
1	0.524083	0.138328	0.312728	0.274367	0.281298	0.349159	0.530287	0.402520	0.486414	0.688932	0.378180	0.175976	0.253431	0.181512	0.268117	0.088916	0.415860	0.186489	0.350815	0.149856	0.259263	0.335389	0.492277	0.177699	1.044983	0.706745	0.317636	0.177466	0.280400	0.141587	0.455659	0.279948	0.424988	0.282111	0.235421	0.274304	0.471817	0.539957	0.421064	0.140169	0.442730	0.064615	0.278444	0.207205	0.379280	0.164989	0.399922	0.103910	0.440690	0.316134	0.232217	0.124514	0.504730	0.246438	0.280183	0.167633	0.327139	0.130901	0.358058	0.250344	0.329989	0.244595	0.263959	0.121258
2	0.522258	0.139308	0.320262	0.260471	0.295731	0.403047	0.526445	0.376590	0.479367	0.687461	0.373130	0.191939	0.262764	0.170559	0.266731	0.135180	0.417645	0.201784	0.288934	0.153684	0.246140	0.303728	0.490463	0.172837	1.047084	0.705872	0.306523	0.177546	0.258489	0.152868	0.454127	0.281295	0.441635	0.282918	0.244980	0.287195	0.456857	0.410669	0.416058	0.149975	0.405753	0.057492	0.289455	0.206503	0.397448	0.175911	0.354829	0.100323	0.457622	0.307294	0.235266	0.122620	0.507081	0.237633	0.299760	0.169504	0.299563	0.127342	0.335991	0.248822	0.324494	0.224914	0.260143	0.125908
3	0.524738	0.140930	0.315239	0.217914	0.299555	0.469024	0.503443	0.375628	0.479783	0.680665	0.369645	0.197013	0.265103	0.151478	0.266929	0.158767	0.416298	0.205071	0.239473	0.155809	0.188766	0.286338	0.480984	0.184611	1.047031	0.698628	0.305231	0.159897	0.256255	0.185821	0.469013	0.275786	0.422447	0.274862	0.261734	0.313250	0.421609	0.356470	0.415458	0.147692	0.408936	0.056076	0.284602	0.207031	0.400756	0.178471	0.347806	0.102401	0.444199	0.254610	0.238845	0.119637	0.507876	0.233221	0.304294	0.186687	0.326690	0.119545	0.330725	0.240121	0.324867	0.204413	0.247429	0.153562
4	0.545515	0.139997	0.329090	0.165817	0.319871	0.472980	0.461332	0.367871	0.471592	0.680777	0.321544	0.199597	0.287068	0.160799	0.272321	0.159051	0.415047	0.203649	0.291499	0.173331	0.175173	0.142470	0.465523	0.186351	1.049399	0.673901	0.288023	0.151703	0.256545	0.188335	0.440065	0.272027	0.326998	0.263671	0.266604	0.336317	0.422523	0.335064	0.413697	0.145881	0.411897	0.051858	0.281551	0.186920	0.400412	0.179335	0.371967	0.110298	0.454449	0.235969	0.241636	0.116433	0.476412	0.213210	0.321672	0.189814	0.331042	0.143543	0.333878	0.231001	0.327858	0.196522	0.229768	0.184895
5	0.538426	0.137282	0.329080	0.161292	0.349799	0.472427	0.423064	0.346413	0.481061	0.598302	0.227575	0.199653	0.346648	0.160871	0.283604	0.162534	0.401730	0.206125	0.352934	0.186397	0.170479	0.069231	0.462752	0.189856	1.031384	0.665179	0.191348	0.154193	0.268155	0.194575	0.418819	0.283168	0.312733	0.259433	0.264363	0.341780	0.416429	0.326919	0.412867	0.128012	0.319326	0.043447	0.279661	0.145250	0.399609	0.182695	0.381060	0.124741	0.458780	0.246903	0.241376	0.114326	0.443688	0.191416	0.356331	0.196947	0.346873	0.159071	0.317845	0.217346	0.337458	0.195411	0.212822	0.207770
6	0.475714	0.137692	0.279689	0.201931	0.344008	0.472463	0.425347	0.327699	0.478322	0.398698	0.155220	0.196105	0.357198	0.196476	0.279303	0.180277	0.406315	0.211070	0.365437	0.186421	0.147923	0.067335	0.467134	0.193336	0.984071	0.629897	0.087241	0.150673	0.266064	0.244181	0.416919	0.294818	0.316482	0.274435	0.258384	0.343470	0.321452	0.327530	0.429822	0.126313	0.236754	0.040243	0.275877	0.149206	0.395220	0.181615	0.370920	0.130620	0.446603	0.250391	0.227161	0.110566	0.373491	0.153877	0.361038	0.206530	0.371266	0.165534	0.290632	0.216010	0.400654	0.194681	0.203384	0.211798
7	0.441777	0.140059	0.260540	0.242202	0.346563	0.474000	0.439208	0.277101	0.448047	0.286120	0.129567	0.177981	0.361141	0.268527	0.264037	0.205182	0.452411	0.213008	0.365709	0.177081	0.175930	0.066812	0.478097	0.189505	0.864854	0.579873	0.098689	0.156356	0.259345	0.282339	0.401070	0.299240	0.339653	0.281461	0.260687	0.338182	0.279345	0.297601	0.458583	0.125846	0.211485	0.041791	0.259949	0.223317	0.383266	0.171787	0.352683	0.126949	0.454813	0.254119	0.184874	0.115886	0.303921	0.144663	0.446021	0.205036	0.394274	0.247412	0.283271	0.216156	0.393768	0.173161	0.187835	0.208014
8	0.452202	0.142222	0.261228	0.252602	0.348484	0.477497	0.443748	0.230447	0.388445	0.276903	0.130013	0.157476	0.445172	0.272105	0.262878	0.217031	0.449764	0.219880	0.354959	0.167926	0.182589	0.066365	0.477688	0.174934	0.842052	0.585927	0.117047	0.178969	0.231614	0.289775	0.386294	0.299398	0.344227	0.286300	0.272163	0.327324	0.274646	0.235285	0.462520	0.126768	0.206499	0.040117	0.274675	0.310201	0.362189	0.155762	0.340315	0.119543	0.413992	0.236617	0.183811	0.157475	0.258010	0.109040	0.564277	0.181369	0.429707	0.415615	0.278610	0.216596	0.389100	0.127384	0.185172	0.207867
9	0.525061	0.145016	0.270692	0.254176	0.348269	0.478166	0.399473	0.219899	0.334230	0.273822	0.121255	0.157467	0.534484	0.287322	0.277058	0.216854	0.438064	0.227734	0.349050	0.173019	0.161148	0.066382	0.471132	0.153993	0.842647	0.601695	0.128085	0.210923	0.241920	0.301713	0.418725	0.299503	0.344872	0.291037	0.357418	0.326163	0.270280	0.137658	0.418418	0.127615	0.195135	0.039409	0.297053	0.354016	0.353901	0.147099	0.339638	0.122466	0.358070	0.211785	0.159152	0.219042	0.257167	0.084197	0.641761	0.158323	0.449055	0.447383	0.236674	0.216876	0.385632	0.118409	0.192914	0.207150
10	0.555840	0.141116	0.296656	0.253200	0.338891	0.479653	0.310677	0.215384	0.317191	0.270492	0.133447	0.164407	0.602520	0.297318	0.281407	0.218482	0.407556	0.259347	0.346786	0.181728	0.151141	0.065891	0.444669	0.152559	0.815919	0.512896	0.149498	0.277127	0.252217	0.309833	0.475682	0.293027	0.363741	0.293698	0.422379	0.304396	0.272066	0.086257	0.377683	0.128690	0.193477	0.045299	0.345053	0.359063	0.353958	0.139250	0.357554	0.129480	0.355394	0.210706	0.153503	0.354477	0.275429	0.079515	0.652115	0.194504	0.450547	0.648192	0.226836	0.195572	0.381757	0.117179	0.186009	0.231684
11	0.504227	0.139173	0.334318	0.255285	0.308963	0.477895	0.244647	0.219882	0.311570	0.252127	0.137693	0.179704	0.634164	0.299443	0.322896	0.217079	0.358856	0.283455	0.367103	0.187870	0.155289	0.063027	0.412567	0.158972	0.638110	0.474425	0.155308	0.347323	0.251490	0.332078	0.463539	0.291822	0.377528	0.312701	0.442791	0.267842	0.266897	0.073603	0.369665	0.144587	0.195741	0.046717	0.387115	0.364408	0.346057	0.133824	0.377231	0.132520	0.395438	0.221490	0.179453	0.438974	0.318842	0.081174	0.640585	0.235363	0.449917	0.744173	0.211578	0.108046	0.344282	0.091626	0.225455	0.309571
12	0.483060	0.135473	0.363143	0.263781	0.314078	0.477156	0.267354	0.232039	0.293055	0.239597	0.211026	0.184052	0.636415	0.329744	0.343161	0.235725	0.334141	0.281047	0.399321	0.201767	0.185686	0.060650	0.408610	0.170690	0.536097	0.456346	0.189740	0.359599	0.258962	0.343282	0.453158	0.309098	0.378115	0.356773	0.436982	0.232609	0.262301	0.073991	0.340297	0.183949	0.199228	0.046164	0.409532	0.385625	0.358796	0.133286	0.379565	0.140254	0.416705	0.218109	0.221540	0.456391	0.314672	0.093710	0.636863	0.260885	0.437190	0.748163	0.189284	0.095394	0.326384	0.078128	0.328971	0.376253
13	0.507135	0.131080	0.368695	0.271064	0.306146	0.463225	0.273425	0.237004	0.286365	0.213398	0.273773	0.166961	0.692249	0.343743	0.352657	0.252488	0.343350	0.278377	0.452451	0.233178	0.195424	0.063451	0.418117	0.187189	0.465227	0.416147	0.318458	0.356166	0.221534	0.406496	0.476651	0.297100	0.374488	0.374084	0.420272	0.228656	0.243679	0.082473	0.296502	0.224213	0.199194	0.063830	0.405609	0.420188	0.360403	0.133806	0.370576	0.150224	0.424330	0.216414	0.239339	0.458457	0.316191	0.112307	0.640475	0.292028	0.450441	0.754664	0.151313	0.090733	0.349601	0.073591	0.422411	0.422229
14	0.515800	0.130505	0.364472	0.273933	0.292346	0.388807	0.294757	0.201800	0.250063	0.181971	0.278104	0.148483	0.734217	0.346076	0.391665	0.253153	0.365890	0.281011	0.503469	0.252391	0.286696	0.105916	0.407379	0.180280	0.372305	0.383545	0.384135	0.358385	0.232988	0.419644	0.490968	0.296834	0.502099	0.395553	0.419719	0.226220	0.207695	0.094998	0.302534	0.251316	0.203128	0.068677	0.406847	0.457303	0.364515	0.131616	0.356583	0.146486	0.385350	0.240764	0.241632	0.480758	0.315701	0.147307	0.668347	0.294306	0.458293	0.758901	0.137561	0.096407	0.389971	0.077293	0.477261	0.441645
15	0.512743	0.124015	0.356063	0.273529	0.272421	0.365270	0.417871	0.231877	0.243163	0.174197	0.283376	0.148124	0.731161	0.346082	0.407832	0.243582	0.396478	0.293379	0.542750	0.245871	0.580132	0.164876	0.359744	0.165144	0.343500	0.395282	0.388555	0.372542	0.231255	0.411424	0.472543	0.304482	0.601564	0.398007	0.421325	0.212303	0.176556	0.097635	0.347958	0.265651	0.202192	0.079757	0.421924	0.480087	0.351719	0.105185	0.354427	0.171577	0.363369	0.270816	0.241401	0.518452	0.562455	0.201244	0.774638	0.330952	0.450744	0.756341	0.124155	0.099519	0.408498	0.085167	0.508815	0.440242
16	0.508987	0.118763	0.354387	0.265525	0.309267	0.345784	0.511887	0.267895	0.246697	0.171488	0.287211	0.227510	0.737950	0.347894	0.402800	0.233016	0.400957	0.314956	0.559616	0.270024	0.651276	0.187392	0.347821	0.163519	0.337175	0.403652	0.419482	0.380030	0.235785	0.405263	0.490555	0.303172	0.604466	0.389948	0.410062	0.218399	0.162704	0.098389	0.438184	0.261392	0.179290	0.155508	0.425891	0.485684	0.343605	0.088696	0.352485	0.207066	0.365259	0.277654	0.237032	0.544437	0.783253	0.226870	0.901996	0.368272	0.445645	0.758594	0.124292	0.097848	0.424244	0.095569	0.539783	0.468186
17	0.509307	0.115316	0.345767	0.255203	0.365204	0.325393	0.596956	0.271553	0.281379	0.174191	0.291935	0.252823	0.741321	0.349517	0.402221	0.235793	0.408917	0.327919	0.558028	0.345125	0.668432	0.188806	0.377710	0.160425	0.312725	0.405356	0.426854	0.380931	0.226753	0.405649	0.493052	0.281356	0.604347	0.379127	0.403003	0.228306	0.181273	0.096276	0.544920	0.276598	0.159566	0.175376	0.437880	0.483062	0.374256	0.088268	0.366373	0.237795	0.352904	0.274408	0.236911	0.575370	0.811812	0.228702	0.939725	0.404245	0.436364	0.769959	0.121030	0.123267	0.454896	0.103251	0.546098	0.530971
18	0.501510	0.123231	0.344573	0.256317	0.410828	0.350751	0.629956	0.302402	0.301187	0.174998	0.308674	0.259724	0.718524	0.346898	0.409322	0.236479	0.407601	0.328138	0.543394	0.380085	0.668909	0.187699	0.388538	0.162519	0.296426	0.387984	0.435902	0.402571	0.207017	0.393179	0.492427	0.257851	0.598154	0.367453	0.403843	0.222640	0.175780	0.094813	0.563137	0.312049	0.147509	0.175483	0.464300	0.480952	0.385299	0.099862	0.344522	0.237457	0.356622	0.262763	0.242372	0.598074	0.804419	0.227556	0.933510	0.436358	0.412829	0.766004	0.118002	0.151556	0.460530	0.104491	0.648990	0.568518
19	0.470831	0.134109	0.322492	0.256104	0.408194	0.356726	0.644663	0.327782	0.281915	0.177278	0.314769	0.275429	0.703972	0.357945	0.440161	0.228508	0.408439	0.333586	0.528078	0.386105	0.678373	0.193372	0.370586	0.182834	0.267992	0.383141	0.447808	0.450876	0.205934	0.349499	0.493500	0.250595	0.591791	0.357956	0.407410	0.223460	0.166845	0.095307	0.574756	0.325845	0.143537	0.193087	0.474623	0.480623	0.425889	0.101606	0.331921	0.231909	0.362264	0.253469	0.241954	0.607776	0.805558	0.227711	0.938627	0.457139	0.372853	0.752446	0.155436	0.160747	0.452943	0.103898	0.740228	0.574082
20	0.460605	0.138989	0.296070	0.242669	0.401107	0.357889	0.678505	0.348056	0.268732	0.177127	0.322832	0.275988	0.709298	0.392675	0.463205	0.207325	0.408572	0.339819	0.543898	0.391681	0.697918	0.202515	0.347315	0.185146	0.240049	0.372969	0.446192	0.464024	0.205682	0.343396	0.490723	0.248542	0.613044	0.397132	0.418033	0.266600	0.164449	0.092478	0.595637	0.326467	0.137338	0.231114	0.476438	0.465811	0.445666	0.096447	0.330458	0.238587	0.363435	0.249775	0.236858	0.611265	0.814492	0.231663	0.938611	0.466866	0.328054	0.785770	0.248563	0.163211	0.444944	0.103829	0.757938	0.571244
21	0.459624	0.133221	0.292356	0.194962	0.399780	0.359593	0.692574	0.367373	0.279253	0.177884	0.326609	0.275503	0.688917	0.397466	0.469814	0.188913	0.369659	0.340380	0.566542	0.394109	0.710637	0.212858	0.340317	0.182663	0.233551	0.305761	0.439759	0.456783	0.196126	0.325213	0.484318	0.248255	0.692124	0.449785	0.411339	0.328128	0.165421	0.092756	0.570232	0.329880	0.127355	0.234745	0.463085	0.416614	0.464443	0.093463	0.319245	0.261143	0.373224	0.251156	0.229635	0.606567	0.824778	0.239373	0.901702	0.466165	0.336203	0.695861	0.261295	0.168136	0.405485	0.103266	0.760633	0.567999
22	0.441930	0.126926	0.293715	0.161381	0.399539	0.355442	0.708628	0.376265	0.303711	0.205228	0.320766	0.279999	0.620921	0.396302	0.448814	0.183190	0.356304	0.336506	0.578639	0.394769	0.702359	0.226047	0.327863	0.181186	0.229927	0.239557	0.437081	0.442722	0.168067	0.320935	0.422952	0.241446	0.800486	0.506931	0.346658	0.355299	0.169269	0.092303	0.573841	0.332343	0.182991	0.241947	0.445116	0.364563	0.467664	0.093349	0.330617	0.281006	0.374331	0.255609	0.306583	0.580110	0.834844	0.248386	0.849254	0.466886	0.432079	0.546292	0.257836	0.170856	0.362000	0.103247	0.761772	0.568267
23	0.389033	0.118923	0.291036	0.154671	0.399783	0.354045	0.721195	0.380252	0.330956	0.220368	0.313447	0.275826	0.579013	0.420565	0.439927	0.182270	0.371757	0.339736	0.585004	0.391800	0.707005	0.244361	0.324952	0.182755	0.151970	0.220966	0.431205	0.406442	0.167838	0.306933	0.404061	0.226289	0.805506	0.532382	0.253672	0.357446	0.179222	0.092592	0.590361	0.335004	0.283768	0.243755	0.423727	0.347053	0.461885	0.098128	0.345781	0.291209	0.354795	0.261135	0.362785	0.519248	0.844096	0.259835	0.833131	0.450557	0.487086	0.530075	0.258727	0.171643	0.367273	0.103258	0.762232	0.569083
24	0.311891	0.111340	0.272277	0.153752	0.400516	0.355498	0.724671	0.381149	0.351331	0.229497	0.298714	0.271332	0.526763	0.425037	0.422954	0.180914	0.387374	0.332573	0.591278	0.391655	0.713030	0.251051	0.322068	0.185416	0.154897	0.218860	0.428637	0.346654	0.168590	0.320818	0.404207	0.194310	0.799904	0.543694	0.213614	0.394299	0.198712	0.094531	0.596162	0.335358	0.346602	0.309915	0.382213	0.350286	0.464982	0.103625	0.325800	0.292484	0.312893	0.269473	0.346296	0.498412	0.856715	0.277856	0.833280	0.429540	0.527757	0.553310	0.267354	0.170298	0.362461	0.103052	0.761813	0.569109
25	0.276417	0.109445	0.234292	0.154112	0.401592	0.367367	0.723680	0.376990	0.370857	0.260028	0.223682	0.271101	0.527795	0.426927	0.394135	0.166649	0.411187	0.339779	0.591846	0.412890	0.712951	0.252209	0.323553	0.186990	0.188690	0.237103	0.419979	0.320091	0.164853	0.261772	0.384153	0.156580	0.800570	0.516494	0.207371	0.450101	0.199120	0.096208	0.598341	0.326985	0.368488	0.399370	0.345852	0.343327	0.464687	0.103691	0.299648	0.292215	0.275572	0.287971	0.330386	0.494692	0.926045	0.302692	0.839097	0.415584	0.613272	0.586459	0.335332	0.168702	0.360800	0.102906	0.759742	0.568221
26	0.273751	0.112149	0.176470	0.151279	0.396359	0.368294	0.716779	0.370498	0.373026	0.272057	0.199205	0.265684	0.540816	0.407280	0.380247	0.129789	0.436768	0.374938	0.584074	0.465412	0.712218	0.261416	0.322113	0.178217	0.234824	0.263854	0.344582	0.314184	0.155112	0.246120	0.337951	0.148010	0.825050	0.521926	0.214697	0.474937	0.226426	0.123945	0.597468	0.305784	0.368571	0.417291	0.313950	0.315027	0.453879	0.102570	0.276796	0.286348	0.268774	0.295719	0.335222	0.494646	1.007697	0.322804	0.841641	0.395358	0.616985	0.591871	0.347640	0.201488	0.362917	0.109172	0.761765	0.552893
27	0.252947	0.113865	0.123350	0.138003	0.394524	0.371133	0.708641	0.356466	0.387514	0.341583	0.197713	0.263696	0.449695	0.402725	0.348235	0.114624	0.431635	0.397074	0.553423	0.498051	0.704715	0.271350	0.313534	0.159811	0.283796	0.277798	0.266298	0.312205	0.145077	0.322194	0.260293	0.125304	0.777572	0.546057	0.224004	0.483056	0.289606	0.129548	0.597641	0.276771	0.385735	0.520184	0.309182	0.250567	0.439968	0.100534	0.267398	0.280354	0.271725	0.262372	0.370708	0.463143	1.062558	0.330419	0.824414	0.397536	0.614972	0.587107	0.359225	0.261611	0.374869	0.127357	0.744824	0.518000
28	0.197492	0.114762	0.124988	0.130914	0.398416	0.377761	0.704211	0.346929	0.396284	0.435415	0.188685	0.227373	0.455483	0.431373	0.292945	0.113236	0.420310	0.406782	0.501740	0.508365	0.709491	0.269581	0.300656	0.144720	0.360970	0.285102	0.267040	0.297193	0.171552	0.327411	0.230495	0.099859	0.677580	0.541565	0.227337	0.483797	0.285049	0.184255	0.591925	0.259348	0.424377	0.552461	0.276056	0.178696	0.392806	0.095097	0.261511	0.278820	0.271886	0.246471	0.481304	0.427059	0.998074	0.315389	0.733674	0.371033	0.614940	0.569872	0.361520	0.285465	0.396435	0.154905	0.700626	0.502035
29	0.187783	0.114608	0.128530	0.134947	0.412194	0.363084	0.650653	0.326076	0.388851	0.432100	0.188489	0.162211	0.456546	0.477934	0.306166	0.103555	0.380422	0.386930	0.467150	0.518016	0.644540	0.251423	0.295776	0.151676	0.427540	0.308696	0.268734	0.285993	0.202657	0.342277	0.234660	0.067960	0.660399	0.541590	0.313513	0.490366	0.279690	0.299320	0.562918	0.270086	0.459061	0.546967	0.248043	0.145251	0.371493	0.095287	0.262262	0.262598	0.268941	0.241218	0.549710	0.402520	0.834116	0.296240	0.563825	0.324724	0.612714	0.559221	0.363973	0.280333	0.392242	0.183839	0.649494	0.511409
30	0.184449	0.113755	0.172305	0.138561	0.418875	0.364579	0.575440	0.297702	0.351239	0.466245	0.163738	0.177535	0.449687	0.494802	0.321455	0.091411	0.367400	0.360175	0.492615	0.514549	0.445319	0.246451	0.304329	0.177712	0.437100	0.321291	0.338055	0.280366	0.245964	0.358945	0.239312	0.060101	0.655546	0.543433	0.353949	0.511405	0.278686	0.348238	0.486827	0.285989	0.478383	0.541949	0.233731	0.137371	0.357770	0.115658	0.264509	0.235391	0.260125	0.241111	0.562911	0.376255	0.817966	0.292985	0.479412	0.277252	0.615860	0.498619	0.358880	0.273940	0.385861	0.212255	0.610762	0.523853
31	0.181515	0.110830	0.194536	0.145493	0.370631	0.334573	0.484205	0.295217	0.358372	0.521087	0.156170	0.206282	0.453179	0.500522	0.329681	0.088146	0.378609	0.340880	0.561344	0.478423	0.386868	0.307269	0.287610	0.204067	0.471648	0.318854	0.391388	0.250033	0.285973	0.360785	0.238671	0.069348	0.656017	0.545720	0.362635	0.532694	0.267302	0.354099	0.373235	0.270805	0.484480	0.551211	0.185460	0.136830	0.331420	0.143629	0.221149	0.211541	0.249312	0.238741	0.562553	0.352859	0.813087	0.292853	0.461720	0.227273	0.620872	0.379557	0.348076	0.273186	0.396632	0.265151	0.577861	0.526811
32	0.177896	0.112568	0.195630	0.160183	0.333666	0.320298	0.416403	0.273193	0.400060	0.526938	0.126999	0.213319	0.456252	0.508960	0.327310	0.089409	0.389207	0.350262	0.627654	0.479494	0.373834	0.388627	0.263221	0.247312	0.489442	0.327656	0.400894	0.149161	0.291159	0.361395	0.241343	0.117645	0.656221	0.546140	0.353875	0.540235	0.289892	0.362030	0.358169	0.253072	0.484362	0.551454	0.133209	0.142253	0.316751	0.150451	0.222316	0.215858	0.232784	0.237093	0.592730	0.340591	0.815168	0.294963	0.448829	0.181478	0.600821	0.327882	0.368450	0.273446	0.386338	0.333824	0.560996	0.489842
33	0.188149	0.115732	0.198648	0.158144	0.282902	0.352718	0.408905	0.245082	0.425974	0.526185	0.121120	0.217947	0.454521	0.490723	0.321901	0.108945	0.393188	0.355115	0.612393	0.504245	0.393178	0.418296	0.252330	0.252884	0.491975	0.333105	0.406993	0.067702	0.297660	0.374935	0.248383	0.133411	0.628918	0.518358	0.360706	0.524784	0.311185	0.362092	0.360696	0.265085	0.484634	0.543376	0.116528	0.144674	0.260902	0.146947	0.231881	0.231294	0.226260	0.234068	0.692887	0.326533	0.842381	0.316697	0.385011	0.160625	0.542155	0.303806	0.370819	0.271096	0.353747	0.388813	0.546909	0.421955
34	0.214666	0.116005	0.203004	0.149033	0.281813	0.355150	0.347819	0.218766	0.461767	0.519864	0.104613	0.249711	0.449327	0.451041	0.346493	0.115899	0.394456	0.342843	0.588216	0.513753	0.429853	0.416466	0.264116	0.241354	0.507315	0.336778	0.464908	0.066486	0.311608	0.386075	0.290238	0.140252	0.542981	0.472504	0.383914	0.489053	0.318901	0.378553	0.354827	0.271834	0.483920	0.546642	0.109547	0.144357	0.240435	0.147402	0.234840	0.248110	0.209171	0.234207	0.757130	0.316391	0.856130	0.339414	0.300200	0.165187	0.459095	0.302302	0.374755	0.268773	0.358484	0.418913	0.394516	0.391830
35	0.212627	0.117433	0.211259	0.153380	0.277235	0.365228	0.312747	0.180189	0.449328	0.509678	0.106572	0.303476	0.446945	0.478254	0.388507	0.128624	0.384582	0.340873	0.558855	0.518228	0.439637	0.434548	0.275342	0.259827	0.514051	0.338654	0.512633	0.066009	0.311454	0.380830	0.294612	0.149364	0.360015	0.406462	0.405937	0.482394	0.323691	0.388492	0.374212	0.270953	0.476228	0.545140	0.120174	0.144254	0.217382	0.147801	0.269297	0.229361	0.238577	0.227163	0.750519	0.313809	0.896642	0.358406	0.259581	0.164318	0.440743	0.270890	0.381357	0.268792	0.384020	0.433789	0.264470	0.385043
36	0.214923	0.117905	0.244006	0.159259	0.285490	0.392368	0.255391	0.160082	0.438413	0.507767	0.108967	0.337834	0.430797	0.465630	0.396224	0.166051	0.383788	0.337675	0.545135	0.519746	0.429816	0.449359	0.258132	0.289003	0.520196	0.337649	0.544750	0.065836	0.311726	0.367299	0.300821	0.149582	0.314546	0.366771	0.413393	0.496442	0.374079	0.477920	0.346672	0.271017	0.435868	0.543400	0.134021	0.144307	0.216135	0.147233	0.311630	0.206114	0.236410	0.216297	0.748355	0.261686	0.894412	0.373825	0.228450	0.164271	0.228009	0.123300	0.342683	0.273354	0.390983	0.480853	0.233660	0.384431
37	0.214136	0.117718	0.250623	0.161159	0.286391	0.400214	0.209604	0.150963	0.423484	0.493695	0.112715	0.355226	0.413930	0.445882	0.424365	0.179085	0.369321	0.335437	0.539615	0.520208	0.430218	0.456189	0.255283	0.318655	0.518263	0.337868	0.563557	0.065950	0.327751	0.356558	0.302267	0.159266	0.312537	0.335244	0.423099	0.476206	0.385222	0.512296	0.333883	0.313306	0.375164	0.532773	0.126272	0.137694	0.203066	0.145102	0.322018	0.192424	0.236700	0.207320	0.754732	0.205291	0.895659	0.379974	0.205774	0.162838	0.206635	0.062705	0.324073	0.262167	0.389930	0.527927	0.230412	0.390152
38	0.205218	0.117500	0.251443	0.163827	0.291093	0.400997	0.189515	0.150877	0.414585	0.468262	0.127798	0.362595	0.405571	0.435291	0.436067	0.181229	0.346562	0.326839	0.535602	0.519394	0.427482	0.500750	0.258812	0.341801	0.520966	0.335550	0.574388	0.070467	0.349639	0.348159	0.309384	0.172291	0.307406	0.326526	0.439398	0.425009	0.393694	0.515510	0.335786	0.398239	0.336339	0.471813	0.145164	0.161403	0.203667	0.151429	0.341334	0.198183	0.231681	0.179300	0.751724	0.194805	0.829190	0.362161	0.182795	0.162450	0.209741	0.053120	0.321713	0.280358	0.386288	0.551263	0.234854	0.393794
39	0.161209	0.117354	0.255964	0.164233	0.293626	0.392835	0.184595	0.162084	0.413088	0.450169	0.139940	0.364832	0.365172	0.429425	0.441569	0.181311	0.323107	0.301382	0.528176	0.506884	0.420358	0.524664	0.259187	0.355081	0.554610	0.341213	0.578845	0.165314	0.350890	0.268111	0.326549	0.182712	0.236605	0.294323	0.447386	0.393431	0.394554	0.516729	0.376553	0.428748	0.328729	0.428447	0.155661	0.215131	0.216401	0.161996	0.350192	0.217104	0.204728	0.138430	0.744388	0.199896	0.727793	0.342470	0.162469	0.157831	0.195657	0.058637	0.338488	0.454441	0.381903	0.563419	0.237825	0.394354
40	0.160219	0.114506	0.256682	0.171798	0.293981	0.393688	0.185560	0.165447	0.403359	0.347803	0.143965	0.365822	0.306137	0.429099	0.443640	0.181366	0.264075	0.251554	0.524615	0.464691	0.422332	0.530417	0.265653	0.356209	0.544085	0.326405	0.575254	0.259092	0.349467	0.238978	0.324638	0.182183	0.149751	0.185607	0.456813	0.387932	0.376198	0.509597	0.390915	0.432918	0.321517	0.369528	0.149936	0.304483	0.215084	0.165375	0.359701	0.224389	0.195380	0.132263	0.716218	0.202340	0.661244	0.325412	0.158051	0.144578	0.195090	0.066940	0.368867	0.628444	0.381588	0.569040	0.238231	0.394907
41	0.155885	0.112433	0.263355	0.192854	0.289984	0.396020	0.186330	0.165464	0.399997	0.318313	0.143069	0.363507	0.252892	0.432527	0.443208	0.181362	0.225351	0.212390	0.521936	0.414171	0.421576	0.527777	0.267844	0.356267	0.518947	0.304735	0.576846	0.289820	0.318762	0.312443	0.283965	0.181603	0.146737	0.152415	0.472364	0.409981	0.333593	0.508135	0.390665	0.433845	0.282678	0.234029	0.150028	0.392571	0.218256	0.166479	0.380056	0.224302	0.197116	0.113063	0.639193	0.197490	0.638894	0.311887	0.143121	0.144419	0.186937	0.070150	0.505376	0.719087	0.383940	0.573960	0.236198	0.392740
42	0.156064	0.111255	0.267349	0.223056	0.287781	0.391652	0.193549	0.165387	0.394148	0.300466	0.140147	0.367953	0.194838	0.377997	0.438548	0.180410	0.213026	0.173675	0.522387	0.377054	0.420896	0.525164	0.269808	0.356329	0.465632	0.271876	0.572876	0.291797	0.299216	0.380779	0.278739	0.189630	0.140789	0.135497	0.424523	0.410770	0.339081	0.481857	0.391165	0.429178	0.223389	0.221114	0.161116	0.444780	0.214698	0.168569	0.385472	0.224325	0.188205	0.109960	0.599971	0.163530	0.630987	0.309907	0.125042	0.145587	0.167181	0.076934	0.606114	0.742317	0.381715	0.575614	0.226062	0.387674
43	0.156755	0.110219	0.264557	0.248245	0.287677	0.404238	0.197751	0.164261	0.399655	0.167924	0.136946	0.366229	0.189248	0.348021	0.419046	0.177052	0.215120	0.169251	0.514191	0.360076	0.407253	0.525100	0.272104	0.355845	0.450252	0.252264	0.559170	0.319371	0.251690	0.390294	0.294049	0.195058	0.122407	0.141757	0.437355	0.366358	0.352215	0.417457	0.391370	0.412570	0.184389	0.206730	0.290736	0.451056	0.212262	0.168752	0.386384	0.224074	0.186804	0.109601	0.590864	0.146974	0.599471	0.310051	0.123872	0.144794	0.175099	0.080351	0.639751	0.752267	0.370899	0.572371	0.223623	0.370219
44	0.156838	0.110111	0.261825	0.261748	0.261604	0.417931	0.195227	0.155016	0.372147	0.090060	0.147742	0.387596	0.167411	0.333353	0.416025	0.178552	0.216771	0.160645	0.473460	0.358424	0.393776	0.523227	0.267302	0.350019	0.421576	0.252555	0.525671	0.393261	0.268180	0.494236	0.293393	0.186866	0.087513	0.191325	0.483568	0.326096	0.353022	0.385830	0.391603	0.402288	0.164611	0.172372	0.407522	0.476069	0.210227	0.154059	0.378702	0.221169	0.191877	0.108979	0.589644	0.337601	0.601902	0.312525	0.124434	0.129312	0.175136	0.085792	0.643923	0.814678	0.346894	0.565939	0.224889	0.323691
45	0.156794	0.109147	0.244057	0.267913	0.232529	0.399462	0.191729	0.142928	0.333494	0.084149	0.160524	0.543025	0.163242	0.337013	0.398287	0.177852	0.186930	0.155172	0.395678	0.378850	0.368387	0.503619	0.251611	0.336258	0.397601	0.254415	0.504237	0.452102	0.277436	0.631352	0.297059	0.191189	0.083743	0.228362	0.514520	0.309713	0.351103	0.378687	0.392562	0.396892	0.164600	0.160325	0.469982	0.547029	0.203641	0.128496	0.369826	0.217156	0.201460	0.108362	0.546440	0.566397	0.610045	0.315464	0.121514	0.106321	0.173517	0.085849	0.742254	0.930957	0.318299	0.557251	0.236266	0.253709
46	0.156617	0.111790	0.249820	0.263137	0.210065	0.356825	0.175756	0.137179	0.270757	0.088141	0.197422	0.743918	0.155155	0.327632	0.370484	0.176648	0.143688	0.136619	0.249766	0.368675	0.357296	0.457822	0.224193	0.316349	0.399339	0.260907	0.515365	0.476986	0.283087	0.625243	0.259650	0.221625	0.089448	0.232029	0.510180	0.309458	0.326637	0.373205	0.389637	0.378622	0.165018	0.148951	0.492046	0.626775	0.200665	0.113534	0.362731	0.208877	0.194892	0.107601	0.499147	0.673980	0.580029	0.295478	0.120551	0.087697	0.178526	0.086404	0.811305	1.031238	0.285105	0.544782	0.271142	0.218420
47	0.166870	0.178313	0.261539	0.254573	0.203289	0.303463	0.166514	0.124653	0.228795	0.089936	0.321292	0.822183	0.147358	0.329077	0.341363	0.165319	0.124363	0.105870	0.190157	0.350432	0.356810	0.393319	0.214678	0.282947	0.390037	0.266624	0.495771	0.486821	0.281799	0.624271	0.237625	0.222890	0.133839	0.247118	0.493636	0.323094	0.309999	0.372689	0.350244	0.357392	0.167904	0.109085	0.493934	0.702644	0.196399	0.115909	0.357003	0.184877	0.187487	0.106126	0.543916	0.706082	0.570974	0.265210	0.117896	0.073091	0.195128	0.085038	0.815909	1.105087	0.247744	0.513885	0.290823	0.207559
48	0.175639	0.335755	0.271314	0.261291	0.197550	0.295737	0.166774	0.106888	0.228102	0.090881	0.489604	0.829547	0.137038	0.272669	0.307887	0.163840	0.113975	0.099177	0.188664	0.342055	0.321299	0.376640	0.212964	0.273464	0.380288	0.275500	0.455817	0.493626	0.295336	0.628019	0.240232	0.222509	0.199478	0.248199	0.474783	0.328847	0.302315	0.352317	0.296391	0.348535	0.192279	0.101227	0.541510	0.749100	0.184128	0.117013	0.354546	0.144284	0.237030	0.107402	0.616815	0.708630	0.508722	0.235485	0.112415	0.065102	0.183400	0.087772	0.828611	1.131345	0.235251	0.470013	0.283519	0.206963
49	0.167455	0.469505	0.281027	0.330686	0.195799	0.287166	0.159991	0.109747	0.222832	0.088567	0.578285	0.823407	0.123926	0.249928	0.306436	0.158551	0.113530	0.097438	0.209987	0.329716	0.224754	0.373273	0.175899	0.268701	0.378729	0.278876	0.415551	0.574200	0.295826	0.633429	0.235545	0.230870	0.226923	0.247722	0.466202	0.323963	0.295477	0.339241	0.263200	0.346661	0.225601	0.114536	0.601737	0.766084	0.167020	0.117186	0.320205	0.136771	0.363609	0.110027	0.734611	0.751990	0.493757	0.200442	0.107729	0.061455	0.196674	0.098214	0.828178	1.124582	0.234644	0.424666	0.274364	0.196317
50	0.169130	0.531815	0.282819	0.460898	0.183062	0.261441	0.151611	0.119870	0.222171	0.083002	0.642728	0.817944	0.096796	0.242131	0.290517	0.173089	0.106923	0.098716	0.243977	0.336966	0.172505	0.345119	0.138640	0.243644	0.391141	0.281662	0.388483	0.645091	0.260141	0.633860	0.233551	0.239029	0.229772	0.247284	0.456897	0.320434	0.229159	0.178413	0.258886	0.346178	0.243565	0.120089	0.647338	0.769554	0.165415	0.117152	0.255531	0.136514	0.381840	0.068784	0.752883	0.849334	0.443368	0.162200	0.103813	0.061849	0.212071	0.100294	0.824504	1.070506	0.209977	0.410590	0.250179	0.170154
51	0.271626	0.567026	0.266152	0.560950	0.192983	0.274024	0.171749	0.139371	0.214190	0.083023	0.661905	0.821458	0.099281	0.239170	0.275362	0.176408	0.109143	0.101376	0.273106	0.364064	0.147155	0.326474	0.136351	0.205937	0.403452	0.274361	0.371677	0.665255	0.246330	0.634962	0.214680	0.236734	0.229693	0.251215	0.439506	0.321815	0.198471	0.085815	0.251771	0.322338	0.247711	0.115492	0.696652	0.767700	0.168485	0.114241	0.220701	0.131453	0.417438	0.068261	0.870392	0.914378	0.444242	0.154963	0.114399	0.060720	0.215422	0.094169	0.823458	0.998144	0.162199	0.384124	0.254316	0.150984
52	0.301113	0.705964	0.264685	0.603952	0.192737	0.279500	0.183978	0.173283	0.219219	0.085264	0.665636	0.848344	0.101264	0.239234	0.262479	0.184090	0.125599	0.100987	0.278622	0.397373	0.128082	0.290501	0.139247	0.163810	0.334160	0.235668	0.364891	0.658907	0.246236	0.634048	0.193670	0.242955	0.229326	0.253544	0.427289	0.351895	0.164601	0.083181	0.270242	0.271483	0.246576	0.112184	0.708686	0.755282	0.126985	0.099854	0.185212	0.110298	0.526064	0.084551	0.986408	0.939616	0.442789	0.147412	0.134729	0.059744	0.221527	0.091251	0.769499	0.982106	0.154532	0.326682	0.276378	0.127731
53	0.366742	0.732721	0.292758	0.619505	0.180731	0.278091	0.226370	0.175116	0.239176	0.082854	0.699737	0.922385	0.103111	0.242158	0.263264	0.209839	0.133638	0.099596	0.272497	0.425110	0.117501	0.185346	0.135567	0.136307	0.310980	0.217069	0.364035	0.628902	0.259250	0.621864	0.192867	0.252402	0.230664	0.279812	0.412067	0.383117	0.170212	0.089881	0.224460	0.294904	0.247418	0.111756	0.713560	0.730359	0.075674	0.084136	0.175760	0.083674	0.569321	0.098828	1.009878	0.948501	0.416391	0.139870	0.146315	0.058057	0.220291	0.083337	0.679915	0.984517	0.152648	0.265302	0.299863	0.093352
54	0.376564	0.737200	0.389871	0.620857	0.182029	0.282338	0.277702	0.201134	0.249978	0.100535	0.732086	1.019442	0.114469	0.243286	0.273288	0.232898	0.142187	0.094385	0.268756	0.436715	0.123912	0.129229	0.165683	0.154683	0.277464	0.212793	0.368997	0.619293	0.275627	0.557435	0.193714	0.256437	0.233811	0.310446	0.388205	0.372655	0.176528	0.102027	0.204789	0.335828	0.250753	0.110342	0.714496	0.694068	0.071668	0.081146	0.147818	0.114890	0.573170	0.106395	1.012405	0.957207	0.380576	0.136321	0.150484	0.053286	0.210767	0.082437	0.600028	0.982203	0.153526	0.224402	0.299181	0.075649
55	0.403151	0.741166	0.523949	0.621796	0.181836	0.274971	0.309179	0.269091	0.271255	0.178390	0.744567	1.101431	0.140429	0.234992	0.280325	0.238472	0.140944	0.085004	0.312266	0.435666	0.110281	0.105128	0.193925	0.207245	0.279177	0.209320	0.385700	0.619399	0.283709	0.537758	0.178981	0.256514	0.240319	0.331076	0.382327	0.343257	0.179429	0.106540	0.204400	0.339424	0.266503	0.105224	0.714138	0.653433	0.067272	0.081583	0.091306	0.150302	0.576053	0.114175	1.019366	0.972991	0.365702	0.135541	0.147137	0.051558	0.223783	0.081734	0.592044	0.954749	0.159811	0.199180	0.301556	0.074730
56	0.457056	0.743448	0.613512	0.633135	0.188471	0.281513	0.337745	0.289967	0.265895	0.272880	0.753970	1.157802	0.179120	0.228234	0.281189	0.236772	0.136079	0.082427	0.339086	0.435000	0.109754	0.095371	0.198836	0.239167	0.293744	0.203837	0.390173	0.618501	0.265897	0.526334	0.167280	0.254335	0.237503	0.334788	0.326993	0.330158	0.160413	0.110082	0.208193	0.346268	0.263582	0.116903	0.695529	0.641139	0.075938	0.092391	0.069697	0.183799	0.577555	0.123399	1.028043	0.985063	0.361238	0.135460	0.150626	0.069800	0.253977	0.085656	0.497206	0.870849	0.163413	0.183814	0.301128	0.074108
57	0.511031	0.743497	0.650259	0.658108	0.192301	0.264399	0.367270	0.312494	0.298795	0.373545	0.772342	1.149038	0.220008	0.235149	0.280999	0.242638	0.144590	0.165778	0.373502	0.434515	0.107554	0.099753	0.217253	0.245859	0.301275	0.201723	0.426989	0.596836	0.241028	0.266286	0.156940	0.241461	0.239178	0.340537	0.231131	0.328642	0.134150	0.110605	0.257457	0.366931	0.272764	0.190773	0.634383	0.641764	0.077564	0.137633	0.065898	0.212123	0.578331	0.127536	1.032045	0.936585	0.356557	0.129973	0.162290	0.081362	0.305771	0.084220	0.335095	0.758850	0.155978	0.167669	0.300989	0.101597
58	0.540657	0.753486	0.654369	0.696969	0.181192	0.228737	0.370089	0.348554	0.358293	0.495653	0.788921	1.037014	0.249231	0.236911	0.279580	0.244511	0.151443	0.373793	0.388566	0.430090	0.102751	0.123421	0.238568	0.248089	0.297721	0.182993	0.583113	0.570530	0.220784	0.209347	0.134416	0.211298	0.261149	0.318479	0.130869	0.328585	0.146181	0.111983	0.278705	0.379693	0.382383	0.272622	0.576622	0.607758	0.090831	0.164019	0.151672	0.230683	0.573828	0.129746	1.022143	0.835861	0.339716	0.117928	0.176364	0.081174	0.469547	0.083071	0.326844	0.638175	0.149882	0.156674	0.302811	0.150885
59	0.544457	0.769028	0.651106	0.726557	0.191717	0.220789	0.394728	0.377235	0.364771	0.596477	0.789582	0.932566	0.250707	0.202089	0.279617	0.244473	0.164480	0.569874	0.390861	0.416091	0.098995	0.134832	0.245099	0.269128	0.290184	0.158510	0.763809	0.551888	0.209435	0.207159	0.128866	0.191169	0.274231	0.317010	0.071012	0.337883	0.163226	0.115523	0.279970	0.384293	0.422326	0.301819	0.542923	0.542240	0.115272	0.168128	0.259031	0.236193	0.573646	0.131040	0.972235	0.772400	0.311323	0.106966	0.212863	0.084967	0.492725	0.081621	0.316235	0.567365	0.179793	0.150690	0.319309	0.163202
60	0.568742	0.774487	0.654135	0.735115	0.203765	0.221648	0.437862	0.411048	0.477223	0.609284	0.733230	0.890114	0.254155	0.163407	0.279516	0.262308	0.273412	0.611341	0.391665	0.395866	0.096691	0.136051	0.260194	0.294383	0.281286	0.145687	0.863471	0.574750	0.198743	0.218834	0.113979	0.190055	0.264004	0.303186	0.071303	0.423582	0.163614	0.116455	0.278890	0.391348	0.448354	0.310675	0.539819	0.458646	0.134652	0.198964	0.283799	0.236275	0.576284	0.132128	0.936861	0.755203	0.256671	0.097193	0.234479	0.086244	0.485152	0.067253	0.326339	0.598302	0.186027	0.143483	0.330458	0.164010
61	0.664579	0.775295	0.679782	0.736520	0.225758	0.225465	0.455360	0.440818	0.652357	0.744071	0.657084	0.885376	0.261751	0.163744	0.254011	0.283955	0.351437	0.647118	0.391462	0.362716	0.099969	0.138098	0.293745	0.305188	0.293153	0.129505	0.907612	0.624022	0.178570	0.217751	0.108236	0.183338	0.255772	0.304697	0.077405	0.563163	0.164490	0.115881	0.283702	0.393926	0.449918	0.312659	0.557732	0.385824	0.134432	0.201490	0.293651	0.244736	0.544844	0.129352	0.911253	0.765170	0.209022	0.078523	0.235488	0.087566	0.481671	0.060320	0.315993	0.780779	0.174685	0.137493	0.317052	0.169387
62	0.746178	0.755884	0.743716	0.737035	0.242712	0.230603	0.473240	0.453280	0.669979	0.858912	0.588292	0.888965	0.261933	0.163659	0.213906	0.293994	0.356163	0.725450	0.393448	0.332062	0.090431	0.154750	0.310976	0.306799	0.321410	0.143696	0.918079	0.627715	0.172892	0.215805	0.103091	0.156844	0.244890	0.327073	0.114613	0.675617	0.166533	0.115801	0.304783	0.395703	0.459767	0.337747	0.511817	0.350769	0.133726	0.200636	0.302893	0.298721	0.475329	0.123160	0.855783	0.732458	0.164938	0.061835	0.247326	0.094520	0.482003	0.069587	0.324314	0.874641	0.171438	0.135032	0.286671	0.182321
63	0.853914	0.706749	0.801225	0.733247	0.258351	0.227495	0.487952	0.455782	0.677714	0.860869	0.542349	0.892742	0.261069	0.177026	0.188580	0.280123	0.383554	0.739282	0.389419	0.336889	0.094853	0.165475	0.312636	0.308923	0.306262	0.190830	0.996529	0.626581	0.192559	0.221377	0.098344	0.143923	0.244641	0.328036	0.222352	0.697286	0.160081	0.115914	0.318567	0.396545	0.505981	0.461278	0.481463	0.338250	0.133516	0.207561	0.306290	0.363421	0.468969	0.122716	0.844354	0.737699	0.129429	0.048633	0.247713	0.095321	0.480800	0.069389	0.342701	0.831298	0.172462	0.134770	0.270479	0.193610
64	0.888655	0.629230	0.815774	0.701609	0.268133	0.236178	0.498092	0.453090	0.673749	0.860718	0.536149	0.882672	0.262365	0.264676	0.162015	0.268021	0.452929	0.742458	0.370411	0.345485	0.108804	0.156248	0.317808	0.320089	0.262033	0.250795	1.161488	0.652491	0.237482	0.274788	0.085856	0.124403	0.271882	0.326445	0.374567	0.696888	0.152841	0.118072	0.317409	0.392004	0.559703	0.506948	0.408596	0.334965	0.133389	0.217812	0.345535	0.407239	0.404217	0.120845	0.698447	0.872620	0.114919	0.036759	0.240447	0.099484	0.485268	0.074959	0.385340	0.797125	0.179689	0.136718	0.267201	0.204075
65	0.891312	0.620871	0.812822	0.629132	0.259046	0.220012	0.497086	0.451476	0.667827	0.877002	0.509132	0.832918	0.273364	0.333771	0.158398	0.267648	0.464941	0.745345	0.343810	0.346523	0.126730	0.151126	0.319341	0.337391	0.336857	0.288902	1.267895	0.663163	0.235820	0.273663	0.085376	0.109128	0.418502	0.368285	0.540172	0.693926	0.153554	0.116467	0.307900	0.368229	0.572560	0.514067	0.351601	0.346813	0.142720	0.218029	0.396773	0.424515	0.273180	0.114618	0.651785	1.040026	0.118928	0.027809	0.229232	0.104136	0.486219	0.076324	0.448637	0.867938	0.188697	0.138588	0.267016	0.212706
66	0.875125	0.586711	0.809808	0.562150	0.254267	0.229973	0.488064	0.444474	0.661541	0.951099	0.450469	0.728177	0.278562	0.385640	0.155294	0.253301	0.473601	0.753516	0.333643	0.326982	0.138327	0.154077	0.317894	0.348610	0.344369	0.304868	1.332815	0.665053	0.217041	0.291287	0.084919	0.093727	0.547434	0.388952	0.651429	0.718776	0.165072	0.108288	0.302712	0.323943	0.666485	0.517271	0.335071	0.370970	0.154734	0.217630	0.422530	0.429403	0.197454	0.105373	0.683876	1.123988	0.116003	0.022081	0.223038	0.107462	0.484107	0.115958	0.460535	0.938548	0.199753	0.137683	0.266165	0.217157
67	0.877580	0.436349	0.808136	0.534376	0.261596	0.241669	0.479287	0.441476	0.654832	0.961421	0.424533	0.582169	0.290952	0.392544	0.137888	0.231948	0.492248	0.760861	0.337417	0.299584	0.145208	0.152523	0.314353	0.350271	0.349753	0.329318	1.382372	0.663325	0.240295	0.299302	0.106415	0.115388	0.568687	0.365100	0.732385	0.762329	0.160739	0.094269	0.315414	0.266379	0.692680	0.533369	0.332496	0.389111	0.179369	0.222027	0.429305	0.425066	0.226797	0.115969	0.733604	1.126034	0.183765	0.028891	0.217396	0.127559	0.478810	0.191316	0.479972	0.940117	0.213751	0.126726	0.256334	0.218349
68	0.880395	0.424169	0.794009	0.523611	0.260481	0.237550	0.448190	0.433238	0.650190	0.946792	0.408137	0.429270	0.293465	0.534359	0.127012	0.227054	0.509087	0.779057	0.334400	0.282013	0.138910	0.160982	0.311195	0.338222	0.376493	0.334846	1.406753	0.697338	0.263068	0.320839	0.156539	0.187860	0.568030	0.368346	0.745515	0.798934	0.154480	0.080063	0.315594	0.214402	0.751585	0.590952	0.333168	0.389313	0.252640	0.340829	0.430312	0.416177	0.300905	0.138718	0.774668	1.131738	0.226232	0.040623	0.218251	0.129714	0.457186	0.199266	0.500070	0.932645	0.228888	0.095896	0.228410	0.218466
69	0.942879	0.422459	0.742159	0.525820	0.269095	0.275581	0.423937	0.400206	0.641531	0.915088	0.392673	0.307994	0.312238	0.616433	0.123348	0.282373	0.518536	0.790004	0.291532	0.278797	0.176400	0.180293	0.286846	0.317457	0.439062	0.391128	1.406592	0.749759	0.297656	0.327397	0.185430	0.254214	0.583723	0.357013	0.765336	0.817295	0.174961	0.071917	0.315855	0.210745	0.755080	0.644316	0.343230	0.383367	0.268081	0.542122	0.431002	0.407101	0.311415	0.146333	0.784440	1.213459	0.226904	0.041671	0.236402	0.121191	0.274415	0.202350	0.506557	0.931905	0.244042	0.074029	0.206863	0.217754
70	0.947119	0.422847	0.653715	0.532325	0.295268	0.319643	0.406548	0.372967	0.613652	0.865699	0.387328	0.276986	0.295964	0.627165	0.122864	0.396759	0.538940	0.798625	0.256138	0.324017	0.220712	0.181491	0.263131	0.285142	0.449285	0.527133	1.392303	0.781056	0.317721	0.324247	0.189290	0.282303	0.596428	0.328582	0.808540	0.829912	0.214591	0.084057	0.309708	0.196625	0.799550	0.647412	0.380975	0.379232	0.284437	0.605654	0.430879	0.395471	0.314764	0.146011	0.796254	1.306701	0.228322	0.044241	0.237422	0.112236	0.274079	0.202750	0.498580	0.931662	0.257016	0.071958	0.201644	0.215562
71	0.923337	0.429521	0.581911	0.522434	0.318312	0.334459	0.382545	0.364540	0.597259	0.794318	0.364300	0.282096	0.264361	0.627483	0.121441	0.481578	0.544851	0.793944	0.227676	0.362878	0.241471	0.186010	0.259709	0.294369	0.463661	0.610959	1.344497	0.787274	0.318922	0.327462	0.198182	0.289067	0.603834	0.320110	0.850283	0.836977	0.262333	0.163534	0.265374	0.153232	0.781888	0.639950	0.444736	0.371667	0.360724	0.653472	0.430474	0.388533	0.365137	0.144428	0.829963	1.359782	0.229277	0.044622	0.228641	0.120495	0.305857	0.203915	0.483281	0.924267	0.261611	0.071091	0.199009	0.216851
72	0.896016	0.429864	0.555944	0.492090	0.341522	0.345078	0.377410	0.328636	0.579769	0.765232	0.305687	0.340874	0.257509	0.629418	0.109035	0.510375	0.542080	0.743070	0.238102	0.367720	0.257954	0.201757	0.247721	0.346000	0.520475	0.636555	1.255578	0.787641	0.331828	0.324621	0.213624	0.292525	0.626205	0.319400	0.893707	0.836392	0.263095	0.200519	0.250946	0.130412	0.807630	0.657419	0.505448	0.356872	0.368133	0.783090	0.401819	0.388721	0.405661	0.145567	0.867259	1.381905	0.230781	0.045750	0.202156	0.126613	0.304982	0.203978	0.484517	0.814587	0.271762	0.070500	0.208625	0.217488
73	0.884278	0.403412	0.567112	0.444447	0.340397	0.345211	0.387467	0.297967	0.415543	0.750575	0.289279	0.415268	0.267100	0.632494	0.104709	0.507340	0.542278	0.610136	0.347737	0.413249	0.258371	0.190360	0.249719	0.373513	0.572877	0.808206	1.197711	0.772335	0.332555	0.305407	0.245015	0.334690	0.663776	0.324108	0.951793	0.803592	0.335042	0.207150	0.248949	0.134151	0.822103	0.693362	0.526138	0.336915	0.360240	0.799873	0.353739	0.392819	0.419196	0.148128	0.878861	1.388843	0.231819	0.050437	0.178335	0.176077	0.304089	0.205727	0.482346	0.671139	0.281708	0.070343	0.218665	0.199000
74	0.883952	0.382102	0.575613	0.409894	0.386529	0.353955	0.370190	0.252984	0.319533	0.525266	0.296281	0.420933	0.267638	0.632624	0.201730	0.538035	0.519210	0.524463	0.415905	0.447501	0.258818	0.194218	0.258622	0.363822	0.573788	0.964743	1.163293	0.753579	0.346838	0.297379	0.297682	0.396807	0.673753	0.323398	0.974773	0.728288	0.349154	0.220066	0.272320	0.122328	0.814436	0.694390	0.507306	0.304954	0.362068	0.805566	0.363817	0.393605	0.415637	0.150465	0.842300	1.381544	0.232120	0.064815	0.193290	0.293086	0.302117	0.216978	0.480662	0.638804	0.275893	0.070415	0.218753	0.166140
75	0.855340	0.370964	0.564169	0.406692	0.438595	0.382120	0.348136	0.190512	0.344917	0.505665	0.350452	0.413955	0.275550	0.632045	0.263280	0.602017	0.476697	0.505664	0.439289	0.447071	0.258516	0.216766	0.233442	0.348964	0.752642	0.989732	1.156992	0.713570	0.372134	0.295522	0.317120	0.429275	0.685846	0.307975	0.977085	0.615613	0.381811	0.220179	0.300471	0.115250	0.813241	0.693225	0.471351	0.266914	0.362701	0.810794	0.381597	0.387940	0.416125	0.150935	0.820744	1.356134	0.233202	0.065287	0.201784	0.339596	0.300432	0.217490	0.461430	0.640258	0.269966	0.067171	0.202798	0.158596
76	0.786688	0.369374	0.522695	0.453535	0.439622	0.396490	0.322617	0.147093	0.363624	0.504928	0.397214	0.404170	0.277552	0.632630	0.267666	0.628238	0.477027	0.381762	0.441854	0.443748	0.258702	0.213080	0.200895	0.343068	0.865590	1.143433	1.101380	0.660107	0.344359	0.253098	0.331145	0.431618	0.688039	0.310901	0.960510	0.579897	0.389550	0.220762	0.292868	0.109151	0.791212	0.645211	0.459295	0.251640	0.362489	0.811593	0.391425	0.343526	0.416198	0.151359	0.818133	1.280399	0.236553	0.075067	0.210009	0.342581	0.296377	0.218474	0.396451	0.559183	0.288756	0.067733	0.192495	0.157943
77	0.699190	0.353535	0.414924	0.498328	0.442531	0.403084	0.290900	0.133009	0.358726	0.501164	0.431709	0.415162	0.279411	0.616324	0.271304	0.634051	0.467211	0.323129	0.456614	0.459341	0.276259	0.225890	0.201065	0.346828	0.871338	1.190880	0.934155	0.656303	0.337762	0.231381	0.334897	0.441237	0.688179	0.310501	0.929895	0.583105	0.397065	0.237592	0.285330	0.107363	0.759101	0.572184	0.522517	0.264089	0.362422	0.809248	0.389343	0.276031	0.421011	0.148376	0.789599	1.137344	0.238821	0.085578	0.218791	0.348044	0.375673	0.213181	0.373339	0.412458	0.303376	0.066205	0.193536	0.147336
78	0.568631	0.319279	0.312840	0.544504	0.450414	0.420208	0.265293	0.134941	0.357255	0.376318	0.444631	0.475966	0.289827	0.580612	0.276277	0.635416	0.407574	0.319625	0.467261	0.505604	0.291872	0.263247	0.219629	0.354089	0.849544	1.192780	0.771622	0.683228	0.331598	0.216377	0.336845	0.445863	0.620738	0.267314	0.858574	0.592897	0.464400	0.297319	0.295996	0.113575	0.739236	0.564838	0.642947	0.261093	0.362621	0.807114	0.360449	0.216367	0.432209	0.144716	0.722956	0.983993	0.269191	0.089750	0.220113	0.379224	0.406603	0.157178	0.433477	0.354447	0.309408	0.065781	0.184693	0.130589
79	0.545329	0.315700	0.284102	0.553439	0.459611	0.414022	0.259209	0.130697	0.358311	0.255174	0.464581	0.528695	0.280710	0.546360	0.287714	0.635534	0.371027	0.309182	0.495776	0.530558	0.288620	0.265227	0.218208	0.349706	0.843032	1.199342	0.660965	0.683938	0.321978	0.186861	0.329831	0.441324	0.502171	0.200613	0.777735	0.560592	0.526233	0.324527	0.304786	0.131731	0.692770	0.560123	0.717228	0.234135	0.355462	0.807142	0.307096	0.185992	0.435246	0.140455	0.676609	0.914385	0.303949	0.133542	0.224199	0.432485	0.435491	0.139131	0.564474	0.339438	0.308058	0.065301	0.177179	0.118114
80	0.529066	0.240805	0.283538	0.543290	0.464761	0.426912	0.277080	0.123438	0.410773	0.236274	0.527334	0.539960	0.270043	0.527197	0.309775	0.637842	0.356855	0.293192	0.535990	0.517701	0.311650	0.265068	0.240372	0.333652	0.844253	1.198605	0.612260	0.719434	0.294568	0.155889	0.317587	0.425394	0.470067	0.196559	0.697257	0.492163	0.520839	0.324769	0.280520	0.136748	0.648390	0.566888	0.730489	0.196013	0.354148	0.807471	0.278293	0.176609	0.413954	0.119876	0.614990	0.914933	0.287761	0.203665	0.227982	0.475046	0.448250	0.134338	0.613018	0.377814	0.315330	0.061175	0.176981	0.107658
81	0.504080	0.177700	0.284508	0.534284	0.474290	0.473351	0.290737	0.128796	0.415332	0.240123	0.573204	0.536710	0.275048	0.474576	0.313508	0.638102	0.347497	0.280304	0.538260	0.510990	0.331064	0.262706	0.270805	0.326926	0.838991	1.199311	0.672634	0.723695	0.282557	0.088995	0.304298	0.388521	0.466679	0.159420	0.678824	0.430066	0.521245	0.329238	0.314327	0.144995	0.598933	0.535538	0.731658	0.195260	0.339408	0.805394	0.281037	0.184268	0.361236	0.084619	0.555235	0.870455	0.256273	0.266810	0.239539	0.496771	0.413804	0.134412	0.621703	0.441898	0.331587	0.054771	0.175867	0.101450
82	0.496590	0.167915	0.289688	0.542802	0.475247	0.493127	0.290217	0.127172	0.411338	0.273008	0.577577	0.534664	0.245832	0.257457	0.311169	0.629187	0.310697	0.228948	0.538122	0.503742	0.332553	0.262708	0.306344	0.331195	0.803805	1.185987	0.786501	0.670524	0.225910	0.072848	0.332375	0.361128	0.447290	0.147982	0.683114	0.423789	0.519122	0.334151	0.333935	0.153788	0.586002	0.472816	0.730353	0.237705	0.291535	0.749274	0.294747	0.184711	0.358844	0.071069	0.541238	0.701634	0.332521	0.280974	0.246571	0.502305	0.370304	0.134611	0.624922	0.475602	0.337129	0.048258	0.173549	0.099426
83	0.410923	0.147781	0.284967	0.574221	0.492405	0.493358	0.289253	0.127015	0.436611	0.275863	0.580041	0.534645	0.218696	0.188233	0.316500	0.579559	0.301924	0.189194	0.545235	0.504184	0.328319	0.251707	0.336320	0.332098	0.792174	1.134603	0.836635	0.630922	0.223525	0.059267	0.341890	0.356332	0.435003	0.138562	0.717200	0.423495	0.511905	0.336323	0.336821	0.153758	0.574954	0.442618	0.727896	0.272534	0.282217	0.623733	0.299091	0.179834	0.349501	0.073197	0.505007	0.488771	0.384364	0.280614	0.247302	0.502564	0.409098	0.146996	0.665321	0.467939	0.349718	0.048578	0.179892	0.098331
84	0.268572	0.136900	0.280237	0.593682	0.540567	0.464135	0.287106	0.126039	0.446598	0.268242	0.592649	0.521149	0.221530	0.151531	0.323553	0.499907	0.263491	0.135745	0.563872	0.484953	0.304931	0.242166	0.340967	0.332566	0.782382	1.087691	0.841393	0.614946	0.205614	0.036367	0.334431	0.367889	0.427982	0.135857	0.777462	0.416975	0.498137	0.334401	0.338035	0.152746	0.534803	0.427400	0.705162	0.274246	0.252667	0.574479	0.299281	0.174405	0.292934	0.073198	0.444880	0.345815	0.397367	0.280505	0.249312	0.502791	0.463630	0.160292	0.766061	0.447916	0.363668	0.056181	0.195116	0.109570
85	0.229645	0.122963	0.280802	0.590208	0.569801	0.450418	0.278557	0.125725	0.415352	0.228085	0.591801	0.458855	0.225215	0.141739	0.328609	0.443570	0.245803	0.116568	0.576476	0.457001	0.279315	0.242185	0.339621	0.330047	0.758121	1.079019	0.834405	0.613335	0.205759	0.037646	0.331959	0.355313	0.410238	0.140554	0.787702	0.417333	0.474442	0.302661	0.339299	0.152026	0.474496	0.383746	0.664079	0.339751	0.129237	0.474460	0.297848	0.156377	0.226575	0.066678	0.342494	0.274629	0.400597	0.280311	0.245860	0.504021	0.471368	0.160293	0.854587	0.437677	0.404350	0.063558	0.193232	0.126047
86	0.225073	0.107113	0.284586	0.580874	0.558758	0.441641	0.291522	0.130778	0.392421	0.175394	0.602686	0.432477	0.211566	0.123611	0.331734	0.434633	0.272256	0.115147	0.565130	0.454151	0.292654	0.234188	0.341758	0.296641	0.725900	0.972916	0.851478	0.612051	0.206416	0.043311	0.286926	0.295920	0.373951	0.137381	0.730175	0.417360	0.469309	0.286336	0.338647	0.146488	0.378984	0.282976	0.643432	0.397119	0.113361	0.238301	0.302651	0.135168	0.201633	0.060744	0.322964	0.243903	0.401338	0.279722	0.241651	0.496918	0.522963	0.175693	0.855319	0.447393	0.415471	0.066372	0.195013	0.133429
87	0.225160	0.108856	0.288486	0.563177	0.554751	0.438052	0.286117	0.140071	0.376011	0.177934	0.628314	0.435907	0.203163	0.112169	0.315149	0.417625	0.301782	0.109407	0.521438	0.424890	0.307027	0.220469	0.335643	0.234507	0.743216	0.815387	0.902832	0.591527	0.161986	0.049165	0.256708	0.215489	0.354004	0.140600	0.730223	0.379207	0.413202	0.279754	0.341492	0.127850	0.360999	0.240690	0.647166	0.407096	0.113508	0.182430	0.316379	0.129505	0.195471	0.057327	0.396668	0.241334	0.401198	0.276709	0.228912	0.442620	0.544895	0.175689	0.855556	0.529343	0.410581	0.067848	0.195016	0.129866
88	0.225089	0.107149	0.270571	0.549032	0.537269	0.436623	0.246400	0.147208	0.338901	0.176605	0.686755	0.455685	0.172086	0.107799	0.252687	0.310416	0.299617	0.102236	0.473459	0.371499	0.310625	0.218597	0.328534	0.196150	0.616401	0.794897	0.964140	0.578402	0.157882	0.049466	0.237872	0.197105	0.313336	0.121561	0.797400	0.365424	0.404530	0.276878	0.319894	0.122624	0.358527	0.233676	0.649528	0.405546	0.085522	0.118645	0.293227	0.130428	0.197646	0.056301	0.442812	0.253802	0.400585	0.276416	0.208946	0.402669	0.515731	0.168059	0.854157	0.552001	0.404436	0.067838	0.193166	0.126398
89	0.219658	0.108630	0.266672	0.548538	0.482162	0.415470	0.234221	0.149893	0.336554	0.176638	0.720914	0.517501	0.168686	0.105422	0.249153	0.185969	0.274293	0.108671	0.482380	0.362284	0.309671	0.201278	0.341236	0.190624	0.446361	0.557752	1.002390	0.563482	0.161646	0.046986	0.229277	0.188033	0.305529	0.107845	0.835220	0.371374	0.374967	0.278719	0.288653	0.122817	0.351764	0.231668	0.645878	0.406666	0.085914	0.096589	0.260277	0.124972	0.197817	0.059624	0.451742	0.264027	0.399376	0.274190	0.198266	0.398240	0.479306	0.168792	0.845298	0.553526	0.401163	0.067686	0.212054	0.126567
90	0.208362	0.107756	0.249828	0.540589	0.464923	0.393693	0.235620	0.149052	0.336717	0.167955	0.709609	0.492115	0.167811	0.101279	0.242750	0.127484	0.244606	0.121502	0.490461	0.363402	0.308912	0.187997	0.344704	0.192442	0.456950	0.388341	1.011823	0.512810	0.164415	0.047493	0.226048	0.160375	0.309721	0.109663	0.858066	0.392367	0.372156	0.284372	0.277871	0.123252	0.337944	0.231546	0.609096	0.402224	0.091145	0.137873	0.240420	0.126990	0.188841	0.072428	0.452645	0.263713	0.396653	0.270608	0.195532	0.393680	0.463648	0.164886	0.778351	0.632827	0.402252	0.068107	0.235918	0.131315
91	0.188614	0.105890	0.237108	0.499632	0.458748	0.387253	0.235458	0.146704	0.336340	0.166386	0.705508	0.415570	0.148378	0.114597	0.238770	0.105406	0.263952	0.140477	0.477160	0.351191	0.307486	0.188188	0.341063	0.191738	0.449901	0.351008	1.013519	0.464577	0.162729	0.046556	0.226120	0.158177	0.320120	0.107890	0.857435	0.373191	0.362025	0.271908	0.273628	0.122111	0.330166	0.234411	0.504620	0.396025	0.096984	0.196447	0.236140	0.121608	0.168380	0.077649	0.461342	0.272661	0.370908	0.269737	0.191295	0.365368	0.444515	0.163338	0.706736	0.651915	0.385528	0.067043	0.238340	0.133598
92	0.170582	0.104554	0.225714	0.454443	0.443054	0.365174	0.237500	0.143558	0.305673	0.165430	0.668871	0.393173	0.145437	0.128145	0.235903	0.103696	0.312888	0.164840	0.464236	0.291145	0.286756	0.141024	0.324281	0.178755	0.450400	0.311014	1.010643	0.491460	0.157117	0.045656	0.224295	0.154013	0.357725	0.104729	0.858991	0.342341	0.251489	0.211385	0.260029	0.110974	0.333831	0.239579	0.347152	0.395144	0.096859	0.203676	0.220918	0.116130	0.185333	0.078969	0.509470	0.259195	0.339874	0.256156	0.181604	0.301044	0.449208	0.167443	0.699231	0.616810	0.371022	0.068112	0.239317	0.134053
93	0.160430	0.103410	0.219746	0.393251	0.431550	0.356338	0.235597	0.140227	0.263015	0.166559	0.619303	0.468007	0.145797	0.132834	0.208665	0.096183	0.372505	0.183422	0.446584	0.224604	0.278633	0.107175	0.316943	0.156686	0.444887	0.287404	0.973727	0.445223	0.156307	0.047856	0.216010	0.146502	0.382130	0.108511	0.900305	0.334340	0.126021	0.176356	0.246360	0.086849	0.348097	0.235697	0.267846	0.393704	0.124580	0.223323	0.217563	0.114981	0.179426	0.084278	0.562393	0.239616	0.326436	0.197108	0.174953	0.215991	0.448565	0.169872	0.699499	0.586111	0.359234	0.069169	0.237040	0.135189
94	0.160940	0.103964	0.222897	0.369857	0.427582	0.340504	0.217656	0.128560	0.310069	0.141689	0.602966	0.509682	0.138750	0.141946	0.186552	0.076658	0.406422	0.192485	0.403951	0.249338	0.270622	0.134880	0.309149	0.143293	0.443464	0.275151	0.882035	0.383115	0.158356	0.050740	0.175396	0.145708	0.382103	0.107516	0.969968	0.334397	0.134875	0.181275	0.229476	0.081424	0.351610	0.220980	0.274055	0.386546	0.149057	0.251289	0.213636	0.113632	0.179513	0.085608	0.599346	0.230948	0.322033	0.106788	0.160404	0.150033	0.446715	0.160279	0.675858	0.568203	0.359936	0.070136	0.231882	0.135319
95	0.165891	0.116968	0.218911	0.368631	0.409718	0.254195	0.194419	0.105873	0.380457	0.122119	0.598240	0.510432	0.120384	0.138090	0.182217	0.072701	0.412017	0.193912	0.397239	0.263009	0.225501	0.196686	0.291082	0.141926	0.474039	0.271341	0.752382	0.365819	0.159387	0.054348	0.123070	0.135343	0.392574	0.106633	0.982134	0.331343	0.133303	0.180202	0.149293	0.062814	0.337939	0.195432	0.284642	0.371095	0.159774	0.253404	0.192053	0.097157	0.192103	0.085084	0.621996	0.227273	0.248148	0.021335	0.114420	0.126366	0.380148	0.142261	0.582858	0.567831	0.369442	0.070947	0.234678	0.131777
96	0.187314	0.150730	0.223794	0.363193	0.406454	0.183476	0.191219	0.096842	0.405730	0.131728	0.609494	0.517518	0.105429	0.136868	0.179604	0.072607	0.408614	0.191535	0.415877	0.264214	0.208187	0.243207	0.258292	0.126681	0.501162	0.271191	0.685691	0.337257	0.157966	0.055214	0.119133	0.103833	0.390618	0.107438	0.932181	0.303778	0.135685	0.182558	0.107920	0.040965	0.296627	0.167680	0.292332	0.335589	0.157306	0.252673	0.170474	0.088065	0.187720	0.082353	0.624298	0.224806	0.142534	0.021645	0.081003	0.124314	0.364002	0.125949	0.396926	0.570288	0.371289	0.072846	0.243849	0.127900
97	0.202504	0.179588	0.227586	0.331303	0.394746	0.145949	0.192623	0.097910	0.416055	0.131586	0.629569	0.517880	0.103120	0.136602	0.168929	0.068151	0.408515	0.187332	0.411130	0.272174	0.206034	0.263452	0.214544	0.104696	0.509948	0.269380	0.671882	0.306787	0.162245	0.057097	0.093049	0.055727	0.378493	0.108162	0.853966	0.291655	0.131185	0.182290	0.100325	0.038995	0.281736	0.153044	0.298355	0.328241	0.156117	0.254285	0.163041	0.086099	0.183076	0.081707	0.622642	0.218380	0.086947	0.021844	0.073088	0.116668	0.323305	0.105674	0.360712	0.559671	0.362706	0.073961	0.250200	0.123786
98	0.219400	0.187497	0.219658	0.270577	0.318781	0.122332	0.193828	0.098832	0.413207	0.130572	0.634328	0.527469	0.090809	0.136323	0.167919	0.068412	0.411948	0.185581	0.393391	0.279662	0.213571	0.273293	0.174416	0.102176	0.510582	0.261573	0.667023	0.313614	0.168009	0.056196	0.082273	0.032964	0.354523	0.109384	0.818545	0.282451	0.124056	0.203646	0.094961	0.037891	0.309814	0.147923	0.315528	0.293496	0.156142	0.255779	0.163042	0.085052	0.181803	0.083049	0.610082	0.223243	0.060942	0.023046	0.070938	0.100043	0.282270	0.107840	0.383207	0.488651	0.358009	0.071685	0.251114	0.121446
99	0.216454	0.181772	0.238770	0.232542	0.198068	0.111005	0.192193	0.099124	0.402095	0.122427	0.595033	0.534088	0.091217	0.136366	0.169842	0.067488	0.429106	0.186468	0.377198	0.274348	0.211092	0.273205	0.171576	0.099184	0.494019	0.253882	0.627524	0.341789	0.150325	0.053683	0.080090	0.034649	0.326481	0.105643	0.818280	0.266102	0.122173	0.253611	0.090755	0.037741	0.311318	0.144686	0.303752	0.197519	0.155912	0.256723	0.161568	0.084007	0.181772	0.088726	0.557050	0.235738	0.080228	0.023175	0.070560	0.074901	0.275312	0.113431	0.395252	0.437278	0.334457	0.067119	0.241660	0.119110
100	0.206126	0.171981	0.277114	0.234755	0.133252	0.108173	0.165342	0.094707	0.408081	0.126955	0.540817	0.531512	0.099057	0.137697	0.168895	0.068863	0.446449	0.188808	0.419832	0.269821	0.214061	0.272820	0.170056	0.092439	0.471917	0.227430	0.568684	0.339655	0.133611	0.064269	0.068147	0.038677	0.298437	0.099942	0.801102	0.262390	0.119344	0.294993	0.088241	0.032933	0.317812	0.141169	0.284390	0.180407	0.155393	0.257212	0.140705	0.069372	0.179044	0.091565	0.495582	0.251548	0.088378	0.024458	0.070417	0.050836	0.282867	0.108423	0.380923	0.428629	0.298727	0.056611	0.229062	0.106179
101	0.205792	0.170062	0.293373	0.223360	0.135260	0.108455	0.134184	0.078052	0.425902	0.140068	0.480892	0.507790	0.103583	0.139377	0.162149	0.073065	0.429060	0.195615	0.464759	0.275754	0.155676	0.272305	0.161410	0.079633	0.492370	0.184168	0.487733	0.328558	0.136583	0.076131	0.085475	0.043786	0.297218	0.100662	0.727575	0.262315	0.122197	0.311393	0.070431	0.032122	0.321862	0.141136	0.274210	0.222305	0.156311	0.259584	0.078101	0.048345	0.226316	0.091866	0.463396	0.239433	0.110213	0.028773	0.067513	0.044688	0.291325	0.100648	0.325572	0.307715	0.258968	0.051495	0.228821	0.089253
