	114_F_P_sh_L_D_A_01.c3d	114_F_P_sh_L_D_A_01.c3d	114_F_P_sh_L_D_A_01.c3d	114_F_P_sh_L_D_A_01.c3d	114_F_P_sh_L_D_A_01.c3d	114_F_P_sh_L_D_A_01.c3d	114_F_P_sh_L_D_A_01.c3d	114_F_P_sh_L_D_A_01.c3d	114_F_P_sh_L_D_A_03.c3d	114_F_P_sh_L_D_A_03.c3d	114_F_P_sh_L_D_A_03.c3d	114_F_P_sh_L_D_A_03.c3d	114_F_P_sh_L_D_A_03.c3d	114_F_P_sh_L_D_A_03.c3d	114_F_P_sh_L_D_A_03.c3d	114_F_P_sh_L_D_A_03.c3d	114_F_P_sh_L_D_A_05.c3d	114_F_P_sh_L_D_A_05.c3d	114_F_P_sh_L_D_A_05.c3d	114_F_P_sh_L_D_A_05.c3d	114_F_P_sh_L_D_A_05.c3d	114_F_P_sh_L_D_A_05.c3d	114_F_P_sh_L_D_A_05.c3d	114_F_P_sh_L_D_A_05.c3d	114_F_P_sh_L_D_A_06.c3d	114_F_P_sh_L_D_A_06.c3d	114_F_P_sh_L_D_A_06.c3d	114_F_P_sh_L_D_A_06.c3d	114_F_P_sh_L_D_A_06.c3d	114_F_P_sh_L_D_A_06.c3d	114_F_P_sh_L_D_A_06.c3d	114_F_P_sh_L_D_A_06.c3d	114_F_P_sh_L_D_A_07.c3d	114_F_P_sh_L_D_A_07.c3d	114_F_P_sh_L_D_A_07.c3d	114_F_P_sh_L_D_A_07.c3d	114_F_P_sh_L_D_A_07.c3d	114_F_P_sh_L_D_A_07.c3d	114_F_P_sh_L_D_A_07.c3d	114_F_P_sh_L_D_A_07.c3d	114_F_P_sh_L_D_A_10.c3d	114_F_P_sh_L_D_A_10.c3d	114_F_P_sh_L_D_A_10.c3d	114_F_P_sh_L_D_A_10.c3d	114_F_P_sh_L_D_A_10.c3d	114_F_P_sh_L_D_A_10.c3d	114_F_P_sh_L_D_A_10.c3d	114_F_P_sh_L_D_A_10.c3d
	Biceps femoris_lat	Semitendinosus_lat	Vastus lateralis_lat	Vastus medialis_lat	Biceps femoris_med	Semitendinosus_med	Vastus lateralis_med	Vastus medialis_med	Biceps femoris_lat	Semitendinosus_lat	Vastus lateralis_lat	Vastus medialis_lat	Biceps femoris_med	Semitendinosus_med	Vastus lateralis_med	Vastus medialis_med	Biceps femoris_lat	Semitendinosus_lat	Vastus lateralis_lat	Vastus medialis_lat	Biceps femoris_med	Semitendinosus_med	Vastus lateralis_med	Vastus medialis_med	Biceps femoris_lat	Semitendinosus_lat	Vastus lateralis_lat	Vastus medialis_lat	Biceps femoris_med	Semitendinosus_med	Vastus lateralis_med	Vastus medialis_med	Biceps femoris_lat	Semitendinosus_lat	Vastus lateralis_lat	Vastus medialis_lat	Biceps femoris_med	Semitendinosus_med	Vastus lateralis_med	Vastus medialis_med	Biceps femoris_lat	Semitendinosus_lat	Vastus lateralis_lat	Vastus medialis_lat	Biceps femoris_med	Semitendinosus_med	Vastus lateralis_med	Vastus medialis_med
	P2D	P2D	P2D	P2D	P2D	P2D	P2D	P2D	P2D	P2D	P2D	P2D	P2D	P2D	P2D	P2D	P2D	P2D	P2D	P2D	P2D	P2D	P2D	P2D	P2D	P2D	P2D	P2D	P2D	P2D	P2D	P2D	P2D	P2D	P2D	P2D	P2D	P2D	P2D	P2D	P2D	P2D	P2D	P2D	P2D	P2D	P2D	P2D
	EMG_lat	EMG_lat	EMG_lat	EMG_lat	EMG_med	EMG_med	EMG_med	EMG_med	EMG_lat	EMG_lat	EMG_lat	EMG_lat	EMG_med	EMG_med	EMG_med	EMG_med	EMG_lat	EMG_lat	EMG_lat	EMG_lat	EMG_med	EMG_med	EMG_med	EMG_med	EMG_lat	EMG_lat	EMG_lat	EMG_lat	EMG_med	EMG_med	EMG_med	EMG_med	EMG_lat	EMG_lat	EMG_lat	EMG_lat	EMG_med	EMG_med	EMG_med	EMG_med	EMG_lat	EMG_lat	EMG_lat	EMG_lat	EMG_med	EMG_med	EMG_med	EMG_med
ITEM	Y	Y	Y	Y	Y	Y	Y	Y	Y	Y	Y	Y	Y	Y	Y	Y	Y	Y	Y	Y	Y	Y	Y	Y	Y	Y	Y	Y	Y	Y	Y	Y	Y	Y	Y	Y	Y	Y	Y	Y	Y	Y	Y	Y	Y	Y	Y	Y
1	0.332291	0.483329	0.303612	0.226521	0.585419	0.574357	0.216918	0.163670	0.077323	0.057261	0.216656	0.169916	0.352452	0.417995	0.167039	0.146912	0.168779	0.125512	0.427842	0.412122	0.292924	0.310030	0.204837	0.215777	0.075220	0.058991	0.224740	0.399175	0.440697	0.223974	0.172626	0.163783	0.054757	0.179243	0.314869	0.233912	0.348061	0.220562	0.207452	0.173015	0.150218	0.243009	0.269811	0.151824	0.346173	0.346763	0.172193	0.042729
2	0.331726	0.481966	0.313795	0.235413	0.585159	0.572335	0.219361	0.164810	0.102213	0.115996	0.249821	0.226115	0.352808	0.444504	0.214786	0.193966	0.187706	0.135568	0.456644	0.436607	0.300284	0.317045	0.226270	0.205012	0.092384	0.069318	0.243691	0.418662	0.419584	0.203809	0.171083	0.159205	0.055239	0.169680	0.311447	0.244655	0.360899	0.186638	0.186182	0.165796	0.148097	0.239865	0.263228	0.163881	0.296226	0.429243	0.179958	0.044587
3	0.346587	0.481179	0.345723	0.241388	0.591115	0.618651	0.214114	0.164971	0.136099	0.119090	0.291467	0.272205	0.353889	0.441158	0.223117	0.221917	0.193920	0.139176	0.442364	0.494604	0.317455	0.317288	0.264611	0.195058	0.113380	0.082296	0.288587	0.437530	0.446976	0.239983	0.172602	0.150028	0.061246	0.161411	0.310481	0.247429	0.335924	0.160110	0.157425	0.136635	0.150416	0.235691	0.234691	0.160320	0.391500	0.476080	0.179174	0.037584
4	0.349260	0.474454	0.363612	0.240774	0.593109	0.668563	0.188129	0.158576	0.155388	0.120344	0.304794	0.297695	0.359224	0.436174	0.227465	0.227557	0.194520	0.139259	0.436166	0.501482	0.337432	0.324727	0.288643	0.196372	0.117838	0.093949	0.310820	0.446184	0.489889	0.242949	0.175854	0.134599	0.063356	0.157249	0.311932	0.247411	0.362754	0.175201	0.151994	0.087951	0.150492	0.221571	0.233728	0.160172	0.453288	0.520766	0.182417	0.043656
5	0.347078	0.468128	0.362213	0.233639	0.602024	0.668096	0.200197	0.148212	0.157913	0.120180	0.294400	0.300168	0.367698	0.435559	0.241850	0.241286	0.195675	0.137196	0.471827	0.519234	0.365243	0.338271	0.302219	0.201513	0.117980	0.110706	0.306804	0.445054	0.516965	0.240403	0.184747	0.114720	0.063330	0.156584	0.315699	0.261229	0.382012	0.179633	0.152038	0.072495	0.144135	0.217067	0.237385	0.158418	0.453139	0.556472	0.200331	0.047404
6	0.344006	0.463591	0.367251	0.232860	0.581226	0.668071	0.204393	0.137928	0.159494	0.120296	0.304235	0.309413	0.353160	0.396612	0.246566	0.260683	0.196199	0.132105	0.516621	0.613507	0.377483	0.319596	0.303565	0.191336	0.124668	0.120460	0.305078	0.449024	0.518005	0.275798	0.191841	0.095861	0.064318	0.153014	0.322230	0.275512	0.389909	0.173027	0.155193	0.071947	0.142167	0.208908	0.239454	0.158261	0.454464	0.559194	0.221102	0.046886
7	0.350910	0.463779	0.380117	0.248442	0.555434	0.655984	0.204117	0.133678	0.163665	0.120554	0.320368	0.333357	0.354298	0.390644	0.249901	0.270283	0.202715	0.132154	0.496632	0.652856	0.377429	0.306972	0.299694	0.206965	0.136053	0.125315	0.299172	0.454202	0.540567	0.289322	0.182432	0.087989	0.064562	0.146319	0.325601	0.277765	0.385029	0.176619	0.169696	0.087184	0.134146	0.197032	0.237207	0.160396	0.457173	0.558393	0.220704	0.046904
8	0.367490	0.476477	0.398213	0.264171	0.615090	0.646349	0.203916	0.134533	0.165107	0.120401	0.327222	0.354600	0.305151	0.393071	0.259223	0.278646	0.212876	0.131954	0.457301	0.629005	0.374674	0.299967	0.297295	0.226334	0.147441	0.129125	0.306912	0.454948	0.566808	0.294336	0.186066	0.087235	0.063146	0.145545	0.337616	0.289234	0.355568	0.189150	0.238588	0.123802	0.135264	0.196250	0.254192	0.177891	0.457626	0.629631	0.223355	0.046152
9	0.373934	0.474684	0.455208	0.275055	0.628692	0.633403	0.203744	0.133808	0.164979	0.119496	0.329682	0.374277	0.267896	0.393160	0.277869	0.288287	0.214925	0.130743	0.496848	0.686864	0.353498	0.283556	0.274792	0.218204	0.149857	0.129209	0.311073	0.460811	0.576375	0.295400	0.241852	0.090717	0.058833	0.146552	0.343769	0.321972	0.355455	0.188506	0.257969	0.152522	0.132089	0.182772	0.253649	0.191548	0.457241	0.658091	0.223720	0.045238
10	0.375565	0.480780	0.520016	0.280436	0.546727	0.606541	0.198621	0.126017	0.164412	0.120175	0.332150	0.381899	0.249522	0.394020	0.282959	0.294803	0.215098	0.135399	0.563298	0.756871	0.352930	0.273843	0.266062	0.205170	0.153441	0.135485	0.335624	0.489699	0.582530	0.292055	0.272633	0.093172	0.057936	0.133326	0.345982	0.334563	0.329975	0.187829	0.257720	0.156910	0.105468	0.138726	0.257220	0.197813	0.454015	0.702417	0.221695	0.045696
11	0.373956	0.466076	0.555491	0.287374	0.520239	0.621853	0.194277	0.111219	0.163527	0.121941	0.333064	0.381520	0.254187	0.352852	0.284853	0.295758	0.209400	0.130168	0.634926	0.784646	0.367446	0.267486	0.269821	0.216766	0.164811	0.145680	0.382310	0.537405	0.582331	0.288722	0.283258	0.090789	0.063412	0.112358	0.377190	0.340277	0.325699	0.182732	0.245119	0.156953	0.099969	0.100799	0.240910	0.204547	0.424470	0.701318	0.209054	0.046079
12	0.361541	0.468460	0.582327	0.296880	0.519319	0.607805	0.187894	0.093565	0.162317	0.123802	0.336252	0.381405	0.258596	0.329247	0.292387	0.294740	0.179331	0.123504	0.644639	0.792084	0.346384	0.261427	0.271398	0.227517	0.178190	0.150712	0.432221	0.566231	0.585404	0.288539	0.286793	0.086371	0.063426	0.084529	0.505593	0.397727	0.344891	0.151187	0.241064	0.157166	0.136114	0.102924	0.236734	0.206063	0.405363	0.700534	0.192876	0.044347
13	0.373536	0.461236	0.601922	0.308432	0.471855	0.597895	0.175988	0.075389	0.157539	0.121298	0.343451	0.381711	0.321999	0.357767	0.279962	0.283985	0.167745	0.123081	0.629361	0.793980	0.338256	0.248561	0.271670	0.244639	0.186599	0.151279	0.450943	0.572119	0.707058	0.286190	0.286504	0.084117	0.063542	0.066008	0.557987	0.469771	0.344852	0.150718	0.248050	0.159479	0.145389	0.103250	0.232923	0.197172	0.421803	0.647442	0.195677	0.042451
14	0.405423	0.409792	0.608879	0.316965	0.456447	0.587533	0.151563	0.064867	0.168354	0.123761	0.378588	0.382387	0.355225	0.345668	0.246798	0.258584	0.159123	0.107896	0.675198	0.793177	0.321239	0.247750	0.238753	0.269194	0.197119	0.152992	0.473545	0.544975	0.776235	0.287117	0.286638	0.082954	0.064583	0.059768	0.585054	0.501016	0.323510	0.154541	0.255881	0.172933	0.145612	0.102875	0.230856	0.183045	0.337546	0.615266	0.203496	0.044073
15	0.439945	0.324750	0.604822	0.313570	0.474189	0.587260	0.139967	0.063760	0.170142	0.122641	0.432477	0.377816	0.368009	0.317323	0.209873	0.226077	0.138071	0.089194	0.834420	0.838656	0.327622	0.246076	0.199903	0.276425	0.221913	0.160101	0.469825	0.522062	0.775507	0.281771	0.285407	0.083616	0.068547	0.059118	0.595983	0.509372	0.308382	0.159286	0.265150	0.185349	0.150366	0.104917	0.244754	0.176455	0.324884	0.591573	0.226543	0.040561
16	0.459181	0.302530	0.597789	0.302225	0.470532	0.559747	0.137729	0.064124	0.162340	0.099504	0.440604	0.377336	0.444626	0.342629	0.209231	0.202581	0.133864	0.084453	1.031723	0.968917	0.339388	0.241737	0.170044	0.271881	0.246006	0.164916	0.525357	0.539161	0.768287	0.282963	0.285074	0.087506	0.073576	0.057398	0.596998	0.510329	0.308947	0.165256	0.284166	0.197993	0.165906	0.100933	0.278592	0.182395	0.370908	0.572696	0.211459	0.035879
17	0.439153	0.279068	0.583849	0.292656	0.467825	0.540819	0.163322	0.063240	0.137203	0.103868	0.415550	0.356544	0.519563	0.368714	0.207424	0.200386	0.136362	0.089712	1.081420	1.083456	0.335424	0.216280	0.164388	0.265516	0.260735	0.167697	0.592742	0.586349	0.745853	0.286730	0.288938	0.094491	0.081289	0.055346	0.596439	0.509726	0.274127	0.148479	0.293348	0.213748	0.170442	0.107499	0.284798	0.188840	0.371523	0.566804	0.202471	0.039852
18	0.425769	0.280233	0.599333	0.286372	0.492510	0.555568	0.181630	0.064207	0.113961	0.104839	0.397825	0.332908	0.525827	0.376520	0.200698	0.175732	0.144853	0.100241	1.077476	1.079159	0.326706	0.226595	0.168052	0.248808	0.267685	0.169635	0.636022	0.622775	0.701267	0.296000	0.296024	0.103759	0.084443	0.055232	0.603701	0.504147	0.254713	0.162902	0.292959	0.221916	0.172068	0.117492	0.284830	0.189035	0.427885	0.567633	0.257110	0.061998
19	0.421931	0.287532	0.602491	0.288142	0.506638	0.528064	0.186139	0.065037	0.107032	0.106890	0.401205	0.329289	0.526298	0.376584	0.223677	0.151734	0.144372	0.098911	1.145154	1.056420	0.337140	0.223314	0.173302	0.219963	0.266911	0.171067	0.678794	0.649728	0.666201	0.364176	0.291244	0.106086	0.085668	0.055185	0.606547	0.503310	0.252872	0.157039	0.295007	0.227353	0.194333	0.148739	0.273246	0.179905	0.453808	0.489317	0.274983	0.079479
20	0.414503	0.285997	0.588325	0.289355	0.512597	0.465450	0.185766	0.065909	0.104366	0.106881	0.416629	0.328351	0.524065	0.377021	0.256639	0.142804	0.132342	0.094175	1.225107	1.138352	0.345568	0.230072	0.159398	0.213093	0.262697	0.168163	0.702746	0.662362	0.643305	0.364566	0.287309	0.105902	0.085766	0.057933	0.646506	0.519401	0.249991	0.147608	0.278904	0.221561	0.188909	0.146749	0.265265	0.158900	0.458645	0.441908	0.288818	0.080459
21	0.450290	0.286805	0.577159	0.290757	0.503467	0.460516	0.161564	0.065054	0.101212	0.106762	0.423226	0.334687	0.520557	0.367037	0.312017	0.133619	0.118378	0.097099	1.281592	1.244186	0.356193	0.220715	0.151908	0.213906	0.266448	0.164331	0.700467	0.651603	0.638505	0.364275	0.279056	0.106130	0.090579	0.057744	0.704603	0.553987	0.250717	0.135587	0.256764	0.204421	0.195669	0.147362	0.259051	0.148631	0.460581	0.367480	0.314700	0.083417
22	0.477495	0.292741	0.581646	0.294259	0.506015	0.462157	0.153055	0.064201	0.101218	0.107107	0.468550	0.368268	0.532563	0.374599	0.325414	0.115301	0.120290	0.105530	1.273207	1.234851	0.338839	0.219421	0.149618	0.202425	0.274329	0.173118	0.694262	0.637909	0.643829	0.345692	0.271967	0.105849	0.100561	0.055950	0.775086	0.565672	0.253468	0.138788	0.273987	0.193080	0.207237	0.152811	0.248257	0.133225	0.457545	0.438797	0.318653	0.085813
23	0.520290	0.311213	0.580543	0.296880	0.505990	0.462667	0.160846	0.066433	0.113367	0.111856	0.581931	0.420661	0.538660	0.379558	0.325435	0.100436	0.129065	0.105898	1.244004	1.200475	0.310048	0.213803	0.151756	0.180909	0.278560	0.201571	0.698896	0.638402	0.616935	0.331261	0.269283	0.104174	0.105219	0.050001	0.832105	0.567282	0.247026	0.138187	0.285146	0.194168	0.204031	0.179795	0.232250	0.112575	0.462069	0.439843	0.315510	0.086540
24	0.593805	0.311110	0.573651	0.291563	0.417552	0.456935	0.163881	0.066452	0.123751	0.116756	0.700572	0.491310	0.536308	0.383269	0.322914	0.096961	0.123126	0.101416	1.243898	1.226639	0.301509	0.184026	0.155348	0.163902	0.277758	0.211669	0.718345	0.666016	0.606082	0.331270	0.258766	0.103565	0.108086	0.047127	0.841652	0.577302	0.224897	0.138099	0.289308	0.195525	0.195045	0.180158	0.228761	0.108015	0.430373	0.430895	0.308560	0.086652
25	0.619169	0.288771	0.563610	0.281408	0.351117	0.459271	0.163460	0.063506	0.124730	0.126998	0.721555	0.579914	0.514917	0.307427	0.314631	0.104916	0.106854	0.097997	1.257540	1.298656	0.300445	0.188885	0.152228	0.123733	0.274143	0.211168	0.736945	0.717015	0.592424	0.328852	0.196250	0.099063	0.108360	0.058007	0.757613	0.545765	0.198315	0.135723	0.288391	0.195394	0.199918	0.189286	0.236399	0.110842	0.428186	0.428217	0.303019	0.085268
26	0.622286	0.283002	0.530933	0.272097	0.343262	0.432708	0.163469	0.060114	0.130092	0.134751	0.721543	0.625023	0.474725	0.295991	0.316239	0.143095	0.110171	0.109472	1.253436	1.324897	0.298015	0.196513	0.150229	0.073748	0.268518	0.209526	0.751203	0.752095	0.591951	0.329141	0.154609	0.095882	0.112034	0.068158	0.692956	0.471272	0.193760	0.144841	0.276620	0.192882	0.203162	0.194721	0.233222	0.107180	0.373224	0.407810	0.283054	0.082297
27	0.655062	0.281997	0.463089	0.267872	0.342057	0.372643	0.161323	0.057890	0.134775	0.139999	0.725659	0.630900	0.456051	0.298532	0.322553	0.190071	0.138123	0.123322	1.209482	1.321076	0.263075	0.189516	0.144799	0.056774	0.267984	0.208627	0.760987	0.751221	0.589988	0.328161	0.127103	0.094547	0.124760	0.080371	0.666670	0.413599	0.205182	0.143810	0.267565	0.184730	0.203125	0.195777	0.201007	0.093035	0.322434	0.381721	0.287483	0.085402
28	0.650008	0.420799	0.419918	0.263736	0.334953	0.359113	0.159559	0.057069	0.121418	0.136513	0.710854	0.643855	0.439266	0.300160	0.322528	0.233852	0.164456	0.130113	1.078206	1.303191	0.219570	0.169002	0.140633	0.059460	0.265444	0.208097	0.754767	0.727883	0.569972	0.326968	0.115598	0.092073	0.132023	0.082790	0.688366	0.409017	0.203916	0.139159	0.249885	0.175482	0.196259	0.202721	0.163627	0.074598	0.318099	0.384698	0.279075	0.087087
29	0.648358	0.455241	0.390392	0.253327	0.333693	0.352050	0.160465	0.058390	0.118993	0.138387	0.674614	0.674269	0.346806	0.295497	0.319409	0.250808	0.164463	0.129714	0.925211	1.217223	0.218781	0.162240	0.135561	0.055438	0.261283	0.221113	0.759944	0.724218	0.343514	0.326993	0.113707	0.090299	0.128516	0.083711	0.721411	0.434650	0.206166	0.268071	0.228300	0.167980	0.205100	0.249414	0.164248	0.080284	0.230259	0.371819	0.222730	0.075046
30	0.666905	0.450819	0.387011	0.237389	0.333179	0.348895	0.160311	0.062474	0.114563	0.132913	0.686683	0.712417	0.241301	0.231458	0.318622	0.250375	0.176264	0.128052	0.899121	1.153238	0.242311	0.150163	0.125988	0.055665	0.256295	0.237392	0.775714	0.756525	0.283362	0.327906	0.118785	0.089952	0.124860	0.088154	0.739816	0.459337	0.213083	0.286017	0.217611	0.161976	0.196589	0.249365	0.165655	0.093432	0.172186	0.359206	0.203117	0.066810
31	0.764735	0.520335	0.401148	0.220558	0.312093	0.356427	0.159060	0.065843	0.110404	0.123051	0.731209	0.778578	0.222885	0.223184	0.315567	0.258545	0.183216	0.122121	0.890142	1.153780	0.272726	0.125828	0.128088	0.052837	0.252538	0.257299	0.806836	0.803704	0.281586	0.327376	0.130628	0.091865	0.136090	0.095419	0.741526	0.470880	0.255943	0.302136	0.214977	0.162496	0.186898	0.233866	0.195277	0.121683	0.165449	0.374727	0.210782	0.102642
32	0.801915	0.571700	0.406952	0.215419	0.288237	0.413739	0.162796	0.066201	0.111223	0.120462	0.764755	0.830180	0.222499	0.222953	0.309332	0.273451	0.184380	0.122663	0.841443	1.154099	0.278742	0.124950	0.142089	0.046661	0.253439	0.269653	0.799778	0.838275	0.265947	0.333460	0.128198	0.090526	0.155821	0.106185	0.737092	0.464626	0.298050	0.308263	0.206782	0.153649	0.180989	0.254239	0.240475	0.175809	0.143515	0.396927	0.189231	0.154293
33	0.787820	0.571732	0.400692	0.220824	0.281721	0.422695	0.155025	0.065883	0.112049	0.121540	0.776833	0.842858	0.219804	0.224297	0.323481	0.318330	0.206979	0.127243	0.754964	1.113601	0.292159	0.127832	0.199001	0.043041	0.231922	0.269318	0.796165	0.837227	0.221465	0.347710	0.120471	0.080585	0.168347	0.111321	0.706595	0.447412	0.293350	0.307823	0.205583	0.151964	0.229242	0.278596	0.272090	0.232822	0.115696	0.302976	0.181610	0.196615
34	0.801593	0.567924	0.379597	0.227343	0.241232	0.383867	0.152721	0.063696	0.113550	0.174662	0.767654	0.841352	0.200545	0.237577	0.293909	0.371212	0.232933	0.125963	0.659424	1.013774	0.386907	0.136582	0.231890	0.044264	0.208331	0.266041	0.782897	0.822132	0.219676	0.364771	0.109280	0.070559	0.166976	0.111440	0.643531	0.399560	0.300139	0.306934	0.162725	0.147404	0.254451	0.272706	0.306140	0.284340	0.081669	0.292130	0.181997	0.205892
35	0.848707	0.571429	0.360662	0.234676	0.201453	0.402817	0.151023	0.064520	0.120889	0.203658	0.757563	0.831918	0.172480	0.243104	0.290700	0.394372	0.237670	0.119640	0.716738	0.993789	0.404302	0.136723	0.257259	0.077643	0.193228	0.264132	0.830810	0.837047	0.217719	0.374456	0.107584	0.070001	0.177110	0.119857	0.561677	0.351526	0.309733	0.308120	0.147595	0.174781	0.254611	0.265441	0.334931	0.319414	0.084842	0.292404	0.189104	0.220895
36	0.848319	0.570332	0.409286	0.249073	0.172218	0.396380	0.150131	0.067952	0.121932	0.216469	0.731649	0.810654	0.161042	0.235522	0.293404	0.400714	0.270840	0.162651	0.868690	1.075485	0.407607	0.125188	0.380425	0.139405	0.187090	0.262424	0.923784	0.907869	0.208892	0.407542	0.102959	0.070011	0.222572	0.169097	0.486896	0.336514	0.313868	0.308507	0.150211	0.207428	0.260256	0.271942	0.324029	0.322166	0.082645	0.298566	0.214552	0.259997
37	0.845281	0.619525	0.475761	0.265848	0.180430	0.397829	0.154280	0.077373	0.135715	0.237511	0.661816	0.776876	0.144334	0.244304	0.296235	0.401211	0.380035	0.197688	0.907816	1.086565	0.405491	0.121429	0.433246	0.179047	0.186746	0.261799	0.975742	0.996128	0.168903	0.425414	0.105196	0.069522	0.245538	0.191591	0.473297	0.325672	0.313018	0.308491	0.158246	0.228216	0.265194	0.264732	0.328030	0.344925	0.128087	0.312601	0.264071	0.287711
38	0.836678	0.623102	0.522429	0.272973	0.217748	0.397195	0.159548	0.090307	0.170325	0.281194	0.535869	0.734187	0.131625	0.254907	0.296201	0.397320	0.399923	0.199549	0.902794	1.019766	0.394339	0.108180	0.435197	0.191046	0.174815	0.259678	1.001397	1.077759	0.161035	0.417560	0.105793	0.069054	0.247149	0.189689	0.504612	0.334608	0.312826	0.308106	0.163125	0.238156	0.261428	0.264670	0.366086	0.392705	0.162504	0.427057	0.292182	0.298590
39	0.832065	0.628134	0.522957	0.271635	0.227432	0.398372	0.155101	0.096319	0.170795	0.290656	0.500293	0.679653	0.131572	0.235306	0.298616	0.384417	0.395649	0.194463	0.939036	1.012874	0.396867	0.109223	0.436424	0.190998	0.155732	0.261018	1.022672	1.118578	0.166886	0.418355	0.106381	0.068743	0.262499	0.197989	0.504455	0.355420	0.307549	0.301112	0.164964	0.237431	0.258493	0.264796	0.432057	0.441246	0.164051	0.417222	0.300254	0.300523
40	0.811840	0.636871	0.521074	0.265929	0.211214	0.391652	0.150420	0.098383	0.166816	0.290373	0.500815	0.649784	0.130528	0.241083	0.306656	0.364107	0.391489	0.197026	1.056660	1.106739	0.396004	0.108220	0.438073	0.194724	0.137912	0.244864	1.024250	1.124880	0.167310	0.424439	0.106927	0.068770	0.278276	0.203440	0.493283	0.359075	0.301003	0.301178	0.164624	0.233385	0.253194	0.240664	0.499436	0.473264	0.196442	0.428887	0.304420	0.302469
41	0.764585	0.661177	0.528660	0.256128	0.216411	0.386025	0.153697	0.099260	0.161461	0.288190	0.495730	0.643661	0.118687	0.267059	0.314496	0.342312	0.405054	0.212284	1.169073	1.235790	0.383741	0.106694	0.454067	0.212697	0.132400	0.214111	1.026373	1.119726	0.176580	0.426618	0.115620	0.070713	0.289344	0.207061	0.502202	0.349075	0.300504	0.295771	0.164929	0.228676	0.248185	0.204844	0.534914	0.497218	0.233484	0.445654	0.297103	0.302029
42	0.742374	0.680130	0.540900	0.249000	0.219072	0.384262	0.155478	0.099461	0.167182	0.288022	0.494274	0.630658	0.111914	0.258519	0.324167	0.335520	0.413096	0.216564	1.178145	1.298209	0.353493	0.125740	0.464754	0.248805	0.125513	0.204779	1.027996	1.116825	0.203065	0.437031	0.116869	0.065158	0.293747	0.208774	0.555184	0.432106	0.299147	0.203778	0.166834	0.220829	0.253710	0.203418	0.539406	0.507202	0.265242	0.524498	0.283148	0.291506
43	0.740735	0.687590	0.549812	0.247343	0.219529	0.384966	0.157549	0.099284	0.188846	0.288089	0.508453	0.598483	0.112053	0.257969	0.329925	0.338329	0.407618	0.214569	1.189973	1.290356	0.326614	0.144090	0.467992	0.267714	0.124466	0.203159	1.033592	1.119065	0.219485	0.436813	0.115934	0.059334	0.294075	0.208363	0.642894	0.602524	0.287136	0.182052	0.164608	0.209594	0.267356	0.213584	0.530213	0.501866	0.266913	0.503453	0.289149	0.267323
44	0.713021	0.754051	0.554901	0.247332	0.222452	0.385726	0.155925	0.098942	0.202762	0.284757	0.526926	0.574400	0.112407	0.269621	0.326574	0.332405	0.404914	0.214399	1.202300	1.329301	0.326032	0.153579	0.454447	0.273957	0.132087	0.203063	1.064760	1.140856	0.219974	0.436230	0.116845	0.055316	0.290766	0.205528	0.703001	0.724245	0.237781	0.150315	0.163434	0.200038	0.255723	0.187633	0.509793	0.480330	0.267584	0.504819	0.299998	0.237676
45	0.718691	0.731974	0.561847	0.248681	0.222779	0.385207	0.154052	0.096811	0.203253	0.283264	0.535317	0.547423	0.111404	0.294077	0.309042	0.314941	0.405876	0.213242	1.207271	1.379921	0.244151	0.149244	0.429613	0.274172	0.135943	0.203526	1.106518	1.168202	0.212777	0.436017	0.119164	0.053980	0.302112	0.207031	0.706231	0.756286	0.154966	0.142758	0.163407	0.200324	0.188827	0.166632	0.494272	0.453292	0.268121	0.492060	0.304858	0.229955
46	0.768432	0.747927	0.557998	0.252819	0.221436	0.388010	0.156325	0.094762	0.212631	0.283281	0.570888	0.590096	0.110899	0.290228	0.257378	0.255275	0.394369	0.212786	1.258432	1.399547	0.125699	0.157006	0.428563	0.272556	0.133150	0.197387	1.130250	1.182304	0.206386	0.435143	0.111612	0.053454	0.320065	0.211484	0.709476	0.761127	0.146991	0.144122	0.165267	0.203568	0.177667	0.169304	0.465455	0.421805	0.269089	0.492689	0.301469	0.216394
47	0.784589	0.749008	0.540548	0.254503	0.222258	0.385289	0.156684	0.093919	0.247886	0.282697	0.593188	0.718002	0.109248	0.276812	0.226129	0.175717	0.403995	0.221153	1.289489	1.440165	0.121107	0.160267	0.363276	0.253267	0.126565	0.178599	1.115110	1.172459	0.207208	0.434401	0.094126	0.043790	0.336354	0.220972	0.735425	0.804054	0.144717	0.154732	0.155828	0.210267	0.176647	0.179132	0.459464	0.410663	0.281802	0.501296	0.287445	0.168574
48	0.723722	0.716549	0.525532	0.257062	0.227035	0.346109	0.156590	0.096103	0.254647	0.258187	0.591218	0.826345	0.101125	0.274186	0.205009	0.128785	0.415746	0.218763	1.236171	1.433758	0.124917	0.159314	0.236977	0.224505	0.129962	0.169176	1.086453	1.137917	0.211497	0.423250	0.093442	0.039258	0.332650	0.217313	0.770720	0.870700	0.168964	0.154202	0.146564	0.189364	0.160123	0.178017	0.472700	0.404572	0.276210	0.493346	0.245130	0.123209
49	0.661515	0.686090	0.530587	0.258628	0.225515	0.308088	0.147192	0.099094	0.253333	0.231962	0.590703	0.847959	0.097694	0.283240	0.201695	0.112377	0.377837	0.182808	1.143597	1.364484	0.125904	0.167803	0.210358	0.204156	0.129571	0.152988	1.071555	1.100666	0.211929	0.416429	0.090245	0.040110	0.303628	0.188084	0.798043	0.911428	0.166619	0.157025	0.163367	0.172063	0.156816	0.239991	0.492058	0.377438	0.259986	0.397484	0.253034	0.126332
50	0.671550	0.691731	0.538235	0.257236	0.223275	0.292827	0.120892	0.099838	0.254386	0.220722	0.599969	0.860747	0.107734	0.269176	0.202156	0.111146	0.292581	0.162535	1.119337	1.336573	0.125517	0.171401	0.209153	0.204073	0.122873	0.143018	1.083518	1.091722	0.215525	0.310378	0.086822	0.039405	0.289256	0.179299	0.793859	0.932069	0.163959	0.187385	0.155930	0.151357	0.161994	0.252572	0.467849	0.339039	0.276347	0.396473	0.299112	0.156614
51	0.722098	0.702769	0.540088	0.248287	0.214393	0.215851	0.115925	0.099284	0.257780	0.204037	0.631304	0.934617	0.105589	0.267547	0.203067	0.112341	0.297019	0.166263	1.146159	1.375890	0.122179	0.180541	0.208297	0.202161	0.122927	0.137463	1.085550	1.110905	0.223307	0.280210	0.091472	0.041955	0.301166	0.190444	0.772763	0.934808	0.163483	0.188503	0.167966	0.141523	0.193686	0.251542	0.422782	0.339515	0.272792	0.382475	0.306351	0.182297
52	0.755351	0.714009	0.532685	0.228362	0.212543	0.200136	0.123703	0.100425	0.231101	0.129949	0.657578	1.010673	0.110302	0.259218	0.186949	0.109358	0.314986	0.161779	1.120967	1.399723	0.196357	0.192944	0.196714	0.193793	0.123484	0.137582	1.053230	1.129439	0.220713	0.233119	0.096973	0.046031	0.295406	0.182609	0.772654	0.924915	0.164396	0.189101	0.183034	0.149382	0.219845	0.252972	0.381763	0.349499	0.241808	0.361631	0.308818	0.203314
53	0.877106	0.715381	0.501931	0.196267	0.213082	0.185215	0.128429	0.100649	0.232930	0.097972	0.684605	1.070047	0.154405	0.267482	0.167500	0.098356	0.306211	0.145954	0.996389	1.315063	0.271003	0.195008	0.157053	0.152499	0.126436	0.137441	0.966951	1.111038	0.227898	0.232728	0.093867	0.050072	0.278217	0.171040	0.774320	0.927069	0.167930	0.187382	0.190638	0.160067	0.220779	0.261070	0.436192	0.396892	0.207874	0.203639	0.318196	0.206319
54	0.901752	0.711564	0.466458	0.157944	0.164850	0.177067	0.141767	0.099843	0.234146	0.107208	0.684990	1.087049	0.193686	0.226939	0.147744	0.091508	0.281092	0.133956	0.914750	1.143654	0.274474	0.178972	0.164977	0.101023	0.131838	0.149532	0.863783	1.035477	0.231937	0.251567	0.095111	0.051363	0.261609	0.169617	0.752634	0.940547	0.171713	0.180144	0.188851	0.160983	0.217889	0.251714	0.460126	0.416483	0.210409	0.203700	0.350401	0.253981
55	0.951177	0.702772	0.438989	0.132426	0.136208	0.169849	0.174455	0.109988	0.258776	0.114898	0.684109	1.087577	0.220530	0.226859	0.124692	0.083300	0.305519	0.154639	0.935040	1.102471	0.279047	0.172033	0.197185	0.081566	0.142920	0.160965	0.783740	0.927407	0.226047	0.248628	0.105467	0.052247	0.255944	0.176251	0.682096	0.906657	0.171516	0.163017	0.189360	0.161872	0.210708	0.238948	0.457367	0.415206	0.209335	0.207160	0.367126	0.322444
56	0.942471	0.711698	0.474025	0.129000	0.135131	0.170623	0.197927	0.121813	0.330070	0.144068	0.682027	1.087332	0.259665	0.234175	0.103031	0.064473	0.331567	0.166617	0.944220	1.139584	0.276574	0.169199	0.207212	0.081447	0.147837	0.169185	0.749515	0.827580	0.224684	0.243855	0.120981	0.050269	0.264861	0.192867	0.579376	0.792098	0.170278	0.152450	0.195664	0.160995	0.211363	0.244782	0.478601	0.420072	0.208590	0.209395	0.363676	0.341670
57	0.940943	0.704546	0.507855	0.136469	0.122984	0.170133	0.196589	0.128732	0.392479	0.159512	0.669974	1.083647	0.304182	0.216299	0.101568	0.055288	0.343011	0.169041	0.891308	1.074289	0.284878	0.163018	0.204030	0.082614	0.153242	0.172028	0.760743	0.808373	0.212787	0.244987	0.125187	0.044439	0.274273	0.207050	0.479215	0.670376	0.168800	0.143316	0.196637	0.161129	0.210800	0.255280	0.527957	0.466412	0.206971	0.198849	0.369328	0.342625
58	0.946030	0.739898	0.503173	0.137990	0.119315	0.170244	0.208276	0.129103	0.410064	0.167605	0.633608	1.069855	0.314439	0.199725	0.088005	0.055414	0.343933	0.169844	0.806421	0.948969	0.297889	0.169872	0.195092	0.081757	0.155831	0.173292	0.813029	0.892646	0.200992	0.233652	0.131563	0.041003	0.260014	0.204295	0.477095	0.629781	0.167810	0.142983	0.197374	0.162538	0.208209	0.283235	0.561358	0.515564	0.188425	0.162477	0.375543	0.355393
59	0.961297	0.746842	0.499972	0.138451	0.119745	0.167953	0.221653	0.140024	0.418802	0.176495	0.601091	1.036514	0.326678	0.207137	0.081992	0.050464	0.340527	0.172408	0.735048	0.861114	0.309719	0.186667	0.196119	0.081808	0.154559	0.173442	0.845623	0.971301	0.252183	0.243074	0.143063	0.040801	0.234038	0.197773	0.477704	0.626078	0.168616	0.142644	0.193979	0.158353	0.221446	0.284289	0.584895	0.550080	0.168063	0.153559	0.379885	0.381170
60	1.005597	0.815545	0.521655	0.140553	0.113370	0.164648	0.245414	0.164743	0.530361	0.276771	0.582692	0.971818	0.340722	0.212461	0.077487	0.041935	0.332940	0.174281	0.840827	0.900784	0.325395	0.215714	0.197613	0.079764	0.159963	0.174476	0.873115	1.000037	0.282909	0.250772	0.145698	0.040854	0.212697	0.189296	0.436075	0.575410	0.144804	0.123988	0.200588	0.144859	0.261695	0.269343	0.579559	0.568761	0.163507	0.153552	0.353477	0.385272
61	1.052311	0.765663	0.548119	0.139596	0.113486	0.162291	0.269363	0.184497	0.672151	0.395427	0.549337	0.869595	0.349012	0.275620	0.076770	0.043831	0.352740	0.179098	0.979335	1.032495	0.336354	0.247897	0.196839	0.078191	0.162918	0.176312	0.866277	0.996360	0.290680	0.253147	0.159787	0.042763	0.209121	0.188861	0.370828	0.469294	0.112934	0.126136	0.206632	0.127907	0.257423	0.230384	0.562707	0.564792	0.131783	0.144070	0.349241	0.390792
62	1.076911	0.739754	0.551909	0.131603	0.109120	0.153014	0.279749	0.199262	0.726321	0.430215	0.547429	0.764392	0.390810	0.318314	0.068941	0.042061	0.366427	0.178175	0.977643	1.093977	0.338181	0.261242	0.198747	0.076545	0.169470	0.184324	0.816552	0.969612	0.291836	0.253119	0.178972	0.048343	0.226003	0.198495	0.289186	0.388768	0.110528	0.111570	0.184914	0.128691	0.273612	0.230250	0.538903	0.541842	0.085549	0.139254	0.367101	0.432390
63	1.091222	0.696500	0.551815	0.121525	0.101789	0.155411	0.280969	0.210092	0.727556	0.431380	0.560922	0.736267	0.410546	0.494053	0.065151	0.038816	0.360624	0.176317	0.945319	1.067403	0.347807	0.262177	0.201474	0.076441	0.175020	0.187608	0.754674	0.943087	0.302728	0.253097	0.188850	0.050021	0.240340	0.210469	0.260687	0.342129	0.118738	0.069684	0.184803	0.134845	0.263623	0.232576	0.526324	0.515509	0.080546	0.136616	0.385572	0.451762
64	1.184378	0.716583	0.556059	0.117246	0.090241	0.112191	0.280936	0.210527	0.744775	0.442528	0.575366	0.725682	0.423476	0.533415	0.067216	0.034483	0.347077	0.172943	1.002944	1.059320	0.300499	0.282340	0.197599	0.075963	0.177979	0.184735	0.714111	0.921005	0.318662	0.252875	0.188893	0.050024	0.253125	0.219320	0.256967	0.330302	0.151823	0.085121	0.186851	0.152594	0.259740	0.222962	0.485971	0.465655	0.059787	0.132190	0.385067	0.460351
65	1.229776	0.739022	0.552839	0.110068	0.090793	0.083037	0.287624	0.209226	0.760272	0.454316	0.561414	0.633714	0.628866	0.540677	0.072071	0.028659	0.358281	0.176968	1.062609	1.099382	0.295627	0.307868	0.193479	0.076867	0.175679	0.177330	0.715324	0.907522	0.332057	0.251531	0.187107	0.050932	0.249403	0.228474	0.257019	0.327274	0.182901	0.092455	0.172575	0.153094	0.249039	0.219152	0.428420	0.417232	0.042318	0.134833	0.341243	0.437218
66	1.221852	0.732550	0.539408	0.099917	0.089494	0.074381	0.300274	0.212796	0.771088	0.460174	0.547013	0.502539	0.653875	0.557631	0.075192	0.027081	0.381585	0.190886	1.073262	1.125289	0.297699	0.325493	0.147971	0.068563	0.170005	0.162149	0.717436	0.909858	0.332748	0.249586	0.185923	0.051677	0.246174	0.235381	0.276019	0.342162	0.190215	0.098757	0.167035	0.145378	0.248764	0.219353	0.428920	0.409311	0.042077	0.126283	0.320064	0.393087
67	1.211932	0.717401	0.532201	0.093484	0.087761	0.075380	0.313902	0.222855	0.769916	0.459218	0.580866	0.389882	0.652060	0.555517	0.082696	0.026411	0.380988	0.188645	1.036108	1.121293	0.293719	0.331110	0.112717	0.061767	0.162474	0.146411	0.711694	0.911181	0.331811	0.266671	0.186423	0.054690	0.244979	0.234577	0.309609	0.339910	0.188383	0.113718	0.169791	0.144702	0.265772	0.215352	0.436140	0.408894	0.054331	0.093598	0.372080	0.408049
68	1.201021	0.719620	0.531856	0.090245	0.079180	0.091336	0.323989	0.237448	0.769707	0.456680	0.658870	0.434870	0.655655	0.563241	0.096855	0.024185	0.352764	0.169366	1.028296	1.106148	0.289495	0.331620	0.099185	0.056993	0.162728	0.141943	0.698409	0.901888	0.334506	0.260000	0.187328	0.057943	0.244257	0.245571	0.339180	0.344607	0.220954	0.113424	0.173382	0.143756	0.264849	0.213506	0.393071	0.386907	0.076363	0.093448	0.463141	0.486492
69	1.150833	0.727580	0.528118	0.090479	0.063267	0.103496	0.321860	0.250108	0.763928	0.453921	0.729918	0.582985	0.659176	0.563726	0.106497	0.023933	0.328820	0.160119	1.045196	1.158650	0.275980	0.327987	0.098804	0.056390	0.172897	0.146054	0.698565	0.879590	0.332515	0.256731	0.188323	0.058632	0.234813	0.233517	0.354549	0.348450	0.235227	0.110058	0.176292	0.145650	0.263878	0.150287	0.330149	0.309918	0.078660	0.093438	0.615689	0.584999
70	1.059607	0.810782	0.510807	0.091056	0.060656	0.133451	0.315734	0.252284	0.737824	0.448871	0.752138	0.679963	0.646492	0.562019	0.105743	0.024200	0.318676	0.158982	1.045804	1.172091	0.262288	0.316866	0.097150	0.057552	0.173021	0.161749	0.715420	0.845905	0.329713	0.243812	0.186245	0.058602	0.221352	0.219384	0.353575	0.342895	0.234588	0.114480	0.188766	0.148797	0.286462	0.146819	0.294035	0.242126	0.088112	0.093694	0.655308	0.653803
71	1.033466	0.817405	0.489876	0.093165	0.078537	0.156451	0.307277	0.246090	0.700075	0.444021	0.754975	0.692591	0.644332	0.562206	0.105807	0.026859	0.317470	0.157415	1.064749	1.199574	0.241671	0.300065	0.093659	0.058635	0.181104	0.174392	0.741164	0.832915	0.332631	0.245082	0.179433	0.058479	0.216123	0.224589	0.385205	0.340863	0.234595	0.119179	0.202934	0.152122	0.278276	0.122539	0.297516	0.209248	0.092462	0.099491	0.677959	0.657346
72	1.002771	0.836932	0.462479	0.095223	0.101824	0.158194	0.306539	0.248129	0.683809	0.444620	0.817813	0.724292	0.636503	0.559043	0.114585	0.029548	0.314139	0.146812	1.067858	1.291762	0.218057	0.270585	0.094073	0.057418	0.195318	0.170058	0.766523	0.843821	0.333432	0.236185	0.167982	0.058872	0.210249	0.234154	0.470628	0.379977	0.236979	0.121515	0.224301	0.159385	0.394546	0.140712	0.285127	0.215216	0.095558	0.111610	0.736323	0.694657
73	1.002894	0.839738	0.414674	0.090636	0.120866	0.180583	0.320981	0.252094	0.682789	0.442058	0.937379	0.845359	0.631431	0.554993	0.130400	0.035072	0.283906	0.132459	0.953126	1.277120	0.217302	0.242782	0.095133	0.056765	0.211138	0.160345	0.795088	0.869137	0.331837	0.234127	0.160080	0.058722	0.204774	0.236439	0.542015	0.433051	0.231748	0.118518	0.227175	0.176353	0.438755	0.233363	0.292392	0.229058	0.135629	0.147002	0.775217	0.752082
74	1.003268	0.832374	0.370362	0.079082	0.125542	0.180638	0.339028	0.262741	0.610985	0.396084	0.994670	0.968575	0.621516	0.521529	0.170914	0.037228	0.244729	0.125564	0.848161	1.184739	0.197578	0.242632	0.088638	0.056517	0.211312	0.153163	0.775946	0.894270	0.310869	0.221415	0.155408	0.058547	0.212039	0.309021	0.607141	0.474666	0.227011	0.115629	0.215097	0.187661	0.423355	0.253438	0.299652	0.220310	0.201039	0.178225	0.805673	0.797117
75	1.026232	0.796631	0.378159	0.074265	0.124978	0.183429	0.338675	0.265335	0.430804	0.278350	1.026744	1.042769	0.598831	0.472316	0.179020	0.037731	0.220743	0.116600	0.837393	1.152022	0.165231	0.216644	0.079581	0.056680	0.212172	0.175532	0.735049	0.873337	0.260882	0.215034	0.145073	0.058679	0.209162	0.371369	0.652374	0.497963	0.228947	0.115477	0.215902	0.181865	0.445764	0.318555	0.308918	0.236089	0.213758	0.253397	0.812092	0.806405
76	1.046832	0.827663	0.416897	0.083379	0.127053	0.191863	0.324401	0.253987	0.314138	0.203555	1.033551	1.059185	0.585853	0.309059	0.177664	0.040911	0.214337	0.117080	0.816224	1.139564	0.133011	0.176782	0.076292	0.056221	0.245625	0.226453	0.672336	0.782929	0.237819	0.206256	0.144609	0.059245	0.189983	0.374393	0.644752	0.492356	0.229057	0.130199	0.213253	0.173954	0.458004	0.329701	0.313173	0.248567	0.220911	0.266311	0.812586	0.807665
77	1.103138	0.818696	0.425086	0.093130	0.181865	0.201035	0.306222	0.240358	0.333720	0.211630	1.031874	1.058435	0.557791	0.272208	0.174932	0.048482	0.209325	0.117861	0.682497	1.079702	0.107706	0.121924	0.085459	0.051472	0.271710	0.256720	0.614179	0.703174	0.241750	0.227969	0.121526	0.057607	0.150733	0.365805	0.655564	0.477930	0.208483	0.154100	0.199503	0.156861	0.461442	0.335932	0.316825	0.253192	0.278904	0.270756	0.808836	0.805823
78	1.086418	0.804587	0.383221	0.092254	0.208747	0.205802	0.296516	0.228239	0.300357	0.195288	1.029929	1.058478	0.297786	0.253181	0.178260	0.059258	0.157198	0.107739	0.601258	1.005036	0.097914	0.084050	0.143763	0.067527	0.275880	0.278736	0.558203	0.646314	0.255194	0.234944	0.092749	0.054256	0.143430	0.358305	0.687201	0.486639	0.187764	0.162027	0.210999	0.156129	0.452467	0.333746	0.307709	0.268476	0.317703	0.286208	0.786456	0.790152
79	1.060265	0.798226	0.359546	0.091243	0.244340	0.220365	0.295544	0.217644	0.262219	0.203512	1.017865	1.059530	0.258647	0.252198	0.178442	0.064479	0.096644	0.073366	0.645003	1.029424	0.099056	0.076324	0.185315	0.112754	0.271365	0.286048	0.529184	0.604567	0.244667	0.240328	0.078519	0.054224	0.151139	0.354316	0.698883	0.514898	0.179248	0.230101	0.232126	0.166131	0.449291	0.350211	0.330583	0.310346	0.326205	0.295515	0.736251	0.744245
80	1.028359	0.790242	0.355467	0.091631	0.308750	0.219591	0.295656	0.215854	0.220878	0.230614	1.006385	1.061111	0.235801	0.260930	0.176340	0.066634	0.103063	0.055872	0.661138	1.133858	0.096796	0.078611	0.199093	0.161818	0.269477	0.281238	0.524932	0.585152	0.239734	0.266327	0.079049	0.054376	0.153560	0.356049	0.703381	0.539749	0.185761	0.231437	0.243074	0.175608	0.449417	0.353175	0.359623	0.336902	0.325998	0.295948	0.623764	0.664886
81	0.903573	0.790112	0.359993	0.091759	0.325278	0.235977	0.292291	0.215696	0.222220	0.239095	0.971815	1.047608	0.168979	0.246085	0.168943	0.066713	0.163115	0.071714	0.600899	1.194753	0.098656	0.082905	0.200309	0.183348	0.279515	0.288083	0.543584	0.594285	0.224322	0.314316	0.083507	0.052247	0.158094	0.349022	0.707024	0.554095	0.133199	0.235874	0.244931	0.178342	0.447723	0.350393	0.395169	0.354472	0.326300	0.295801	0.592808	0.583671
82	0.794139	0.772495	0.363134	0.091961	0.437392	0.240059	0.280340	0.212520	0.227869	0.336126	0.920486	1.001049	0.095126	0.235601	0.166145	0.066725	0.226121	0.094633	0.556054	1.198273	0.104274	0.084339	0.200449	0.185725	0.298627	0.300338	0.573091	0.618665	0.235739	0.333469	0.086477	0.050373	0.179205	0.355206	0.711931	0.568933	0.117875	0.237318	0.240984	0.177935	0.432893	0.351054	0.380981	0.344941	0.328733	0.294193	0.568389	0.574424
83	0.784348	0.790986	0.372918	0.093183	0.458233	0.242593	0.265109	0.202384	0.228453	0.393292	0.862441	0.921625	0.098404	0.234047	0.167191	0.066846	0.265644	0.113291	0.588948	1.196071	0.103355	0.081695	0.200400	0.189476	0.303799	0.311579	0.605317	0.680260	0.262491	0.348220	0.082088	0.045602	0.210237	0.357743	0.732176	0.575994	0.121015	0.250020	0.232890	0.175103	0.367312	0.366149	0.373705	0.318373	0.335469	0.302323	0.463478	0.518714
84	0.803807	0.803094	0.381225	0.093963	0.510422	0.238875	0.248260	0.184374	0.243695	0.399489	0.837713	0.847311	0.091714	0.233770	0.169989	0.066035	0.270317	0.117861	0.547139	1.207747	0.097450	0.077396	0.202734	0.201733	0.307563	0.319219	0.636779	0.743196	0.261129	0.336350	0.074134	0.041575	0.233860	0.354069	0.720462	0.573569	0.120042	0.268109	0.217236	0.169316	0.259481	0.359328	0.380764	0.309657	0.332884	0.288668	0.368515	0.380945
85	0.812855	0.799062	0.376441	0.091391	0.519236	0.236009	0.259758	0.163445	0.290719	0.429472	0.833892	0.832017	0.130977	0.232596	0.170145	0.065126	0.271182	0.125008	0.491294	1.220065	0.102976	0.072360	0.235848	0.216315	0.328348	0.322409	0.647188	0.780278	0.268190	0.335820	0.074752	0.044053	0.234383	0.356315	0.671946	0.571692	0.131796	0.292019	0.193767	0.160222	0.243005	0.359537	0.470348	0.346059	0.304998	0.312582	0.269510	0.225496
86	0.853952	0.781168	0.376168	0.090546	0.531677	0.226275	0.280493	0.154027	0.304475	0.434082	0.778625	0.811157	0.156486	0.243624	0.154108	0.062011	0.283288	0.128222	0.472611	1.264733	0.107447	0.070728	0.253372	0.234447	0.340993	0.322392	0.644545	0.796195	0.268914	0.336647	0.075332	0.047101	0.235665	0.362758	0.635838	0.601779	0.145783	0.300158	0.180051	0.139468	0.275201	0.345847	0.697163	0.444318	0.298898	0.284673	0.231141	0.165000
87	0.877530	0.707908	0.374758	0.090497	0.534372	0.238576	0.281874	0.155467	0.301937	0.442218	0.642927	0.718011	0.154562	0.241385	0.125285	0.065209	0.307729	0.129291	0.473639	1.301384	0.099762	0.070960	0.254499	0.241580	0.349430	0.322918	0.630708	0.796269	0.268220	0.337706	0.076751	0.048123	0.235735	0.321762	0.612174	0.643452	0.167325	0.343593	0.175961	0.118877	0.311792	0.383201	0.845466	0.553549	0.305583	0.280789	0.228869	0.154160
88	0.917639	0.647576	0.371021	0.089694	0.551152	0.281828	0.277362	0.146287	0.319582	0.458373	0.562697	0.615400	0.154124	0.235867	0.126547	0.080201	0.332450	0.130948	0.472076	1.312788	0.095222	0.065517	0.256192	0.243423	0.350692	0.318316	0.611031	0.785312	0.267129	0.342107	0.094040	0.047800	0.240251	0.263956	0.605221	0.636345	0.179329	0.359581	0.175605	0.106607	0.334198	0.373708	0.885317	0.660374	0.259573	0.280326	0.229695	0.153576
89	0.926553	0.628265	0.364964	0.086518	0.548560	0.272426	0.263717	0.134772	0.337865	0.463442	0.525392	0.565700	0.156566	0.225297	0.128870	0.093979	0.340742	0.136360	0.477926	1.311760	0.099376	0.064837	0.240575	0.243185	0.343826	0.311260	0.591392	0.765880	0.266916	0.349307	0.115448	0.048436	0.251453	0.274164	0.611471	0.629499	0.179227	0.350874	0.176434	0.106025	0.340800	0.387500	0.886578	0.712360	0.207294	0.267520	0.227559	0.153482
90	0.927831	0.609922	0.367105	0.085850	0.547804	0.271128	0.235380	0.117813	0.329101	0.468257	0.516866	0.588286	0.156885	0.190645	0.134832	0.094477	0.346164	0.152620	0.484054	1.307537	0.098253	0.062417	0.204407	0.231631	0.334605	0.320174	0.561550	0.742896	0.266454	0.366853	0.129062	0.054145	0.259546	0.280403	0.604374	0.637790	0.178842	0.354492	0.179263	0.105130	0.366685	0.405432	0.884807	0.705186	0.187037	0.262400	0.218298	0.151086
91	0.946037	0.608322	0.374953	0.091328	0.550222	0.278556	0.214867	0.102456	0.310346	0.466992	0.511307	0.596457	0.158452	0.192854	0.132855	0.088445	0.355179	0.188877	0.450123	1.295040	0.106687	0.062658	0.177235	0.203679	0.335828	0.342228	0.558859	0.715899	0.264491	0.374429	0.135740	0.060807	0.258874	0.282861	0.583793	0.655037	0.192785	0.359756	0.161796	0.100757	0.405729	0.428254	0.909131	0.713311	0.186039	0.275829	0.171344	0.140745
92	0.950893	0.607666	0.368368	0.096026	0.552144	0.283138	0.213063	0.097000	0.308889	0.496410	0.497029	0.599001	0.158934	0.131573	0.131070	0.091462	0.366462	0.254225	0.372810	1.242370	0.111738	0.064372	0.177013	0.174308	0.350698	0.355542	0.579842	0.699035	0.269077	0.387062	0.140591	0.067273	0.253815	0.294264	0.576972	0.656255	0.192195	0.315055	0.134004	0.098556	0.429706	0.428607	0.988102	0.801331	0.187734	0.344151	0.121030	0.122542
93	0.952907	0.558347	0.331053	0.092051	0.542638	0.275313	0.212454	0.094364	0.295510	0.514051	0.491309	0.601279	0.156736	0.115696	0.130168	0.098439	0.374895	0.316348	0.348443	1.143719	0.107896	0.062655	0.177750	0.164068	0.348303	0.356675	0.601794	0.710138	0.270530	0.371118	0.159554	0.086968	0.251990	0.317690	0.550390	0.635417	0.182105	0.315238	0.117632	0.103555	0.431497	0.436242	1.053653	0.915575	0.209831	0.368395	0.112277	0.102392
94	0.835886	0.430748	0.254690	0.075361	0.532217	0.313994	0.209303	0.093485	0.297913	0.495770	0.491548	0.600677	0.159965	0.118303	0.128191	0.106964	0.352661	0.330798	0.354748	1.034533	0.112379	0.067391	0.178022	0.162667	0.321816	0.330157	0.618074	0.727095	0.264141	0.369973	0.178249	0.127044	0.249734	0.337805	0.522095	0.605174	0.182180	0.316050	0.126608	0.117148	0.430512	0.431652	1.085048	0.985881	0.212281	0.393861	0.115656	0.080378
95	0.818381	0.421578	0.238207	0.066313	0.521289	0.326963	0.207515	0.091037	0.308878	0.494816	0.624003	0.652761	0.164522	0.121309	0.128114	0.108560	0.321150	0.328847	0.334448	0.954736	0.110260	0.068360	0.179149	0.154387	0.304426	0.310896	0.620489	0.732985	0.254589	0.365849	0.185590	0.167261	0.235538	0.336851	0.505823	0.586932	0.182733	0.315025	0.130502	0.126312	0.440409	0.434172	1.090455	1.003406	0.196140	0.410042	0.112304	0.054956
96	0.809055	0.418055	0.241044	0.066590	0.476763	0.324781	0.205608	0.086399	0.309279	0.446358	0.730272	0.753848	0.167808	0.119413	0.125712	0.108524	0.315413	0.323938	0.271771	0.961025	0.110354	0.068470	0.158306	0.139270	0.300860	0.302971	0.620436	0.729304	0.242894	0.352675	0.184673	0.196384	0.208959	0.354113	0.473642	0.579241	0.180381	0.300265	0.131497	0.127662	0.458109	0.402816	1.084026	1.002381	0.207504	0.389381	0.112381	0.039451
97	0.811886	0.413609	0.267900	0.074360	0.473619	0.317329	0.201870	0.087101	0.342925	0.391493	0.800243	0.850736	0.173261	0.118614	0.120154	0.108479	0.345631	0.323460	0.264167	0.885940	0.097915	0.063462	0.102541	0.123572	0.300382	0.324442	0.631026	0.725021	0.259364	0.296883	0.184380	0.208565	0.180188	0.417791	0.464686	0.577709	0.178230	0.279366	0.140839	0.129377	0.452697	0.392655	1.039296	1.011023	0.211886	0.369432	0.111185	0.037421
98	0.810056	0.366939	0.295733	0.090569	0.384266	0.318460	0.201386	0.088023	0.438451	0.389809	0.843599	0.922484	0.137995	0.124125	0.118312	0.108040	0.351013	0.338835	0.252819	0.739824	0.097250	0.060204	0.105321	0.120488	0.296801	0.361943	0.643876	0.727599	0.243685	0.277961	0.200984	0.210299	0.185828	0.478137	0.461429	0.561149	0.165069	0.261726	0.145770	0.133314	0.410518	0.333752	0.980846	1.024061	0.194067	0.364812	0.110788	0.037277
99	0.802349	0.355911	0.293775	0.115670	0.344797	0.322082	0.198595	0.087699	0.457674	0.411143	0.853952	0.957088	0.129006	0.114843	0.126390	0.108825	0.342679	0.385848	0.331664	0.666209	0.103573	0.060009	0.113392	0.132110	0.290642	0.393733	0.663300	0.723285	0.216260	0.250196	0.227925	0.213295	0.214254	0.554432	0.428243	0.491120	0.157015	0.237268	0.151383	0.154155	0.364805	0.334665	0.925245	0.993251	0.187219	0.366998	0.108589	0.037396
100	0.799478	0.288575	0.289369	0.140272	0.266887	0.333544	0.196784	0.087072	0.450366	0.409344	0.851591	0.961492	0.173646	0.117793	0.116559	0.105068	0.319997	0.425531	0.395870	0.647623	0.101723	0.063314	0.113968	0.129483	0.287800	0.416387	0.656913	0.705092	0.207477	0.312811	0.245707	0.242027	0.233764	0.593844	0.376167	0.388040	0.124066	0.182280	0.170995	0.178546	0.358081	0.328812	0.944045	0.942360	0.187653	0.376079	0.115728	0.037914
101	0.780760	0.246695	0.289296	0.165471	0.247261	0.336010	0.180689	0.085221	0.449632	0.405850	0.831958	0.942744	0.199298	0.112678	0.110317	0.092875	0.296143	0.432219	0.409985	0.635358	0.102305	0.064375	0.126673	0.138394	0.300469	0.426815	0.638891	0.646613	0.198966	0.348111	0.258116	0.281070	0.219161	0.604897	0.289254	0.346206	0.110913	0.156234	0.188155	0.195984	0.354238	0.300269	0.969461	0.976864	0.186323	0.387113	0.142604	0.040121
