	115_F_P_sh_R_D_A_01.c3d	115_F_P_sh_R_D_A_01.c3d	115_F_P_sh_R_D_A_01.c3d	115_F_P_sh_R_D_A_01.c3d	115_F_P_sh_R_D_A_01.c3d	115_F_P_sh_R_D_A_01.c3d	115_F_P_sh_R_D_A_01.c3d	115_F_P_sh_R_D_A_01.c3d	115_F_P_sh_R_D_A_03.c3d	115_F_P_sh_R_D_A_03.c3d	115_F_P_sh_R_D_A_03.c3d	115_F_P_sh_R_D_A_03.c3d	115_F_P_sh_R_D_A_03.c3d	115_F_P_sh_R_D_A_03.c3d	115_F_P_sh_R_D_A_03.c3d	115_F_P_sh_R_D_A_03.c3d	115_F_P_sh_R_D_A_05.c3d	115_F_P_sh_R_D_A_05.c3d	115_F_P_sh_R_D_A_05.c3d	115_F_P_sh_R_D_A_05.c3d	115_F_P_sh_R_D_A_05.c3d	115_F_P_sh_R_D_A_05.c3d	115_F_P_sh_R_D_A_05.c3d	115_F_P_sh_R_D_A_05.c3d	115_F_P_sh_R_D_A_06.c3d	115_F_P_sh_R_D_A_06.c3d	115_F_P_sh_R_D_A_06.c3d	115_F_P_sh_R_D_A_06.c3d	115_F_P_sh_R_D_A_06.c3d	115_F_P_sh_R_D_A_06.c3d	115_F_P_sh_R_D_A_06.c3d	115_F_P_sh_R_D_A_06.c3d	115_F_P_sh_R_D_A_07.c3d	115_F_P_sh_R_D_A_07.c3d	115_F_P_sh_R_D_A_07.c3d	115_F_P_sh_R_D_A_07.c3d	115_F_P_sh_R_D_A_07.c3d	115_F_P_sh_R_D_A_07.c3d	115_F_P_sh_R_D_A_07.c3d	115_F_P_sh_R_D_A_07.c3d	115_F_P_sh_R_D_A_08.c3d	115_F_P_sh_R_D_A_08.c3d	115_F_P_sh_R_D_A_08.c3d	115_F_P_sh_R_D_A_08.c3d	115_F_P_sh_R_D_A_08.c3d	115_F_P_sh_R_D_A_08.c3d	115_F_P_sh_R_D_A_08.c3d	115_F_P_sh_R_D_A_08.c3d	115_F_P_sh_R_D_A_09.c3d	115_F_P_sh_R_D_A_09.c3d	115_F_P_sh_R_D_A_09.c3d	115_F_P_sh_R_D_A_09.c3d	115_F_P_sh_R_D_A_09.c3d	115_F_P_sh_R_D_A_09.c3d	115_F_P_sh_R_D_A_09.c3d	115_F_P_sh_R_D_A_09.c3d	115_F_P_sh_R_D_A_10.c3d	115_F_P_sh_R_D_A_10.c3d	115_F_P_sh_R_D_A_10.c3d	115_F_P_sh_R_D_A_10.c3d	115_F_P_sh_R_D_A_10.c3d	115_F_P_sh_R_D_A_10.c3d	115_F_P_sh_R_D_A_10.c3d	115_F_P_sh_R_D_A_10.c3d
	Biceps femoris_lat	Semitendinosus_lat	Vastus lateralis_lat	Vastus medialis_lat	Biceps femoris_med	Semitendinosus_med	Vastus lateralis_med	Vastus medialis_med	Biceps femoris_lat	Semitendinosus_lat	Vastus lateralis_lat	Vastus medialis_lat	Biceps femoris_med	Semitendinosus_med	Vastus lateralis_med	Vastus medialis_med	Biceps femoris_lat	Semitendinosus_lat	Vastus lateralis_lat	Vastus medialis_lat	Biceps femoris_med	Semitendinosus_med	Vastus lateralis_med	Vastus medialis_med	Biceps femoris_lat	Semitendinosus_lat	Vastus lateralis_lat	Vastus medialis_lat	Biceps femoris_med	Semitendinosus_med	Vastus lateralis_med	Vastus medialis_med	Biceps femoris_lat	Semitendinosus_lat	Vastus lateralis_lat	Vastus medialis_lat	Biceps femoris_med	Semitendinosus_med	Vastus lateralis_med	Vastus medialis_med	Biceps femoris_lat	Semitendinosus_lat	Vastus lateralis_lat	Vastus medialis_lat	Biceps femoris_med	Semitendinosus_med	Vastus lateralis_med	Vastus medialis_med	Biceps femoris_lat	Semitendinosus_lat	Vastus lateralis_lat	Vastus medialis_lat	Biceps femoris_med	Semitendinosus_med	Vastus lateralis_med	Vastus medialis_med	Biceps femoris_lat	Semitendinosus_lat	Vastus lateralis_lat	Vastus medialis_lat	Biceps femoris_med	Semitendinosus_med	Vastus lateralis_med	Vastus medialis_med
	P2D	P2D	P2D	P2D	P2D	P2D	P2D	P2D	P2D	P2D	P2D	P2D	P2D	P2D	P2D	P2D	P2D	P2D	P2D	P2D	P2D	P2D	P2D	P2D	P2D	P2D	P2D	P2D	P2D	P2D	P2D	P2D	P2D	P2D	P2D	P2D	P2D	P2D	P2D	P2D	P2D	P2D	P2D	P2D	P2D	P2D	P2D	P2D	P2D	P2D	P2D	P2D	P2D	P2D	P2D	P2D	P2D	P2D	P2D	P2D	P2D	P2D	P2D	P2D
	EMG_lat	EMG_lat	EMG_lat	EMG_lat	EMG_med	EMG_med	EMG_med	EMG_med	EMG_lat	EMG_lat	EMG_lat	EMG_lat	EMG_med	EMG_med	EMG_med	EMG_med	EMG_lat	EMG_lat	EMG_lat	EMG_lat	EMG_med	EMG_med	EMG_med	EMG_med	EMG_lat	EMG_lat	EMG_lat	EMG_lat	EMG_med	EMG_med	EMG_med	EMG_med	EMG_lat	EMG_lat	EMG_lat	EMG_lat	EMG_med	EMG_med	EMG_med	EMG_med	EMG_lat	EMG_lat	EMG_lat	EMG_lat	EMG_med	EMG_med	EMG_med	EMG_med	EMG_lat	EMG_lat	EMG_lat	EMG_lat	EMG_med	EMG_med	EMG_med	EMG_med	EMG_lat	EMG_lat	EMG_lat	EMG_lat	EMG_med	EMG_med	EMG_med	EMG_med
ITEM	Y	Y	Y	Y	Y	Y	Y	Y	Y	Y	Y	Y	Y	Y	Y	Y	Y	Y	Y	Y	Y	Y	Y	Y	Y	Y	Y	Y	Y	Y	Y	Y	Y	Y	Y	Y	Y	Y	Y	Y	Y	Y	Y	Y	Y	Y	Y	Y	Y	Y	Y	Y	Y	Y	Y	Y	Y	Y	Y	Y	Y	Y	Y	Y
1	0.211273	0.350739	0.157901	0.167785	0.183970	0.270338	0.193934	0.149928	0.417615	0.174964	0.138923	0.145352	0.201779	0.306057	0.139483	0.126913	0.183586	0.202912	0.107535	0.247790	0.097863	0.600321	0.240695	0.356403	0.291961	0.307388	0.097013	0.236398	0.526727	0.376753	0.066711	0.136815	0.181585	0.438781	0.063255	0.147313	0.379581	0.663216	0.122837	0.279384	0.182002	0.155290	0.223019	0.158965	0.491046	0.086545	0.081223	0.092460	0.127781	0.099384	0.278258	0.255423	0.341622	0.326798	0.064211	0.144276	0.238000	0.302485	0.157092	0.260601	0.136736	0.320532	0.243972	0.256929
2	0.227427	0.322325	0.156515	0.176305	0.162174	0.311235	0.201022	0.106888	0.433938	0.183101	0.138468	0.135008	0.234489	0.310044	0.144223	0.131510	0.180727	0.183753	0.109923	0.269737	0.109248	0.612994	0.238326	0.335327	0.301185	0.310534	0.104606	0.230906	0.520485	0.376065	0.067200	0.140165	0.170153	0.441926	0.072906	0.151217	0.373016	0.724612	0.123749	0.282991	0.201501	0.161594	0.207059	0.159046	0.490438	0.123338	0.096602	0.087149	0.124128	0.085579	0.269097	0.276651	0.320856	0.367371	0.061700	0.144417	0.308500	0.327777	0.135215	0.248722	0.132046	0.303577	0.267512	0.291581
3	0.259402	0.233929	0.157635	0.189614	0.138223	0.353181	0.173323	0.094250	0.439197	0.185966	0.135767	0.136582	0.250602	0.303248	0.137811	0.131385	0.194831	0.192686	0.115595	0.258570	0.134777	0.635404	0.238039	0.300333	0.295990	0.294248	0.103791	0.203309	0.463851	0.336162	0.072606	0.138642	0.158167	0.422252	0.091055	0.164897	0.414226	0.639872	0.118391	0.271485	0.248359	0.169414	0.179305	0.122943	0.490141	0.209575	0.117830	0.098174	0.124608	0.093453	0.213185	0.278040	0.332863	0.348245	0.066681	0.167526	0.332747	0.337911	0.144157	0.247263	0.111124	0.307765	0.296184	0.308330
4	0.247373	0.205308	0.149616	0.225995	0.163265	0.338910	0.157553	0.081817	0.428066	0.175000	0.108130	0.140309	0.237089	0.267689	0.126734	0.131525	0.199746	0.203104	0.115487	0.251555	0.144701	0.640550	0.233102	0.290294	0.295886	0.270265	0.102909	0.183567	0.463695	0.341607	0.087326	0.135652	0.154489	0.410889	0.120732	0.170618	0.436796	0.571391	0.110764	0.243048	0.258729	0.165465	0.165415	0.056296	0.483090	0.236311	0.137629	0.163031	0.123954	0.112320	0.206720	0.248708	0.360616	0.341089	0.062269	0.181460	0.375763	0.391042	0.178018	0.247038	0.080490	0.299163	0.303406	0.311365
5	0.231431	0.200157	0.148557	0.259295	0.159582	0.357734	0.142610	0.105042	0.406587	0.152520	0.086501	0.190129	0.263561	0.224476	0.131015	0.132697	0.192032	0.210436	0.127850	0.331464	0.154622	0.636085	0.227276	0.291393	0.280079	0.266282	0.102637	0.263658	0.407054	0.292904	0.129701	0.146934	0.178722	0.405381	0.121943	0.187576	0.476407	0.438846	0.111251	0.236748	0.266175	0.167224	0.092373	0.043571	0.453970	0.238806	0.133419	0.228571	0.121493	0.174988	0.159376	0.263803	0.317783	0.309603	0.090804	0.181674	0.490066	0.411969	0.203006	0.247840	0.085304	0.284126	0.311071	0.311578
6	0.236983	0.202417	0.154839	0.271729	0.160350	0.360928	0.139201	0.112586	0.403992	0.140792	0.093390	0.338051	0.268215	0.232532	0.144795	0.134815	0.209020	0.279677	0.129769	0.451318	0.168597	0.607310	0.222966	0.291411	0.284354	0.266991	0.085282	0.313470	0.334445	0.276768	0.146618	0.196396	0.185755	0.403962	0.144863	0.192715	0.486673	0.434307	0.117902	0.219041	0.298942	0.200617	0.055437	0.147274	0.413617	0.239014	0.136224	0.231081	0.161405	0.182720	0.126869	0.355262	0.219944	0.307229	0.092564	0.184186	0.501442	0.416104	0.189407	0.276244	0.081196	0.324222	0.306907	0.278096
7	0.254974	0.200002	0.168171	0.274352	0.160972	0.414161	0.131342	0.117396	0.350799	0.152013	0.164732	0.373449	0.275663	0.189946	0.157814	0.157998	0.236143	0.283130	0.163255	0.459926	0.188558	0.545246	0.212654	0.265616	0.317374	0.288107	0.089309	0.314338	0.327690	0.266527	0.148636	0.246291	0.177331	0.386612	0.160328	0.203609	0.487269	0.421241	0.116118	0.171275	0.300355	0.203276	0.040580	0.227296	0.410352	0.238347	0.156140	0.249848	0.177419	0.198808	0.119048	0.389798	0.209849	0.321189	0.108561	0.188240	0.500213	0.419586	0.184726	0.291504	0.080479	0.228217	0.298445	0.273747
8	0.267330	0.197134	0.172882	0.274565	0.161026	0.425743	0.093336	0.120355	0.264305	0.155752	0.222739	0.379437	0.299523	0.212749	0.164361	0.212361	0.234451	0.296249	0.251122	0.451046	0.209165	0.525788	0.204460	0.185148	0.316631	0.296383	0.125102	0.303662	0.336712	0.265330	0.156174	0.252694	0.174998	0.338343	0.158941	0.210164	0.468475	0.420153	0.123313	0.115756	0.306541	0.191068	0.029119	0.239219	0.377112	0.256920	0.157960	0.247871	0.202487	0.267587	0.131565	0.387636	0.208154	0.317661	0.109768	0.185785	0.492169	0.400100	0.181009	0.283613	0.121377	0.239080	0.277736	0.273287
9	0.349395	0.208510	0.166183	0.275411	0.162417	0.453801	0.092936	0.123536	0.257593	0.151544	0.270055	0.413502	0.327981	0.246155	0.161214	0.229909	0.245323	0.298615	0.338336	0.466380	0.216434	0.523505	0.203479	0.117557	0.311395	0.273407	0.154142	0.334388	0.283381	0.303941	0.211739	0.272681	0.163831	0.271832	0.167250	0.189457	0.450532	0.315819	0.119917	0.118623	0.338516	0.177618	0.037658	0.252025	0.152432	0.276880	0.173603	0.285297	0.257829	0.272685	0.209061	0.371169	0.226900	0.314379	0.121470	0.185067	0.456029	0.344766	0.176080	0.190976	0.159100	0.244648	0.239821	0.268496
10	0.377770	0.213353	0.152049	0.274723	0.174018	0.475426	0.090365	0.125590	0.243076	0.144373	0.316510	0.432312	0.355360	0.237442	0.172289	0.244285	0.248819	0.299811	0.377943	0.509192	0.273019	0.524622	0.186197	0.104656	0.328128	0.239091	0.153591	0.433912	0.188826	0.308898	0.306688	0.298104	0.150317	0.259855	0.223543	0.185658	0.409426	0.171694	0.113897	0.164023	0.348057	0.187036	0.044386	0.256333	0.149756	0.286187	0.239517	0.308902	0.374883	0.272749	0.303855	0.370957	0.262517	0.317024	0.123660	0.173552	0.415365	0.316747	0.216448	0.182248	0.237853	0.251798	0.204744	0.192928
11	0.415693	0.222220	0.151411	0.246120	0.169178	0.470384	0.109460	0.172927	0.213112	0.132512	0.339803	0.432854	0.374507	0.238143	0.236459	0.312899	0.256169	0.302947	0.437181	0.507500	0.321473	0.506648	0.142606	0.111850	0.332401	0.225175	0.155450	0.469620	0.205165	0.323758	0.315225	0.312514	0.146201	0.168504	0.251777	0.213161	0.383205	0.134391	0.115171	0.175026	0.384648	0.203536	0.054516	0.275137	0.146444	0.275258	0.260930	0.359412	0.392648	0.273503	0.321157	0.409476	0.306550	0.320744	0.145678	0.163100	0.405315	0.313180	0.242107	0.201515	0.294052	0.284822	0.186230	0.152267
12	0.424551	0.229551	0.133683	0.245764	0.164900	0.417691	0.123872	0.184744	0.191409	0.126853	0.358847	0.444155	0.368940	0.245856	0.246609	0.342588	0.250295	0.295474	0.456392	0.504851	0.345527	0.347101	0.105220	0.143844	0.324909	0.222204	0.157655	0.472035	0.227845	0.327534	0.352444	0.311271	0.176547	0.185214	0.269942	0.240818	0.280674	0.143341	0.113568	0.222911	0.385284	0.200752	0.096963	0.338548	0.143812	0.236431	0.313554	0.370636	0.392736	0.273720	0.338948	0.428116	0.321832	0.303631	0.179022	0.166489	0.371012	0.257661	0.286604	0.208225	0.302063	0.308070	0.161906	0.126037
13	0.652502	0.223857	0.131707	0.254329	0.131492	0.403719	0.125107	0.184603	0.181370	0.117797	0.374719	0.454273	0.349033	0.262877	0.249576	0.343275	0.238108	0.289517	0.456581	0.504540	0.350895	0.344149	0.092122	0.150775	0.274728	0.228675	0.155666	0.482784	0.239300	0.328373	0.367805	0.311027	0.182824	0.246006	0.268337	0.236411	0.252823	0.145329	0.105451	0.222118	0.361334	0.184551	0.178452	0.342410	0.130318	0.190433	0.318233	0.354473	0.391818	0.273100	0.341695	0.437948	0.378968	0.242304	0.184538	0.186212	0.201214	0.233388	0.276280	0.208823	0.308553	0.310623	0.155630	0.125503
14	0.712021	0.238296	0.131693	0.260226	0.099371	0.401996	0.154869	0.177047	0.169131	0.129852	0.378387	0.454153	0.345406	0.306614	0.236169	0.341016	0.228124	0.278704	0.452155	0.501511	0.358152	0.310438	0.123274	0.150711	0.269398	0.230441	0.168278	0.499866	0.375596	0.320821	0.371991	0.310685	0.199270	0.346890	0.259952	0.294197	0.319697	0.178486	0.105197	0.259126	0.357680	0.182751	0.293965	0.364960	0.114100	0.227010	0.319574	0.308375	0.391217	0.268853	0.345883	0.441896	0.400280	0.193176	0.201849	0.187861	0.170089	0.262869	0.275177	0.213445	0.306374	0.330403	0.145494	0.122044
15	0.712452	0.274387	0.130473	0.262267	0.108531	0.385039	0.167491	0.169720	0.164298	0.164970	0.379232	0.370232	0.326150	0.280645	0.227431	0.367009	0.216481	0.225087	0.450777	0.393309	0.380202	0.290469	0.141406	0.151099	0.275624	0.231236	0.180462	0.502186	0.506795	0.321526	0.362971	0.295223	0.182407	0.380060	0.262700	0.339256	0.327187	0.237899	0.127062	0.297222	0.338749	0.172427	0.322725	0.430916	0.115574	0.228985	0.319457	0.303222	0.392657	0.256464	0.348898	0.439914	0.375891	0.189240	0.279528	0.219940	0.173226	0.277838	0.275048	0.192141	0.357987	0.325778	0.143611	0.146546
16	0.703677	0.309222	0.130388	0.234363	0.112888	0.362720	0.173968	0.169639	0.126294	0.190394	0.362571	0.289072	0.324250	0.295392	0.243821	0.373445	0.166524	0.219060	0.447713	0.320903	0.382631	0.317639	0.154053	0.152838	0.279301	0.221312	0.179980	0.485369	0.516543	0.319701	0.359237	0.242372	0.195098	0.402622	0.255448	0.345173	0.345237	0.305263	0.164097	0.298621	0.326717	0.133360	0.414548	0.442140	0.113421	0.233404	0.308695	0.291904	0.400981	0.221366	0.365110	0.414600	0.397997	0.190444	0.295175	0.241573	0.216448	0.261002	0.284933	0.189926	0.365243	0.327466	0.143655	0.184460
17	0.702762	0.323933	0.128743	0.195411	0.127579	0.339873	0.172362	0.162293	0.135304	0.176962	0.322075	0.282291	0.293311	0.270202	0.239279	0.359186	0.147905	0.258305	0.431241	0.315258	0.396519	0.377633	0.201002	0.154022	0.267105	0.212737	0.178990	0.446764	0.513158	0.311557	0.358127	0.227446	0.230227	0.426122	0.258190	0.362887	0.347950	0.334353	0.164977	0.284695	0.310121	0.131412	0.442573	0.434032	0.106732	0.222921	0.307094	0.292455	0.389252	0.219327	0.369763	0.339352	0.595469	0.175203	0.301386	0.234680	0.231944	0.241978	0.292811	0.192497	0.353897	0.318442	0.145773	0.192323
18	0.701848	0.330386	0.127332	0.161291	0.144473	0.329961	0.210588	0.225414	0.157914	0.173687	0.279880	0.250953	0.220928	0.302895	0.221994	0.364729	0.144214	0.256740	0.366553	0.295835	0.421536	0.445008	0.202261	0.198087	0.228460	0.197192	0.183417	0.435084	0.510139	0.247835	0.345750	0.207656	0.278244	0.427984	0.289703	0.405053	0.343360	0.337542	0.166725	0.263298	0.265363	0.144710	0.443419	0.444589	0.097926	0.205600	0.299634	0.263993	0.384857	0.170679	0.369033	0.315797	0.765890	0.151095	0.298105	0.226097	0.227646	0.252236	0.267702	0.189702	0.335640	0.326914	0.121519	0.195810
19	0.699484	0.332484	0.101990	0.150057	0.151652	0.287452	0.282381	0.275048	0.209891	0.181848	0.246034	0.223204	0.184219	0.326844	0.164780	0.331249	0.134968	0.263212	0.325942	0.218877	0.409492	0.461652	0.200270	0.209520	0.197754	0.174699	0.196568	0.434586	0.535628	0.236279	0.276378	0.145940	0.282625	0.444191	0.308718	0.437761	0.307082	0.486522	0.167882	0.260828	0.228821	0.164064	0.452616	0.439548	0.080965	0.339511	0.248274	0.247284	0.382873	0.089055	0.361582	0.315186	0.784647	0.134956	0.297545	0.225888	0.212071	0.254952	0.245997	0.168796	0.298790	0.317953	0.118694	0.196197
20	0.689534	0.338051	0.071459	0.158821	0.153008	0.314074	0.293841	0.269360	0.250204	0.185541	0.209075	0.244071	0.177102	0.329980	0.142119	0.307760	0.112088	0.358880	0.233865	0.275220	0.412506	0.464503	0.200725	0.231629	0.195352	0.165499	0.166752	0.425577	0.584142	0.284200	0.227099	0.101158	0.297893	0.454511	0.277613	0.439751	0.317337	0.518006	0.168364	0.227781	0.200102	0.181273	0.475554	0.448738	0.097475	0.465385	0.234977	0.217551	0.324014	0.109980	0.311976	0.314910	0.782278	0.126447	0.293531	0.226628	0.207444	0.250089	0.144838	0.156199	0.246011	0.272458	0.105070	0.193719
21	0.660421	0.368340	0.058126	0.178650	0.170859	0.373939	0.278321	0.249947	0.269405	0.203687	0.239669	0.229882	0.181688	0.349773	0.194985	0.303247	0.101533	0.384679	0.165476	0.461395	0.404935	0.473508	0.199705	0.326574	0.170708	0.163337	0.160976	0.353001	0.595776	0.344949	0.181878	0.078655	0.326158	0.465264	0.272162	0.488950	0.251790	0.515113	0.168893	0.217455	0.080045	0.163581	0.475635	0.442288	0.116638	0.493980	0.145229	0.189282	0.212439	0.112100	0.232800	0.291088	0.951524	0.111745	0.295985	0.226336	0.212847	0.242519	0.131077	0.169485	0.229288	0.270865	0.093601	0.197689
22	0.643735	0.380279	0.093646	0.203873	0.203721	0.448646	0.274620	0.249370	0.274894	0.214906	0.275237	0.209767	0.179996	0.328369	0.250726	0.303484	0.158005	0.428531	0.216174	0.472928	0.366016	0.476603	0.199238	0.398023	0.152504	0.206210	0.164737	0.263079	0.585972	0.445570	0.133574	0.089172	0.328752	0.456146	0.269724	0.549188	0.228743	0.505020	0.168523	0.168149	0.051408	0.178288	0.462122	0.434186	0.143293	0.635868	0.096214	0.189412	0.201612	0.111009	0.203736	0.230246	1.024652	0.104257	0.290062	0.219498	0.211526	0.211199	0.131852	0.208963	0.226003	0.268338	0.083175	0.201391
23	0.610628	0.395894	0.149606	0.214881	0.207948	0.455165	0.271585	0.249413	0.283651	0.211884	0.302866	0.191446	0.163632	0.343250	0.320133	0.293897	0.213676	0.429102	0.299207	0.499913	0.308251	0.462502	0.202619	0.399656	0.153778	0.218291	0.166245	0.360367	0.560315	0.443593	0.081292	0.117013	0.322221	0.425952	0.316087	0.544630	0.204327	0.482347	0.106099	0.139427	0.051364	0.218655	0.419356	0.430283	0.227502	0.626287	0.090299	0.206691	0.223789	0.123808	0.182824	0.205564	1.025082	0.117535	0.272421	0.213927	0.208470	0.195343	0.152177	0.232109	0.222345	0.228558	0.083778	0.225342
24	0.600985	0.377239	0.177426	0.220643	0.208273	0.480023	0.252365	0.270695	0.286849	0.205317	0.340200	0.191527	0.159532	0.348057	0.317133	0.215184	0.270323	0.428707	0.338177	0.540107	0.300206	0.453653	0.201887	0.396668	0.152151	0.197535	0.231104	0.471902	0.433001	0.446009	0.046678	0.129073	0.314652	0.365338	0.400128	0.504584	0.182938	0.439312	0.086125	0.145070	0.048862	0.234856	0.361407	0.380674	0.258826	0.626119	0.097247	0.214734	0.247377	0.132502	0.173932	0.192987	1.064034	0.123052	0.270441	0.196128	0.179974	0.194830	0.148169	0.238006	0.113167	0.201161	0.083056	0.210289
25	0.490366	0.382776	0.218618	0.222432	0.209749	0.522072	0.251428	0.345831	0.289469	0.189350	0.394160	0.193577	0.129071	0.345285	0.310400	0.200283	0.299544	0.423273	0.356956	0.586744	0.293979	0.449766	0.203697	0.393126	0.142994	0.281231	0.305758	0.458594	0.397473	0.496768	0.056433	0.149011	0.309194	0.374665	0.444940	0.487466	0.183366	0.430534	0.106464	0.185802	0.054444	0.249554	0.314358	0.298209	0.261480	0.627465	0.132952	0.215488	0.246960	0.138418	0.157790	0.193290	1.053282	0.154809	0.256251	0.187348	0.161208	0.185216	0.158317	0.247805	0.082514	0.188678	0.112850	0.171154
26	0.234397	0.377163	0.233898	0.220310	0.206084	0.513256	0.268798	0.363460	0.291264	0.223411	0.416673	0.197916	0.116572	0.318972	0.309405	0.175617	0.311445	0.425572	0.458215	0.609747	0.270167	0.441528	0.197802	0.396404	0.171155	0.362204	0.341521	0.478962	0.413679	0.504355	0.092548	0.146758	0.311008	0.333460	0.496305	0.492098	0.209394	0.378898	0.164454	0.197453	0.089668	0.253875	0.205680	0.275225	0.293272	0.625788	0.145162	0.211731	0.249133	0.143370	0.132583	0.257372	1.056479	0.177853	0.165429	0.168777	0.155235	0.176546	0.162795	0.248647	0.080786	0.189394	0.110251	0.166365
27	0.105536	0.378197	0.266709	0.210551	0.198898	0.506403	0.285918	0.364127	0.278550	0.231344	0.425850	0.197362	0.087777	0.290672	0.309210	0.159578	0.370808	0.448643	0.502261	0.616635	0.233072	0.428764	0.210572	0.460169	0.162645	0.363451	0.362273	0.505193	0.497101	0.505149	0.115621	0.147720	0.258429	0.355336	0.547047	0.477109	0.237050	0.282925	0.268260	0.201684	0.123372	0.251725	0.197584	0.260845	0.371531	0.625515	0.214478	0.227431	0.236466	0.159399	0.082091	0.263573	1.046765	0.171773	0.120290	0.172332	0.165420	0.212921	0.164555	0.249064	0.076063	0.151675	0.113170	0.170360
28	0.102591	0.418595	0.279179	0.230532	0.186550	0.495194	0.272466	0.350380	0.253779	0.241044	0.429922	0.173048	0.089267	0.276265	0.308378	0.139127	0.380125	0.478004	0.511510	0.617355	0.231062	0.400423	0.185073	0.502379	0.159012	0.363206	0.368030	0.509959	0.480452	0.503028	0.129471	0.147101	0.234059	0.347199	0.543377	0.446580	0.230884	0.271960	0.360970	0.193889	0.123331	0.247999	0.187242	0.248157	0.371465	0.573946	0.260158	0.230789	0.217846	0.158657	0.071527	0.305072	0.958685	0.169470	0.104531	0.189275	0.165192	0.231365	0.220529	0.258021	0.047005	0.170816	0.115772	0.179577
29	0.105347	0.500444	0.279443	0.237726	0.177294	0.487077	0.241535	0.344114	0.201005	0.248585	0.426812	0.130929	0.080484	0.268353	0.283034	0.121951	0.417084	0.719282	0.510222	0.615097	0.199750	0.335256	0.174350	0.499748	0.158768	0.360822	0.457969	0.504618	0.427740	0.492277	0.140418	0.167936	0.231618	0.323303	0.535840	0.431677	0.233270	0.278353	0.411640	0.188029	0.136422	0.224814	0.128101	0.248422	0.367745	0.464209	0.261153	0.253616	0.210038	0.155703	0.091209	0.362089	0.847574	0.175557	0.099062	0.191446	0.157251	0.234531	0.234711	0.298178	0.044689	0.177494	0.127614	0.187018
30	0.109002	0.504236	0.283528	0.236339	0.165930	0.463911	0.307575	0.362433	0.147417	0.261260	0.406693	0.502191	0.080833	0.194724	0.271043	0.129115	0.421063	0.827457	0.509567	0.504795	0.171637	0.225030	0.178113	0.491382	0.160386	0.355888	0.548603	0.506178	0.374842	0.439217	0.176532	0.189862	0.202825	0.301412	0.532552	0.425723	0.233881	0.270689	0.485266	0.197248	0.217122	0.222251	0.070952	0.200427	0.363326	0.452140	0.256698	0.263951	0.196217	0.146750	0.127533	0.382975	0.844464	0.189266	0.098588	0.203148	0.139684	0.224941	0.313678	0.312768	0.041802	0.225585	0.146128	0.186962
31	0.116794	0.540648	0.297985	0.241943	0.145134	0.420292	0.355024	0.362719	0.140573	0.251273	0.396343	0.666417	0.070347	0.184729	0.170897	0.132981	0.421659	0.819426	0.496171	0.407148	0.176111	0.203496	0.178005	0.502091	0.162081	0.363026	0.579255	0.505725	0.370357	0.352555	0.208912	0.192438	0.129418	0.284671	0.531132	0.301999	0.231280	0.262929	0.505769	0.201113	0.288621	0.237184	0.068529	0.159367	0.357466	0.230153	0.273409	0.284801	0.194743	0.130923	0.137120	0.397905	0.865645	0.185716	0.094103	0.229445	0.128818	0.215137	0.315963	0.309292	0.046483	0.231949	0.216403	0.180256
32	0.127384	0.563903	0.301111	0.247680	0.117649	0.460577	0.365274	0.447681	0.130197	0.290736	0.428127	0.677984	0.087526	0.148595	0.158233	0.172433	0.402627	0.808629	0.460901	0.443869	0.157635	0.182149	0.184449	0.503372	0.162675	0.367821	0.592826	0.512453	0.368827	0.279340	0.233308	0.190692	0.218736	0.254026	0.515403	0.264234	0.230662	0.268317	0.503148	0.200189	0.346436	0.213099	0.065602	0.173698	0.312604	0.246598	0.283624	0.274902	0.170030	0.132035	0.162697	0.401704	0.703600	0.187191	0.087307	0.269075	0.103744	0.201449	0.330032	0.309044	0.050937	0.222605	0.226383	0.190725
33	0.128098	0.561228	0.303550	0.260563	0.121702	0.506128	0.366617	0.483668	0.145928	0.345249	0.519624	0.732320	0.171944	0.094391	0.165842	0.206942	0.376605	0.809561	0.412579	0.443409	0.214316	0.172109	0.188099	0.442214	0.161271	0.354366	0.602417	0.529023	0.367911	0.290356	0.239655	0.211776	0.315063	0.234571	0.480063	0.339630	0.219651	0.258140	0.501283	0.146817	0.357748	0.195531	0.073783	0.185378	0.281331	0.272230	0.286375	0.280516	0.169561	0.130063	0.191121	0.478887	0.612924	0.185044	0.080676	0.285126	0.098022	0.202037	0.320409	0.301590	0.050957	0.242987	0.232915	0.183234
34	0.132705	0.570340	0.320635	0.312681	0.160823	0.492814	0.378197	0.452512	0.175321	0.404890	0.501769	0.821063	0.199656	0.111379	0.171160	0.231489	0.347778	0.809978	0.403484	0.407997	0.217680	0.154210	0.195004	0.399479	0.165147	0.341733	0.603729	0.515123	0.344682	0.248250	0.284507	0.199262	0.349044	0.238756	0.412064	0.403527	0.138509	0.249378	0.479684	0.183083	0.384870	0.181843	0.078680	0.277530	0.287428	0.276657	0.275264	0.284842	0.113441	0.122823	0.195461	0.494838	0.616150	0.177325	0.077353	0.336788	0.165115	0.212857	0.322308	0.300439	0.056686	0.271448	0.253090	0.179709
35	0.137077	0.578270	0.318195	0.345882	0.155805	0.462512	0.450934	0.409969	0.175021	0.481714	0.500712	0.859822	0.349364	0.123396	0.191943	0.358286	0.332919	0.811647	0.411451	0.425120	0.220349	0.147596	0.194235	0.396731	0.200444	0.347467	0.596371	0.392460	0.320497	0.153432	0.300132	0.198860	0.502517	0.207821	0.430761	0.406830	0.094077	0.196537	0.417771	0.238426	0.608426	0.173953	0.104011	0.348769	0.272690	0.285133	0.272629	0.312866	0.084005	0.120833	0.196821	0.533034	0.504447	0.177402	0.071585	0.340393	0.215886	0.188021	0.319783	0.303378	0.073194	0.268973	0.262664	0.196080
36	0.143102	0.583379	0.313916	0.396435	0.151300	0.478804	0.469893	0.466001	0.178792	0.510610	0.537405	0.866405	0.386138	0.177065	0.213316	0.366672	0.298036	0.801157	0.439136	0.504535	0.221294	0.142033	0.199376	0.385563	0.208859	0.356270	0.566684	0.356664	0.212358	0.141164	0.300272	0.226595	0.579667	0.210644	0.382583	0.438099	0.073967	0.195796	0.378754	0.236894	0.647002	0.172330	0.152953	0.356596	0.125363	0.290483	0.268478	0.315382	0.088292	0.151181	0.210116	0.556182	0.502468	0.156098	0.071456	0.336902	0.289994	0.159662	0.282661	0.301650	0.085915	0.274650	0.277154	0.193066
37	0.145484	0.583695	0.333782	0.416979	0.156458	0.489752	0.472262	0.497062	0.184939	0.604149	0.564340	0.868153	0.386371	0.210069	0.213073	0.383268	0.255112	0.780170	0.432726	0.507325	0.223059	0.147197	0.202960	0.384902	0.199777	0.287537	0.536899	0.361623	0.147645	0.152405	0.313255	0.232564	0.600274	0.154364	0.345255	0.463262	0.073172	0.266378	0.285817	0.236383	0.647525	0.163029	0.199218	0.419217	0.119281	0.289301	0.291824	0.369116	0.065556	0.205326	0.295915	0.552323	0.501433	0.129843	0.082377	0.323081	0.330337	0.152928	0.271945	0.281532	0.090608	0.288925	0.277064	0.194218
38	0.142502	0.581232	0.352244	0.413072	0.169866	0.500138	0.452180	0.482444	0.178666	0.652521	0.579087	0.868303	0.389675	0.224163	0.230183	0.394586	0.244500	0.789102	0.429262	0.559413	0.223269	0.158946	0.203989	0.369236	0.259747	0.289452	0.536441	0.366401	0.161593	0.158081	0.319324	0.240006	0.630697	0.164883	0.330065	0.477563	0.089882	0.280015	0.168701	0.289348	0.649700	0.150503	0.269780	0.508645	0.116547	0.290249	0.325354	0.358521	0.072835	0.242595	0.391710	0.574631	0.503876	0.137774	0.083259	0.304090	0.402464	0.154442	0.179982	0.308426	0.101475	0.290265	0.266261	0.214582
39	0.136414	0.579487	0.352198	0.415322	0.171373	0.501994	0.470696	0.475374	0.178838	0.652169	0.581228	0.810970	0.389288	0.220707	0.210372	0.392842	0.170838	0.413601	0.431194	0.621818	0.221622	0.174881	0.188218	0.278598	0.309338	0.293834	0.534845	0.393284	0.160091	0.168484	0.321900	0.302548	0.650617	0.168571	0.393413	0.483962	0.092928	0.277366	0.174040	0.340745	0.640350	0.150181	0.282869	0.544785	0.113968	0.286198	0.387996	0.365564	0.078340	0.262934	0.412519	0.564260	0.496207	0.154899	0.096459	0.293723	0.437942	0.152765	0.181213	0.440245	0.125062	0.257089	0.250093	0.248841
40	0.134280	0.555887	0.336057	0.449170	0.169549	0.530139	0.436020	0.471102	0.178854	0.653327	0.571829	0.609471	0.387475	0.223314	0.240329	0.408253	0.177098	0.365455	0.472324	0.679628	0.216602	0.177730	0.181096	0.234933	0.313407	0.298012	0.517380	0.451520	0.159750	0.187994	0.319105	0.348985	0.658914	0.182582	0.435175	0.484630	0.124667	0.280715	0.170622	0.342427	0.612668	0.142171	0.286791	0.556078	0.112478	0.246270	0.460138	0.349571	0.110328	0.278362	0.426014	0.556487	0.468683	0.155316	0.106377	0.292919	0.449726	0.158945	0.210282	0.479539	0.132981	0.279821	0.215821	0.257005
41	0.146120	0.472316	0.331863	0.476776	0.164555	0.535330	0.411379	0.459268	0.247311	0.647154	0.534504	0.578722	0.368993	0.226215	0.316741	0.407828	0.172230	0.360689	0.549307	0.723062	0.201847	0.207729	0.175467	0.230756	0.321172	0.298452	0.392207	0.526973	0.159739	0.248988	0.299898	0.356507	0.687108	0.200138	0.443024	0.557523	0.164725	0.287169	0.173981	0.350214	0.579468	0.116035	0.326923	0.550829	0.111611	0.218071	0.470339	0.348714	0.131035	0.278217	0.483959	0.576977	0.448340	0.152470	0.125366	0.287726	0.451186	0.178595	0.314164	0.523034	0.141079	0.288161	0.223611	0.227948
42	0.174820	0.406985	0.333003	0.486978	0.170680	0.502821	0.410306	0.371249	0.292629	0.612349	0.457575	0.527872	0.344630	0.221328	0.401205	0.425722	0.169539	0.351602	0.583231	0.692510	0.185095	0.349106	0.192574	0.211256	0.322614	0.349904	0.331964	0.544542	0.164527	0.268208	0.366534	0.343778	0.665267	0.205362	0.449029	0.571247	0.167319	0.266432	0.206017	0.340675	0.564565	0.107622	0.432512	0.579397	0.098860	0.176621	0.472528	0.340434	0.142496	0.304819	0.545712	0.579834	0.404368	0.154418	0.125902	0.273996	0.431088	0.166025	0.329820	0.602078	0.175257	0.257159	0.209627	0.242977
43	0.199836	0.405725	0.328943	0.488764	0.173257	0.460933	0.407588	0.383664	0.303232	0.600020	0.396683	0.454664	0.296594	0.224266	0.489521	0.341884	0.128916	0.372249	0.584991	0.677623	0.184186	0.486649	0.213990	0.188355	0.327315	0.350267	0.304998	0.544090	0.162638	0.256772	0.372472	0.334857	0.623922	0.201566	0.497474	0.547796	0.164413	0.256612	0.295041	0.357816	0.551308	0.088119	0.508742	0.578900	0.076357	0.212769	0.471986	0.336621	0.143617	0.322817	0.568669	0.570103	0.324803	0.153961	0.122220	0.272154	0.406169	0.261015	0.353987	0.643576	0.177623	0.302593	0.191692	0.284294
44	0.232600	0.318458	0.335756	0.515339	0.157566	0.493106	0.381747	0.394989	0.309142	0.561907	0.382282	0.569169	0.104266	0.260340	0.491076	0.285674	0.130472	0.377510	0.570005	0.660614	0.143554	0.528129	0.212104	0.151819	0.327060	0.348245	0.306681	0.527090	0.162351	0.258264	0.346397	0.334893	0.608222	0.187635	0.588240	0.510321	0.162143	0.271978	0.354568	0.360943	0.497123	0.096871	0.526022	0.580661	0.061649	0.226307	0.469286	0.312875	0.159295	0.338273	0.572643	0.503109	0.294561	0.166829	0.158346	0.286990	0.380889	0.330508	0.409812	0.650889	0.189266	0.321633	0.254625	0.293422
45	0.261009	0.316274	0.360709	0.575522	0.193558	0.500767	0.274066	0.398422	0.316497	0.508268	0.327938	0.692514	0.100522	0.235409	0.490765	0.275816	0.130252	0.382040	0.503333	0.586633	0.111204	0.651561	0.215364	0.149140	0.329429	0.348676	0.355478	0.543054	0.158894	0.266507	0.335124	0.324098	0.463340	0.169888	0.598861	0.529904	0.158895	0.178423	0.557309	0.349254	0.128608	0.101422	0.516953	0.559990	0.066251	0.222969	0.454371	0.305988	0.174772	0.392127	0.574758	0.479453	0.295850	0.169557	0.194517	0.224917	0.342057	0.432761	0.436305	0.645595	0.203038	0.329699	0.246777	0.300169
46	0.269401	0.294285	0.389195	0.583428	0.388351	0.496139	0.275079	0.318651	0.359440	0.447427	0.299541	0.702569	0.091181	0.230920	0.483992	0.244895	0.128264	0.390210	0.436616	0.541031	0.106885	0.698349	0.216932	0.183402	0.355791	0.343744	0.374148	0.570766	0.143559	0.281657	0.322675	0.316238	0.440630	0.180895	0.595362	0.554715	0.149963	0.162668	0.594633	0.268097	0.131591	0.164157	0.522275	0.550628	0.066177	0.292930	0.415751	0.288332	0.207949	0.546960	0.574365	0.426050	0.304514	0.170604	0.202497	0.221341	0.296752	0.437840	0.439194	0.605846	0.215754	0.319905	0.268892	0.288666
47	0.267676	0.236891	0.417660	0.554208	0.393488	0.522030	0.256304	0.316018	0.375103	0.284834	0.368727	0.756339	0.096849	0.241908	0.478636	0.247046	0.127569	0.381555	0.426019	0.534690	0.156180	0.696584	0.229113	0.228472	0.397315	0.334941	0.478932	0.577949	0.126810	0.278612	0.305884	0.315174	0.420844	0.234002	0.677892	0.554208	0.160821	0.165064	0.596733	0.251594	0.254975	0.218426	0.514648	0.479711	0.069868	0.332471	0.392972	0.321559	0.310846	0.656949	0.568136	0.435617	0.309009	0.174203	0.212574	0.218816	0.261242	0.460369	0.429196	0.504088	0.207937	0.322880	0.316001	0.275764
48	0.267168	0.195960	0.448568	0.525330	0.402813	0.578454	0.242949	0.306201	0.380925	0.264603	0.438173	0.878380	0.106533	0.279520	0.468733	0.227756	0.127747	0.336984	0.433099	0.500087	0.240495	0.696436	0.224722	0.241929	0.433597	0.288139	0.554506	0.571297	0.113002	0.280508	0.301470	0.276339	0.403672	0.330130	0.717385	0.540300	0.147049	0.237839	0.600405	0.246463	0.320412	0.239993	0.512683	0.406671	0.067853	0.347203	0.385732	0.482977	0.335642	0.667623	0.520082	0.442596	0.302223	0.182040	0.214180	0.223725	0.266375	0.493932	0.403387	0.462578	0.197618	0.338610	0.356822	0.243959
49	0.277606	0.174920	0.448117	0.514541	0.412124	0.553175	0.178506	0.302279	0.389465	0.267157	0.445982	0.912604	0.103720	0.293832	0.419981	0.191373	0.125730	0.297826	0.433168	0.452832	0.287550	0.699259	0.219678	0.244929	0.539584	0.233731	0.557056	0.555072	0.091099	0.279353	0.285639	0.201837	0.378080	0.346208	0.689723	0.538969	0.183449	0.287702	0.606047	0.233229	0.321294	0.241268	0.516564	0.399519	0.080544	0.340283	0.322089	0.496080	0.341456	0.663157	0.461965	0.428989	0.298413	0.181268	0.213115	0.225129	0.262069	0.501912	0.324719	0.425012	0.197536	0.328997	0.428319	0.280396
50	0.277407	0.185043	0.412761	0.581288	0.423041	0.493234	0.177730	0.309971	0.382783	0.273536	0.449577	0.912467	0.088854	0.292723	0.389346	0.174122	0.118758	0.281238	0.356975	0.378804	0.318204	0.699289	0.212888	0.237816	0.570078	0.231819	0.545596	0.506003	0.095494	0.255344	0.279718	0.171841	0.377974	0.460122	0.677605	0.524581	0.307209	0.394001	0.593649	0.164937	0.335735	0.262572	0.512802	0.400072	0.129861	0.337227	0.312454	0.549824	0.342356	0.656943	0.466118	0.454381	0.276747	0.173268	0.211403	0.225169	0.259621	0.507441	0.306162	0.293117	0.189836	0.335407	0.492473	0.298458
51	0.279206	0.205023	0.409709	0.658523	0.432915	0.450072	0.179331	0.320751	0.328813	0.275016	0.450883	0.934315	0.097637	0.323398	0.184536	0.170875	0.120692	0.338525	0.248594	0.306539	0.350731	0.700487	0.213104	0.251304	0.571711	0.227382	0.542807	0.492841	0.171814	0.213888	0.241698	0.164218	0.330884	0.502463	0.675347	0.451026	0.314727	0.439603	0.542581	0.130838	0.354090	0.326046	0.478091	0.386870	0.145869	0.342164	0.347023	0.639173	0.347178	0.658351	0.511819	0.434702	0.267669	0.247285	0.216258	0.224491	0.254804	0.462816	0.283424	0.193860	0.173159	0.355695	0.495755	0.381589
52	0.281015	0.207047	0.455735	0.698793	0.431274	0.446653	0.180092	0.325759	0.284587	0.260257	0.440219	0.926693	0.106378	0.329514	0.116996	0.172006	0.118816	0.357952	0.210661	0.324314	0.363736	0.699644	0.214502	0.317030	0.588003	0.234164	0.543970	0.402745	0.217926	0.212288	0.167002	0.157369	0.326196	0.537238	0.664116	0.497177	0.316584	0.472419	0.484174	0.136283	0.377706	0.344881	0.407753	0.415345	0.152342	0.316846	0.376190	0.694876	0.365508	0.667980	0.603509	0.395381	0.261410	0.252259	0.213502	0.220548	0.237681	0.414363	0.202528	0.167330	0.162810	0.432879	0.478695	0.403829
53	0.278373	0.206058	0.505718	0.676134	0.431061	0.445209	0.184774	0.401801	0.263619	0.200566	0.438619	0.840123	0.139354	0.298502	0.117382	0.181747	0.107682	0.422181	0.209770	0.353849	0.374900	0.681831	0.218378	0.328768	0.750953	0.219805	0.531095	0.339732	0.221415	0.214611	0.142205	0.153584	0.320650	0.545060	0.611562	0.561678	0.329862	0.472462	0.255420	0.220788	0.378188	0.345286	0.457443	0.423810	0.239048	0.299941	0.397061	0.704368	0.368590	0.685396	0.722169	0.391466	0.333679	0.266834	0.213323	0.211684	0.221294	0.331623	0.133022	0.165422	0.134489	0.431298	0.506461	0.399270
54	0.262223	0.215313	0.523634	0.659983	0.421332	0.374861	0.193053	0.452906	0.258330	0.158183	0.439295	0.689237	0.195295	0.301446	0.118150	0.186489	0.106467	0.467941	0.209121	0.354158	0.383827	0.607825	0.236109	0.330003	0.777036	0.140984	0.521423	0.344528	0.284915	0.212550	0.139994	0.170573	0.322000	0.551603	0.519072	0.559260	0.332747	0.483994	0.225299	0.383424	0.393900	0.350310	0.489909	0.383042	0.239755	0.318220	0.401495	0.703525	0.374764	0.714096	0.790576	0.406173	0.431815	0.266011	0.213430	0.164900	0.190338	0.361976	0.120466	0.165893	0.117044	0.416172	0.615907	0.421337
55	0.248259	0.232962	0.536491	0.657033	0.402189	0.375458	0.219139	0.446715	0.168028	0.162346	0.450331	0.662583	0.231108	0.299756	0.129448	0.203940	0.108328	0.476481	0.200449	0.366353	0.388973	0.508457	0.232778	0.346722	0.820405	0.142039	0.518159	0.358197	0.378555	0.197896	0.139572	0.168493	0.273452	0.650336	0.516012	0.532858	0.326625	0.484652	0.240697	0.402004	0.413460	0.343388	0.533892	0.390040	0.239796	0.287984	0.400415	0.687919	0.376223	0.731243	0.799659	0.451638	0.472949	0.258202	0.188864	0.108592	0.140872	0.352782	0.128238	0.175626	0.095632	0.430591	0.620468	0.462878
56	0.205278	0.234980	0.537945	0.649519	0.216384	0.363285	0.267100	0.433818	0.147584	0.194416	0.401692	0.627134	0.316324	0.281709	0.129714	0.228017	0.116144	0.574786	0.196485	0.369690	0.388585	0.464810	0.227990	0.376030	0.823432	0.141010	0.498366	0.355021	0.398950	0.170859	0.140098	0.176255	0.237895	0.710120	0.464479	0.505814	0.342836	0.442879	0.285622	0.435258	0.406122	0.397982	0.591441	0.404297	0.245196	0.232993	0.384807	0.659344	0.373168	0.689036	0.861577	0.465689	0.495538	0.254710	0.159637	0.116464	0.059389	0.290398	0.128410	0.174397	0.095242	0.427108	0.679361	0.467988
57	0.188936	0.240238	0.525065	0.607400	0.210472	0.196320	0.277030	0.465137	0.123648	0.219122	0.320927	0.502961	0.329864	0.257997	0.175943	0.217346	0.127926	0.628744	0.207838	0.350821	0.384201	0.292208	0.231887	0.379066	0.810285	0.133865	0.500386	0.288683	0.400838	0.187526	0.144750	0.217451	0.224794	0.683910	0.334990	0.529603	0.263863	0.537597	0.286085	0.543620	0.365073	0.403500	0.608355	0.402149	0.246195	0.220443	0.360613	0.543814	0.357488	0.546948	0.907598	0.443442	0.772413	0.250326	0.159978	0.119029	0.098167	0.268740	0.146974	0.167234	0.094127	0.520546	0.714901	0.455762
58	0.129696	0.241790	0.503830	0.549197	0.179421	0.171363	0.402002	0.524288	0.089225	0.210104	0.293539	0.350284	0.329849	0.264707	0.213015	0.224198	0.115762	0.632527	0.208771	0.287418	0.384490	0.246497	0.216651	0.355756	0.799727	0.133468	0.453841	0.233775	0.400045	0.169664	0.160937	0.242713	0.186579	0.686616	0.267947	0.538159	0.245800	0.497647	0.306404	0.578338	0.356819	0.397886	0.605264	0.389260	0.243288	0.217067	0.319362	0.525244	0.251794	0.448824	0.941819	0.430452	0.787738	0.247345	0.154166	0.123243	0.123589	0.265750	0.146523	0.173470	0.082412	0.518612	0.656844	0.442500
59	0.128512	0.245276	0.470037	0.544727	0.166859	0.177150	0.459548	0.527980	0.074855	0.197543	0.290140	0.356965	0.333118	0.248736	0.235602	0.232604	0.110697	0.633527	0.206644	0.271542	0.357032	0.251036	0.216388	0.334367	0.773352	0.133231	0.345033	0.233321	0.399303	0.143757	0.173867	0.227224	0.174972	0.656557	0.246009	0.537615	0.243883	0.480726	0.305778	0.578498	0.364071	0.404233	0.605084	0.369533	0.269036	0.263395	0.295661	0.498740	0.237160	0.414534	0.953349	0.407037	0.786741	0.246039	0.149643	0.120552	0.126305	0.280793	0.151815	0.167502	0.074341	0.513036	0.643756	0.408444
60	0.125595	0.245040	0.430881	0.577944	0.120507	0.174890	0.461424	0.530166	0.075586	0.236894	0.358671	0.326031	0.332177	0.212475	0.286179	0.234667	0.109784	0.635145	0.248734	0.298392	0.305376	0.251079	0.212426	0.331314	0.733681	0.133217	0.328390	0.228874	0.392894	0.128265	0.163843	0.241609	0.109148	0.604511	0.242103	0.534446	0.241401	0.459618	0.314984	0.576864	0.334829	0.361383	0.588835	0.368394	0.270340	0.308017	0.255453	0.376584	0.227957	0.406983	0.962107	0.398796	0.787997	0.246662	0.157140	0.122674	0.129364	0.274729	0.147127	0.248855	0.088995	0.440927	0.655138	0.338134
61	0.124359	0.247773	0.399736	0.771684	0.082692	0.159303	0.461531	0.579790	0.073810	0.269573	0.417912	0.317513	0.327782	0.213044	0.292653	0.263465	0.107143	0.605987	0.270952	0.299229	0.269365	0.232496	0.200359	0.353158	0.684797	0.134852	0.349331	0.234209	0.367505	0.131122	0.145740	0.290716	0.081805	0.572792	0.242104	0.502903	0.217151	0.462033	0.314175	0.507683	0.305992	0.338484	0.583351	0.318137	0.262566	0.312006	0.214626	0.247795	0.219317	0.411049	0.958260	0.353647	0.789551	0.245485	0.168888	0.145319	0.134591	0.259201	0.145595	0.259755	0.094417	0.402522	0.654235	0.304843
62	0.123587	0.266900	0.411713	0.977827	0.078808	0.182636	0.469644	0.601060	0.070002	0.313929	0.419478	0.328123	0.296096	0.210001	0.303671	0.250296	0.105648	0.600373	0.272672	0.267301	0.265790	0.219133	0.198351	0.378528	0.676217	0.137513	0.357730	0.237673	0.363508	0.130460	0.151749	0.305101	0.119902	0.556371	0.238665	0.408832	0.216518	0.472516	0.301108	0.433274	0.324083	0.360980	0.520882	0.230607	0.197952	0.323798	0.179761	0.201143	0.189539	0.403963	0.922804	0.341578	0.792786	0.166268	0.163414	0.180370	0.177693	0.183683	0.145757	0.281142	0.094074	0.399345	0.590926	0.350740
63	0.135349	0.277167	0.479778	1.077339	0.056420	0.168494	0.487304	0.522677	0.075650	0.335662	0.434805	0.323701	0.283570	0.204542	0.313989	0.253023	0.107831	0.517398	0.272289	0.251203	0.222288	0.210320	0.197684	0.361764	0.671821	0.131468	0.355288	0.216683	0.349016	0.123304	0.180591	0.298941	0.117000	0.554447	0.220858	0.366010	0.234542	0.480861	0.260602	0.437382	0.317264	0.359054	0.445263	0.179082	0.194519	0.307143	0.185737	0.205428	0.136818	0.385272	0.818038	0.342704	0.793138	0.176831	0.155698	0.191293	0.216967	0.169596	0.161463	0.303598	0.097965	0.441335	0.500359	0.326361
64	0.141254	0.298576	0.535778	1.041827	0.062220	0.170909	0.485858	0.516304	0.076093	0.338284	0.411827	0.310231	0.150426	0.200007	0.340046	0.233706	0.103189	0.505065	0.272619	0.315685	0.301264	0.209088	0.192981	0.316073	0.568640	0.117946	0.354267	0.208254	0.306054	0.121669	0.186371	0.300161	0.115472	0.521352	0.184550	0.360977	0.164754	0.447961	0.235534	0.432365	0.310063	0.363729	0.431411	0.192759	0.199132	0.297232	0.183838	0.206677	0.124122	0.315784	0.673506	0.339596	0.767745	0.188014	0.156530	0.194266	0.380650	0.312766	0.168923	0.359198	0.094589	0.435312	0.470114	0.273837
65	0.145498	0.311348	0.594823	1.071736	0.078143	0.190260	0.466177	0.559508	0.076682	0.344868	0.393391	0.315133	0.109211	0.192207	0.336185	0.243156	0.090833	0.419702	0.294782	0.338047	0.320700	0.208826	0.168456	0.316828	0.445887	0.106915	0.354205	0.219005	0.180594	0.119865	0.187253	0.298375	0.117885	0.370654	0.132223	0.319260	0.165100	0.324221	0.225662	0.345558	0.287373	0.313913	0.303506	0.166072	0.191598	0.288564	0.183638	0.201307	0.097834	0.222223	0.606354	0.352791	0.719717	0.261284	0.156880	0.191781	0.384302	0.331480	0.155485	0.367524	0.095876	0.419540	0.333038	0.272032
66	0.149039	0.302977	0.658968	1.162390	0.080571	0.192878	0.438088	0.566188	0.077404	0.349884	0.392695	0.335597	0.088829	0.195747	0.363621	0.240452	0.087682	0.320224	0.297585	0.469340	0.323877	0.206020	0.119222	0.315546	0.415654	0.099772	0.352202	0.240851	0.176770	0.072025	0.193448	0.298490	0.136806	0.283988	0.114090	0.255529	0.164116	0.272637	0.262706	0.326589	0.272969	0.246152	0.186632	0.137178	0.189954	0.281145	0.181961	0.199555	0.062919	0.168261	0.576258	0.348106	0.670589	0.265660	0.152316	0.186994	0.374377	0.329176	0.163084	0.382709	0.101325	0.306576	0.258099	0.290331
67	0.149187	0.310209	0.658172	1.288404	0.081092	0.234286	0.431992	0.518421	0.078723	0.346867	0.423395	0.308937	0.086049	0.206890	0.380146	0.216552	0.091832	0.379613	0.326260	0.516059	0.368831	0.201194	0.111357	0.282383	0.347906	0.099067	0.342524	0.382355	0.175121	0.068102	0.193559	0.285437	0.223936	0.225586	0.099101	0.181626	0.160192	0.293943	0.253995	0.357910	0.231505	0.236985	0.130774	0.159638	0.193346	0.281540	0.183724	0.175854	0.040880	0.175347	0.502099	0.352574	0.652356	0.271536	0.142603	0.182898	0.377486	0.324295	0.159127	0.383805	0.125011	0.337891	0.259755	0.293413
68	0.157838	0.322534	0.727532	1.376272	0.080368	0.248734	0.307790	0.478783	0.086829	0.353285	0.432196	0.298425	0.072191	0.211050	0.339931	0.247923	0.124160	0.456227	0.346651	0.596146	0.541010	0.179051	0.115824	0.252370	0.354058	0.099179	0.336277	0.409472	0.178008	0.066060	0.169730	0.267886	0.273404	0.198463	0.060365	0.200836	0.161124	0.329065	0.303995	0.382765	0.230198	0.236252	0.148008	0.270237	0.162563	0.259324	0.165687	0.183406	0.038276	0.172913	0.456511	0.359185	0.264476	0.388573	0.129360	0.188071	0.389520	0.334364	0.161570	0.332652	0.263952	0.343024	0.219688	0.282868
69	0.180096	0.389850	0.804080	1.404147	0.088746	0.246928	0.254449	0.483405	0.131836	0.341087	0.402822	0.278633	0.053996	0.198886	0.326318	0.253498	0.138957	0.509064	0.358288	0.712136	0.557079	0.157128	0.140945	0.250512	0.360256	0.090738	0.337050	0.411217	0.177175	0.066501	0.165166	0.265995	0.311718	0.173163	0.155378	0.214611	0.171755	0.345493	0.344981	0.392556	0.229700	0.211245	0.151168	0.331238	0.162897	0.196089	0.159550	0.180491	0.048159	0.163679	0.418997	0.342330	0.209450	0.389836	0.118710	0.187720	0.391973	0.339883	0.195543	0.348694	0.331084	0.326352	0.203721	0.277329
70	0.228602	0.483563	0.853920	1.412478	0.108913	0.287317	0.248035	0.457732	0.215816	0.327358	0.286132	0.262795	0.053673	0.188471	0.333172	0.254269	0.141609	0.505704	0.309094	0.745157	0.557504	0.155124	0.148552	0.260455	0.360953	0.085541	0.397301	0.424114	0.144724	0.095280	0.163843	0.230568	0.365634	0.135911	0.286156	0.249006	0.179457	0.319407	0.354805	0.421170	0.231838	0.218100	0.150723	0.334217	0.227092	0.180467	0.148834	0.193133	0.085771	0.156940	0.411502	0.325653	0.211235	0.389571	0.114379	0.215460	0.439819	0.340485	0.298196	0.335408	0.731107	0.331651	0.194988	0.263247
71	0.270916	0.532191	0.905057	1.413232	0.117706	0.361490	0.245387	0.381298	0.225504	0.295508	0.283723	0.234809	0.058986	0.201231	0.320781	0.251269	0.176245	0.510687	0.379636	0.747572	0.560981	0.148565	0.175311	0.270012	0.475499	0.088490	0.390867	0.429861	0.129112	0.207648	0.159920	0.180718	0.417632	0.125144	0.369580	0.343789	0.178402	0.300501	0.357451	0.413589	0.250349	0.199016	0.156928	0.357992	0.300383	0.184101	0.138591	0.190633	0.092359	0.146408	0.387458	0.314570	0.210267	0.389808	0.110869	0.281286	0.438990	0.398093	0.332706	0.437958	0.767689	0.313396	0.197186	0.215604
72	0.292056	0.889676	0.932551	1.410139	0.115375	0.359840	0.221570	0.342093	0.232827	0.251459	0.260351	0.239727	0.058847	0.209041	0.289930	0.250231	0.205570	0.522425	0.391760	0.766551	0.561466	0.159608	0.179217	0.265258	0.460054	0.094408	0.372091	0.437368	0.120460	0.215048	0.131063	0.179265	0.444848	0.141485	0.384260	0.336206	0.167761	0.317351	0.345023	0.396625	0.235470	0.182527	0.179604	0.444524	0.350814	0.179422	0.129703	0.201681	0.094756	0.127194	0.366147	0.356678	0.208373	0.397542	0.137114	0.290197	0.322485	0.315025	0.332355	0.515799	0.768572	0.240290	0.217503	0.223122
73	0.293228	1.022138	0.941387	1.359994	0.119528	0.370036	0.202188	0.335120	0.315383	0.271399	0.252250	0.379148	0.059839	0.209852	0.288133	0.255905	0.205532	0.529136	0.433592	0.797158	0.558038	0.201872	0.179714	0.228695	0.405883	0.128678	0.387084	0.451012	0.075651	0.261234	0.098524	0.171183	0.553021	0.148640	0.524221	0.338717	0.138824	0.365221	0.307529	0.360912	0.241870	0.184429	0.237462	0.582088	0.379013	0.172515	0.188110	0.206799	0.123256	0.115913	0.342757	0.415557	0.196187	0.397955	0.163897	0.274966	0.302815	0.277638	0.371246	0.511850	0.773295	0.230395	0.208763	0.223519
74	0.307585	1.035996	0.940469	1.218066	0.125233	0.403217	0.203349	0.280243	0.320538	0.293226	0.263283	0.463325	0.059166	0.195992	0.240211	0.247581	0.209240	0.528732	0.501440	0.774815	0.550702	0.214104	0.178507	0.190784	0.405662	0.170053	0.396201	0.475727	0.065922	0.395455	0.095137	0.166822	0.577769	0.164462	0.558995	0.362702	0.139308	0.381949	0.323315	0.340988	0.247811	0.164514	0.241096	0.636042	0.390132	0.169963	0.285821	0.277759	0.137346	0.104412	0.377293	0.454153	0.192244	0.384388	0.196990	0.293972	0.320144	0.280579	0.424809	0.568826	0.776161	0.217187	0.195264	0.229327
75	0.320331	1.048533	0.921198	1.042564	0.143354	0.442823	0.202135	0.178519	0.318332	0.312211	0.289193	0.442339	0.067239	0.290732	0.170303	0.241162	0.222735	0.531372	0.486659	0.781609	0.541159	0.232645	0.182010	0.176790	0.451646	0.189087	0.429782	0.484326	0.066145	0.404130	0.092946	0.154968	0.605263	0.195897	0.570255	0.414102	0.139725	0.377077	0.328501	0.318748	0.247371	0.171630	0.294292	0.657158	0.487004	0.167697	0.312252	0.315864	0.164586	0.124083	0.390908	0.447748	0.178728	0.366171	0.205073	0.342838	0.354522	0.279311	0.444975	0.668644	0.779002	0.213467	0.208346	0.226325
76	0.341221	1.044736	0.875609	0.988696	0.169969	0.474784	0.192526	0.170769	0.322501	0.356787	0.328518	0.429103	0.082244	0.332319	0.193607	0.249222	0.280920	0.522569	0.522954	0.721462	0.495265	0.234595	0.185531	0.177903	0.480578	0.191900	0.471749	0.483751	0.068679	0.404823	0.063628	0.114132	0.615061	0.200450	0.595221	0.453896	0.140531	0.370053	0.259720	0.302213	0.242800	0.193237	0.364555	0.680547	0.488797	0.179072	0.331213	0.368867	0.222113	0.130128	0.390135	0.415378	0.165762	0.317867	0.238958	0.365053	0.367079	0.267255	0.484808	0.687506	0.769769	0.146884	0.213244	0.234631
77	0.348896	1.036871	0.818217	0.990899	0.182577	0.458559	0.175776	0.247595	0.323467	0.365033	0.325418	0.431288	0.079910	0.458335	0.201973	0.212102	0.278119	0.454260	0.597241	0.716196	0.502609	0.236072	0.193391	0.167586	0.490464	0.192514	0.487289	0.477889	0.165021	0.406975	0.058876	0.094262	0.599963	0.221070	0.610413	0.451252	0.127753	0.385264	0.222635	0.311748	0.317865	0.205834	0.379320	0.675217	0.484462	0.175907	0.333319	0.361856	0.278392	0.113671	0.385312	0.373257	0.158108	0.314018	0.267468	0.371528	0.373767	0.262658	0.497551	0.716503	0.737811	0.317937	0.198409	0.247858
78	0.362034	1.039927	0.736693	0.988867	0.208587	0.467761	0.191065	0.271336	0.315589	0.399947	0.324061	0.503380	0.081389	0.473981	0.179992	0.198211	0.275579	0.500671	0.610741	0.601954	0.527097	0.235049	0.192253	0.160462	0.517991	0.288992	0.488082	0.399370	0.244463	0.413560	0.036171	0.120858	0.614087	0.228715	0.611250	0.450242	0.102235	0.436731	0.229164	0.277151	0.317296	0.209576	0.379770	0.662186	0.470488	0.160937	0.332756	0.419887	0.292448	0.180334	0.362314	0.427452	0.106268	0.318378	0.270179	0.377175	0.375808	0.265640	0.461720	0.720052	0.703305	0.481432	0.202315	0.229078
79	0.390184	1.057394	0.708149	1.001194	0.230552	0.473994	0.194415	0.257014	0.272053	0.398427	0.324868	0.521641	0.072125	0.473628	0.179315	0.197706	0.309006	0.566136	0.610275	0.479717	0.430659	0.224811	0.194529	0.190086	0.743192	0.296976	0.484605	0.316113	0.289167	0.421931	0.026688	0.124217	0.607575	0.243486	0.584270	0.455180	0.083513	0.462061	0.238084	0.224280	0.318487	0.206224	0.380130	0.697513	0.446007	0.165291	0.339516	0.486770	0.522918	0.375633	0.317861	0.489325	0.104920	0.239317	0.284038	0.373162	0.338991	0.166930	0.465213	0.670754	0.163482	0.581212	0.202073	0.231547
80	0.421945	1.076411	0.732816	0.938557	0.234726	0.410032	0.225157	0.255242	0.254250	0.399602	0.330624	0.548956	0.073246	0.468888	0.177216	0.193868	0.335735	0.613521	0.593405	0.463725	0.344562	0.221889	0.193271	0.253491	0.742491	0.298269	0.477880	0.323955	0.400859	0.410266	0.037262	0.123880	0.619536	0.247695	0.533044	0.422423	0.080366	0.451342	0.229300	0.222052	0.330111	0.213477	0.381895	0.741693	0.420421	0.144465	0.345646	0.500701	0.583667	0.448786	0.322050	0.511987	0.124285	0.307792	0.327101	0.372324	0.339361	0.165121	0.463752	0.587485	0.159382	0.730037	0.198270	0.215232
81	0.493916	1.086632	0.750763	0.857996	0.235149	0.389822	0.235635	0.278426	0.252698	0.397891	0.357477	0.599194	0.072543	0.467035	0.173599	0.164652	0.361013	0.602078	0.552978	0.483084	0.426307	0.209384	0.198221	0.299013	0.749547	0.304248	0.489649	0.392354	0.525549	0.379505	0.070905	0.124212	0.593739	0.242643	0.523376	0.395845	0.093135	0.418322	0.205083	0.253888	0.316930	0.231277	0.378355	0.733816	0.349857	0.138899	0.371342	0.503703	0.584980	0.449547	0.423367	0.521400	0.138475	0.310028	0.345620	0.356525	0.338587	0.163612	0.452553	0.606310	0.162982	0.750142	0.203334	0.224933
82	0.507022	1.064474	0.809749	0.845104	0.235004	0.376294	0.223656	0.376333	0.159749	0.388027	0.402421	0.591419	0.079668	0.467785	0.169405	0.165138	0.357738	0.592399	0.549882	0.458736	0.433171	0.209827	0.189847	0.289003	0.745936	0.316673	0.529835	0.394503	0.528246	0.388165	0.112244	0.148716	0.503738	0.251468	0.501981	0.412127	0.088941	0.411035	0.180129	0.255198	0.316521	0.223561	0.356832	0.649538	0.324614	0.140639	0.361504	0.501040	0.621195	0.452758	0.521143	0.521475	0.136970	0.350984	0.346122	0.305746	0.323667	0.162912	0.440082	0.558695	0.136327	0.750460	0.246405	0.247208
83	0.519442	1.041649	0.847648	0.877325	0.229487	0.358211	0.210582	0.400850	0.109292	0.439554	0.421418	0.503831	0.082625	0.433738	0.170253	0.300402	0.423479	0.591788	0.517530	0.446502	0.427802	0.213970	0.167709	0.284989	0.722176	0.319054	0.541512	0.388047	0.530966	0.253271	0.135546	0.158467	0.468235	0.279227	0.372142	0.398385	0.099220	0.383532	0.210027	0.260139	0.318410	0.219453	0.345016	0.566899	0.307804	0.128495	0.297274	0.475458	0.658637	0.454120	0.564841	0.510106	0.162088	0.343590	0.388146	0.286814	0.280744	0.142535	0.441450	0.532020	0.110095	0.755105	0.275789	0.252158
84	0.529354	0.989407	0.833281	0.918925	0.227142	0.327232	0.207507	0.407052	0.112644	0.431258	0.432513	0.493107	0.074309	0.390152	0.206784	0.408626	0.429880	0.594204	0.525266	0.440310	0.426482	0.187510	0.181699	0.284100	0.724260	0.313915	0.525066	0.379797	0.534461	0.200865	0.137798	0.178287	0.441620	0.265822	0.348857	0.387224	0.096891	0.385792	0.237171	0.295789	0.333753	0.237127	0.336841	0.571807	0.116702	0.136087	0.255935	0.445634	0.660572	0.478412	0.565236	0.458868	0.245973	0.350361	0.411985	0.295811	0.266504	0.151605	0.429472	0.533782	0.098042	0.773572	0.279316	0.244894
85	0.528246	0.585468	0.832074	1.013825	0.202453	0.212350	0.203046	0.456444	0.117978	0.450991	0.393806	0.500322	0.100650	0.326937	0.243683	0.406340	0.424958	0.597953	0.587341	0.403677	0.435023	0.152739	0.190970	0.295841	0.722233	0.292571	0.514228	0.387862	0.543479	0.200964	0.139419	0.181370	0.402557	0.263262	0.321925	0.320786	0.101359	0.324776	0.237598	0.320141	0.336237	0.228142	0.279444	0.650888	0.076716	0.132078	0.222290	0.413346	0.660294	0.510371	0.604325	0.441175	0.287338	0.356522	0.410411	0.280566	0.268744	0.215080	0.481838	0.488862	0.127473	0.782705	0.384060	0.254054
86	0.526687	0.573072	0.945975	1.070165	0.188559	0.184663	0.196726	0.503618	0.106379	0.449933	0.350607	0.514001	0.132354	0.245925	0.295163	0.437855	0.422393	0.585354	0.544095	0.371957	0.437489	0.130746	0.214030	0.307447	0.705944	0.276878	0.538466	0.389558	0.536149	0.204370	0.141905	0.197594	0.393396	0.294662	0.310453	0.298793	0.220901	0.312781	0.257555	0.330010	0.287728	0.227791	0.233248	0.641646	0.078861	0.138669	0.209167	0.408485	0.651220	0.528118	0.737207	0.442640	0.406376	0.357531	0.419580	0.215614	0.177822	0.232977	0.490976	0.478274	0.130673	0.706709	0.457817	0.283220
87	0.517859	0.538347	1.042974	1.087769	0.180389	0.138485	0.218587	0.502251	0.108216	0.444994	0.365089	0.623932	0.170163	0.232189	0.367000	0.477261	0.463359	0.581754	0.467652	0.368427	0.434019	0.113974	0.214710	0.319829	0.675702	0.268737	0.510103	0.405706	0.504795	0.207774	0.153901	0.209357	0.356801	0.277350	0.387439	0.339014	0.246893	0.287879	0.256697	0.326881	0.251602	0.242165	0.251685	0.644239	0.079007	0.142789	0.222443	0.396517	0.634363	0.541955	0.792492	0.461851	0.522730	0.358889	0.403249	0.198839	0.176364	0.243873	0.485731	0.480756	0.133456	0.651487	0.483940	0.294905
88	0.505668	0.523277	1.092123	1.086723	0.117089	0.112610	0.291386	0.503429	0.128853	0.425504	0.429977	0.667440	0.231825	0.224822	0.493545	0.487917	0.468103	0.456566	0.516336	0.392312	0.427005	0.110743	0.210437	0.340372	0.664432	0.271941	0.485834	0.495402	0.479658	0.215421	0.179664	0.204803	0.314701	0.296509	0.444806	0.354617	0.245050	0.285133	0.256573	0.295154	0.256086	0.248758	0.316620	0.598287	0.079338	0.132963	0.254791	0.297377	0.613851	0.549701	0.801004	0.492385	0.605021	0.367753	0.384841	0.205649	0.173949	0.255356	0.517570	0.478119	0.134303	0.487351	0.502773	0.308576
89	0.498256	0.521311	1.119852	1.077818	0.111235	0.091846	0.297227	0.501258	0.119571	0.421854	0.515191	0.666561	0.259506	0.224976	0.511569	0.493553	0.444658	0.309704	0.591793	0.409920	0.404204	0.110605	0.211944	0.354947	0.641073	0.236427	0.480290	0.530908	0.464887	0.221124	0.212175	0.199200	0.221429	0.300061	0.491093	0.342191	0.265062	0.280191	0.246916	0.278944	0.259809	0.275822	0.339170	0.550957	0.072583	0.133815	0.303293	0.267574	0.596781	0.515041	0.799575	0.426420	0.720306	0.371487	0.384934	0.197753	0.173353	0.256441	0.601701	0.476126	0.127977	0.344700	0.598607	0.308248
90	0.495011	0.520299	1.126103	1.043667	0.083859	0.091389	0.272480	0.500341	0.124575	0.423019	0.580288	0.642167	0.257291	0.225990	0.511785	0.493571	0.439984	0.259343	0.609578	0.395176	0.358620	0.112840	0.216621	0.352790	0.502734	0.163804	0.480301	0.538521	0.186014	0.233866	0.213319	0.202401	0.163438	0.296054	0.549565	0.330970	0.301181	0.271772	0.212746	0.276606	0.272411	0.261578	0.352314	0.500546	0.061424	0.141390	0.324554	0.261961	0.392211	0.408684	0.807057	0.380983	0.981185	0.334636	0.384386	0.202531	0.185204	0.256255	0.573812	0.476376	0.125593	0.336857	0.722564	0.291145
91	0.486658	0.507100	1.124477	0.930050	0.082332	0.086835	0.269201	0.466646	0.154564	0.423035	0.566648	0.679725	0.258586	0.222580	0.511805	0.478492	0.420405	0.254618	0.620742	0.354150	0.331935	0.113515	0.216714	0.327499	0.341788	0.166498	0.484022	0.541048	0.163427	0.238879	0.206631	0.204623	0.164984	0.289887	0.536315	0.354213	0.303231	0.264580	0.195679	0.253723	0.436290	0.254031	0.401709	0.492879	0.070305	0.144806	0.315547	0.268787	0.343656	0.356274	0.834543	0.356848	0.999700	0.272818	0.374699	0.198597	0.188855	0.266369	0.551419	0.420231	0.129976	0.348722	0.744153	0.281795
92	0.451194	0.463659	1.108340	0.759574	0.082771	0.079206	0.270686	0.405179	0.171736	0.386558	0.566881	0.725869	0.271425	0.227077	0.494299	0.352888	0.417933	0.251445	0.622753	0.355496	0.282045	0.104447	0.204154	0.266917	0.333123	0.165554	0.521612	0.512963	0.148493	0.236283	0.187049	0.186922	0.161894	0.266685	0.538885	0.406372	0.311615	0.291083	0.158072	0.193755	0.438303	0.296545	0.419705	0.493204	0.068908	0.146104	0.387335	0.268469	0.351386	0.363277	0.833594	0.359397	1.007833	0.266300	0.389670	0.190940	0.161432	0.266332	0.585140	0.440767	0.138655	0.338879	0.728167	0.291288
93	0.398274	0.423309	1.048569	0.729227	0.081910	0.099997	0.272959	0.393778	0.180098	0.329780	0.596361	0.738208	0.285058	0.197358	0.478352	0.407420	0.343596	0.249960	0.608885	0.398850	0.146070	0.094729	0.176736	0.238295	0.296542	0.127146	0.477734	0.475445	0.145725	0.230675	0.184478	0.178693	0.133164	0.248577	0.564086	0.419333	0.298238	0.354289	0.145466	0.197071	0.437109	0.316989	0.431183	0.495448	0.065138	0.146667	0.420425	0.259352	0.268616	0.364800	0.778501	0.347000	1.008450	0.204826	0.403317	0.197698	0.130351	0.221385	0.675414	0.476462	0.142401	0.306521	0.720346	0.291228
94	0.366593	0.397770	0.959496	0.728555	0.078173	0.101694	0.272405	0.370779	0.198747	0.275252	0.655581	0.734367	0.270488	0.168229	0.458062	0.392105	0.330740	0.238451	0.562736	0.549367	0.220836	0.076395	0.175243	0.245054	0.228556	0.124094	0.426980	0.475102	0.094537	0.233366	0.185550	0.166662	0.123428	0.249471	0.580890	0.419451	0.245113	0.432632	0.134315	0.191636	0.451259	0.300801	0.436092	0.351358	0.054463	0.148612	0.427628	0.250238	0.209856	0.366578	0.767690	0.347862	1.004915	0.198119	0.359066	0.208941	0.130203	0.238864	0.673435	0.494710	0.147453	0.359746	0.668233	0.270541
95	0.360034	0.339688	0.855991	0.698130	0.078044	0.109263	0.273177	0.281941	0.217880	0.219386	0.697370	0.744879	0.279638	0.151140	0.473792	0.351634	0.307701	0.194193	0.550411	0.581686	0.271628	0.071419	0.170770	0.265899	0.231667	0.124005	0.421025	0.509285	0.089463	0.231382	0.183160	0.153476	0.120688	0.220684	0.580237	0.431145	0.238482	0.428938	0.193221	0.199897	0.458698	0.297280	0.426684	0.307111	0.049369	0.146057	0.429889	0.247583	0.180436	0.339927	0.759950	0.367672	0.988409	0.179972	0.337988	0.206339	0.145023	0.302015	0.668928	0.569105	0.168789	0.444008	0.632912	0.250461
96	0.304043	0.339711	0.803659	0.661815	0.073537	0.132233	0.271236	0.173340	0.249714	0.208412	0.708832	0.718641	0.231640	0.171439	0.332707	0.312966	0.263388	0.211784	0.606784	0.593347	0.274519	0.067807	0.160164	0.277170	0.423078	0.149526	0.413446	0.513035	0.088894	0.222569	0.178606	0.121937	0.108688	0.195532	0.555631	0.422315	0.275210	0.426487	0.238314	0.242324	0.540901	0.286020	0.431525	0.276307	0.050282	0.138430	0.425779	0.175241	0.179766	0.295879	0.689650	0.361054	0.978409	0.167474	0.321886	0.200069	0.142901	0.306039	0.670430	0.587848	0.170106	0.520496	0.620039	0.234321
97	0.287976	0.341645	0.791358	0.618697	0.059814	0.138363	0.192965	0.191422	0.553575	0.177046	0.685796	0.665310	0.187094	0.203353	0.337615	0.308127	0.243022	0.261877	0.685829	0.680689	0.258400	0.066747	0.159059	0.332068	0.433164	0.179704	0.391884	0.498864	0.053699	0.208589	0.162269	0.096311	0.194163	0.211969	0.483143	0.442544	0.230205	0.429246	0.263885	0.253458	0.546167	0.271984	0.381955	0.272310	0.050107	0.138206	0.405226	0.164530	0.196467	0.256255	0.562725	0.361529	0.939586	0.165481	0.305836	0.203147	0.138505	0.300397	0.688357	0.583284	0.177749	0.578620	0.616810	0.212410
98	0.284988	0.314952	0.720009	0.549206	0.048962	0.135971	0.099213	0.213803	0.585061	0.171304	0.655703	0.647993	0.186080	0.226783	0.332917	0.312082	0.247617	0.268996	0.627635	0.695437	0.354786	0.073851	0.213787	0.348262	0.440664	0.198705	0.359803	0.567670	0.038003	0.160283	0.117007	0.095066	0.229602	0.173525	0.459012	0.512381	0.210588	0.432683	0.262165	0.256108	0.555829	0.265616	0.420216	0.273837	0.053659	0.179911	0.372174	0.155896	0.226237	0.227091	0.504372	0.337359	0.887986	0.162806	0.303767	0.180350	0.123133	0.306320	0.702401	0.628371	0.190621	0.575019	0.517528	0.203042
99	0.281443	0.306042	0.540569	0.696547	0.035499	0.133264	0.146916	0.218105	0.584013	0.168543	0.633754	0.674215	0.195597	0.244151	0.335106	0.334059	0.233008	0.277984	0.612771	0.707551	0.435944	0.078261	0.286184	0.334441	0.450053	0.213839	0.359176	0.655568	0.039872	0.146748	0.078608	0.097260	0.231837	0.237639	0.398604	0.538523	0.210412	0.418050	0.271963	0.258820	0.535489	0.226915	0.509039	0.277627	0.060625	0.268169	0.321184	0.143731	0.230340	0.205104	0.507715	0.290868	0.841527	0.141984	0.306249	0.159519	0.122445	0.322539	0.708359	0.595094	0.207490	0.562496	0.395764	0.247659
100	0.298043	0.317069	0.442755	0.742543	0.033514	0.153842	0.212496	0.218651	0.578987	0.175108	0.657999	0.664101	0.186375	0.225316	0.337006	0.323019	0.196965	0.304504	0.644872	0.712181	0.436383	0.077866	0.294720	0.326339	0.451437	0.224247	0.371785	0.659360	0.047483	0.176375	0.072566	0.083373	0.278747	0.257233	0.449790	0.539042	0.189473	0.406992	0.294147	0.214059	0.493686	0.230577	0.506324	0.272300	0.066414	0.300040	0.306315	0.125665	0.229533	0.180272	0.579123	0.291383	0.746829	0.108025	0.305772	0.155881	0.118300	0.330612	0.690953	0.567514	0.206746	0.553870	0.365500	0.242647
101	0.289012	0.349392	0.397453	0.749140	0.085336	0.195784	0.223145	0.214992	0.573733	0.170557	0.653369	0.595534	0.322219	0.223313	0.331630	0.225462	0.195230	0.334612	0.636534	0.708923	0.437240	0.080334	0.289174	0.319195	0.447744	0.228575	0.437211	0.670939	0.073792	0.225311	0.053107	0.070784	0.390799	0.328269	0.638427	0.497161	0.180139	0.261953	0.332137	0.191061	0.489445	0.231268	0.518887	0.276090	0.063999	0.354710	0.222786	0.122430	0.224656	0.187296	0.574766	0.296631	0.340313	0.073845	0.293750	0.147798	0.114049	0.329843	0.525495	0.549520	0.201594	0.557567	0.365028	0.242711
